P_0006
BeatCount Mean SD BeatCountNoOutliers MeanNoOutliers SDNoOutliers
1851 751,859535386278 62,5929686026052 1839 751,049483414899 61,1104229855109

Trial TrialStatus Trialtype IBI AbsPosition RelPosition Outlier
0 0 0 871 1531 -18746 0
0 0 0 872 2403 -17874 0
0 0 0 892 3295 -16982 0
0 0 0 834 4129 -16148 0
0 0 0 834 4963 -15314 0
0 0 0 839 5802 -14475 0
0 0 0 849 6651 -13626 0
0 0 0 825 7476 -12801 0
0 0 0 844 8320 -11957 0
0 0 0 858 9178 -11099 0
0 0 0 835 10013 -10264 0
0 0 0 814 10827 -9450 0
0 0 0 782 11609 -8668 0
0 0 0 719 12328 -7949 0
0 0 0 709 13037 -7240 0
0 0 0 740 13777 -6500 0
0 0 0 778 14555 -5722 0
0 0 0 859 15414 -4863 0
0 0 0 884 16298 -3979 0
0 0 0 903 17201 -3076 0
0 0 0 810 18011 -2266 0
1 1 S112 835 18846 -1431 0
1 1 S112 830 19676 -601 0
1 2 S112 818 20494 217 0
1 2 S112 790 21284 1007 0
1 2 S112 795 22079 1802 0
1 2 S112 795 22874 2597 0
1 2 S112 749 23623 3346 0
1 2 S112 745 24368 4091 0
1 2 S112 786 25154 4877 0
1 2 S112 787 25941 5664 0
1 2 S112 782 26723 6446 0
0 0 0 749 27472 -14970 0
0 0 0 712 28184 -14258 0
0 0 0 697 28881 -13561 0
0 0 0 732 29613 -12829 0
0 0 0 771 30384 -12058 0
0 0 0 803 31187 -11255 0
0 0 0 806 31993 -10449 0
0 0 0 843 32836 -9606 0
0 0 0 848 33684 -8758 0
0 0 0 777 34461 -7981 0
0 0 0 770 35231 -7211 0
0 0 0 753 35984 -6458 0
0 0 0 747 36731 -5711 0
0 0 0 701 37432 -5010 0
0 0 0 699 38131 -4311 0
0 0 0 707 38838 -3604 0
0 0 0 697 39535 -2907 0
0 0 0 714 40249 -2193 0
2 1 S102 737 40986 -1456 0
2 1 S102 745 41731 -711 0
2 1 S102 697 42428 -14 0
2 2 S102 702 43130 688 0
2 2 S102 749 43879 1437 0
2 2 S102 752 44631 2189 0
2 2 S102 803 45434 2992 0
2 2 S102 776 46210 3768 0
2 2 S102 728 46938 4496 0
2 2 S102 782 47720 5278 0
2 2 S102 787 48507 6065 0
2 2 S102 803 49310 6868 0
0 0 0 788 50098 -14029 0
0 0 0 729 50827 -13300 0
0 0 0 724 51551 -12576 0
0 0 0 766 52317 -11810 0
0 0 0 795 53112 -11015 0
0 0 0 862 53974 -10153 0
0 0 0 865 54839 -9288 0
0 0 0 840 55679 -8448 0
0 0 0 823 56502 -7625 0
0 0 0 847 57349 -6778 0
0 0 0 826 58175 -5952 0
0 0 0 791 58966 -5161 0
0 0 0 781 59747 -4380 0
0 0 0 796 60543 -3584 0
0 0 0 758 61301 -2826 0
0 0 0 734 62035 -2092 0
3 1 S116 795 62830 -1297 0
3 1 S116 823 63653 -474 0
3 2 S116 861 64514 387 0
3 2 S116 874 65388 1261 0
3 2 S116 850 66238 2111 0
3 2 S116 845 67083 2956 0
3 2 S116 869 67952 3825 0
3 2 S116 876 68828 4701 0
3 2 S116 826 69654 5527 0
3 2 S116 754 70408 6281 0
0 0 0 800 71208 -15200 0
0 0 0 831 72039 -14369 0
0 0 0 847 72886 -13522 0
0 0 0 840 73726 -12682 0
0 0 0 804 74530 -11878 0
0 0 0 873 75403 -11005 0
0 0 0 885 76288 -10120 0
0 0 0 884 77172 -9236 0
0 0 0 797 77969 -8439 0
0 0 0 765 78734 -7674 0
0 0 0 803 79537 -6871 0
0 0 0 801 80338 -6070 0
0 0 0 777 81115 -5293 0
0 0 0 841 81956 -4452 0
0 0 0 842 82798 -3610 0
0 0 0 824 83622 -2786 0
0 0 0 765 84387 -2021 0
4 1 S106 802 85189 -1219 0
4 1 S106 823 86012 -396 0
4 2 S106 777 86789 381 0
4 2 S106 767 87556 1148 0
4 2 S106 728 88284 1876 0
4 2 S106 780 89064 2656 0
4 2 S106 801 89865 3457 0
4 2 S106 827 90692 4284 0
4 2 S106 811 91503 5095 0
4 2 S106 826 92329 5921 0
4 2 S106 854 93183 6775 0
0 0 0 835 94018 -10544 0
0 0 0 850 94868 -9694 0
0 0 0 777 95645 -8917 0
0 0 0 729 96374 -8188 0
0 0 0 730 97104 -7458 0
0 0 0 781 97885 -6677 0
0 0 0 844 98729 -5833 0
0 0 0 880 99609 -4953 0
0 0 0 870 100479 -4083 0
0 0 0 840 101319 -3243 0
0 0 0 894 102213 -2349 0
5 1 S116 966 103179 -1383 1
5 1 S116 933 104112 -450 1
5 2 S116 845 104957 395 0
5 2 S116 804 105761 1199 0
5 2 S116 847 106608 2046 0
5 2 S116 842 107450 2888 0
5 2 S116 821 108271 3709 0
5 2 S116 769 109040 4478 0
5 2 S116 734 109774 5212 0
5 2 S116 771 110545 5983 0
5 2 S116 794 111339 6777 0
0 0 0 849 112188 -14771 0
0 0 0 837 113025 -13934 0
0 0 0 754 113779 -13180 0
0 0 0 822 114601 -12358 0
0 0 0 860 115461 -11498 0
0 0 0 930 116391 -10568 1
0 0 0 924 117315 -9644 1
0 0 0 835 118150 -8809 0
0 0 0 877 119027 -7932 0
0 0 0 887 119914 -7045 0
0 0 0 832 120746 -6213 0
0 0 0 772 121518 -5441 0
0 0 0 756 122274 -4685 0
0 0 0 772 123046 -3913 0
0 0 0 794 123840 -3119 0
0 0 0 776 124616 -2343 0
6 1 S106 735 125351 -1608 0
6 1 S106 721 126072 -887 0
6 1 S106 776 126848 -111 0
6 2 S106 802 127650 691 0
6 2 S106 834 128484 1525 0
6 2 S106 849 129333 2374 0
6 2 S106 840 130173 3214 0
6 2 S106 881 131054 4095 0
6 2 S106 867 131921 4962 0
6 2 S106 821 132742 5783 0
6 2 S106 830 133572 6613 0
0 0 0 723 134295 -10303 0
0 0 0 718 135013 -9585 0
0 0 0 744 135757 -8841 0
0 0 0 769 136526 -8072 0
0 0 0 793 137319 -7279 0
0 0 0 804 138123 -6475 0
0 0 0 724 138847 -5751 0
0 0 0 766 139613 -4985 0
0 0 0 813 140426 -4172 0
0 0 0 843 141269 -3329 0
0 0 0 825 142094 -2504 0
7 1 S102 770 142864 -1734 0
7 1 S102 797 143661 -937 0
7 1 S102 813 144474 -124 0
7 2 S102 825 145299 701 0
7 2 S102 844 146143 1545 0
7 2 S102 791 146934 2336 0
7 2 S102 777 147711 3113 0
7 2 S102 802 148513 3915 0
7 2 S102 813 149326 4728 0
7 2 S102 820 150146 5548 0
7 2 S102 761 150907 6309 0
0 0 0 728 151635 -13090 0
0 0 0 779 152414 -12311 0
0 0 0 830 153244 -11481 0
0 0 0 863 154107 -10618 0
0 0 0 836 154943 -9782 0
0 0 0 795 155738 -8987 0
0 0 0 856 156594 -8131 0
0 0 0 857 157451 -7274 0
0 0 0 835 158286 -6439 0
0 0 0 749 159035 -5690 0
0 0 0 762 159797 -4928 0
0 0 0 778 160575 -4150 0
0 0 0 784 161359 -3366 0
0 0 0 804 162163 -2562 0
8 1 S112 785 162948 -1777 0
8 1 S112 786 163734 -991 0
8 1 S112 728 164462 -263 0
8 2 S112 726 165188 463 0
8 2 S112 681 165869 1144 0
8 2 S112 679 166548 1823 0
8 2 S112 674 167222 2497 0
8 2 S112 674 167896 3171 0
8 2 S112 732 168628 3903 0
8 2 S112 788 169416 4691 0
8 2 S112 849 170265 5540 0
8 2 S112 890 171155 6430 0
0 0 0 905 172060 -11597 0
0 0 0 823 172883 -10774 0
0 0 0 802 173685 -9972 0
0 0 0 836 174521 -9136 0
0 0 0 847 175368 -8289 0
0 0 0 860 176228 -7429 0
0 0 0 826 177054 -6603 0
0 0 0 787 177841 -5816 0
0 0 0 805 178646 -5011 0
0 0 0 806 179452 -4205 0
0 0 0 816 180268 -3389 0
0 0 0 767 181035 -2622 0
9 1 S116 716 181751 -1906 0
9 1 S116 755 182506 -1151 0
9 1 S116 765 183271 -386 0
9 2 S116 806 184077 420 0
9 2 S116 813 184890 1233 0
9 2 S116 784 185674 2017 0
9 2 S116 851 186525 2868 0
9 2 S116 885 187410 3753 0
9 2 S116 876 188286 4629 0
9 2 S116 813 189099 5442 0
9 2 S116 783 189882 6225 0
9 2 S116 803 190685 7028 0
0 0 0 815 191500 -16378 0
0 0 0 826 192326 -15552 0
0 0 0 792 193118 -14760 0
0 0 0 750 193868 -14010 0
0 0 0 797 194665 -13213 0
0 0 0 837 195502 -12376 0
0 0 0 864 196366 -11512 0
0 0 0 826 197192 -10686 0
0 0 0 836 198028 -9850 0
0 0 0 847 198875 -9003 0
0 0 0 778 199653 -8225 0
0 0 0 771 200424 -7454 0
0 0 0 732 201156 -6722 0
0 0 0 694 201850 -6028 0
0 0 0 712 202562 -5316 0
0 0 0 728 203290 -4588 0
0 0 0 753 204043 -3835 0
0 0 0 785 204828 -3050 0
0 0 0 797 205625 -2253 0
10 1 S102 746 206371 -1507 0
10 1 S102 717 207088 -790 0
10 1 S102 759 207847 -31 0
10 2 S102 770 208617 739 0
10 2 S102 798 209415 1537 0
10 2 S102 768 210183 2305 0
10 2 S102 712 210895 3017 0
10 2 S102 757 211652 3774 0
10 2 S102 773 212425 4547 0
10 2 S102 798 213223 5345 0
10 2 S102 815 214038 6160 0
10 2 S102 760 214798 6920 0
0 0 0 742 215540 -11602 0
0 0 0 770 216310 -10832 0
0 0 0 774 217084 -10058 0
0 0 0 809 217893 -9249 0
0 0 0 751 218644 -8498 0
0 0 0 744 219388 -7754 0
0 0 0 777 220165 -6977 0
0 0 0 794 220959 -6183 0
0 0 0 800 221759 -5383 0
0 0 0 748 222507 -4635 0
0 0 0 726 223233 -3909 0
0 0 0 756 223989 -3153 0
0 0 0 758 224747 -2395 0
11 1 S112 764 225511 -1631 0
11 1 S112 779 226290 -852 0
11 1 S112 749 227039 -103 0
11 2 S112 761 227800 658 0
11 2 S112 789 228589 1447 0
11 2 S112 806 229395 2253 0
11 2 S112 741 230136 2994 0
11 2 S112 713 230849 3707 0
11 2 S112 775 231624 4482 0
11 2 S112 776 232400 5258 0
11 2 S112 828 233228 6086 0
11 2 S112 846 234074 6932 0
0 0 0 763 234837 -8884 0
0 0 0 755 235592 -8129 0
0 0 0 774 236366 -7355 0
0 0 0 793 237159 -6562 0
0 0 0 809 237968 -5753 0
0 0 0 842 238810 -4911 0
0 0 0 825 239635 -4086 0
0 0 0 756 240391 -3330 0
0 0 0 730 241121 -2600 0
12 1 S116 715 241836 -1885 0
12 1 S116 762 242598 -1123 0
12 1 S116 702 243300 -421 0
12 2 S116 723 244023 302 0
12 2 S116 701 244724 1003 0
12 2 S116 691 245415 1694 0
12 2 S116 689 246104 2383 0
12 2 S116 681 246785 3064 0
12 2 S116 688 247473 3752 0
12 2 S116 676 248149 4428 0
12 2 S116 669 248818 5097 0
12 2 S116 653 249471 5750 0
12 2 S116 647 250118 6397 0
0 0 0 653 250771 -11667 0
0 0 0 671 251442 -10996 0
0 0 0 690 252132 -10306 0
0 0 0 727 252859 -9579 0
0 0 0 718 253577 -8861 0
0 0 0 763 254340 -8098 0
0 0 0 807 255147 -7291 0
0 0 0 816 255963 -6475 0
0 0 0 787 256750 -5688 0
0 0 0 742 257492 -4946 0
0 0 0 782 258274 -4164 0
0 0 0 806 259080 -3358 0
0 0 0 807 259887 -2551 0
13 1 S112 746 260633 -1805 0
13 1 S112 695 261328 -1110 0
13 1 S112 688 262016 -422 0
13 2 S112 721 262737 299 0
13 2 S112 731 263468 1030 0
13 2 S112 766 264234 1796 0
13 2 S112 814 265048 2610 0
13 2 S112 786 265834 3396 0
13 2 S112 743 266577 4139 0
13 2 S112 788 267365 4927 0
13 2 S112 831 268196 5758 0
13 2 S112 850 269046 6608 0
0 0 0 842 269888 -16091 0
0 0 0 760 270648 -15331 0
0 0 0 732 271380 -14599 0
0 0 0 763 272143 -13836 0
0 0 0 780 272923 -13056 0
0 0 0 812 273735 -12244 0
0 0 0 813 274548 -11431 0
0 0 0 775 275323 -10656 0
0 0 0 818 276141 -9838 0
0 0 0 863 277004 -8975 0
0 0 0 811 277815 -8164 0
0 0 0 765 278580 -7399 0
0 0 0 715 279295 -6684 0
0 0 0 729 280024 -5955 0
0 0 0 762 280786 -5193 0
0 0 0 802 281588 -4391 0
0 0 0 858 282446 -3533 0
0 0 0 790 283236 -2743 0
14 1 S106 821 284057 -1922 0
14 1 S106 891 284948 -1031 0
14 1 S106 900 285848 -131 0
14 2 S106 904 286752 773 0
14 2 S106 799 287551 1572 0
14 2 S106 813 288364 2385 0
14 2 S106 810 289174 3195 0
14 2 S106 819 289993 4014 0
14 2 S106 812 290805 4826 0
14 2 S106 768 291573 5594 0
14 2 S106 744 292317 6338 0
0 0 0 784 293101 -12954 0
0 0 0 774 293875 -12180 0
0 0 0 819 294694 -11361 0
0 0 0 800 295494 -10561 0
0 0 0 737 296231 -9824 0
0 0 0 774 297005 -9050 0
0 0 0 776 297781 -8274 0
0 0 0 791 298572 -7483 0
0 0 0 816 299388 -6667 0
0 0 0 761 300149 -5906 0
0 0 0 725 300874 -5181 0
0 0 0 784 301658 -4397 0
0 0 0 799 302457 -3598 0
0 0 0 821 303278 -2777 0
15 1 S116 826 304104 -1951 0
15 1 S116 755 304859 -1196 0
15 1 S116 727 305586 -469 0
15 2 S116 779 306365 310 0
15 2 S116 786 307151 1096 0
15 2 S116 823 307974 1919 0
15 2 S116 850 308824 2769 0
15 2 S116 813 309637 3582 0
15 2 S116 741 310378 4323 0
15 2 S116 763 311141 5086 0
15 2 S116 767 311908 5853 0
15 2 S116 788 312696 6641 0
0 0 0 804 313500 -13262 0
0 0 0 775 314275 -12487 0
0 0 0 767 315042 -11720 0
0 0 0 814 315856 -10906 0
0 0 0 812 316668 -10094 0
0 0 0 744 317412 -9350 0
0 0 0 754 318166 -8596 0
0 0 0 787 318953 -7809 0
0 0 0 832 319785 -6977 0
0 0 0 794 320579 -6183 0
0 0 0 755 321334 -5428 0
0 0 0 741 322075 -4687 0
0 0 0 730 322805 -3957 0
0 0 0 716 323521 -3241 0
0 0 0 719 324240 -2522 0
16 1 S116 729 324969 -1793 0
16 1 S116 711 325680 -1082 0
16 1 S116 684 326364 -398 0
16 2 S116 675 327039 277 0
16 2 S116 660 327699 937 0
16 2 S116 662 328361 1599 0
16 2 S116 644 329005 2243 0
16 2 S116 654 329659 2897 0
16 2 S116 688 330347 3585 0
16 2 S116 659 331006 4244 0
16 2 S116 699 331705 4943 0
16 2 S116 719 332424 5662 0
16 2 S116 763 333187 6425 0
0 0 0 751 333938 -11325 0
0 0 0 733 334671 -10592 0
0 0 0 742 335413 -9850 0
0 0 0 697 336110 -9153 0
0 0 0 658 336768 -8495 0
0 0 0 650 337418 -7845 0
0 0 0 647 338065 -7198 0
0 0 0 657 338722 -6541 0
0 0 0 718 339440 -5823 0
0 0 0 861 340301 -4962 0
0 0 0 891 341192 -4071 0
0 0 0 861 342053 -3210 0
0 0 0 828 342881 -2382 0
17 1 S106 875 343756 -1507 0
17 1 S106 904 344660 -603 0
17 2 S106 921 345581 318 1
17 2 S106 872 346453 1190 0
17 2 S106 835 347288 2025 0
17 2 S106 828 348116 2853 0
17 2 S106 830 348946 3683 0
17 2 S106 799 349745 4482 0
17 2 S106 802 350547 5284 0
17 2 S106 835 351382 6119 0
17 2 S106 842 352224 6961 0
0 0 0 794 353018 -13300 0
0 0 0 763 353781 -12537 0
0 0 0 780 354561 -11757 0
0 0 0 798 355359 -10959 0
0 0 0 772 356131 -10187 0
0 0 0 730 356861 -9457 0
0 0 0 775 357636 -8682 0
0 0 0 808 358444 -7874 0
0 0 0 843 359287 -7031 0
0 0 0 867 360154 -6164 0
0 0 0 805 360959 -5359 0
0 0 0 850 361809 -4509 0
0 0 0 880 362689 -3629 0
0 0 0 887 363576 -2742 0
18 1 S102 833 364409 -1909 0
18 1 S102 762 365171 -1147 0
18 1 S102 822 365993 -325 0
18 2 S102 817 366810 492 0
18 2 S102 835 367645 1327 0
18 2 S102 806 368451 2133 0
18 2 S102 753 369204 2886 0
18 2 S102 788 369992 3674 0
18 2 S102 761 370753 4435 0
18 2 S102 733 371486 5168 0
18 2 S102 717 372203 5885 0
18 2 S102 738 372941 6623 0
0 0 0 741 373682 -10027 0
0 0 0 773 374455 -9254 0
0 0 0 826 375281 -8428 0
0 0 0 820 376101 -7608 0
0 0 0 818 376919 -6790 0
0 0 0 801 377720 -5989 0
0 0 0 742 378462 -5247 0
0 0 0 740 379202 -4507 0
0 0 0 750 379952 -3757 0
0 0 0 742 380694 -3015 0
0 0 0 715 381409 -2300 0
19 1 S106 669 382078 -1631 0
19 1 S106 683 382761 -948 0
19 1 S106 711 383472 -237 0
19 2 S106 730 384202 493 0
19 2 S106 719 384921 1212 0
19 2 S106 770 385691 1982 0
19 2 S106 848 386539 2830 0
19 2 S106 906 387445 3736 0
19 2 S106 909 388354 4645 0
19 2 S106 888 389242 5533 0
19 2 S106 860 390102 6393 0
0 0 0 822 390924 -13590 0
0 0 0 786 391710 -12804 0
0 0 0 775 392485 -12029 0
0 0 0 762 393247 -11267 0
0 0 0 727 393974 -10540 0
0 0 0 705 394679 -9835 0
0 0 0 741 395420 -9094 0
0 0 0 755 396175 -8339 0
0 0 0 730 396905 -7609 0
0 0 0 766 397671 -6843 0
0 0 0 782 398453 -6061 0
0 0 0 818 399271 -5243 0
0 0 0 850 400121 -4393 0
0 0 0 839 400960 -3554 0
0 0 0 887 401847 -2667 0
20 1 S112 869 402716 -1798 0
20 1 S112 846 403562 -952 0
20 1 S112 803 404365 -149 0
20 2 S112 827 405192 678 0
20 2 S112 837 406029 1515 0
20 2 S112 837 406866 2352 0
20 2 S112 774 407640 3126 0
20 2 S112 779 408419 3905 0
20 2 S112 784 409203 4689 0
20 2 S112 805 410008 5494 0
20 2 S112 791 410799 6285 0
0 0 0 760 411559 -13745 0
0 0 0 802 412361 -12943 0
0 0 0 845 413206 -12098 0
0 0 0 880 414086 -11218 0
0 0 0 778 414864 -10440 0
0 0 0 818 415682 -9622 0
0 0 0 820 416502 -8802 0
0 0 0 819 417321 -7983 0
0 0 0 746 418067 -7237 0
0 0 0 776 418843 -6461 0
0 0 0 789 419632 -5672 0
0 0 0 755 420387 -4917 0
0 0 0 744 421131 -4173 0
0 0 0 785 421916 -3388 0
0 0 0 786 422702 -2602 0
21 1 S106 797 423499 -1805 0
21 1 S106 756 424255 -1049 0
21 1 S106 751 425006 -298 0
21 2 S106 780 425786 482 0
21 2 S106 783 426569 1265 0
21 2 S106 757 427326 2022 0
21 2 S106 744 428070 2766 0
21 2 S106 795 428865 3561 0
21 2 S106 819 429684 4380 0
21 2 S106 823 430507 5203 0
21 2 S106 778 431285 5981 0
21 2 S106 778 432063 6759 0
0 0 0 815 432878 -17874 0
0 0 0 809 433687 -17065 0
0 0 0 724 434411 -16341 0
0 0 0 700 435111 -15641 0
0 0 0 666 435777 -14975 0
0 0 0 669 436446 -14306 0
0 0 0 660 437106 -13646 0
0 0 0 670 437776 -12976 0
0 0 0 679 438455 -12297 0
0 0 0 737 439192 -11560 0
0 0 0 737 439929 -10823 0
0 0 0 730 440659 -10093 0
0 0 0 765 441424 -9328 0
0 0 0 751 442175 -8577 0
0 0 0 721 442896 -7856 0
0 0 0 684 443580 -7172 0
0 0 0 692 444272 -6480 0
0 0 0 690 444962 -5790 0
0 0 0 669 445631 -5121 0
0 0 0 666 446297 -4455 0
0 0 0 691 446988 -3764 0
0 0 0 687 447675 -3077 0
0 0 0 664 448339 -2413 0
22 1 S116 649 448988 -1764 0
22 1 S116 669 449657 -1095 0
22 1 S116 717 450374 -378 0
22 2 S116 750 451124 372 0
22 2 S116 806 451930 1178 0
22 2 S116 862 452792 2040 0
22 2 S116 882 453674 2922 0
22 2 S116 906 454580 3828 0
22 2 S116 822 455402 4650 0
22 2 S116 751 456153 5401 0
22 2 S116 779 456932 6180 0
22 2 S116 788 457720 6968 0
0 0 0 783 458503 -12706 0
0 0 0 786 459289 -11920 0
0 0 0 740 460029 -11180 0
0 0 0 705 460734 -10475 0
0 0 0 718 461452 -9757 0
0 0 0 758 462210 -8999 0
0 0 0 803 463013 -8196 0
0 0 0 840 463853 -7356 0
0 0 0 776 464629 -6580 0
0 0 0 784 465413 -5796 0
0 0 0 826 466239 -4970 0
0 0 0 861 467100 -4109 0
0 0 0 816 467916 -3293 0
0 0 0 759 468675 -2534 0
23 1 S112 771 469446 -1763 0
23 1 S112 790 470236 -973 0
23 1 S112 783 471019 -190 0
23 2 S112 756 471775 566 0
23 2 S112 724 472499 1290 0
23 2 S112 761 473260 2051 0
23 2 S112 805 474065 2856 0
23 2 S112 857 474922 3713 0
23 2 S112 851 475773 4564 0
23 2 S112 841 476614 5405 0
23 2 S112 892 477506 6297 0
0 0 0 858 478364 -14414 0
0 0 0 802 479166 -13612 0
0 0 0 771 479937 -12841 0
0 0 0 811 480748 -12030 0
0 0 0 825 481573 -11205 0
0 0 0 830 482403 -10375 0
0 0 0 775 483178 -9600 0
0 0 0 796 483974 -8804 0
0 0 0 831 484805 -7973 0
0 0 0 866 485671 -7107 0
0 0 0 778 486449 -6329 0
0 0 0 762 487211 -5567 0
0 0 0 783 487994 -4784 0
0 0 0 807 488801 -3977 0
0 0 0 786 489587 -3191 0
0 0 0 752 490339 -2439 0
24 1 S106 773 491112 -1666 0
24 1 S106 757 491869 -909 0
24 1 S106 794 492663 -115 0
24 2 S106 777 493440 662 0
24 2 S106 802 494242 1464 0
24 2 S106 826 495068 2290 0
24 2 S106 849 495917 3139 0
24 2 S106 784 496701 3923 0
24 2 S106 735 497436 4658 0
24 2 S106 755 498191 5413 0
24 2 S106 771 498962 6184 0
24 2 S106 787 499749 6971 0
0 0 0 779 500528 -12426 0
0 0 0 747 501275 -11679 0
0 0 0 787 502062 -10892 0
0 0 0 798 502860 -10094 0
0 0 0 814 503674 -9280 0
0 0 0 775 504449 -8505 0
0 0 0 754 505203 -7751 0
0 0 0 775 505978 -6976 0
0 0 0 763 506741 -6213 0
0 0 0 716 507457 -5497 0
0 0 0 730 508187 -4767 0
0 0 0 759 508946 -4008 0
0 0 0 719 509665 -3289 0
0 0 0 699 510364 -2590 0
25 1 S102 698 511062 -1892 0
25 1 S102 792 511854 -1100 0
25 1 S102 836 512690 -264 0
25 2 S102 849 513539 585 0
25 2 S102 802 514341 1387 0
25 2 S102 787 515128 2174 0
25 2 S102 776 515904 2950 0
25 2 S102 750 516654 3700 0
25 2 S102 741 517395 4441 0
25 2 S102 732 518127 5173 0
25 2 S102 719 518846 5892 0
25 2 S102 692 519538 6584 0
0 0 0 667 520205 -12096 0
0 0 0 662 520867 -11434 0
0 0 0 666 521533 -10768 0
0 0 0 673 522206 -10095 0
0 0 0 686 522892 -9409 0
0 0 0 683 523575 -8726 0
0 0 0 676 524251 -8050 0
0 0 0 674 524925 -7376 0
0 0 0 650 525575 -6726 0
0 0 0 651 526226 -6075 0
0 0 0 651 526877 -5424 0
0 0 0 638 527515 -4786 0
0 0 0 637 528152 -4149 0
0 0 0 654 528806 -3495 0
0 0 0 678 529484 -2817 0
0 0 0 730 530214 -2087 0
26 1 S116 767 530981 -1320 0
26 1 S116 762 531743 -558 0
26 2 S116 778 532521 220 0
26 2 S116 772 533293 992 0
26 2 S116 754 534047 1746 0
26 2 S116 757 534804 2503 0
26 2 S116 708 535512 3211 0
26 2 S116 674 536186 3885 0
26 2 S116 655 536841 4540 0
26 2 S116 631 537472 5171 0
26 2 S116 610 538082 5781 0
26 2 S116 607 538689 6388 0
26 2 S116 631 539320 7019 0
0 0 0 671 539991 -7297 0
0 0 0 707 540698 -6590 0
0 0 0 734 541432 -5856 0
0 0 0 754 542186 -5102 0
0 0 0 793 542979 -4309 0
0 0 0 818 543797 -3491 0
0 0 0 814 544611 -2677 0
27 1 S106 748 545359 -1929 0
27 1 S106 749 546108 -1180 0
27 1 S106 787 546895 -393 0
27 2 S106 784 547679 391 0
27 2 S106 783 548462 1174 0
27 2 S106 731 549193 1905 0
27 2 S106 718 549911 2623 0
27 2 S106 762 550673 3385 0
27 2 S106 779 551452 4164 0
27 2 S106 797 552249 4961 0
27 2 S106 759 553008 5720 0
27 2 S106 766 553774 6486 0
0 0 0 795 554569 -11187 0
0 0 0 804 555373 -10383 0
0 0 0 767 556140 -9616 0
0 0 0 777 556917 -8839 0
0 0 0 815 557732 -8024 0
0 0 0 838 558570 -7186 0
0 0 0 818 559388 -6368 0
0 0 0 738 560126 -5630 0
0 0 0 770 560896 -4860 0
0 0 0 754 561650 -4106 0
0 0 0 746 562396 -3360 0
0 0 0 692 563088 -2668 0
28 1 S102 697 563785 -1971 0
28 1 S102 674 564459 -1297 0
28 1 S102 655 565114 -642 0
28 1 S102 626 565740 -16 0
28 2 S102 610 566350 594 0
28 2 S102 599 566949 1193 0
28 2 S102 598 567547 1791 0
28 2 S102 597 568144 2388 0
28 2 S102 693 568837 3081 0
28 2 S102 782 569619 3863 0
28 2 S102 818 570437 4681 0
28 2 S102 818 571255 5499 0
28 2 S102 814 572069 6313 0
0 0 0 803 572872 -18199 0
0 0 0 767 573639 -17432 0
0 0 0 747 574386 -16685 0
0 0 0 755 575141 -15930 0
0 0 0 739 575880 -15191 0
0 0 0 725 576605 -14466 0
0 0 0 746 577351 -13720 0
0 0 0 742 578093 -12978 0
0 0 0 757 578850 -12221 0
0 0 0 741 579591 -11480 0
0 0 0 712 580303 -10768 0
0 0 0 734 581037 -10034 0
0 0 0 754 581791 -9280 0
0 0 0 744 582535 -8536 0
0 0 0 717 583252 -7819 0
0 0 0 681 583933 -7138 0
0 0 0 673 584606 -6465 0
0 0 0 651 585257 -5814 0
0 0 0 638 585895 -5176 0
0 0 0 630 586525 -4546 0
0 0 0 630 587155 -3916 0
0 0 0 644 587799 -3272 0
0 0 0 664 588463 -2608 0
29 1 S112 713 589176 -1895 0
29 1 S112 738 589914 -1157 0
29 1 S112 702 590616 -455 0
29 2 S112 712 591328 257 0
29 2 S112 778 592106 1035 0
29 2 S112 834 592940 1869 0
29 2 S112 888 593828 2757 0
29 2 S112 825 594653 3582 0
29 2 S112 844 595497 4426 0
29 2 S112 847 596344 5273 0
29 2 S112 829 597173 6102 0
29 2 S112 756 597929 6858 0
0 0 0 781 598710 -13134 0
0 0 0 766 599476 -12368 0
0 0 0 756 600232 -11612 0
0 0 0 717 600949 -10895 0
0 0 0 746 601695 -10149 0
0 0 0 750 602445 -9399 0
0 0 0 769 603214 -8630 0
0 0 0 757 603971 -7873 0
0 0 0 733 604704 -7140 0
0 0 0 784 605488 -6356 0
0 0 0 812 606300 -5544 0
0 0 0 781 607081 -4763 0
0 0 0 727 607808 -4036 0
0 0 0 752 608560 -3284 0
0 0 0 750 609310 -2534 0
30 1 S112 804 610114 -1730 0
30 1 S112 781 610895 -949 0
30 1 S112 817 611712 -132 0
30 2 S112 845 612557 713 0
30 2 S112 835 613392 1548 0
30 2 S112 776 614168 2324 0
30 2 S112 773 614941 3097 0
30 2 S112 748 615689 3845 0
30 2 S112 736 616425 4581 0
30 2 S112 715 617140 5296 0
30 2 S112 691 617831 5987 0
30 2 S112 735 618566 6722 0
0 0 0 727 619293 -193348 0
0 0 0 783 620076 -192565 0
0 0 0 760 620836 -191805 0
0 0 0 743 621579 -191062 0
0 0 0 802 622381 -190260 0
0 0 0 829 623210 -189431 0
0 0 0 820 624030 -188611 0
0 0 0 764 624794 -187847 0
0 0 0 812 625606 -187035 0
0 0 0 786 626392 -186249 0
0 0 0 777 627169 -185472 0
0 0 0 729 627898 -184743 0
0 0 0 731 628629 -184012 0
0 0 0 758 629387 -183254 0
0 0 0 752 630139 -182502 0
0 0 0 715 630854 -181787 0
0 0 0 682 631536 -181105 0
0 0 0 709 632245 -180396 0
0 0 0 696 632941 -179700 0
0 0 0 688 633629 -179012 0
0 0 0 720 634349 -178292 0
0 0 0 739 635088 -177553 0
0 0 0 740 635828 -176813 0
0 0 0 725 636553 -176088 0
0 0 0 720 637273 -175368 0
0 0 0 708 637981 -174660 0
0 0 0 689 638670 -173971 0
0 0 0 672 639342 -173299 0
0 0 0 669 640011 -172630 0
0 0 0 655 640666 -171975 0
0 0 0 634 641300 -171341 0
0 0 0 615 641915 -170726 0
0 0 0 611 642526 -170115 0
0 0 0 608 643134 -169507 0
0 0 0 614 643748 -168893 0
0 0 0 644 644392 -168249 0
0 0 0 785 645177 -167464 0
0 0 0 832 646009 -166632 0
0 0 0 849 646858 -165783 0
0 0 0 821 647679 -164962 0
0 0 0 839 648518 -164123 0
0 0 0 851 649369 -163272 0
0 0 0 855 650224 -162417 0
0 0 0 800 651024 -161617 0
0 0 0 729 651753 -160888 0
0 0 0 695 652448 -160193 0
0 0 0 728 653176 -159465 0
0 0 0 736 653912 -158729 0
0 0 0 766 654678 -157963 0
0 0 0 741 655419 -157222 0
0 0 0 725 656144 -156497 0
0 0 0 759 656903 -155738 0
0 0 0 751 657654 -154987 0
0 0 0 741 658395 -154246 0
0 0 0 699 659094 -153547 0
0 0 0 714 659808 -152833 0
0 0 0 728 660536 -152105 0
0 0 0 743 661279 -151362 0
0 0 0 776 662055 -150586 0
0 0 0 781 662836 -149805 0
0 0 0 777 663613 -149028 0
0 0 0 751 664364 -148277 0
0 0 0 733 665097 -147544 0
0 0 0 745 665842 -146799 0
0 0 0 772 666614 -146027 0
0 0 0 746 667360 -145281 0
0 0 0 763 668123 -144518 0
0 0 0 757 668880 -143761 0
0 0 0 756 669636 -143005 0
0 0 0 719 670355 -142286 0
0 0 0 708 671063 -141578 0
0 0 0 713 671776 -140865 0
0 0 0 667 672443 -140198 0
0 0 0 685 673128 -139513 0
0 0 0 686 673814 -138827 0
0 0 0 696 674510 -138131 0
0 0 0 706 675216 -137425 0
0 0 0 723 675939 -136702 0
0 0 0 714 676653 -135988 0
0 0 0 723 677376 -135265 0
0 0 0 736 678112 -134529 0
0 0 0 697 678809 -133832 0
0 0 0 665 679474 -133167 0
0 0 0 641 680115 -132526 0
0 0 0 632 680747 -131894 0
0 0 0 649 681396 -131245 0
0 0 0 647 682043 -130598 0
0 0 0 665 682708 -129933 0
0 0 0 663 683371 -129270 0
0 0 0 640 684011 -128630 0
0 0 0 647 684658 -127983 0
0 0 0 641 685299 -127342 0
0 0 0 630 685929 -126712 0
0 0 0 622 686551 -126090 0
0 0 0 622 687173 -125468 0
0 0 0 598 687771 -124870 0
0 0 0 603 688374 -124267 0
0 0 0 626 689000 -123641 0
0 0 0 682 689682 -122959 0
0 0 0 730 690412 -122229 0
0 0 0 790 691202 -121439 0
0 0 0 805 692007 -120634 0
0 0 0 826 692833 -119808 0
0 0 0 833 693666 -118975 0
0 0 0 849 694515 -118126 0
0 0 0 848 695363 -117278 0
0 0 0 786 696149 -116492 0
0 0 0 782 696931 -115710 0
0 0 0 738 697669 -114972 0
0 0 0 760 698429 -114212 0
0 0 0 754 699183 -113458 0
0 0 0 720 699903 -112738 0
0 0 0 697 700600 -112041 0
0 0 0 746 701346 -111295 0
0 0 0 804 702150 -110491 0
0 0 0 830 702980 -109661 0
0 0 0 754 703734 -108907 0
0 0 0 749 704483 -108158 0
0 0 0 781 705264 -107377 0
0 0 0 732 705996 -106645 0
0 0 0 760 706756 -105885 0
0 0 0 786 707542 -105099 0
0 0 0 796 708338 -104303 0
0 0 0 743 709081 -103560 0
0 0 0 733 709814 -102827 0
0 0 0 763 710577 -102064 0
0 0 0 780 711357 -101284 0
0 0 0 763 712120 -100521 0
0 0 0 730 712850 -99791 0
0 0 0 754 713604 -99037 0
0 0 0 763 714367 -98274 0
0 0 0 749 715116 -97525 0
0 0 0 709 715825 -96816 0
0 0 0 723 716548 -96093 0
0 0 0 733 717281 -95360 0
0 0 0 738 718019 -94622 0
0 0 0 727 718746 -93895 0
0 0 0 705 719451 -93190 0
0 0 0 730 720181 -92460 0
0 0 0 749 720930 -91711 0
0 0 0 743 721673 -90968 0
0 0 0 736 722409 -90232 0
0 0 0 745 723154 -89487 0
0 0 0 750 723904 -88737 0
0 0 0 763 724667 -87974 0
0 0 0 738 725405 -87236 0
0 0 0 707 726112 -86529 0
0 0 0 725 726837 -85804 0
0 0 0 770 727607 -85034 0
0 0 0 762 728369 -84272 0
0 0 0 774 729143 -83498 0
0 0 0 757 729900 -82741 0
0 0 0 791 730691 -81950 0
0 0 0 802 731493 -81148 0
0 0 0 754 732247 -80394 0
0 0 0 709 732956 -79685 0
0 0 0 707 733663 -78978 0
0 0 0 710 734373 -78268 0
0 0 0 729 735102 -77539 0
0 0 0 744 735846 -76795 0
0 0 0 768 736614 -76027 0
0 0 0 763 737377 -75264 0
0 0 0 769 738146 -74495 0
0 0 0 778 738924 -73717 0
0 0 0 775 739699 -72942 0
0 0 0 752 740451 -72190 0
0 0 0 750 741201 -71440 0
0 0 0 734 741935 -70706 0
0 0 0 726 742661 -69980 0
0 0 0 706 743367 -69274 0
0 0 0 681 744048 -68593 0
0 0 0 690 744738 -67903 0
0 0 0 719 745457 -67184 0
0 0 0 786 746243 -66398 0
0 0 0 835 747078 -65563 0
0 0 0 855 747933 -64708 0
0 0 0 832 748765 -63876 0
0 0 0 865 749630 -63011 0
0 0 0 846 750476 -62165 0
0 0 0 801 751277 -61364 0
0 0 0 774 752051 -60590 0
0 0 0 792 752843 -59798 0
0 0 0 795 753638 -59003 0
0 0 0 773 754411 -58230 0
0 0 0 775 755186 -57455 0
0 0 0 818 756004 -56637 0
0 0 0 836 756840 -55801 0
0 0 0 819 757659 -54982 0
0 0 0 789 758448 -54193 0
0 0 0 820 759268 -53373 0
0 0 0 833 760101 -52540 0
0 0 0 766 760867 -51774 0
0 0 0 737 761604 -51037 0
0 0 0 731 762335 -50306 0
0 0 0 719 763054 -49587 0
0 0 0 719 763773 -48868 0
0 0 0 726 764499 -48142 0
0 0 0 713 765212 -47429 0
0 0 0 748 765960 -46681 0
0 0 0 752 766712 -45929 0
0 0 0 722 767434 -45207 0
0 0 0 695 768129 -44512 0
0 0 0 698 768827 -43814 0
0 0 0 671 769498 -43143 0
0 0 0 711 770209 -42432 0
0 0 0 772 770981 -41660 0
0 0 0 784 771765 -40876 0
0 0 0 790 772555 -40086 0
0 0 0 753 773308 -39333 0
0 0 0 744 774052 -38589 0
0 0 0 712 774764 -37877 0
0 0 0 692 775456 -37185 0
0 0 0 667 776123 -36518 0
0 0 0 639 776762 -35879 0
0 0 0 652 777414 -35227 0
0 0 0 714 778128 -34513 0
0 0 0 774 778902 -33739 0
0 0 0 822 779724 -32917 0
0 0 0 869 780593 -32048 0
0 0 0 849 781442 -31199 0
0 0 0 829 782271 -30370 0
0 0 0 821 783092 -29549 0
0 0 0 817 783909 -28732 0
0 0 0 799 784708 -27933 0
0 0 0 780 785488 -27153 0
0 0 0 772 786260 -26381 0
0 0 0 801 787061 -25580 0
0 0 0 847 787908 -24733 0
0 0 0 886 788794 -23847 0
0 0 0 840 789634 -23007 0
0 0 0 797 790431 -22210 0
0 0 0 735 791166 -21475 0
0 0 0 716 791882 -20759 0
0 0 0 702 792584 -20057 0
0 0 0 712 793296 -19345 0
0 0 0 710 794006 -18635 0
0 0 0 722 794728 -17913 0
0 0 0 711 795439 -17202 0
0 0 0 702 796141 -16500 0
0 0 0 756 796897 -15744 0
0 0 0 799 797696 -14945 0
0 0 0 847 798543 -14098 0
0 0 0 814 799357 -13284 0
0 0 0 796 800153 -12488 0
0 0 0 738 800891 -11750 0
0 0 0 740 801631 -11010 0
0 0 0 742 802373 -10268 0
0 0 0 743 803116 -9525 0
0 0 0 766 803882 -8759 0
0 0 0 734 804616 -8025 0
0 0 0 699 805315 -7326 0
0 0 0 713 806028 -6613 0
0 0 0 755 806783 -5858 0
0 0 0 764 807547 -5094 0
0 0 0 773 808320 -4321 0
0 0 0 775 809095 -3546 0
0 0 0 724 809819 -2822 0
0 0 0 725 810544 -2097 0
31 1 S106 735 811279 -1362 0
31 1 S106 735 812014 -627 0
31 2 S106 740 812754 113 0
31 2 S106 711 813465 824 0
31 2 S106 707 814172 1531 0
31 2 S106 718 814890 2249 0
31 2 S106 719 815609 2968 0
31 2 S106 719 816328 3687 0
31 2 S106 673 817001 4360 0
31 2 S106 670 817671 5030 0
31 2 S106 665 818336 5695 0
31 2 S106 639 818975 6334 0
31 2 S106 629 819604 6963 0
0 0 0 617 820221 -11087 0
0 0 0 630 820851 -10457 0
0 0 0 711 821562 -9746 0
0 0 0 738 822300 -9008 0
0 0 0 775 823075 -8233 0
0 0 0 801 823876 -7432 0
0 0 0 788 824664 -6644 0
0 0 0 751 825415 -5893 0
0 0 0 706 826121 -5187 0
0 0 0 662 826783 -4525 0
0 0 0 659 827442 -3866 0
0 0 0 661 828103 -3205 0
0 0 0 640 828743 -2565 0
32 1 S102 633 829376 -1932 0
32 1 S102 658 830034 -1274 0
32 1 S102 705 830739 -569 0
32 2 S102 738 831477 169 0
32 2 S102 763 832240 932 0
32 2 S102 766 833006 1698 0
32 2 S102 758 833764 2456 0
32 2 S102 745 834509 3201 0
32 2 S102 752 835261 3953 0
32 2 S102 730 835991 4683 0
32 2 S102 719 836710 5402 0
32 2 S102 731 837441 6133 0
32 2 S102 766 838207 6899 0
0 0 0 734 838941 -15511 0
0 0 0 716 839657 -14795 0
0 0 0 708 840365 -14087 0
0 0 0 725 841090 -13362 0
0 0 0 752 841842 -12610 0
0 0 0 831 842673 -11779 0
0 0 0 897 843570 -10882 0
0 0 0 931 844501 -9951 1
0 0 0 889 845390 -9062 0
0 0 0 788 846178 -8274 0
0 0 0 753 846931 -7521 0
0 0 0 757 847688 -6764 0
0 0 0 752 848440 -6012 0
0 0 0 749 849189 -5263 0
0 0 0 753 849942 -4510 0
0 0 0 722 850664 -3788 0
0 0 0 736 851400 -3052 0
0 0 0 735 852135 -2317 0
33 1 S112 713 852848 -1604 0
33 1 S112 701 853549 -903 0
33 1 S112 699 854248 -204 0
33 2 S112 748 854996 544 0
33 2 S112 749 855745 1293 0
33 2 S112 726 856471 2019 0
33 2 S112 681 857152 2700 0
33 2 S112 721 857873 3421 0
33 2 S112 741 858614 4162 0
33 2 S112 772 859386 4934 0
33 2 S112 808 860194 5742 0
33 2 S112 827 861021 6569 0
0 0 0 819 861840 -12954 0
0 0 0 813 862653 -12141 0
0 0 0 779 863432 -11362 0
0 0 0 739 864171 -10623 0
0 0 0 762 864933 -9861 0
0 0 0 766 865699 -9095 0
0 0 0 739 866438 -8356 0
0 0 0 716 867154 -7640 0
0 0 0 718 867872 -6922 0
0 0 0 731 868603 -6191 0
0 0 0 724 869327 -5467 0
0 0 0 726 870053 -4741 0
0 0 0 704 870757 -4037 0
0 0 0 736 871493 -3301 0
0 0 0 752 872245 -2549 0
34 1 S106 762 873007 -1787 0
34 1 S106 755 873762 -1032 0
34 1 S106 781 874543 -251 0
34 2 S106 775 875318 524 0
34 2 S106 780 876098 1304 0
34 2 S106 738 876836 2042 0
34 2 S106 763 877599 2805 0
34 2 S106 769 878368 3574 0
34 2 S106 771 879139 4345 0
34 2 S106 750 879889 5095 0
34 2 S106 750 880639 5845 0
34 2 S106 741 881380 6586 0
0 0 0 734 882114 -14878 0
0 0 0 714 882828 -14164 0
0 0 0 696 883524 -13468 0
0 0 0 725 884249 -12743 0
0 0 0 703 884952 -12040 0
0 0 0 703 885655 -11337 0
0 0 0 715 886370 -10622 0
0 0 0 787 887157 -9835 0
0 0 0 806 887963 -9029 0
0 0 0 831 888794 -8198 0
0 0 0 798 889592 -7400 0
0 0 0 804 890396 -6596 0
0 0 0 788 891184 -5808 0
0 0 0 754 891938 -5054 0
0 0 0 713 892651 -4341 0
0 0 0 699 893350 -3642 0
0 0 0 681 894031 -2961 0
0 0 0 684 894715 -2277 0
35 1 S102 684 895399 -1593 0
35 1 S102 679 896078 -914 0
35 1 S102 655 896733 -259 0
35 2 S102 658 897391 399 0
35 2 S102 651 898042 1050 0
35 2 S102 641 898683 1691 0
35 2 S102 630 899313 2321 0
35 2 S102 639 899952 2960 0
35 2 S102 655 900607 3615 0
35 2 S102 678 901285 4293 0
35 2 S102 714 901999 5007 0
35 2 S102 711 902710 5718 0
35 2 S102 748 903458 6466 0
0 0 0 792 904250 -8657 0
0 0 0 827 905077 -7830 0
0 0 0 865 905942 -6965 0
0 0 0 796 906738 -6169 0
0 0 0 815 907553 -5354 0
0 0 0 784 908337 -4570 0
0 0 0 727 909064 -3843 0
0 0 0 717 909781 -3126 0
0 0 0 712 910493 -2414 0
36 1 S106 698 911191 -1716 0
36 1 S106 683 911874 -1033 0
36 1 S106 677 912551 -356 0
36 2 S106 703 913254 347 0
36 2 S106 731 913985 1078 0
36 2 S106 754 914739 1832 0
36 2 S106 743 915482 2575 0
36 2 S106 736 916218 3311 0
36 2 S106 768 916986 4079 0
36 2 S106 779 917765 4858 0
36 2 S106 782 918547 5640 0
36 2 S106 753 919300 6393 0
0 0 0 776 920076 -11250 0
0 0 0 800 920876 -10450 0
0 0 0 821 921697 -9629 0
0 0 0 746 922443 -8883 0
0 0 0 774 923217 -8109 0
0 0 0 793 924010 -7316 0
0 0 0 765 924775 -6551 0
0 0 0 719 925494 -5832 0
0 0 0 733 926227 -5099 0
0 0 0 741 926968 -4358 0
0 0 0 756 927724 -3602 0
0 0 0 737 928461 -2865 0
0 0 0 748 929209 -2117 0
37 1 S116 815 930024 -1302 0
37 1 S116 831 930855 -471 0
37 2 S116 803 931658 332 0
37 2 S116 763 932421 1095 0
37 2 S116 775 933196 1870 0
37 2 S116 790 933986 2660 0
37 2 S116 801 934787 3461 0
37 2 S116 778 935565 4239 0
37 2 S116 763 936328 5002 0
37 2 S116 781 937109 5783 0
37 2 S116 792 937901 6575 0
0 0 0 787 938688 -15499 0
0 0 0 750 939438 -14749 0
0 0 0 745 940183 -14004 0
0 0 0 775 940958 -13229 0
0 0 0 798 941756 -12431 0
0 0 0 785 942541 -11646 0
0 0 0 755 943296 -10891 0
0 0 0 804 944100 -10087 0
0 0 0 792 944892 -9295 0
0 0 0 794 945686 -8501 0
0 0 0 722 946408 -7779 0
0 0 0 740 947148 -7039 0
0 0 0 742 947890 -6297 0
0 0 0 748 948638 -5549 0
0 0 0 719 949357 -4830 0
0 0 0 720 950077 -4110 0
0 0 0 737 950814 -3373 0
0 0 0 728 951542 -2645 0
38 1 S102 709 952251 -1936 0
38 1 S102 734 952985 -1202 0
38 1 S102 714 953699 -488 0
38 2 S102 721 954420 233 0
38 2 S102 683 955103 916 0
38 2 S102 675 955778 1591 0
38 2 S102 656 956434 2247 0
38 2 S102 636 957070 2883 0
38 2 S102 634 957704 3517 0
38 2 S102 630 958334 4147 0
38 2 S102 643 958977 4790 0
38 2 S102 649 959626 5439 0
38 2 S102 659 960285 6098 0
38 2 S102 677 960962 6775 0
0 0 0 669 961631 -13279 0
0 0 0 657 962288 -12622 0
0 0 0 701 962989 -11921 0
0 0 0 727 963716 -11194 0
0 0 0 735 964451 -10459 0
0 0 0 719 965170 -9740 0
0 0 0 731 965901 -9009 0
0 0 0 750 966651 -8259 0
0 0 0 749 967400 -7510 0
0 0 0 726 968126 -6784 0
0 0 0 690 968816 -6094 0
0 0 0 671 969487 -5423 0
0 0 0 675 970162 -4748 0
0 0 0 664 970826 -4084 0
0 0 0 645 971471 -3439 0
0 0 0 628 972099 -2811 0
0 0 0 621 972720 -2190 0
39 1 S116 618 973338 -1572 0
39 1 S116 613 973951 -959 0
39 1 S116 655 974606 -304 0
39 2 S116 746 975352 442 0
39 2 S116 735 976087 1177 0
39 2 S116 745 976832 1922 0
39 2 S116 803 977635 2725 0
39 2 S116 848 978483 3573 0
39 2 S116 839 979322 4412 0
39 2 S116 764 980086 5176 0
39 2 S116 722 980808 5898 0
39 2 S116 685 981493 6583 0
0 0 0 666 982159 -12098 0
0 0 0 669 982828 -11429 0
0 0 0 681 983509 -10748 0
0 0 0 679 984188 -10069 0
0 0 0 672 984860 -9397 0
0 0 0 662 985522 -8735 0
0 0 0 672 986194 -8063 0
0 0 0 713 986907 -7350 0
0 0 0 794 987701 -6556 0
0 0 0 859 988560 -5697 0
0 0 0 852 989412 -4845 0
0 0 0 820 990232 -4025 0
0 0 0 782 991014 -3243 0
0 0 0 790 991804 -2453 0
40 1 S112 754 992558 -1699 0
40 1 S112 778 993336 -921 0
40 1 S112 825 994161 -96 0
40 2 S112 806 994967 710 0
40 2 S112 782 995749 1492 0
40 2 S112 803 996552 2295 0
40 2 S112 819 997371 3114 0
40 2 S112 823 998194 3937 0
40 2 S112 786 998980 4723 0
40 2 S112 775 999755 5498 0
40 2 S112 785 1000540 6283 0
0 0 0 789 1001329 -13718 0
0 0 0 785 1002114 -12933 0
0 0 0 755 1002869 -12178 0
0 0 0 725 1003594 -11453 0
0 0 0 725 1004319 -10728 0
0 0 0 745 1005064 -9983 0
0 0 0 765 1005829 -9218 0
0 0 0 804 1006633 -8414 0
0 0 0 775 1007408 -7639 0
0 0 0 737 1008145 -6902 0
0 0 0 783 1008928 -6119 0
0 0 0 799 1009727 -5320 0
0 0 0 765 1010492 -4555 0
0 0 0 715 1011207 -3840 0
0 0 0 708 1011915 -3132 0
0 0 0 736 1012651 -2396 0
41 1 S102 763 1013414 -1633 0
41 1 S102 773 1014187 -860 0
41 1 S102 732 1014919 -128 0
41 2 S102 767 1015686 639 0
41 2 S102 803 1016489 1442 0
41 2 S102 792 1017281 2234 0
41 2 S102 771 1018052 3005 0
41 2 S102 754 1018806 3759 0
41 2 S102 772 1019578 4531 0
41 2 S102 759 1020337 5290 0
41 2 S102 740 1021077 6030 0
41 2 S102 733 1021810 6763 0
0 0 0 763 1022573 -6880 0
0 0 0 763 1023336 -6117 0
0 0 0 750 1024086 -5367 0
0 0 0 715 1024801 -4652 0
0 0 0 734 1025535 -3918 0
0 0 0 730 1026265 -3188 0
0 0 0 707 1026972 -2481 0
42 1 S112 707 1027679 -1774 0
42 1 S112 664 1028343 -1110 0
42 1 S112 651 1028994 -459 0
42 2 S112 641 1029635 182 0
42 2 S112 633 1030268 815 0
42 2 S112 626 1030894 1441 0
42 2 S112 620 1031514 2061 0
42 2 S112 624 1032138 2685 0
42 2 S112 634 1032772 3319 0
42 2 S112 668 1033440 3987 0
42 2 S112 702 1034142 4689 0
42 2 S112 727 1034869 5416 0
42 2 S112 706 1035575 6122 0
42 2 S112 708 1036283 6830 0
0 0 0 713 1036996 -9881 0
0 0 0 700 1037696 -9181 0
0 0 0 683 1038379 -8498 0
0 0 0 680 1039059 -7818 0
0 0 0 663 1039722 -7155 0
0 0 0 641 1040363 -6514 0
0 0 0 651 1041014 -5863 0
0 0 0 677 1041691 -5186 0
0 0 0 765 1042456 -4421 0
0 0 0 818 1043274 -3603 0
0 0 0 795 1044069 -2808 0
0 0 0 797 1044866 -2011 0
43 1 S116 849 1045715 -1162 0
43 1 S116 859 1046574 -303 0
43 2 S116 796 1047370 493 0
43 2 S116 809 1048179 1302 0
43 2 S116 837 1049016 2139 0
43 2 S116 849 1049865 2988 0
43 2 S116 847 1050712 3835 0
43 2 S116 850 1051562 4685 0
43 2 S116 808 1052370 5493 0
43 2 S116 778 1053148 6271 0
0 0 0 762 1053910 -9761 0
0 0 0 739 1054649 -9022 0
0 0 0 712 1055361 -8310 0
0 0 0 692 1056053 -7618 0
0 0 0 673 1056726 -6945 0
0 0 0 652 1057378 -6293 0
0 0 0 630 1058008 -5663 0
0 0 0 630 1058638 -5033 0
0 0 0 642 1059280 -4391 0
0 0 0 662 1059942 -3729 0
0 0 0 664 1060606 -3065 0
0 0 0 724 1061330 -2341 0
44 1 S102 779 1062109 -1562 0
44 1 S102 787 1062896 -775 0
44 1 S102 750 1063646 -25 0
44 2 S102 695 1064341 670 0
44 2 S102 686 1065027 1356 0
44 2 S102 671 1065698 2027 0
44 2 S102 670 1066368 2697 0
44 2 S102 714 1067082 3411 0
44 2 S102 731 1067813 4142 0
44 2 S102 712 1068525 4854 0
44 2 S102 688 1069213 5542 0
44 2 S102 677 1069890 6219 0
44 2 S102 671 1070561 6890 0
0 0 0 674 1071235 -13424 0
0 0 0 650 1071885 -12774 0
0 0 0 663 1072548 -12111 0
0 0 0 672 1073220 -11439 0
0 0 0 685 1073905 -10754 0
0 0 0 686 1074591 -10068 0
0 0 0 675 1075266 -9393 0
0 0 0 672 1075938 -8721 0
0 0 0 717 1076655 -8004 0
0 0 0 789 1077444 -7215 0
0 0 0 770 1078214 -6445 0
0 0 0 757 1078971 -5688 0
0 0 0 759 1079730 -4929 0
0 0 0 760 1080490 -4169 0
0 0 0 735 1081225 -3434 0
0 0 0 701 1081926 -2733 0
0 0 0 716 1082642 -2017 0
45 1 S116 711 1083353 -1306 0
45 1 S116 718 1084071 -588 0
45 2 S116 711 1084782 123 0
45 2 S116 730 1085512 853 0
45 2 S116 764 1086276 1617 0
45 2 S116 804 1087080 2421 0
45 2 S116 833 1087913 3254 0
45 2 S116 837 1088750 4091 0
45 2 S116 896 1089646 4987 0
45 2 S116 938 1090584 5925 1
45 2 S116 936 1091520 6861 1
0 0 0 922 1092442 -15527 1
0 0 0 933 1093375 -14594 1
0 0 0 867 1094242 -13727 0
0 0 0 783 1095025 -12944 0
0 0 0 788 1095813 -12156 0
0 0 0 791 1096604 -11365 0
0 0 0 765 1097369 -10600 0
0 0 0 739 1098108 -9861 0
0 0 0 790 1098898 -9071 0
0 0 0 770 1099668 -8301 0
0 0 0 733 1100401 -7568 0
0 0 0 686 1101087 -6882 0
0 0 0 701 1101788 -6181 0
0 0 0 703 1102491 -5478 0
0 0 0 704 1103195 -4774 0
0 0 0 679 1103874 -4095 0
0 0 0 682 1104556 -3413 0
0 0 0 716 1105272 -2697 0
46 1 S102 729 1106001 -1968 0
46 1 S102 754 1106755 -1214 0
46 1 S102 744 1107499 -470 0
46 2 S102 765 1108264 295 0
46 2 S102 782 1109046 1077 0
46 2 S102 796 1109842 1873 0
46 2 S102 767 1110609 2640 0
46 2 S102 839 1111448 3479 0
46 2 S102 828 1112276 4307 0
46 2 S102 797 1113073 5104 0
46 2 S102 749 1113822 5853 0
46 2 S102 781 1114603 6634 0
0 0 0 785 1115388 -9109 0
0 0 0 770 1116158 -8339 0
0 0 0 725 1116883 -7614 0
0 0 0 763 1117646 -6851 0
0 0 0 755 1118401 -6096 0
0 0 0 728 1119129 -5368 0
0 0 0 750 1119879 -4618 0
0 0 0 787 1120666 -3831 0
0 0 0 779 1121445 -3052 0
0 0 0 748 1122193 -2304 0
47 1 S112 745 1122938 -1559 0
47 1 S112 758 1123696 -801 0
47 1 S112 753 1124449 -48 0
47 2 S112 715 1125164 667 0
47 2 S112 734 1125898 1401 0
47 2 S112 758 1126656 2159 0
47 2 S112 781 1127437 2940 0
47 2 S112 750 1128187 3690 0
47 2 S112 814 1129001 4504 0
47 2 S112 841 1129842 5345 0
47 2 S112 826 1130668 6171 0
47 2 S112 823 1131491 6994 0
0 0 0 854 1132345 -13091 0
0 0 0 818 1133163 -12273 0
0 0 0 746 1133909 -11527 0
0 0 0 731 1134640 -10796 0
0 0 0 726 1135366 -10070 0
0 0 0 740 1136106 -9330 0
0 0 0 700 1136806 -8630 0
0 0 0 676 1137482 -7954 0
0 0 0 721 1138203 -7233 0
0 0 0 742 1138945 -6491 0
0 0 0 810 1139755 -5681 0
0 0 0 784 1140539 -4897 0
0 0 0 817 1141356 -4080 0
0 0 0 862 1142218 -3218 0
0 0 0 862 1143080 -2356 0
48 1 S116 824 1143904 -1532 0
48 1 S116 750 1144654 -782 0
48 1 S116 731 1145385 -51 0
48 2 S116 747 1146132 696 0
48 2 S116 758 1146890 1454 0
48 2 S116 741 1147631 2195 0
48 2 S116 723 1148354 2918 0
48 2 S116 770 1149124 3688 0
48 2 S116 768 1149892 4456 0
48 2 S116 720 1150612 5176 0
48 2 S116 705 1151317 5881 0
48 2 S116 702 1152019 6583 0
0 0 0 700 1152719 -12528 0
0 0 0 704 1153423 -11824 0
0 0 0 680 1154103 -11144 0
0 0 0 673 1154776 -10471 0
0 0 0 685 1155461 -9786 0
0 0 0 689 1156150 -9097 0
0 0 0 696 1156846 -8401 0
0 0 0 650 1157496 -7751 0
0 0 0 656 1158152 -7095 0
0 0 0 649 1158801 -6446 0
0 0 0 664 1159465 -5782 0
0 0 0 694 1160159 -5088 0
0 0 0 697 1160856 -4391 0
0 0 0 697 1161553 -3694 0
0 0 0 684 1162237 -3010 0
0 0 0 705 1162942 -2305 0
49 1 S112 727 1163669 -1578 0
49 1 S112 775 1164444 -803 0
49 1 S112 737 1165181 -66 0
49 2 S112 788 1165969 722 0
49 2 S112 816 1166785 1538 0
49 2 S112 806 1167591 2344 0
49 2 S112 750 1168341 3094 0
49 2 S112 790 1169131 3884 0
49 2 S112 753 1169884 4637 0
49 2 S112 701 1170585 5338 0
49 2 S112 682 1171267 6020 0
49 2 S112 700 1171967 6720 0
0 0 0 693 1172660 -17869 0
0 0 0 705 1173365 -17164 0
0 0 0 707 1174072 -16457 0
0 0 0 687 1174759 -15770 0
0 0 0 675 1175434 -15095 0
0 0 0 687 1176121 -14408 0
0 0 0 692 1176813 -13716 0
0 0 0 698 1177511 -13018 0
0 0 0 695 1178206 -12323 0
0 0 0 683 1178889 -11640 0
0 0 0 727 1179616 -10913 0
0 0 0 747 1180363 -10166 0
0 0 0 778 1181141 -9388 0
0 0 0 765 1181906 -8623 0
0 0 0 708 1182614 -7915 0
0 0 0 718 1183332 -7197 0
0 0 0 747 1184079 -6450 0
0 0 0 766 1184845 -5684 0
0 0 0 751 1185596 -4933 0
0 0 0 717 1186313 -4216 0
0 0 0 737 1187050 -3479 0
0 0 0 744 1187794 -2735 0
0 0 0 733 1188527 -2002 0
50 1 S106 711 1189238 -1291 0
50 1 S106 719 1189957 -572 0
50 2 S106 730 1190687 158 0
50 2 S106 730 1191417 888 0
50 2 S106 715 1192132 1603 0
50 2 S106 704 1192836 2307 0
50 2 S106 737 1193573 3044 0
50 2 S106 748 1194321 3792 0
50 2 S106 749 1195070 4541 0
50 2 S106 714 1195784 5255 0
50 2 S106 724 1196508 5979 0
50 2 S106 726 1197234 6705 0
0 0 0 722 1197956 -7311 0
0 0 0 721 1198677 -6590 0
0 0 0 704 1199381 -5886 0
0 0 0 728 1200109 -5158 0
0 0 0 721 1200830 -4437 0
0 0 0 709 1201539 -3728 0
0 0 0 680 1202219 -3048 0
0 0 0 659 1202878 -2389 0
51 1 S112 658 1203536 -1731 0
51 1 S112 659 1204195 -1072 0
51 1 S112 678 1204873 -394 0
51 2 S112 692 1205565 298 0
51 2 S112 699 1206264 997 0
51 2 S112 747 1207011 1744 0
51 2 S112 771 1207782 2515 0
51 2 S112 799 1208581 3314 0
51 2 S112 792 1209373 4106 0
51 2 S112 786 1210159 4892 0
51 2 S112 797 1210956 5689 0
51 2 S112 784 1211740 6473 0
0 0 0 727 1212467 -8898 0
0 0 0 727 1213194 -8171 0
0 0 0 740 1213934 -7431 0
0 0 0 747 1214681 -6684 0
0 0 0 732 1215413 -5952 0
0 0 0 714 1216127 -5238 0
0 0 0 732 1216859 -4506 0
0 0 0 687 1217546 -3819 0
0 0 0 670 1218216 -3149 0
0 0 0 648 1218864 -2501 0
52 1 S116 647 1219511 -1854 0
52 1 S116 631 1220142 -1223 0
52 1 S116 648 1220790 -575 0
52 2 S116 644 1221434 69 0
52 2 S116 670 1222104 739 0
52 2 S116 640 1222744 1379 0
52 2 S116 630 1223374 2009 0
52 2 S116 631 1224005 2640 0
52 2 S116 624 1224629 3264 0
52 2 S116 624 1225253 3888 0
52 2 S116 622 1225875 4510 0
52 2 S116 616 1226491 5126 0
52 2 S116 607 1227098 5733 0
52 2 S116 589 1227687 6322 1
52 2 S116 589 1228276 6911 1
0 0 0 593 1228869 -11163 0
0 0 0 628 1229497 -10535 0
0 0 0 671 1230168 -9864 0
0 0 0 775 1230943 -9089 0
0 0 0 802 1231745 -8287 0
0 0 0 773 1232518 -7514 0
0 0 0 814 1233332 -6700 0
0 0 0 832 1234164 -5868 0
0 0 0 867 1235031 -5001 0
0 0 0 811 1235842 -4190 0
0 0 0 836 1236678 -3354 0
0 0 0 841 1237519 -2513 0
53 1 S106 832 1238351 -1681 0
53 1 S106 776 1239127 -905 0
53 1 S106 748 1239875 -157 0
53 2 S106 782 1240657 625 0
53 2 S106 780 1241437 1405 0
53 2 S106 761 1242198 2166 0
53 2 S106 729 1242927 2895 0
53 2 S106 767 1243694 3662 0
53 2 S106 774 1244468 4436 0
53 2 S106 769 1245237 5205 0
53 2 S106 720 1245957 5925 0
53 2 S106 744 1246701 6669 0
0 0 0 755 1247456 -8292 0
0 0 0 777 1248233 -7515 0
0 0 0 751 1248984 -6764 0
0 0 0 725 1249709 -6039 0
0 0 0 770 1250479 -5269 0
0 0 0 754 1251233 -4515 0
0 0 0 729 1251962 -3786 0
0 0 0 698 1252660 -3088 0
0 0 0 731 1253391 -2357 0
54 1 S102 739 1254130 -1618 0
54 1 S102 709 1254839 -909 0
54 1 S102 691 1255530 -218 0
54 2 S102 723 1256253 505 0
54 2 S102 735 1256988 1240 0
54 2 S102 750 1257738 1990 0
54 2 S102 741 1258479 2731 0
54 2 S102 766 1259245 3497 0
54 2 S102 801 1260046 4298 0
54 2 S102 795 1260841 5093 0
54 2 S102 745 1261586 5838 0
54 2 S102 711 1262297 6549 0
0 0 0 742 1263039 -12835 0
0 0 0 738 1263777 -12097 0
0 0 0 784 1264561 -11313 0
0 0 0 719 1265280 -10594 0
0 0 0 746 1266026 -9848 0
0 0 0 758 1266784 -9090 0
0 0 0 736 1267520 -8354 0
0 0 0 703 1268223 -7651 0
0 0 0 713 1268936 -6938 0
0 0 0 733 1269669 -6205 0
0 0 0 728 1270397 -5477 0
0 0 0 711 1271108 -4766 0
0 0 0 687 1271795 -4079 0
0 0 0 702 1272497 -3377 0
0 0 0 730 1273227 -2647 0
55 1 S106 759 1273986 -1888 0
55 1 S106 757 1274743 -1131 0
55 1 S106 755 1275498 -376 0
55 2 S106 818 1276316 442 0
55 2 S106 842 1277158 1284 0
55 2 S106 848 1278006 2132 0
55 2 S106 771 1278777 2903 0
55 2 S106 775 1279552 3678 0
55 2 S106 766 1280318 4444 0
55 2 S106 745 1281063 5189 0
55 2 S106 740 1281803 5929 0
55 2 S106 704 1282507 6633 0
0 0 0 753 1283260 -8513 0
0 0 0 753 1284013 -7760 0
0 0 0 759 1284772 -7001 0
0 0 0 738 1285510 -6263 0
0 0 0 739 1286249 -5524 0
0 0 0 783 1287032 -4741 0
0 0 0 774 1287806 -3967 0
0 0 0 755 1288561 -3212 0
0 0 0 716 1289277 -2496 0
56 1 S116 740 1290017 -1756 0
56 1 S116 735 1290752 -1021 0
56 1 S116 735 1291487 -286 0
56 2 S116 702 1292189 416 0
56 2 S116 688 1292877 1104 0
56 2 S116 695 1293572 1799 0
56 2 S116 686 1294258 2485 0
56 2 S116 692 1294950 3177 0
56 2 S116 681 1295631 3858 0
56 2 S116 659 1296290 4517 0
56 2 S116 644 1296934 5161 0
56 2 S116 639 1297573 5800 0
56 2 S116 643 1298216 6443 0
0 0 0 650 1298866 -12503 0
0 0 0 717 1299583 -11786 0
0 0 0 747 1300330 -11039 0
0 0 0 757 1301087 -10282 0
0 0 0 769 1301856 -9513 0
0 0 0 795 1302651 -8718 0
0 0 0 778 1303429 -7940 0
0 0 0 719 1304148 -7221 0
0 0 0 679 1304827 -6542 0
0 0 0 650 1305477 -5892 0
0 0 0 639 1306116 -5253 0
0 0 0 627 1306743 -4626 0
0 0 0 620 1307363 -4006 0
0 0 0 626 1307989 -3380 0
0 0 0 652 1308641 -2728 0
0 0 0 689 1309330 -2039 0
57 1 S106 706 1310036 -1333 0
57 1 S106 695 1310731 -638 0
57 2 S106 686 1311417 48 0
57 2 S106 682 1312099 730 0
57 2 S106 688 1312787 1418 0
57 2 S106 667 1313454 2085 0
57 2 S106 663 1314117 2748 0
57 2 S106 656 1314773 3404 0
57 2 S106 653 1315426 4057 0
57 2 S106 667 1316093 4724 0
57 2 S106 717 1316810 5441 0
57 2 S106 782 1317592 6223 0
57 2 S106 793 1318385 7016 0
0 0 0 810 1319195 -10990 0
0 0 0 829 1320024 -10161 0
0 0 0 819 1320843 -9342 0
0 0 0 806 1321649 -8536 0
0 0 0 796 1322445 -7740 0
0 0 0 764 1323209 -6976 0
0 0 0 757 1323966 -6219 0
0 0 0 744 1324710 -5475 0
0 0 0 726 1325436 -4749 0
0 0 0 714 1326150 -4035 0
0 0 0 699 1326849 -3336 0
0 0 0 686 1327535 -2650 0
58 1 S102 694 1328229 -1956 0
58 1 S102 705 1328934 -1251 0
58 1 S102 724 1329658 -527 0
58 2 S102 733 1330391 206 0
58 2 S102 720 1331111 926 0
58 2 S102 711 1331822 1637 0
58 2 S102 720 1332542 2357 0
58 2 S102 752 1333294 3109 0
58 2 S102 801 1334095 3910 0
58 2 S102 821 1334916 4731 0
58 2 S102 812 1335728 5543 0
58 2 S102 773 1336501 6316 0
0 0 0 751 1337252 -10357 0
0 0 0 783 1338035 -9574 0
0 0 0 778 1338813 -8796 0
0 0 0 770 1339583 -8026 0
0 0 0 763 1340346 -7263 0
0 0 0 707 1341053 -6556 0
0 0 0 725 1341778 -5831 0
0 0 0 726 1342504 -5105 0
0 0 0 706 1343210 -4399 0
0 0 0 686 1343896 -3713 0
0 0 0 663 1344559 -3050 0
0 0 0 657 1345216 -2393 0
59 1 S112 665 1345881 -1728 0
59 1 S112 677 1346558 -1051 0
59 1 S112 708 1347266 -343 0
59 2 S112 715 1347981 372 0
59 2 S112 716 1348697 1088 0
59 2 S112 687 1349384 1775 0
59 2 S112 684 1350068 2459 0
59 2 S112 692 1350760 3151 0
59 2 S112 729 1351489 3880 0
59 2 S112 766 1352255 4646 0
59 2 S112 774 1353029 5420 0
59 2 S112 735 1353764 6155 0
59 2 S112 716 1354480 6871 0
0 0 0 727 1355207 -10970 0
0 0 0 732 1355939 -10238 0
0 0 0 721 1356660 -9517 0
0 0 0 722 1357382 -8795 0
0 0 0 700 1358082 -8095 0
0 0 0 710 1358792 -7385 0
0 0 0 712 1359504 -6673 0
0 0 0 697 1360201 -5976 0
0 0 0 682 1360883 -5294 0
0 0 0 668 1361551 -4626 0
0 0 0 672 1362223 -3954 0
0 0 0 671 1362894 -3283 0
0 0 0 683 1363577 -2600 0
60 1 S102 679 1364256 -1921 0
60 1 S102 678 1364934 -1243 0
60 1 S102 663 1365597 -580 0
60 2 S102 684 1366281 104 0
60 2 S102 691 1366972 795 0
60 2 S102 721 1367693 1516 0
60 2 S102 710 1368403 2226 0
60 2 S102 676 1369079 2902 0
60 2 S102 660 1369739 3562 0
60 2 S102 655 1370394 4217 0
60 2 S102 653 1371047 4870 0
60 2 S102 639 1371686 5509 0
60 2 S102 664 1372350 6173 0
60 2 S102 680 1373030 6853 0
