P_0007
BeatCount Mean SD BeatCountNoOutliers MeanNoOutliers SDNoOutliers
2345 616,389765458422 27,0328594950496 2309 614,898224339541 22,8168229696193

Trial TrialStatus Trialtype IBI AbsPosition RelPosition Outlier
0 0 0 637 775 -19191 0
0 0 0 642 1417 -18549 0
0 0 0 643 2060 -17906 0
0 0 0 649 2709 -17257 0
0 0 0 642 3351 -16615 0
0 0 0 637 3988 -15978 0
0 0 0 638 4626 -15340 0
0 0 0 640 5266 -14700 0
0 0 0 641 5907 -14059 0
0 0 0 648 6555 -13411 0
0 0 0 647 7202 -12764 0
0 0 0 635 7837 -12129 0
0 0 0 623 8460 -11506 0
0 0 0 618 9078 -10888 0
0 0 0 616 9694 -10272 0
0 0 0 622 10316 -9650 0
0 0 0 625 10941 -9025 0
0 0 0 632 11573 -8393 0
0 0 0 634 12207 -7759 0
0 0 0 628 12835 -7131 0
0 0 0 619 13454 -6512 0
0 0 0 606 14060 -5906 0
0 0 0 604 14664 -5302 0
0 0 0 598 15262 -4704 0
0 0 0 616 15878 -4088 0
0 0 0 665 16543 -3423 0
0 0 0 755 17298 -2668 1
1 1 S112 747 18045 -1921 1
1 1 S112 752 18797 -1169 1
1 1 S112 752 19549 -417 1
1 2 S112 754 20303 337 1
1 2 S112 731 21034 1068 1
1 2 S112 701 21735 1769 1
1 2 S112 677 22412 2446 0
1 2 S112 658 23070 3104 0
1 2 S112 645 23715 3749 0
1 2 S112 635 24350 4384 0
1 2 S112 626 24976 5010 0
1 2 S112 612 25588 5622 0
1 2 S112 609 26197 6231 0
1 2 S112 601 26798 6832 0
0 0 0 600 27398 -13954 0
0 0 0 615 28013 -13339 0
0 0 0 638 28651 -12701 0
0 0 0 648 29299 -12053 0
0 0 0 650 29949 -11403 0
0 0 0 651 30600 -10752 0
0 0 0 648 31248 -10104 0
0 0 0 651 31899 -9453 0
0 0 0 644 32543 -8809 0
0 0 0 649 33192 -8160 0
0 0 0 650 33842 -7510 0
0 0 0 639 34481 -6871 0
0 0 0 635 35116 -6236 0
0 0 0 642 35758 -5594 0
0 0 0 640 36398 -4954 0
0 0 0 643 37041 -4311 0
0 0 0 627 37668 -3684 0
0 0 0 621 38289 -3063 0
0 0 0 626 38915 -2437 0
2 1 S102 626 39541 -1811 0
2 1 S102 621 40162 -1190 0
2 1 S102 618 40780 -572 0
2 2 S102 616 41396 44 0
2 2 S102 625 42021 669 0
2 2 S102 626 42647 1295 0
2 2 S102 624 43271 1919 0
2 2 S102 633 43904 2552 0
2 2 S102 632 44536 3184 0
2 2 S102 628 45164 3812 0
2 2 S102 616 45780 4428 0
2 2 S102 622 46402 5050 0
2 2 S102 628 47030 5678 0
2 2 S102 658 47688 6336 0
2 2 S102 668 48356 7004 0
0 0 0 665 49021 -14049 0
0 0 0 661 49682 -13388 0
0 0 0 651 50333 -12737 0
0 0 0 638 50971 -12099 0
0 0 0 622 51593 -11477 0
0 0 0 624 52217 -10853 0
0 0 0 624 52841 -10229 0
0 0 0 619 53460 -9610 0
0 0 0 615 54075 -8995 0
0 0 0 628 54703 -8367 0
0 0 0 631 55334 -7736 0
0 0 0 631 55965 -7105 0
0 0 0 636 56601 -6469 0
0 0 0 631 57232 -5838 0
0 0 0 619 57851 -5219 0
0 0 0 611 58462 -4608 0
0 0 0 620 59082 -3988 0
0 0 0 651 59733 -3337 0
0 0 0 672 60405 -2665 0
3 1 S116 711 61116 -1954 1
3 1 S116 721 61837 -1233 1
3 1 S116 695 62532 -538 1
3 2 S116 677 63209 139 0
3 2 S116 670 63879 809 0
3 2 S116 656 64535 1465 0
3 2 S116 646 65181 2111 0
3 2 S116 631 65812 2742 0
3 2 S116 616 66428 3358 0
3 2 S116 619 67047 3977 0
3 2 S116 621 67668 4598 0
3 2 S116 627 68295 5225 0
3 2 S116 630 68925 5855 0
3 2 S116 619 69544 6474 0
0 0 0 613 70157 -14415 0
0 0 0 632 70789 -13783 0
0 0 0 646 71435 -13137 0
0 0 0 664 72099 -12473 0
0 0 0 652 72751 -11821 0
0 0 0 642 73393 -11179 0
0 0 0 638 74031 -10541 0
0 0 0 641 74672 -9900 0
0 0 0 631 75303 -9269 0
0 0 0 631 75934 -8638 0
0 0 0 632 76566 -8006 0
0 0 0 629 77195 -7377 0
0 0 0 622 77817 -6755 0
0 0 0 622 78439 -6133 0
0 0 0 634 79073 -5499 0
0 0 0 639 79712 -4860 0
0 0 0 634 80346 -4226 0
0 0 0 641 80987 -3585 0
0 0 0 650 81637 -2935 0
0 0 0 652 82289 -2283 0
4 1 S106 654 82943 -1629 0
4 1 S106 639 83582 -990 0
4 1 S106 642 84224 -348 0
4 2 S106 644 84868 296 0
4 2 S106 647 85515 943 0
4 2 S106 639 86154 1582 0
4 2 S106 646 86800 2228 0
4 2 S106 655 87455 2883 0
4 2 S106 667 88122 3550 0
4 2 S106 654 88776 4204 0
4 2 S106 650 89426 4854 0
4 2 S106 648 90074 5502 0
4 2 S106 643 90717 6145 0
4 2 S106 638 91355 6783 0
0 0 0 626 91981 -10015 0
0 0 0 633 92614 -9382 0
0 0 0 637 93251 -8745 0
0 0 0 636 93887 -8109 0
0 0 0 632 94519 -7477 0
0 0 0 633 95152 -6844 0
0 0 0 641 95793 -6203 0
0 0 0 644 96437 -5559 0
0 0 0 643 97080 -4916 0
0 0 0 642 97722 -4274 0
0 0 0 634 98356 -3640 0
0 0 0 620 98976 -3020 0
0 0 0 614 99590 -2406 0
5 1 S116 615 100205 -1791 0
5 1 S116 621 100826 -1170 0
5 1 S116 641 101467 -529 0
5 2 S116 650 102117 121 0
5 2 S116 655 102772 776 0
5 2 S116 669 103441 1445 0
5 2 S116 677 104118 2122 0
5 2 S116 672 104790 2794 0
5 2 S116 666 105456 3460 0
5 2 S116 653 106109 4113 0
5 2 S116 657 106766 4770 0
5 2 S116 658 107424 5428 0
5 2 S116 661 108085 6089 0
5 2 S116 648 108733 6737 0
0 0 0 633 109366 -13502 0
0 0 0 639 110005 -12863 0
0 0 0 639 110644 -12224 0
0 0 0 632 111276 -11592 0
0 0 0 624 111900 -10968 0
0 0 0 621 112521 -10347 0
0 0 0 628 113149 -9719 0
0 0 0 624 113773 -9095 0
0 0 0 623 114396 -8472 0
0 0 0 620 115016 -7852 0
0 0 0 636 115652 -7216 0
0 0 0 642 116294 -6574 0
0 0 0 641 116935 -5933 0
0 0 0 642 117577 -5291 0
0 0 0 646 118223 -4645 0
0 0 0 649 118872 -3996 0
0 0 0 643 119515 -3353 0
0 0 0 633 120148 -2720 0
0 0 0 631 120779 -2089 0
6 1 S106 628 121407 -1461 0
6 1 S106 633 122040 -828 0
6 1 S106 627 122667 -201 0
6 2 S106 627 123294 426 0
6 2 S106 631 123925 1057 0
6 2 S106 642 124567 1699 0
6 2 S106 645 125212 2344 0
6 2 S106 641 125853 2985 0
6 2 S106 644 126497 3629 0
6 2 S106 642 127139 4271 0
6 2 S106 640 127779 4911 0
6 2 S106 632 128411 5543 0
6 2 S106 618 129029 6161 0
6 2 S106 609 129638 6770 0
0 0 0 612 130250 -12678 0
0 0 0 622 130872 -12056 0
0 0 0 637 131509 -11419 0
0 0 0 629 132138 -10790 0
0 0 0 624 132762 -10166 0
0 0 0 630 133392 -9536 0
0 0 0 630 134022 -8906 0
0 0 0 624 134646 -8282 0
0 0 0 618 135264 -7664 0
0 0 0 611 135875 -7053 0
0 0 0 606 136481 -6447 0
0 0 0 600 137081 -5847 0
0 0 0 598 137679 -5249 0
0 0 0 599 138278 -4650 0
0 0 0 603 138881 -4047 0
0 0 0 609 139490 -3438 0
0 0 0 618 140108 -2820 0
0 0 0 627 140735 -2193 0
7 1 S102 633 141368 -1560 0
7 1 S102 631 141999 -929 0
7 1 S102 628 142627 -301 0
7 2 S102 623 143250 322 0
7 2 S102 628 143878 950 0
7 2 S102 629 144507 1579 0
7 2 S102 628 145135 2207 0
7 2 S102 620 145755 2827 0
7 2 S102 613 146368 3440 0
7 2 S102 613 146981 4053 0
7 2 S102 616 147597 4669 0
7 2 S102 621 148218 5290 0
7 2 S102 617 148835 5907 0
7 2 S102 610 149445 6517 0
0 0 0 612 150057 -12947 0
0 0 0 617 150674 -12330 0
0 0 0 626 151300 -11704 0
0 0 0 625 151925 -11079 0
0 0 0 623 152548 -10456 0
0 0 0 626 153174 -9830 0
0 0 0 623 153797 -9207 0
0 0 0 617 154414 -8590 0
0 0 0 618 155032 -7972 0
0 0 0 617 155649 -7355 0
0 0 0 615 156264 -6740 0
0 0 0 619 156883 -6121 0
0 0 0 621 157504 -5500 0
0 0 0 615 158119 -4885 0
0 0 0 616 158735 -4269 0
0 0 0 624 159359 -3645 0
0 0 0 631 159990 -3014 0
0 0 0 619 160609 -2395 0
8 1 S112 616 161225 -1779 0
8 1 S112 621 161846 -1158 0
8 1 S112 624 162470 -534 0
8 2 S112 630 163100 96 0
8 2 S112 625 163725 721 0
8 2 S112 626 164351 1347 0
8 2 S112 637 164988 1984 0
8 2 S112 652 165640 2636 0
8 2 S112 639 166279 3275 0
8 2 S112 634 166913 3909 0
8 2 S112 628 167541 4537 0
8 2 S112 631 168172 5168 0
8 2 S112 624 168796 5792 0
8 2 S112 620 169416 6412 0
0 0 0 621 170037 -9214 0
0 0 0 623 170660 -8591 0
0 0 0 621 171281 -7970 0
0 0 0 615 171896 -7355 0
0 0 0 613 172509 -6742 0
0 0 0 616 173125 -6126 0
0 0 0 617 173742 -5509 0
0 0 0 612 174354 -4897 0
0 0 0 620 174974 -4277 0
0 0 0 618 175592 -3659 0
0 0 0 615 176207 -3044 0
0 0 0 609 176816 -2435 0
9 1 S116 616 177432 -1819 0
9 1 S116 605 178037 -1214 0
9 1 S116 595 178632 -619 0
9 1 S116 588 179220 -31 0
9 2 S116 582 179802 551 0
9 2 S116 588 180390 1139 0
9 2 S116 588 180978 1727 0
9 2 S116 587 181565 2314 0
9 2 S116 590 182155 2904 0
9 2 S116 599 182754 3503 0
9 2 S116 603 183357 4106 0
9 2 S116 605 183962 4711 0
9 2 S116 603 184565 5314 0
9 2 S116 598 185163 5912 0
9 2 S116 609 185772 6521 0
0 0 0 617 186389 -14563 0
0 0 0 626 187015 -13937 0
0 0 0 618 187633 -13319 0
0 0 0 614 188247 -12705 0
0 0 0 613 188860 -12092 0
0 0 0 601 189461 -11491 0
0 0 0 595 190056 -10896 0
0 0 0 590 190646 -10306 0
0 0 0 591 191237 -9715 0
0 0 0 595 191832 -9120 0
0 0 0 598 192430 -8522 0
0 0 0 594 193024 -7928 0
0 0 0 592 193616 -7336 0
0 0 0 599 194215 -6737 0
0 0 0 598 194813 -6139 0
0 0 0 601 195414 -5538 0
0 0 0 599 196013 -4939 0
0 0 0 622 196635 -4317 0
0 0 0 635 197270 -3682 0
0 0 0 659 197929 -3023 0
0 0 0 653 198582 -2370 0
10 1 S102 641 199223 -1729 0
10 1 S102 646 199869 -1083 0
10 1 S102 644 200513 -439 0
10 2 S102 637 201150 198 0
10 2 S102 624 201774 822 0
10 2 S102 621 202395 1443 0
10 2 S102 614 203009 2057 0
10 2 S102 610 203619 2667 0
10 2 S102 601 204220 3268 0
10 2 S102 595 204815 3863 0
10 2 S102 603 205418 4466 0
10 2 S102 616 206034 5082 0
10 2 S102 619 206653 5701 0
10 2 S102 629 207282 6330 0
10 2 S102 643 207925 6973 0
0 0 0 649 208574 -12770 0
0 0 0 649 209223 -12121 0
0 0 0 638 209861 -11483 0
0 0 0 639 210500 -10844 0
0 0 0 632 211132 -10212 0
0 0 0 626 211758 -9586 0
0 0 0 619 212377 -8967 0
0 0 0 619 212996 -8348 0
0 0 0 616 213612 -7732 0
0 0 0 611 214223 -7121 0
0 0 0 609 214832 -6512 0
0 0 0 611 215443 -5901 0
0 0 0 621 216064 -5280 0
0 0 0 629 216693 -4651 0
0 0 0 621 217314 -4030 0
0 0 0 623 217937 -3407 0
0 0 0 629 218566 -2778 0
0 0 0 640 219206 -2138 0
11 1 S112 642 219848 -1496 0
11 1 S112 636 220484 -860 0
11 1 S112 634 221118 -226 0
11 2 S112 637 221755 411 0
11 2 S112 639 222394 1050 0
11 2 S112 635 223029 1685 0
11 2 S112 628 223657 2313 0
11 2 S112 622 224279 2935 0
11 2 S112 624 224903 3559 0
11 2 S112 621 225524 4180 0
11 2 S112 620 226144 4800 0
11 2 S112 612 226756 5412 0
11 2 S112 615 227371 6027 0
11 2 S112 614 227985 6641 0
0 0 0 617 228602 -8773 0
0 0 0 618 229220 -8155 0
0 0 0 619 229839 -7536 0
0 0 0 617 230456 -6919 0
0 0 0 611 231067 -6308 0
0 0 0 604 231671 -5704 0
0 0 0 604 232275 -5100 0
0 0 0 606 232881 -4494 0
0 0 0 600 233481 -3894 0
0 0 0 594 234075 -3300 0
0 0 0 603 234678 -2697 0
0 0 0 612 235290 -2085 0
12 1 S116 616 235906 -1469 0
12 1 S116 611 236517 -858 0
12 1 S116 614 237131 -244 0
12 2 S116 623 237754 379 0
12 2 S116 627 238381 1006 0
12 2 S116 626 239007 1632 0
12 2 S116 621 239628 2253 0
12 2 S116 627 240255 2880 0
12 2 S116 626 240881 3506 0
12 2 S116 618 241499 4124 0
12 2 S116 615 242114 4739 0
12 2 S116 621 242735 5360 0
12 2 S116 638 243373 5998 0
12 2 S116 640 244013 6638 0
0 0 0 631 244644 -13752 0
0 0 0 641 245285 -13111 0
0 0 0 638 245923 -12473 0
0 0 0 638 246561 -11835 0
0 0 0 624 247185 -11211 0
0 0 0 610 247795 -10601 0
0 0 0 602 248397 -9999 0
0 0 0 604 249001 -9395 0
0 0 0 606 249607 -8789 0
0 0 0 598 250205 -8191 0
0 0 0 590 250795 -7601 0
0 0 0 588 251383 -7013 0
0 0 0 593 251976 -6420 0
0 0 0 594 252570 -5826 0
0 0 0 595 253165 -5231 0
0 0 0 600 253765 -4631 0
0 0 0 610 254375 -4021 0
0 0 0 622 254997 -3399 0
0 0 0 645 255642 -2754 0
0 0 0 631 256273 -2123 0
13 1 S112 629 256902 -1494 0
13 1 S112 639 257541 -855 0
13 1 S112 639 258180 -216 0
13 2 S112 628 258808 412 0
13 2 S112 614 259422 1026 0
13 2 S112 605 260027 1631 0
13 2 S112 600 260627 2231 0
13 2 S112 599 261226 2830 0
13 2 S112 597 261823 3427 0
13 2 S112 599 262422 4026 0
13 2 S112 599 263021 4625 0
13 2 S112 602 263623 5227 0
13 2 S112 606 264229 5833 0
13 2 S112 617 264846 6450 0
0 0 0 613 265459 -14406 0
0 0 0 617 266076 -13789 0
0 0 0 624 266700 -13165 0
0 0 0 627 267327 -12538 0
0 0 0 622 267949 -11916 0
0 0 0 613 268562 -11303 0
0 0 0 612 269174 -10691 0
0 0 0 609 269783 -10082 0
0 0 0 600 270383 -9482 0
0 0 0 602 270985 -8880 0
0 0 0 600 271585 -8280 0
0 0 0 599 272184 -7681 0
0 0 0 595 272779 -7086 0
0 0 0 590 273369 -6496 0
0 0 0 603 273972 -5893 0
0 0 0 617 274589 -5276 0
0 0 0 641 275230 -4635 0
0 0 0 641 275871 -3994 0
0 0 0 644 276515 -3350 0
0 0 0 656 277171 -2694 0
0 0 0 675 277846 -2019 0
14 1 S106 663 278509 -1356 0
14 1 S106 650 279159 -706 0
14 1 S106 647 279806 -59 0
14 2 S106 641 280447 582 0
14 2 S106 639 281086 1221 0
14 2 S106 630 281716 1851 0
14 2 S106 623 282339 2474 0
14 2 S106 616 282955 3090 0
14 2 S106 625 283580 3715 0
14 2 S106 630 284210 4345 0
14 2 S106 635 284845 4980 0
14 2 S106 632 285477 5612 0
14 2 S106 632 286109 6244 0
14 2 S106 647 286756 6891 0
0 0 0 665 287421 -16019 0
0 0 0 662 288083 -15357 0
0 0 0 652 288735 -14705 0
0 0 0 651 289386 -14054 0
0 0 0 639 290025 -13415 0
0 0 0 627 290652 -12788 0
0 0 0 619 291271 -12169 0
0 0 0 621 291892 -11548 0
0 0 0 624 292516 -10924 0
0 0 0 618 293134 -10306 0
0 0 0 622 293756 -9684 0
0 0 0 628 294384 -9056 0
0 0 0 628 295012 -8428 0
0 0 0 618 295630 -7810 0
0 0 0 619 296249 -7191 0
0 0 0 629 296878 -6562 0
0 0 0 627 297505 -5935 0
0 0 0 625 298130 -5310 0
0 0 0 620 298750 -4690 0
0 0 0 620 299370 -4070 0
0 0 0 617 299987 -3453 0
0 0 0 619 300606 -2834 0
0 0 0 609 301215 -2225 0
15 1 S116 605 301820 -1620 0
15 1 S116 610 302430 -1010 0
15 1 S116 617 303047 -393 0
15 2 S116 622 303669 229 0
15 2 S116 621 304290 850 0
15 2 S116 622 304912 1472 0
15 2 S116 632 305544 2104 0
15 2 S116 638 306182 2742 0
15 2 S116 633 306815 3375 0
15 2 S116 628 307443 4003 0
15 2 S116 629 308072 4632 0
15 2 S116 632 308704 5264 0
15 2 S116 634 309338 5898 0
15 2 S116 624 309962 6522 0
0 0 0 619 310581 -14079 0
0 0 0 609 311190 -13470 0
0 0 0 615 311805 -12855 0
0 0 0 610 312415 -12245 0
0 0 0 614 313029 -11631 0
0 0 0 609 313638 -11022 0
0 0 0 610 314248 -10412 0
0 0 0 607 314855 -9805 0
0 0 0 609 315464 -9196 0
0 0 0 604 316068 -8592 0
0 0 0 613 316681 -7979 0
0 0 0 617 317298 -7362 0
0 0 0 621 317919 -6741 0
0 0 0 608 318527 -6133 0
0 0 0 608 319135 -5525 0
0 0 0 611 319746 -4914 0
0 0 0 606 320352 -4308 0
0 0 0 603 320955 -3705 0
0 0 0 595 321550 -3110 0
0 0 0 595 322145 -2515 0
16 1 S116 600 322745 -1915 0
16 1 S116 605 323350 -1310 0
16 1 S116 603 323953 -707 0
16 1 S116 600 324553 -107 0
16 2 S116 609 325162 502 0
16 2 S116 620 325782 1122 0
16 2 S116 620 326402 1742 0
16 2 S116 614 327016 2356 0
16 2 S116 612 327628 2968 0
16 2 S116 618 328246 3586 0
16 2 S116 619 328865 4205 0
16 2 S116 613 329478 4818 0
16 2 S116 607 330085 5425 0
16 2 S116 610 330695 6035 0
16 2 S116 614 331309 6649 0
0 0 0 619 331928 -15494 0
0 0 0 629 332557 -14865 0
0 0 0 626 333183 -14239 0
0 0 0 620 333803 -13619 0
0 0 0 617 334420 -13002 0
0 0 0 610 335030 -12392 0
0 0 0 601 335631 -11791 0
0 0 0 596 336227 -11195 0
0 0 0 594 336821 -10601 0
0 0 0 593 337414 -10008 0
0 0 0 587 338001 -9421 0
0 0 0 589 338590 -8832 0
0 0 0 591 339181 -8241 0
0 0 0 596 339777 -7645 0
0 0 0 594 340371 -7051 0
0 0 0 596 340967 -6455 0
0 0 0 592 341559 -5863 0
0 0 0 594 342153 -5269 0
0 0 0 585 342738 -4684 0
0 0 0 590 343328 -4094 0
0 0 0 601 343929 -3493 0
0 0 0 610 344539 -2883 0
0 0 0 612 345151 -2271 0
17 1 S106 611 345762 -1660 0
17 1 S106 616 346378 -1044 0
17 1 S106 620 346998 -424 0
17 2 S106 621 347619 197 0
17 2 S106 615 348234 812 0
17 2 S106 604 348838 1416 0
17 2 S106 602 349440 2018 0
17 2 S106 602 350042 2620 0
17 2 S106 597 350639 3217 0
17 2 S106 591 351230 3808 0
17 2 S106 591 351821 4399 0
17 2 S106 594 352415 4993 0
17 2 S106 602 353017 5595 0
17 2 S106 609 353626 6204 0
17 2 S106 611 354237 6815 0
0 0 0 608 354845 -17859 0
0 0 0 610 355455 -17249 0
0 0 0 611 356066 -16638 0
0 0 0 606 356672 -16032 0
0 0 0 604 357276 -15428 0
0 0 0 606 357882 -14822 0
0 0 0 608 358490 -14214 0
0 0 0 615 359105 -13599 0
0 0 0 611 359716 -12988 0
0 0 0 607 360323 -12381 0
0 0 0 605 360928 -11776 0
0 0 0 612 361540 -11164 0
0 0 0 612 362152 -10552 0
0 0 0 608 362760 -9944 0
0 0 0 617 363377 -9327 0
0 0 0 621 363998 -8706 0
0 0 0 612 364610 -8094 0
0 0 0 611 365221 -7483 0
0 0 0 613 365834 -6870 0
0 0 0 618 366452 -6252 0
0 0 0 622 367074 -5630 0
0 0 0 619 367693 -5011 0
0 0 0 624 368317 -4387 0
0 0 0 627 368944 -3760 0
0 0 0 626 369570 -3134 0
0 0 0 622 370192 -2512 0
18 1 S102 629 370821 -1883 0
18 1 S102 635 371456 -1248 0
18 1 S102 630 372086 -618 0
18 2 S102 622 372708 4 0
18 2 S102 625 373333 629 0
18 2 S102 619 373952 1248 0
18 2 S102 610 374562 1858 0
18 2 S102 603 375165 2461 0
18 2 S102 598 375763 3059 0
18 2 S102 600 376363 3659 0
18 2 S102 600 376963 4259 0
18 2 S102 606 377569 4865 0
18 2 S102 603 378172 5468 0
18 2 S102 601 378773 6069 0
18 2 S102 607 379380 6676 0
0 0 0 608 379988 -10721 0
0 0 0 615 380603 -10106 0
0 0 0 609 381212 -9497 0
0 0 0 605 381817 -8892 0
0 0 0 599 382416 -8293 0
0 0 0 599 383015 -7694 0
0 0 0 598 383613 -7096 0
0 0 0 602 384215 -6494 0
0 0 0 606 384821 -5888 0
0 0 0 600 385421 -5288 0
0 0 0 598 386019 -4690 0
0 0 0 602 386621 -4088 0
0 0 0 598 387219 -3490 0
0 0 0 594 387813 -2896 0
0 0 0 601 388414 -2295 0
19 1 S106 605 389019 -1690 0
19 1 S106 607 389626 -1083 0
19 1 S106 609 390235 -474 0
19 2 S106 612 390847 138 0
19 2 S106 613 391460 751 0
19 2 S106 612 392072 1363 0
19 2 S106 609 392681 1972 0
19 2 S106 602 393283 2574 0
19 2 S106 605 393888 3179 0
19 2 S106 603 394491 3782 0
19 2 S106 610 395101 4392 0
19 2 S106 605 395706 4997 0
19 2 S106 600 396306 5597 0
19 2 S106 605 396911 6202 0
19 2 S106 604 397515 6806 0
0 0 0 613 398128 -16569 0
0 0 0 615 398743 -15954 0
0 0 0 614 399357 -15340 0
0 0 0 613 399970 -14727 0
0 0 0 607 400577 -14120 0
0 0 0 602 401179 -13518 0
0 0 0 592 401771 -12926 0
0 0 0 591 402362 -12335 0
0 0 0 590 402952 -11745 0
0 0 0 591 403543 -11154 0
0 0 0 588 404131 -10566 0
0 0 0 594 404725 -9972 0
0 0 0 603 405328 -9369 0
0 0 0 610 405938 -8759 0
0 0 0 599 406537 -8160 0
0 0 0 598 407135 -7562 0
0 0 0 598 407733 -6964 0
0 0 0 596 408329 -6368 0
0 0 0 596 408925 -5772 0
0 0 0 590 409515 -5182 0
0 0 0 595 410110 -4587 0
0 0 0 601 410711 -3986 0
0 0 0 606 411317 -3380 0
0 0 0 608 411925 -2772 0
0 0 0 607 412532 -2165 0
20 1 S112 617 413149 -1548 0
20 1 S112 622 413771 -926 0
20 1 S112 616 414387 -310 0
20 2 S112 608 414995 298 0
20 2 S112 608 415603 906 0
20 2 S112 603 416206 1509 0
20 2 S112 603 416809 2112 0
20 2 S112 600 417409 2712 0
20 2 S112 593 418002 3305 0
20 2 S112 591 418593 3896 0
20 2 S112 596 419189 4492 0
20 2 S112 599 419788 5091 0
20 2 S112 597 420385 5688 0
20 2 S112 596 420981 6284 0
20 2 S112 603 421584 6887 0
0 0 0 609 422193 -15449 0
0 0 0 612 422805 -14837 0
0 0 0 610 423415 -14227 0
0 0 0 613 424028 -13614 0
0 0 0 617 424645 -12997 0
0 0 0 617 425262 -12380 0
0 0 0 609 425871 -11771 0
0 0 0 602 426473 -11169 0
0 0 0 597 427070 -10572 0
0 0 0 595 427665 -9977 0
0 0 0 583 428248 -9394 0
0 0 0 576 428824 -8818 0
0 0 0 578 429402 -8240 0
0 0 0 578 429980 -7662 0
0 0 0 579 430559 -7083 0
0 0 0 576 431135 -6507 0
0 0 0 578 431713 -5929 0
0 0 0 587 432300 -5342 0
0 0 0 587 432887 -4755 0
0 0 0 585 433472 -4170 0
0 0 0 600 434072 -3570 0
0 0 0 613 434685 -2957 0
0 0 0 624 435309 -2333 0
21 1 S106 627 435936 -1706 0
21 1 S106 622 436558 -1084 0
21 1 S106 630 437188 -454 0
21 2 S106 626 437814 172 0
21 2 S106 624 438438 796 0
21 2 S106 617 439055 1413 0
21 2 S106 609 439664 2022 0
21 2 S106 611 440275 2633 0
21 2 S106 604 440879 3237 0
21 2 S106 595 441474 3832 0
21 2 S106 590 442064 4422 0
21 2 S106 594 442658 5016 0
21 2 S106 607 443265 5623 0
21 2 S106 610 443875 6233 0
21 2 S106 621 444496 6854 0
0 0 0 618 445114 -17909 0
0 0 0 626 445740 -17283 0
0 0 0 633 446373 -16650 0
0 0 0 626 446999 -16024 0
0 0 0 623 447622 -15401 0
0 0 0 613 448235 -14788 0
0 0 0 606 448841 -14182 0
0 0 0 599 449440 -13583 0
0 0 0 592 450032 -12991 0
0 0 0 586 450618 -12405 0
0 0 0 580 451198 -11825 0
0 0 0 570 451768 -11255 0
0 0 0 569 452337 -10686 0
0 0 0 568 452905 -10118 0
0 0 0 577 453482 -9541 0
0 0 0 589 454071 -8952 0
0 0 0 595 454666 -8357 0
0 0 0 592 455258 -7765 0
0 0 0 586 455844 -7179 0
0 0 0 596 456440 -6583 0
0 0 0 611 457051 -5972 0
0 0 0 625 457676 -5347 0
0 0 0 619 458295 -4728 0
0 0 0 617 458912 -4111 0
0 0 0 615 459527 -3496 0
0 0 0 618 460145 -2878 0
0 0 0 611 460756 -2267 0
22 1 S116 603 461359 -1664 0
22 1 S116 598 461957 -1066 0
22 1 S116 590 462547 -476 0
22 2 S116 596 463143 120 0
22 2 S116 610 463753 730 0
22 2 S116 628 464381 1358 0
22 2 S116 630 465011 1988 0
22 2 S116 639 465650 2627 0
22 2 S116 664 466314 3291 0
22 2 S116 676 466990 3967 0
22 2 S116 667 467657 4634 0
22 2 S116 658 468315 5292 0
22 2 S116 659 468974 5951 0
22 2 S116 654 469628 6605 0
0 0 0 648 470276 -14250 0
0 0 0 638 470914 -13612 0
0 0 0 629 471543 -12983 0
0 0 0 626 472169 -12357 0
0 0 0 618 472787 -11739 0
0 0 0 608 473395 -11131 0
0 0 0 603 473998 -10528 0
0 0 0 608 474606 -9920 0
0 0 0 615 475221 -9305 0
0 0 0 615 475836 -8690 0
0 0 0 615 476451 -8075 0
0 0 0 614 477065 -7461 0
0 0 0 628 477693 -6833 0
0 0 0 623 478316 -6210 0
0 0 0 616 478932 -5594 0
0 0 0 614 479546 -4980 0
0 0 0 621 480167 -4359 0
0 0 0 625 480792 -3734 0
0 0 0 622 481414 -3112 0
0 0 0 614 482028 -2498 0
23 1 S112 614 482642 -1884 0
23 1 S112 608 483250 -1276 0
23 1 S112 606 483856 -670 0
23 1 S112 603 484459 -67 0
23 2 S112 607 485066 540 0
23 2 S112 623 485689 1163 0
23 2 S112 619 486308 1782 0
23 2 S112 615 486923 2397 0
23 2 S112 610 487533 3007 0
23 2 S112 608 488141 3615 0
23 2 S112 610 488751 4225 0
23 2 S112 613 489364 4838 0
23 2 S112 616 489980 5454 0
23 2 S112 615 490595 6069 0
23 2 S112 621 491216 6690 0
0 0 0 625 491841 -11186 0
0 0 0 621 492462 -10565 0
0 0 0 610 493072 -9955 0
0 0 0 607 493679 -9348 0
0 0 0 597 494276 -8751 0
0 0 0 594 494870 -8157 0
0 0 0 590 495460 -7567 0
0 0 0 579 496039 -6988 0
0 0 0 578 496617 -6410 0
0 0 0 574 497191 -5836 0
0 0 0 575 497766 -5261 0
0 0 0 579 498345 -4682 0
0 0 0 583 498928 -4099 0
0 0 0 588 499516 -3511 0
0 0 0 591 500107 -2920 0
0 0 0 603 500710 -2317 0
24 1 S106 608 501318 -1709 0
24 1 S106 626 501944 -1083 0
24 1 S106 628 502572 -455 0
24 2 S106 617 503189 162 0
24 2 S106 620 503809 782 0
24 2 S106 625 504434 1407 0
24 2 S106 618 505052 2025 0
24 2 S106 606 505658 2631 0
24 2 S106 600 506258 3231 0
24 2 S106 592 506850 3823 0
24 2 S106 594 507444 4417 0
24 2 S106 597 508041 5014 0
24 2 S106 595 508636 5609 0
24 2 S106 591 509227 6200 0
24 2 S106 585 509812 6785 0
0 0 0 591 510403 -9866 0
0 0 0 592 510995 -9274 0
0 0 0 600 511595 -8674 0
0 0 0 594 512189 -8080 0
0 0 0 594 512783 -7486 0
0 0 0 597 513380 -6889 0
0 0 0 604 513984 -6285 0
0 0 0 608 514592 -5677 0
0 0 0 605 515197 -5072 0
0 0 0 602 515799 -4470 0
0 0 0 604 516403 -3866 0
0 0 0 605 517008 -3261 0
0 0 0 613 517621 -2648 0
0 0 0 612 518233 -2036 0
25 1 S102 605 518838 -1431 0
25 1 S102 604 519442 -827 0
25 1 S102 608 520050 -219 0
25 2 S102 620 520670 401 0
25 2 S102 622 521292 1023 0
25 2 S102 618 521910 1641 0
25 2 S102 619 522529 2260 0
25 2 S102 619 523148 2879 0
25 2 S102 621 523769 3500 0
25 2 S102 618 524387 4118 0
25 2 S102 610 524997 4728 0
25 2 S102 602 525599 5330 0
25 2 S102 603 526202 5933 0
25 2 S102 601 526803 6534 0
0 0 0 608 527411 -9287 0
0 0 0 611 528022 -8676 0
0 0 0 610 528632 -8066 0
0 0 0 602 529234 -7464 0
0 0 0 607 529841 -6857 0
0 0 0 614 530455 -6243 0
0 0 0 624 531079 -5619 0
0 0 0 618 531697 -5001 0
0 0 0 617 532314 -4384 0
0 0 0 615 532929 -3769 0
0 0 0 617 533546 -3152 0
0 0 0 619 534165 -2533 0
26 1 S116 612 534777 -1921 0
26 1 S116 603 535380 -1318 0
26 1 S116 606 535986 -712 0
26 1 S116 608 536594 -104 0
26 2 S116 611 537205 507 0
26 2 S116 610 537815 1117 0
26 2 S116 602 538417 1719 0
26 2 S116 599 539016 2318 0
26 2 S116 597 539613 2915 0
26 2 S116 598 540211 3513 0
26 2 S116 607 540818 4120 0
26 2 S116 607 541425 4727 0
26 2 S116 604 542029 5331 0
26 2 S116 606 542635 5937 0
26 2 S116 610 543245 6547 0
0 0 0 622 543867 -15278 0
0 0 0 623 544490 -14655 0
0 0 0 629 545119 -14026 0
0 0 0 617 545736 -13409 0
0 0 0 606 546342 -12803 0
0 0 0 602 546944 -12201 0
0 0 0 597 547541 -11604 0
0 0 0 589 548130 -11015 0
0 0 0 586 548716 -10429 0
0 0 0 583 549299 -9846 0
0 0 0 585 549884 -9261 0
0 0 0 586 550470 -8675 0
0 0 0 587 551057 -8088 0
0 0 0 585 551642 -7503 0
0 0 0 588 552230 -6915 0
0 0 0 595 552825 -6320 0
0 0 0 598 553423 -5722 0
0 0 0 602 554025 -5120 0
0 0 0 599 554624 -4521 0
0 0 0 603 555227 -3918 0
0 0 0 594 555821 -3324 0
0 0 0 592 556413 -2732 0
0 0 0 583 556996 -2149 0
27 1 S106 586 557582 -1563 0
27 1 S106 588 558170 -975 0
27 1 S106 594 558764 -381 0
27 2 S106 593 559357 212 0
27 2 S106 592 559949 804 0
27 2 S106 597 560546 1401 0
27 2 S106 596 561142 1997 0
27 2 S106 602 561744 2599 0
27 2 S106 604 562348 3203 0
27 2 S106 599 562947 3802 0
27 2 S106 605 563552 4407 0
27 2 S106 605 564157 5012 0
27 2 S106 610 564767 5622 0
27 2 S106 600 565367 6222 0
27 2 S106 597 565964 6819 0
0 0 0 596 566560 -15563 0
0 0 0 600 567160 -14963 0
0 0 0 604 567764 -14359 0
0 0 0 600 568364 -13759 0
0 0 0 605 568969 -13154 0
0 0 0 606 569575 -12548 0
0 0 0 620 570195 -11928 0
0 0 0 618 570813 -11310 0
0 0 0 617 571430 -10693 0
0 0 0 623 572053 -10070 0
0 0 0 618 572671 -9452 0
0 0 0 606 573277 -8846 0
0 0 0 599 573876 -8247 0
0 0 0 593 574469 -7654 0
0 0 0 593 575062 -7061 0
0 0 0 587 575649 -6474 0
0 0 0 596 576245 -5878 0
0 0 0 597 576842 -5281 0
0 0 0 606 577448 -4675 0
0 0 0 604 578052 -4071 0
0 0 0 600 578652 -3471 0
0 0 0 603 579255 -2868 0
0 0 0 606 579861 -2262 0
28 1 S102 608 580469 -1654 0
28 1 S102 596 581065 -1058 0
28 1 S102 592 581657 -466 0
28 2 S102 585 582242 119 0
28 2 S102 585 582827 704 0
28 2 S102 590 583417 1294 0
28 2 S102 600 584017 1894 0
28 2 S102 615 584632 2509 0
28 2 S102 625 585257 3134 0
28 2 S102 627 585884 3761 0
28 2 S102 622 586506 4383 0
28 2 S102 621 587127 5004 0
28 2 S102 621 587748 5625 0
28 2 S102 616 588364 6241 0
28 2 S102 605 588969 6846 0
0 0 0 598 589567 -15235 0
0 0 0 591 590158 -14644 0
0 0 0 587 590745 -14057 0
0 0 0 584 591329 -13473 0
0 0 0 574 591903 -12899 0
0 0 0 564 592467 -12335 0
0 0 0 562 593029 -11773 0
0 0 0 561 593590 -11212 0
0 0 0 564 594154 -10648 0
0 0 0 561 594715 -10087 0
0 0 0 554 595269 -9533 0
0 0 0 563 595832 -8970 0
0 0 0 596 596428 -8374 0
0 0 0 634 597062 -7740 0
0 0 0 708 597770 -7032 1
0 0 0 825 598595 -6207 1
0 0 0 801 599396 -5406 1
0 0 0 753 600149 -4653 1
0 0 0 730 600879 -3923 1
0 0 0 698 601577 -3225 1
0 0 0 676 602253 -2549 0
29 1 S112 651 602904 -1898 0
29 1 S112 630 603534 -1268 0
29 1 S112 614 604148 -654 0
29 1 S112 603 604751 -51 0
29 2 S112 596 605347 545 0
29 2 S112 598 605945 1143 0
29 2 S112 588 606533 1731 0
29 2 S112 582 607115 2313 0
29 2 S112 576 607691 2889 0
29 2 S112 580 608271 3469 0
29 2 S112 591 608862 4060 0
29 2 S112 598 609460 4658 0
29 2 S112 602 610062 5260 0
29 2 S112 602 610664 5862 0
29 2 S112 598 611262 6460 0
0 0 0 603 611865 -15483 0
0 0 0 621 612486 -14862 0
0 0 0 643 613129 -14219 0
0 0 0 643 613772 -13576 0
0 0 0 635 614407 -12941 0
0 0 0 639 615046 -12302 0
0 0 0 644 615690 -11658 0
0 0 0 636 616326 -11022 0
0 0 0 633 616959 -10389 0
0 0 0 627 617586 -9762 0
0 0 0 626 618212 -9136 0
0 0 0 627 618839 -8509 0
0 0 0 621 619460 -7888 0
0 0 0 625 620085 -7263 0
0 0 0 627 620712 -6636 0
0 0 0 632 621344 -6004 0
0 0 0 633 621977 -5371 0
0 0 0 632 622609 -4739 0
0 0 0 639 623248 -4100 0
0 0 0 651 623899 -3449 0
0 0 0 637 624536 -2812 0
0 0 0 622 625158 -2190 0
30 1 S112 624 625782 -1566 0
30 1 S112 599 626381 -967 0
30 1 S112 585 626966 -382 0
30 2 S112 575 627541 193 0
30 2 S112 570 628111 763 0
30 2 S112 571 628682 1334 0
30 2 S112 587 629269 1921 0
30 2 S112 606 629875 2527 0
30 2 S112 637 630512 3164 0
30 2 S112 653 631165 3817 0
30 2 S112 648 631813 4465 0
30 2 S112 637 632450 5102 0
30 2 S112 642 633092 5744 0
30 2 S112 645 633737 6389 0
0 0 0 656 634393 -194068 0
0 0 0 648 635041 -193420 0
0 0 0 636 635677 -192784 0
0 0 0 628 636305 -192156 0
0 0 0 624 636929 -191532 0
0 0 0 621 637550 -190911 0
0 0 0 613 638163 -190298 0
0 0 0 608 638771 -189690 0
0 0 0 604 639375 -189086 0
0 0 0 605 639980 -188481 0
0 0 0 615 640595 -187866 0
0 0 0 616 641211 -187250 0
0 0 0 614 641825 -186636 0
0 0 0 612 642437 -186024 0
0 0 0 612 643049 -185412 0
0 0 0 605 643654 -184807 0
0 0 0 598 644252 -184209 0
0 0 0 585 644837 -183624 0
0 0 0 566 645403 -183058 0
0 0 0 563 645966 -182495 0
0 0 0 551 646517 -181944 0
0 0 0 553 647070 -181391 0
0 0 0 548 647618 -180843 0
0 0 0 573 648191 -180270 0
0 0 0 628 648819 -179642 0
0 0 0 634 649453 -179008 0
0 0 0 627 650080 -178381 0
0 0 0 618 650698 -177763 0
0 0 0 607 651305 -177156 0
0 0 0 595 651900 -176561 0
0 0 0 588 652488 -175973 0
0 0 0 576 653064 -175397 0
0 0 0 571 653635 -174826 0
0 0 0 563 654198 -174263 0
0 0 0 561 654759 -173702 0
0 0 0 555 655314 -173147 0
0 0 0 552 655866 -172595 0
0 0 0 556 656422 -172039 0
0 0 0 560 656982 -171479 0
0 0 0 560 657542 -170919 0
0 0 0 568 658110 -170351 0
0 0 0 576 658686 -169775 0
0 0 0 590 659276 -169185 0
0 0 0 601 659877 -168584 0
0 0 0 589 660466 -167995 0
0 0 0 587 661053 -167408 0
0 0 0 581 661634 -166827 0
0 0 0 581 662215 -166246 0
0 0 0 586 662801 -165660 0
0 0 0 627 663428 -165033 0
0 0 0 596 664024 -164437 0
0 0 0 576 664600 -163861 0
0 0 0 568 665168 -163293 0
0 0 0 563 665731 -162730 0
0 0 0 558 666289 -162172 0
0 0 0 571 666860 -161601 0
0 0 0 582 667442 -161019 0
0 0 0 565 668007 -160454 0
0 0 0 559 668566 -159895 0
0 0 0 565 669131 -159330 0
0 0 0 565 669696 -158765 0
0 0 0 571 670267 -158194 0
0 0 0 570 670837 -157624 0
0 0 0 582 671419 -157042 0
0 0 0 590 672009 -156452 0
0 0 0 595 672604 -155857 0
0 0 0 589 673193 -155268 0
0 0 0 599 673792 -154669 0
0 0 0 608 674400 -154061 0
0 0 0 590 674990 -153471 0
0 0 0 597 675587 -152874 0
0 0 0 602 676189 -152272 0
0 0 0 604 676793 -151668 0
0 0 0 595 677388 -151073 0
0 0 0 592 677980 -150481 0
0 0 0 585 678565 -149896 0
0 0 0 580 679145 -149316 0
0 0 0 591 679736 -148725 0
0 0 0 606 680342 -148119 0
0 0 0 601 680943 -147518 0
0 0 0 595 681538 -146923 0
0 0 0 584 682122 -146339 0
0 0 0 575 682697 -145764 0
0 0 0 559 683256 -145205 0
0 0 0 553 683809 -144652 0
0 0 0 548 684357 -144104 0
0 0 0 536 684893 -143568 1
0 0 0 531 685424 -143037 1
0 0 0 530 685954 -142507 1
0 0 0 533 686487 -141974 1
0 0 0 559 687046 -141415 0
0 0 0 641 687687 -140774 0
0 0 0 704 688391 -140070 1
0 0 0 669 689060 -139401 0
0 0 0 670 689730 -138731 0
0 0 0 719 690449 -138012 1
0 0 0 727 691176 -137285 1
0 0 0 741 691917 -136544 1
0 0 0 744 692661 -135800 1
0 0 0 699 693360 -135101 1
0 0 0 687 694047 -134414 1
0 0 0 673 694720 -133741 0
0 0 0 673 695393 -133068 0
0 0 0 666 696059 -132402 0
0 0 0 634 696693 -131768 0
0 0 0 620 697313 -131148 0
0 0 0 616 697929 -130532 0
0 0 0 610 698539 -129922 0
0 0 0 599 699138 -129323 0
0 0 0 594 699732 -128729 0
0 0 0 597 700329 -128132 0
0 0 0 618 700947 -127514 0
0 0 0 636 701583 -126878 0
0 0 0 654 702237 -126224 0
0 0 0 665 702902 -125559 0
0 0 0 662 703564 -124897 0
0 0 0 662 704226 -124235 0
0 0 0 667 704893 -123568 0
0 0 0 675 705568 -122893 0
0 0 0 674 706242 -122219 0
0 0 0 671 706913 -121548 0
0 0 0 661 707574 -120887 0
0 0 0 663 708237 -120224 0
0 0 0 652 708889 -119572 0
0 0 0 642 709531 -118930 0
0 0 0 624 710155 -118306 0
0 0 0 624 710779 -117682 0
0 0 0 625 711404 -117057 0
0 0 0 633 712037 -116424 0
0 0 0 634 712671 -115790 0
0 0 0 657 713328 -115133 0
0 0 0 656 713984 -114477 0
0 0 0 657 714641 -113820 0
0 0 0 653 715294 -113167 0
0 0 0 648 715942 -112519 0
0 0 0 646 716588 -111873 0
0 0 0 637 717225 -111236 0
0 0 0 626 717851 -110610 0
0 0 0 615 718466 -109995 0
0 0 0 610 719076 -109385 0
0 0 0 600 719676 -108785 0
0 0 0 599 720275 -108186 0
0 0 0 606 720881 -107580 0
0 0 0 614 721495 -106966 0
0 0 0 631 722126 -106335 0
0 0 0 636 722762 -105699 0
0 0 0 648 723410 -105051 0
0 0 0 653 724063 -104398 0
0 0 0 649 724712 -103749 0
0 0 0 649 725361 -103100 0
0 0 0 646 726007 -102454 0
0 0 0 649 726656 -101805 0
0 0 0 642 727298 -101163 0
0 0 0 632 727930 -100531 0
0 0 0 623 728553 -99908 0
0 0 0 620 729173 -99288 0
0 0 0 609 729782 -98679 0
0 0 0 602 730384 -98077 0
0 0 0 593 730977 -97484 0
0 0 0 587 731564 -96897 0
0 0 0 576 732140 -96321 0
0 0 0 569 732709 -95752 0
0 0 0 568 733277 -95184 0
0 0 0 577 733854 -94607 0
0 0 0 575 734429 -94032 0
0 0 0 587 735016 -93445 0
0 0 0 633 735649 -92812 0
0 0 0 650 736299 -92162 0
0 0 0 655 736954 -91507 0
0 0 0 649 737603 -90858 0
0 0 0 640 738243 -90218 0
0 0 0 634 738877 -89584 0
0 0 0 632 739509 -88952 0
0 0 0 628 740137 -88324 0
0 0 0 618 740755 -87706 0
0 0 0 606 741361 -87100 0
0 0 0 596 741957 -86504 0
0 0 0 584 742541 -85920 0
0 0 0 581 743122 -85339 0
0 0 0 586 743708 -84753 0
0 0 0 601 744309 -84152 0
0 0 0 608 744917 -83544 0
0 0 0 606 745523 -82938 0
0 0 0 613 746136 -82325 0
0 0 0 632 746768 -81693 0
0 0 0 661 747429 -81032 0
0 0 0 682 748111 -80350 0
0 0 0 681 748792 -79669 0
0 0 0 671 749463 -78998 0
0 0 0 658 750121 -78340 0
0 0 0 655 750776 -77685 0
0 0 0 645 751421 -77040 0
0 0 0 634 752055 -76406 0
0 0 0 626 752681 -75780 0
0 0 0 621 753302 -75159 0
0 0 0 626 753928 -74533 0
0 0 0 636 754564 -73897 0
0 0 0 636 755200 -73261 0
0 0 0 643 755843 -72618 0
0 0 0 632 756475 -71986 0
0 0 0 633 757108 -71353 0
0 0 0 628 757736 -70725 0
0 0 0 633 758369 -70092 0
0 0 0 629 758998 -69463 0
0 0 0 631 759629 -68832 0
0 0 0 628 760257 -68204 0
0 0 0 634 760891 -67570 0
0 0 0 633 761524 -66937 0
0 0 0 633 762157 -66304 0
0 0 0 622 762779 -65682 0
0 0 0 615 763394 -65067 0
0 0 0 604 763998 -64463 0
0 0 0 599 764597 -63864 0
0 0 0 600 765197 -63264 0
0 0 0 610 765807 -62654 0
0 0 0 612 766419 -62042 0
0 0 0 618 767037 -61424 0
0 0 0 622 767659 -60802 0
0 0 0 624 768283 -60178 0
0 0 0 625 768908 -59553 0
0 0 0 614 769522 -58939 0
0 0 0 606 770128 -58333 0
0 0 0 600 770728 -57733 0
0 0 0 602 771330 -57131 0
0 0 0 603 771933 -56528 0
0 0 0 609 772542 -55919 0
0 0 0 604 773146 -55315 0
0 0 0 604 773750 -54711 0
0 0 0 610 774360 -54101 0
0 0 0 627 774987 -53474 0
0 0 0 639 775626 -52835 0
0 0 0 650 776276 -52185 0
0 0 0 643 776919 -51542 0
0 0 0 636 777555 -50906 0
0 0 0 632 778187 -50274 0
0 0 0 631 778818 -49643 0
0 0 0 624 779442 -49019 0
0 0 0 618 780060 -48401 0
0 0 0 610 780670 -47791 0
0 0 0 606 781276 -47185 0
0 0 0 605 781881 -46580 0
0 0 0 602 782483 -45978 0
0 0 0 600 783083 -45378 0
0 0 0 598 783681 -44780 0
0 0 0 608 784289 -44172 0
0 0 0 614 784903 -43558 0
0 0 0 643 785546 -42915 0
0 0 0 670 786216 -42245 0
0 0 0 707 786923 -41538 1
0 0 0 699 787622 -40839 1
0 0 0 677 788299 -40162 0
0 0 0 669 788968 -39493 0
0 0 0 668 789636 -38825 0
0 0 0 659 790295 -38166 0
0 0 0 642 790937 -37524 0
0 0 0 625 791562 -36899 0
0 0 0 605 792167 -36294 0
0 0 0 596 792763 -35698 0
0 0 0 596 793359 -35102 0
0 0 0 595 793954 -34507 0
0 0 0 595 794549 -33912 0
0 0 0 592 795141 -33320 0
0 0 0 592 795733 -32728 0
0 0 0 598 796331 -32130 0
0 0 0 615 796946 -31515 0
0 0 0 637 797583 -30878 0
0 0 0 663 798246 -30215 0
0 0 0 668 798914 -29547 0
0 0 0 660 799574 -28887 0
0 0 0 652 800226 -28235 0
0 0 0 639 800865 -27596 0
0 0 0 628 801493 -26968 0
0 0 0 631 802124 -26337 0
0 0 0 628 802752 -25709 0
0 0 0 628 803380 -25081 0
0 0 0 627 804007 -24454 0
0 0 0 625 804632 -23829 0
0 0 0 620 805252 -23209 0
0 0 0 610 805862 -22599 0
0 0 0 605 806467 -21994 0
0 0 0 609 807076 -21385 0
0 0 0 622 807698 -20763 0
0 0 0 636 808334 -20127 0
0 0 0 644 808978 -19483 0
0 0 0 640 809618 -18843 0
0 0 0 632 810250 -18211 0
0 0 0 623 810873 -17588 0
0 0 0 615 811488 -16973 0
0 0 0 616 812104 -16357 0
0 0 0 623 812727 -15734 0
0 0 0 631 813358 -15103 0
0 0 0 641 813999 -14462 0
0 0 0 642 814641 -13820 0
0 0 0 638 815279 -13182 0
0 0 0 634 815913 -12548 0
0 0 0 631 816544 -11917 0
0 0 0 623 817167 -11294 0
0 0 0 624 817791 -10670 0
0 0 0 643 818434 -10027 0
0 0 0 674 819108 -9353 0
0 0 0 684 819792 -8669 0
0 0 0 669 820461 -8000 0
0 0 0 665 821126 -7335 0
0 0 0 653 821779 -6682 0
0 0 0 648 822427 -6034 0
0 0 0 625 823052 -5409 0
0 0 0 613 823665 -4796 0
0 0 0 605 824270 -4191 0
0 0 0 587 824857 -3604 0
0 0 0 579 825436 -3025 0
0 0 0 571 826007 -2454 0
31 1 S106 572 826579 -1882 0
31 1 S106 574 827153 -1308 0
31 1 S106 579 827732 -729 0
31 1 S106 579 828311 -150 0
31 2 S106 572 828883 422 0
31 2 S106 579 829462 1001 0
31 2 S106 583 830045 1584 0
31 2 S106 597 830642 2181 0
31 2 S106 603 831245 2784 0
31 2 S106 592 831837 3376 0
31 2 S106 590 832427 3966 0
31 2 S106 584 833011 4550 0
31 2 S106 579 833590 5129 0
31 2 S106 573 834163 5702 0
31 2 S106 567 834730 6269 0
31 2 S106 564 835294 6833 0
0 0 0 569 835863 -12210 0
0 0 0 584 836447 -11626 0
0 0 0 601 837048 -11025 0
0 0 0 629 837677 -10396 0
0 0 0 641 838318 -9755 0
0 0 0 644 838962 -9111 0
0 0 0 656 839618 -8455 0
0 0 0 648 840266 -7807 0
0 0 0 658 840924 -7149 0
0 0 0 648 841572 -6501 0
0 0 0 636 842208 -5865 0
0 0 0 624 842832 -5241 0
0 0 0 624 843456 -4617 0
0 0 0 625 844081 -3992 0
0 0 0 618 844699 -3374 0
0 0 0 614 845313 -2760 0
0 0 0 602 845915 -2158 0
32 1 S102 601 846516 -1557 0
32 1 S102 593 847109 -964 0
32 1 S102 599 847708 -365 0
32 2 S102 605 848313 240 0
32 2 S102 609 848922 849 0
32 2 S102 614 849536 1463 0
32 2 S102 615 850151 2078 0
32 2 S102 609 850760 2687 0
32 2 S102 612 851372 3299 0
32 2 S102 607 851979 3906 0
32 2 S102 615 852594 4521 0
32 2 S102 612 853206 5133 0
32 2 S102 618 853824 5751 0
32 2 S102 613 854437 6364 0
32 2 S102 614 855051 6978 0
0 0 0 612 855663 -14277 0
0 0 0 616 856279 -13661 0
0 0 0 618 856897 -13043 0
0 0 0 623 857520 -12420 0
0 0 0 622 858142 -11798 0
0 0 0 619 858761 -11179 0
0 0 0 611 859372 -10568 0
0 0 0 612 859984 -9956 0
0 0 0 613 860597 -9343 0
0 0 0 613 861210 -8730 0
0 0 0 606 861816 -8124 0
0 0 0 603 862419 -7521 0
0 0 0 598 863017 -6923 0
0 0 0 593 863610 -6330 0
0 0 0 596 864206 -5734 0
0 0 0 609 864815 -5125 0
0 0 0 628 865443 -4497 0
0 0 0 640 866083 -3857 0
0 0 0 635 866718 -3222 0
0 0 0 632 867350 -2590 0
33 1 S112 631 867981 -1959 0
33 1 S112 620 868601 -1339 0
33 1 S112 610 869211 -729 0
33 1 S112 603 869814 -126 0
33 2 S112 607 870421 481 0
33 2 S112 616 871037 1097 0
33 2 S112 608 871645 1705 0
33 2 S112 613 872258 2318 0
33 2 S112 608 872866 2926 0
33 2 S112 607 873473 3533 0
33 2 S112 603 874076 4136 0
33 2 S112 600 874676 4736 0
33 2 S112 602 875278 5338 0
33 2 S112 601 875879 5939 0
33 2 S112 605 876484 6544 0
0 0 0 610 877094 -17117 0
0 0 0 618 877712 -16499 0
0 0 0 613 878325 -15886 0
0 0 0 604 878929 -15282 0
0 0 0 600 879529 -14682 0
0 0 0 598 880127 -14084 0
0 0 0 595 880722 -13489 0
0 0 0 589 881311 -12900 0
0 0 0 590 881901 -12310 0
0 0 0 582 882483 -11728 0
0 0 0 580 883063 -11148 0
0 0 0 570 883633 -10578 0
0 0 0 570 884203 -10008 0
0 0 0 570 884773 -9438 0
0 0 0 573 885346 -8865 0
0 0 0 576 885922 -8289 0
0 0 0 581 886503 -7708 0
0 0 0 587 887090 -7121 0
0 0 0 595 887685 -6526 0
0 0 0 600 888285 -5926 0
0 0 0 604 888889 -5322 0
0 0 0 611 889500 -4711 0
0 0 0 618 890118 -4093 0
0 0 0 622 890740 -3471 0
0 0 0 620 891360 -2851 0
0 0 0 607 891967 -2244 0
34 1 S106 604 892571 -1640 0
34 1 S106 598 893169 -1042 0
34 1 S106 593 893762 -449 0
34 2 S106 588 894350 139 0
34 2 S106 580 894930 719 0
34 2 S106 575 895505 1294 0
34 2 S106 566 896071 1860 0
34 2 S106 560 896631 2420 0
34 2 S106 563 897194 2983 0
34 2 S106 577 897771 3560 0
34 2 S106 598 898369 4158 0
34 2 S106 615 898984 4773 0
34 2 S106 626 899610 5399 0
34 2 S106 628 900238 6027 0
34 2 S106 620 900858 6647 0
0 0 0 625 901483 -14744 0
0 0 0 619 902102 -14125 0
0 0 0 622 902724 -13503 0
0 0 0 616 903340 -12887 0
0 0 0 602 903942 -12285 0
0 0 0 598 904540 -11687 0
0 0 0 593 905133 -11094 0
0 0 0 588 905721 -10506 0
0 0 0 580 906301 -9926 0
0 0 0 577 906878 -9349 0
0 0 0 572 907450 -8777 0
0 0 0 573 908023 -8204 0
0 0 0 574 908597 -7630 0
0 0 0 575 909172 -7055 0
0 0 0 576 909748 -6479 0
0 0 0 572 910320 -5907 0
0 0 0 572 910892 -5335 0
0 0 0 582 911474 -4753 0
0 0 0 588 912062 -4165 0
0 0 0 593 912655 -3572 0
0 0 0 593 913248 -2979 0
0 0 0 591 913839 -2388 0
35 1 S102 592 914431 -1796 0
35 1 S102 601 915032 -1195 0
35 1 S102 604 915636 -591 0
35 2 S102 606 916242 15 0
35 2 S102 604 916846 619 0
35 2 S102 601 917447 1220 0
35 2 S102 598 918045 1818 0
35 2 S102 593 918638 2411 0
35 2 S102 596 919234 3007 0
35 2 S102 593 919827 3600 0
35 2 S102 594 920421 4194 0
35 2 S102 593 921014 4787 0
35 2 S102 591 921605 5378 0
35 2 S102 586 922191 5964 0
35 2 S102 590 922781 6554 0
0 0 0 590 923371 -9119 0
0 0 0 583 923954 -8536 0
0 0 0 581 924535 -7955 0
0 0 0 585 925120 -7370 0
0 0 0 584 925704 -6786 0
0 0 0 585 926289 -6201 0
0 0 0 584 926873 -5617 0
0 0 0 586 927459 -5031 0
0 0 0 585 928044 -4446 0
0 0 0 587 928631 -3859 0
0 0 0 588 929219 -3271 0
0 0 0 579 929798 -2692 0
0 0 0 578 930376 -2114 0
36 1 S106 582 930958 -1532 0
36 1 S106 591 931549 -941 0
36 1 S106 602 932151 -339 0
36 2 S106 603 932754 264 0
36 2 S106 607 933361 871 0
36 2 S106 606 933967 1477 0
36 2 S106 613 934580 2090 0
36 2 S106 607 935187 2697 0
36 2 S106 599 935786 3296 0
36 2 S106 588 936374 3884 0
36 2 S106 582 936956 4466 0
36 2 S106 581 937537 5047 0
36 2 S106 585 938122 5632 0
36 2 S106 582 938704 6214 0
36 2 S106 583 939287 6797 0
0 0 0 579 939866 -12667 0
0 0 0 579 940445 -12088 0
0 0 0 585 941030 -11503 0
0 0 0 593 941623 -10910 0
0 0 0 596 942219 -10314 0
0 0 0 599 942818 -9715 0
0 0 0 594 943412 -9121 0
0 0 0 590 944002 -8531 0
0 0 0 589 944591 -7942 0
0 0 0 590 945181 -7352 0
0 0 0 587 945768 -6765 0
0 0 0 579 946347 -6186 0
0 0 0 573 946920 -5613 0
0 0 0 569 947489 -5044 0
0 0 0 569 948058 -4475 0
0 0 0 567 948625 -3908 0
0 0 0 567 949192 -3341 0
0 0 0 568 949760 -2773 0
0 0 0 562 950322 -2211 0
37 1 S116 563 950885 -1648 0
37 1 S116 568 951453 -1080 0
37 1 S116 575 952028 -505 0
37 2 S116 582 952610 77 0
37 2 S116 592 953202 669 0
37 2 S116 594 953796 1263 0
37 2 S116 602 954398 1865 0
37 2 S116 599 954997 2464 0
37 2 S116 603 955600 3067 0
37 2 S116 601 956201 3668 0
37 2 S116 599 956800 4267 0
37 2 S116 597 957397 4864 0
37 2 S116 592 957989 5456 0
37 2 S116 586 958575 6042 0
37 2 S116 575 959150 6617 0
0 0 0 568 959718 -14848 0
0 0 0 563 960281 -14285 0
0 0 0 561 960842 -13724 0
0 0 0 562 961404 -13162 0
0 0 0 554 961958 -12608 0
0 0 0 550 962508 -12058 0
0 0 0 550 963058 -11508 0
0 0 0 548 963606 -10960 0
0 0 0 556 964162 -10404 0
0 0 0 567 964729 -9837 0
0 0 0 589 965318 -9248 0
0 0 0 640 965958 -8608 0
0 0 0 715 966673 -7893 1
0 0 0 736 967409 -7157 1
0 0 0 754 968163 -6403 1
0 0 0 802 968965 -5601 1
0 0 0 791 969756 -4810 1
0 0 0 746 970502 -4064 1
0 0 0 699 971201 -3365 1
0 0 0 670 971871 -2695 0
0 0 0 657 972528 -2038 0
38 1 S102 643 973171 -1395 0
38 1 S102 625 973796 -770 0
38 1 S102 608 974404 -162 0
38 2 S102 597 975001 435 0
38 2 S102 589 975590 1024 0
38 2 S102 579 976169 1603 0
38 2 S102 575 976744 2178 0
38 2 S102 566 977310 2744 0
38 2 S102 559 977869 3303 0
38 2 S102 557 978426 3860 0
38 2 S102 553 978979 4413 0
38 2 S102 552 979531 4965 0
38 2 S102 559 980090 5524 0
38 2 S102 580 980670 6104 0
38 2 S102 606 981276 6710 0
0 0 0 639 981915 -11335 0
0 0 0 639 982554 -10696 0
0 0 0 636 983190 -10060 0
0 0 0 632 983822 -9428 0
0 0 0 637 984459 -8791 0
0 0 0 637 985096 -8154 0
0 0 0 631 985727 -7523 0
0 0 0 632 986359 -6891 0
0 0 0 638 986997 -6253 0
0 0 0 641 987638 -5612 0
0 0 0 634 988272 -4978 0
0 0 0 630 988902 -4348 0
0 0 0 621 989523 -3727 0
0 0 0 628 990151 -3099 0
0 0 0 629 990780 -2470 0
39 1 S116 640 991420 -1830 0
39 1 S116 640 992060 -1190 0
39 1 S116 638 992698 -552 0
39 2 S116 635 993333 83 0
39 2 S116 637 993970 720 0
39 2 S116 640 994610 1360 0
39 2 S116 638 995248 1998 0
39 2 S116 636 995884 2634 0
39 2 S116 631 996515 3265 0
39 2 S116 625 997140 3890 0
39 2 S116 633 997773 4523 0
39 2 S116 647 998420 5170 0
39 2 S116 658 999078 5828 0
39 2 S116 664 999742 6492 0
0 0 0 651 1000393 -12254 0
0 0 0 645 1001038 -11609 0
0 0 0 649 1001687 -10960 0
0 0 0 640 1002327 -10320 0
0 0 0 631 1002958 -9689 0
0 0 0 620 1003578 -9069 0
0 0 0 616 1004194 -8453 0
0 0 0 618 1004812 -7835 0
0 0 0 620 1005432 -7215 0
0 0 0 624 1006056 -6591 0
0 0 0 617 1006673 -5974 0
0 0 0 618 1007291 -5356 0
0 0 0 618 1007909 -4738 0
0 0 0 612 1008521 -4126 0
0 0 0 615 1009136 -3511 0
0 0 0 619 1009755 -2892 0
0 0 0 630 1010385 -2262 0
40 1 S112 633 1011018 -1629 0
40 1 S112 630 1011648 -999 0
40 1 S112 629 1012277 -370 0
40 2 S112 628 1012905 258 0
40 2 S112 626 1013531 884 0
40 2 S112 623 1014154 1507 0
40 2 S112 624 1014778 2131 0
40 2 S112 621 1015399 2752 0
40 2 S112 617 1016016 3369 0
40 2 S112 611 1016627 3980 0
40 2 S112 608 1017235 4588 0
40 2 S112 603 1017838 5191 0
40 2 S112 605 1018443 5796 0
40 2 S112 614 1019057 6410 0
0 0 0 620 1019677 -9979 0
0 0 0 622 1020299 -9357 0
0 0 0 621 1020920 -8736 0
0 0 0 617 1021537 -8119 0
0 0 0 618 1022155 -7501 0
0 0 0 610 1022765 -6891 0
0 0 0 610 1023375 -6281 0
0 0 0 603 1023978 -5678 0
0 0 0 602 1024580 -5076 0
0 0 0 600 1025180 -4476 0
0 0 0 599 1025779 -3877 0
0 0 0 595 1026374 -3282 0
0 0 0 596 1026970 -2686 0
0 0 0 604 1027574 -2082 0
41 1 S102 611 1028185 -1471 0
41 1 S102 622 1028807 -849 0
41 1 S102 626 1029433 -223 0
41 2 S102 626 1030059 403 0
41 2 S102 628 1030687 1031 0
41 2 S102 632 1031319 1663 0
41 2 S102 640 1031959 2303 0
41 2 S102 634 1032593 2937 0
41 2 S102 628 1033221 3565 0
41 2 S102 619 1033840 4184 0
41 2 S102 612 1034452 4796 0
41 2 S102 614 1035066 5410 0
41 2 S102 620 1035686 6030 0
41 2 S102 632 1036318 6662 0
0 0 0 633 1036951 -11571 0
0 0 0 638 1037589 -10933 0
0 0 0 637 1038226 -10296 0
0 0 0 638 1038864 -9658 0
0 0 0 640 1039504 -9018 0
0 0 0 640 1040144 -8378 0
0 0 0 657 1040801 -7721 0
0 0 0 656 1041457 -7065 0
0 0 0 644 1042101 -6421 0
0 0 0 635 1042736 -5786 0
0 0 0 626 1043362 -5160 0
0 0 0 625 1043987 -4535 0
0 0 0 624 1044611 -3911 0
0 0 0 620 1045231 -3291 0
0 0 0 612 1045843 -2679 0
0 0 0 610 1046453 -2069 0
42 1 S112 613 1047066 -1456 0
42 1 S112 625 1047691 -831 0
42 1 S112 630 1048321 -201 0
42 2 S112 627 1048948 426 0
42 2 S112 624 1049572 1050 0
42 2 S112 635 1050207 1685 0
42 2 S112 640 1050847 2325 0
42 2 S112 641 1051488 2966 0
42 2 S112 626 1052114 3592 0
42 2 S112 620 1052734 4212 0
42 2 S112 611 1053345 4823 0
42 2 S112 600 1053945 5423 0
42 2 S112 592 1054537 6015 0
42 2 S112 586 1055123 6601 0
0 0 0 581 1055704 -14602 0
0 0 0 580 1056284 -14022 0
0 0 0 583 1056867 -13439 0
0 0 0 585 1057452 -12854 0
0 0 0 580 1058032 -12274 0
0 0 0 576 1058608 -11698 0
0 0 0 580 1059188 -11118 0
0 0 0 585 1059773 -10533 0
0 0 0 587 1060360 -9946 0
0 0 0 583 1060943 -9363 0
0 0 0 584 1061527 -8779 0
0 0 0 594 1062121 -8185 0
0 0 0 612 1062733 -7573 0
0 0 0 630 1063363 -6943 0
0 0 0 629 1063992 -6314 0
0 0 0 650 1064642 -5664 0
0 0 0 671 1065313 -4993 0
0 0 0 672 1065985 -4321 0
0 0 0 664 1066649 -3657 0
0 0 0 668 1067317 -2989 0
0 0 0 664 1067981 -2325 0
43 1 S116 656 1068637 -1669 0
43 1 S116 643 1069280 -1026 0
43 1 S116 632 1069912 -394 0
43 2 S116 627 1070539 233 0
43 2 S116 629 1071168 862 0
43 2 S116 630 1071798 1492 0
43 2 S116 627 1072425 2119 0
43 2 S116 621 1073046 2740 0
43 2 S116 616 1073662 3356 0
43 2 S116 623 1074285 3979 0
43 2 S116 620 1074905 4599 0
43 2 S116 622 1075527 5221 0
43 2 S116 616 1076143 5837 0
43 2 S116 613 1076756 6450 0
0 0 0 622 1077378 -10667 0
0 0 0 640 1078018 -10027 0
0 0 0 665 1078683 -9362 0
0 0 0 667 1079350 -8695 0
0 0 0 660 1080010 -8035 0
0 0 0 651 1080661 -7384 0
0 0 0 651 1081312 -6733 0
0 0 0 652 1081964 -6081 0
0 0 0 647 1082611 -5434 0
0 0 0 633 1083244 -4801 0
0 0 0 628 1083872 -4173 0
0 0 0 614 1084486 -3559 0
0 0 0 608 1085094 -2951 0
0 0 0 603 1085697 -2348 0
44 1 S102 598 1086295 -1750 0
44 1 S102 607 1086902 -1143 0
44 1 S102 610 1087512 -533 0
44 2 S102 622 1088134 89 0
44 2 S102 619 1088753 708 0
44 2 S102 623 1089376 1331 0
44 2 S102 640 1090016 1971 0
44 2 S102 647 1090663 2618 0
44 2 S102 659 1091322 3277 0
44 2 S102 650 1091972 3927 0
44 2 S102 645 1092617 4572 0
44 2 S102 642 1093259 5214 0
44 2 S102 643 1093902 5857 0
44 2 S102 636 1094538 6493 0
0 0 0 631 1095169 -12538 0
0 0 0 625 1095794 -11913 0
0 0 0 623 1096417 -11290 0
0 0 0 628 1097045 -10662 0
0 0 0 633 1097678 -10029 0
0 0 0 640 1098318 -9389 0
0 0 0 630 1098948 -8759 0
0 0 0 632 1099580 -8127 0
0 0 0 633 1100213 -7494 0
0 0 0 627 1100840 -6867 0
0 0 0 616 1101456 -6251 0
0 0 0 614 1102070 -5637 0
0 0 0 613 1102683 -5024 0
0 0 0 620 1103303 -4404 0
0 0 0 620 1103923 -3784 0
0 0 0 616 1104539 -3168 0
0 0 0 619 1105158 -2549 0
45 1 S116 626 1105784 -1923 0
45 1 S116 631 1106415 -1292 0
45 1 S116 627 1107042 -665 0
45 1 S116 628 1107670 -37 0
45 2 S116 637 1108307 600 0
45 2 S116 637 1108944 1237 0
45 2 S116 628 1109572 1865 0
45 2 S116 631 1110203 2496 0
45 2 S116 631 1110834 3127 0
45 2 S116 636 1111470 3763 0
45 2 S116 636 1112106 4399 0
45 2 S116 643 1112749 5042 0
45 2 S116 631 1113380 5673 0
45 2 S116 626 1114006 6299 0
45 2 S116 626 1114632 6925 0
0 0 0 634 1115266 -19646 0
0 0 0 641 1115907 -19005 0
0 0 0 638 1116545 -18367 0
0 0 0 638 1117183 -17729 0
0 0 0 633 1117816 -17096 0
0 0 0 628 1118444 -16468 0
0 0 0 618 1119062 -15850 0
0 0 0 613 1119675 -15237 0
0 0 0 605 1120280 -14632 0
0 0 0 595 1120875 -14037 0
0 0 0 584 1121459 -13453 0
0 0 0 581 1122040 -12872 0
0 0 0 583 1122623 -12289 0
0 0 0 589 1123212 -11700 0
0 0 0 601 1123813 -11099 0
0 0 0 608 1124421 -10491 0
0 0 0 609 1125030 -9882 0
0 0 0 615 1125645 -9267 0
0 0 0 626 1126271 -8641 0
0 0 0 629 1126900 -8012 0
0 0 0 630 1127530 -7382 0
0 0 0 622 1128152 -6760 0
0 0 0 620 1128772 -6140 0
0 0 0 629 1129401 -5511 0
0 0 0 629 1130030 -4882 0
0 0 0 615 1130645 -4267 0
0 0 0 607 1131252 -3660 0
0 0 0 601 1131853 -3059 0
0 0 0 605 1132458 -2454 0
46 1 S102 602 1133060 -1852 0
46 1 S102 603 1133663 -1249 0
46 1 S102 596 1134259 -653 0
46 1 S102 584 1134843 -69 0
46 2 S102 587 1135430 518 0
46 2 S102 585 1136015 1103 0
46 2 S102 589 1136604 1692 0
46 2 S102 577 1137181 2269 0
46 2 S102 575 1137756 2844 0
46 2 S102 585 1138341 3429 0
46 2 S102 585 1138926 4014 0
46 2 S102 593 1139519 4607 0
46 2 S102 602 1140121 5209 0
46 2 S102 608 1140729 5817 0
46 2 S102 609 1141338 6426 0
0 0 0 610 1141948 -13372 0
0 0 0 611 1142559 -12761 0
0 0 0 620 1143179 -12141 0
0 0 0 628 1143807 -11513 0
0 0 0 627 1144434 -10886 0
0 0 0 620 1145054 -10266 0
0 0 0 619 1145673 -9647 0
0 0 0 624 1146297 -9023 0
0 0 0 622 1146919 -8401 0
0 0 0 622 1147541 -7779 0
0 0 0 620 1148161 -7159 0
0 0 0 622 1148783 -6537 0
0 0 0 618 1149401 -5919 0
0 0 0 613 1150014 -5306 0
0 0 0 607 1150621 -4699 0
0 0 0 610 1151231 -4089 0
0 0 0 611 1151842 -3478 0
0 0 0 614 1152456 -2864 0
0 0 0 610 1153066 -2254 0
47 1 S112 610 1153676 -1644 0
47 1 S112 616 1154292 -1028 0
47 1 S112 627 1154919 -401 0
47 2 S112 641 1155560 240 0
47 2 S112 638 1156198 878 0
47 2 S112 630 1156828 1508 0
47 2 S112 653 1157481 2161 0
47 2 S112 672 1158153 2833 0
47 2 S112 663 1158816 3496 0
47 2 S112 655 1159471 4151 0
47 2 S112 630 1160101 4781 0
47 2 S112 627 1160728 5408 0
47 2 S112 617 1161345 6025 0
47 2 S112 617 1161962 6642 0
0 0 0 614 1162576 -16103 0
0 0 0 620 1163196 -15483 0
0 0 0 627 1163823 -14856 0
0 0 0 637 1164460 -14219 0
0 0 0 635 1165095 -13584 0
0 0 0 636 1165731 -12948 0
0 0 0 636 1166367 -12312 0
0 0 0 649 1167016 -11663 0
0 0 0 660 1167676 -11003 0
0 0 0 658 1168334 -10345 0
0 0 0 645 1168979 -9700 0
0 0 0 640 1169619 -9060 0
0 0 0 639 1170258 -8421 0
0 0 0 636 1170894 -7785 0
0 0 0 629 1171523 -7156 0
0 0 0 626 1172149 -6530 0
0 0 0 620 1172769 -5910 0
0 0 0 625 1173394 -5285 0
0 0 0 629 1174023 -4656 0
0 0 0 627 1174650 -4029 0
0 0 0 620 1175270 -3409 0
0 0 0 614 1175884 -2795 0
0 0 0 615 1176499 -2180 0
48 1 S116 626 1177125 -1554 0
48 1 S116 650 1177775 -904 0
48 1 S116 651 1178426 -253 0
48 2 S116 657 1179083 404 0
48 2 S116 656 1179739 1060 0
48 2 S116 669 1180408 1729 0
48 2 S116 676 1181084 2405 0
48 2 S116 666 1181750 3071 0
48 2 S116 648 1182398 3719 0
48 2 S116 645 1183043 4364 0
48 2 S116 649 1183692 5013 0
48 2 S116 643 1184335 5656 0
48 2 S116 641 1184976 6297 0
48 2 S116 633 1185609 6930 0
0 0 0 624 1186233 -10517 0
0 0 0 622 1186855 -9895 0
0 0 0 627 1187482 -9268 0
0 0 0 627 1188109 -8641 0
0 0 0 634 1188743 -8007 0
0 0 0 623 1189366 -7384 0
0 0 0 628 1189994 -6756 0
0 0 0 637 1190631 -6119 0
0 0 0 637 1191268 -5482 0
0 0 0 633 1191901 -4849 0
0 0 0 619 1192520 -4230 0
0 0 0 619 1193139 -3611 0
0 0 0 626 1193765 -2985 0
0 0 0 625 1194390 -2360 0
49 1 S112 629 1195019 -1731 0
49 1 S112 626 1195645 -1105 0
49 1 S112 635 1196280 -470 0
49 2 S112 645 1196925 175 0
49 2 S112 645 1197570 820 0
49 2 S112 639 1198209 1459 0
49 2 S112 631 1198840 2090 0
49 2 S112 629 1199469 2719 0
49 2 S112 624 1200093 3343 0
49 2 S112 619 1200712 3962 0
49 2 S112 618 1201330 4580 0
49 2 S112 618 1201948 5198 0
49 2 S112 621 1202569 5819 0
49 2 S112 622 1203191 6441 0
0 0 0 627 1203818 -13522 0
0 0 0 628 1204446 -12894 0
0 0 0 633 1205079 -12261 0
0 0 0 637 1205716 -11624 0
0 0 0 623 1206339 -11001 0
0 0 0 612 1206951 -10389 0
0 0 0 609 1207560 -9780 0
0 0 0 610 1208170 -9170 0
0 0 0 612 1208782 -8558 0
0 0 0 612 1209394 -7946 0
0 0 0 610 1210004 -7336 0
0 0 0 618 1210622 -6718 0
0 0 0 614 1211236 -6104 0
0 0 0 617 1211853 -5487 0
0 0 0 618 1212471 -4869 0
0 0 0 612 1213083 -4257 0
0 0 0 610 1213693 -3647 0
0 0 0 618 1214311 -3029 0
0 0 0 621 1214932 -2408 0
50 1 S106 615 1215547 -1793 0
50 1 S106 616 1216163 -1177 0
50 1 S106 616 1216779 -561 0
50 2 S106 620 1217399 59 0
50 2 S106 623 1218022 682 0
50 2 S106 628 1218650 1310 0
50 2 S106 623 1219273 1933 0
50 2 S106 619 1219892 2552 0
50 2 S106 626 1220518 3178 0
50 2 S106 626 1221144 3804 0
50 2 S106 626 1221770 4430 0
50 2 S106 621 1222391 5051 0
50 2 S106 626 1223017 5677 0
50 2 S106 632 1223649 6309 0
50 2 S106 633 1224282 6942 0
0 0 0 635 1224917 -7343 0
0 0 0 626 1225543 -6717 0
0 0 0 625 1226168 -6092 0
0 0 0 625 1226793 -5467 0
0 0 0 616 1227409 -4851 0
0 0 0 612 1228021 -4239 0
0 0 0 606 1228627 -3633 0
0 0 0 610 1229237 -3023 0
0 0 0 618 1229855 -2405 0
51 1 S112 618 1230473 -1787 0
51 1 S112 613 1231086 -1174 0
51 1 S112 607 1231693 -567 0
51 2 S112 605 1232298 38 0
51 2 S112 604 1232902 642 0
51 2 S112 604 1233506 1246 0
51 2 S112 602 1234108 1848 0
51 2 S112 597 1234705 2445 0
51 2 S112 610 1235315 3055 0
51 2 S112 620 1235935 3675 0
51 2 S112 629 1236564 4304 0
51 2 S112 622 1237186 4926 0
51 2 S112 617 1237803 5543 0
51 2 S112 624 1238427 6167 0
51 2 S112 626 1239053 6793 0
0 0 0 626 1239679 -7834 0
0 0 0 619 1240298 -7215 0
0 0 0 617 1240915 -6598 0
0 0 0 613 1241528 -5985 0
0 0 0 608 1242136 -5377 0
0 0 0 599 1242735 -4778 0
0 0 0 591 1243326 -4187 0
0 0 0 590 1243916 -3597 0
0 0 0 589 1244505 -3008 0
0 0 0 592 1245097 -2416 0
52 1 S116 595 1245692 -1821 0
52 1 S116 611 1246303 -1210 0
52 1 S116 630 1246933 -580 0
52 2 S116 644 1247577 64 0
52 2 S116 655 1248232 719 0
52 2 S116 651 1248883 1370 0
52 2 S116 656 1249539 2026 0
52 2 S116 659 1250198 2685 0
52 2 S116 653 1250851 3338 0
52 2 S116 640 1251491 3978 0
52 2 S116 625 1252116 4603 0
52 2 S116 617 1252733 5220 0
52 2 S116 610 1253343 5830 0
52 2 S116 604 1253947 6434 0
0 0 0 598 1254545 -12447 0
0 0 0 601 1255146 -11846 0
0 0 0 605 1255751 -11241 0
0 0 0 610 1256361 -10631 0
0 0 0 610 1256971 -10021 0
0 0 0 604 1257575 -9417 0
0 0 0 603 1258178 -8814 0
0 0 0 608 1258786 -8206 0
0 0 0 615 1259401 -7591 0
0 0 0 618 1260019 -6973 0
0 0 0 615 1260634 -6358 0
0 0 0 615 1261249 -5743 0
0 0 0 611 1261860 -5132 0
0 0 0 608 1262468 -4524 0
0 0 0 604 1263072 -3920 0
0 0 0 609 1263681 -3311 0
0 0 0 610 1264291 -2701 0
0 0 0 609 1264900 -2092 0
53 1 S106 608 1265508 -1484 0
53 1 S106 600 1266108 -884 0
53 1 S106 604 1266712 -280 0
53 2 S106 614 1267326 334 0
53 2 S106 624 1267950 958 0
53 2 S106 628 1268578 1586 0
53 2 S106 622 1269200 2208 0
53 2 S106 628 1269828 2836 0
53 2 S106 628 1270456 3464 0
53 2 S106 635 1271091 4099 0
53 2 S106 625 1271716 4724 0
53 2 S106 627 1272343 5351 0
53 2 S106 629 1272972 5980 0
53 2 S106 631 1273603 6611 0
0 0 0 635 1274238 -10261 0
0 0 0 635 1274873 -9626 0
0 0 0 632 1275505 -8994 0
0 0 0 628 1276133 -8366 0
0 0 0 617 1276750 -7749 0
0 0 0 612 1277362 -7137 0
0 0 0 598 1277960 -6539 0
0 0 0 598 1278558 -5941 0
0 0 0 601 1279159 -5340 0
0 0 0 599 1279758 -4741 0
0 0 0 606 1280364 -4135 0
0 0 0 602 1280966 -3533 0
0 0 0 611 1281577 -2922 0
0 0 0 627 1282204 -2295 0
54 1 S102 640 1282844 -1655 0
54 1 S102 640 1283484 -1015 0
54 1 S102 627 1284111 -388 0
54 2 S102 630 1284741 242 0
54 2 S102 626 1285367 868 0
54 2 S102 630 1285997 1498 0
54 2 S102 618 1286615 2116 0
54 2 S102 609 1287224 2725 0
54 2 S102 610 1287834 3335 0
54 2 S102 611 1288445 3946 0
54 2 S102 611 1289056 4557 0
54 2 S102 606 1289662 5163 0
54 2 S102 608 1290270 5771 0
54 2 S102 609 1290879 6380 0
54 2 S102 618 1291497 6998 0
0 0 0 624 1292121 -12255 0
0 0 0 622 1292743 -11633 0
0 0 0 621 1293364 -11012 0
0 0 0 621 1293985 -10391 0
0 0 0 623 1294608 -9768 0
0 0 0 622 1295230 -9146 0
0 0 0 614 1295844 -8532 0
0 0 0 616 1296460 -7916 0
0 0 0 613 1297073 -7303 0
0 0 0 611 1297684 -6692 0
0 0 0 607 1298291 -6085 0
0 0 0 611 1298902 -5474 0
0 0 0 616 1299518 -4858 0
0 0 0 620 1300138 -4238 0
0 0 0 616 1300754 -3622 0
0 0 0 616 1301370 -3006 0
0 0 0 622 1301992 -2384 0
55 1 S106 631 1302623 -1753 0
55 1 S106 629 1303252 -1124 0
55 1 S106 620 1303872 -504 0
55 2 S106 617 1304489 113 0
55 2 S106 622 1305111 735 0
55 2 S106 618 1305729 1353 0
55 2 S106 620 1306349 1973 0
55 2 S106 613 1306962 2586 0
55 2 S106 609 1307571 3195 0
55 2 S106 607 1308178 3802 0
55 2 S106 609 1308787 4411 0
55 2 S106 604 1309391 5015 0
55 2 S106 598 1309989 5613 0
55 2 S106 594 1310583 6207 0
55 2 S106 599 1311182 6806 0
0 0 0 600 1311782 -11991 0
0 0 0 607 1312389 -11384 0
0 0 0 612 1313001 -10772 0
0 0 0 621 1313622 -10151 0
0 0 0 628 1314250 -9523 0
0 0 0 626 1314876 -8897 0
0 0 0 621 1315497 -8276 0
0 0 0 621 1316118 -7655 0
0 0 0 616 1316734 -7039 0
0 0 0 612 1317346 -6427 0
0 0 0 603 1317949 -5824 0
0 0 0 600 1318549 -5224 0
0 0 0 594 1319143 -4630 0
0 0 0 590 1319733 -4040 0
0 0 0 583 1320316 -3457 0
0 0 0 580 1320896 -2877 0
0 0 0 578 1321474 -2299 0
56 1 S116 582 1322056 -1717 0
56 1 S116 582 1322638 -1135 0
56 1 S116 585 1323223 -550 0
56 2 S116 596 1323819 46 0
56 2 S116 611 1324430 657 0
56 2 S116 622 1325052 1279 0
56 2 S116 632 1325684 1911 0
56 2 S116 633 1326317 2544 0
56 2 S116 642 1326959 3186 0
56 2 S116 654 1327613 3840 0
56 2 S116 647 1328260 4487 0
56 2 S116 646 1328906 5133 0
56 2 S116 644 1329550 5777 0
56 2 S116 644 1330194 6421 0
0 0 0 631 1330825 -13356 0
0 0 0 618 1331443 -12738 0
0 0 0 613 1332056 -12125 0
0 0 0 606 1332662 -11519 0
0 0 0 596 1333258 -10923 0
0 0 0 590 1333848 -10333 0
0 0 0 582 1334430 -9751 0
0 0 0 580 1335010 -9171 0
0 0 0 586 1335596 -8585 0
0 0 0 595 1336191 -7990 0
0 0 0 599 1336790 -7391 0
0 0 0 601 1337391 -6790 0
0 0 0 605 1337996 -6185 0
0 0 0 619 1338615 -5566 0
0 0 0 624 1339239 -4942 0
0 0 0 617 1339856 -4325 0
0 0 0 615 1340471 -3710 0
0 0 0 621 1341092 -3089 0
0 0 0 616 1341708 -2473 0
57 1 S106 617 1342325 -1856 0
57 1 S106 610 1342935 -1246 0
57 1 S106 610 1343545 -636 0
57 1 S106 616 1344161 -20 0
57 2 S106 623 1344784 603 0
57 2 S106 627 1345411 1230 0
57 2 S106 620 1346031 1850 0
57 2 S106 624 1346655 2474 0
57 2 S106 629 1347284 3103 0
57 2 S106 626 1347910 3729 0
57 2 S106 617 1348527 4346 0
57 2 S106 612 1349139 4958 0
57 2 S106 610 1349749 5568 0
57 2 S106 616 1350365 6184 0
57 2 S106 634 1350999 6818 0
0 0 0 626 1351625 -13412 0
0 0 0 628 1352253 -12784 0
0 0 0 632 1352885 -12152 0
0 0 0 632 1353517 -11520 0
0 0 0 624 1354141 -10896 0
0 0 0 617 1354758 -10279 0
0 0 0 616 1355374 -9663 0
0 0 0 621 1355995 -9042 0
0 0 0 620 1356615 -8422 0
0 0 0 618 1357233 -7804 0
0 0 0 612 1357845 -7192 0
0 0 0 616 1358461 -6576 0
0 0 0 614 1359075 -5962 0
0 0 0 612 1359687 -5350 0
0 0 0 609 1360296 -4741 0
0 0 0 613 1360909 -4128 0
0 0 0 623 1361532 -3505 0
0 0 0 628 1362160 -2877 0
0 0 0 627 1362787 -2250 0
58 1 S102 623 1363410 -1627 0
58 1 S102 632 1364042 -995 0
58 1 S102 639 1364681 -356 0
58 2 S102 633 1365314 277 0
58 2 S102 629 1365943 906 0
58 2 S102 625 1366568 1531 0
58 2 S102 627 1367195 2158 0
58 2 S102 631 1367826 2789 0
58 2 S102 637 1368463 3426 0
58 2 S102 630 1369093 4056 0
58 2 S102 629 1369722 4685 0
58 2 S102 632 1370354 5317 0
58 2 S102 633 1370987 5950 0
58 2 S102 630 1371617 6580 0
0 0 0 617 1372234 -9149 0
0 0 0 609 1372843 -8540 0
0 0 0 609 1373452 -7931 0
0 0 0 608 1374060 -7323 0
0 0 0 606 1374666 -6717 0
0 0 0 601 1375267 -6116 0
0 0 0 598 1375865 -5518 0
0 0 0 602 1376467 -4916 0
0 0 0 613 1377080 -4303 0
0 0 0 623 1377703 -3680 0
0 0 0 617 1378320 -3063 0
0 0 0 620 1378940 -2443 0
59 1 S112 623 1379563 -1820 0
59 1 S112 635 1380198 -1185 0
59 1 S112 632 1380830 -553 0
59 2 S112 619 1381449 66 0
59 2 S112 617 1382066 683 0
59 2 S112 617 1382683 1300 0
59 2 S112 616 1383299 1916 0
59 2 S112 608 1383907 2524 0
59 2 S112 603 1384510 3127 0
59 2 S112 598 1385108 3725 0
59 2 S112 597 1385705 4322 0
59 2 S112 599 1386304 4921 0
59 2 S112 597 1386901 5518 0
59 2 S112 596 1387497 6114 0
59 2 S112 601 1388098 6715 0
0 0 0 618 1388716 -12478 0
0 0 0 627 1389343 -11851 0
0 0 0 631 1389974 -11220 0
0 0 0 629 1390603 -10591 0
0 0 0 625 1391228 -9966 0
0 0 0 620 1391848 -9346 0
0 0 0 618 1392466 -8728 0
0 0 0 603 1393069 -8125 0
0 0 0 602 1393671 -7523 0
0 0 0 602 1394273 -6921 0
0 0 0 599 1394872 -6322 0
0 0 0 594 1395466 -5728 0
0 0 0 587 1396053 -5141 0
0 0 0 588 1396641 -4553 0
0 0 0 593 1397234 -3960 0
0 0 0 593 1397827 -3367 0
0 0 0 597 1398424 -2770 0
0 0 0 604 1399028 -2166 0
60 1 S102 621 1399649 -1545 0
60 1 S102 632 1400281 -913 0
60 1 S102 628 1400909 -285 0
60 2 S102 627 1401536 342 0
60 2 S102 634 1402170 976 0
60 2 S102 643 1402813 1619 0
60 2 S102 653 1403466 2272 0
60 2 S102 638 1404104 2910 0
60 2 S102 640 1404744 3550 0
60 2 S102 641 1405385 4191 0
60 2 S102 641 1406026 4832 0
60 2 S102 625 1406651 5457 0
60 2 S102 620 1407271 6077 0
60 2 S102 614 1407885 6691 0
