P_0003
BeatCount Mean SD BeatCountNoOutliers MeanNoOutliers SDNoOutliers
1783 774,948401570387 65,537796143244 1752 772,544520547945 55,5675185826672

Trial TrialStatus Trialtype IBI AbsPosition RelPosition Outlier
0 0 0 849 1451 -23610 0
0 0 0 825 2276 -22785 0
0 0 0 812 3088 -21973 0
0 0 0 784 3872 -21189 0
0 0 0 740 4612 -20449 0
0 0 0 730 5342 -19719 0
0 0 0 772 6114 -18947 0
0 0 0 815 6929 -18132 0
0 0 0 803 7732 -17329 0
0 0 0 795 8527 -16534 0
0 0 0 807 9334 -15727 0
0 0 0 835 10169 -14892 0
0 0 0 871 11040 -14021 0
0 0 0 845 11885 -13176 0
0 0 0 805 12690 -12371 0
0 0 0 764 13454 -11607 0
0 0 0 739 14193 -10868 0
0 0 0 735 14928 -10133 0
0 0 0 753 15681 -9380 0
0 0 0 783 16464 -8597 0
0 0 0 785 17249 -7812 0
0 0 0 833 18082 -6979 0
0 0 0 830 18912 -6149 0
0 0 0 815 19727 -5334 0
0 0 0 799 20526 -4535 0
0 0 0 785 21311 -3750 0
0 0 0 785 22096 -2965 0
0 0 0 779 22875 -2186 0
1 1 S112 775 23650 -1411 0
1 1 S112 787 24437 -624 0
1 2 S112 826 25263 202 0
1 2 S112 852 26115 1054 0
1 2 S112 901 27016 1955 0
1 2 S112 858 27874 2813 0
1 2 S112 838 28712 3651 0
1 2 S112 819 29531 4470 0
1 2 S112 795 30326 5265 0
1 2 S112 802 31128 6067 0
1 2 S112 802 31930 6869 0
0 0 0 789 32719 -12833 0
0 0 0 808 33527 -12025 0
0 0 0 822 34349 -11203 0
0 0 0 817 35166 -10386 0
0 0 0 843 36009 -9543 0
0 0 0 874 36883 -8669 0
0 0 0 848 37731 -7821 0
0 0 0 807 38538 -7014 0
0 0 0 776 39314 -6238 0
0 0 0 761 40075 -5477 0
0 0 0 754 40829 -4723 0
0 0 0 764 41593 -3959 0
0 0 0 778 42371 -3181 0
0 0 0 786 43157 -2395 0
2 1 S102 806 43963 -1589 0
2 1 S102 779 44742 -810 0
2 1 S102 767 45509 -43 0
2 2 S102 850 46359 807 0
2 2 S102 811 47170 1618 0
2 2 S102 760 47930 2378 0
2 2 S102 743 48673 3121 0
2 2 S102 725 49398 3846 0
2 2 S102 698 50096 4544 0
2 2 S102 678 50774 5222 0
2 2 S102 660 51434 5882 0
2 2 S102 652 52086 6534 0
0 0 0 674 52760 -11608 0
0 0 0 675 53435 -10933 0
0 0 0 669 54104 -10264 0
0 0 0 728 54832 -9536 0
0 0 0 803 55635 -8733 0
0 0 0 1033 56668 -7700 1
0 0 0 1140 57808 -6560 1
0 0 0 1011 58819 -5549 1
0 0 0 829 59648 -4720 0
0 0 0 764 60412 -3956 0
0 0 0 734 61146 -3222 0
0 0 0 732 61878 -2490 0
3 1 S116 743 62621 -1747 0
3 1 S116 755 63376 -992 0
3 1 S116 773 64149 -219 0
3 2 S116 781 64930 562 0
3 2 S116 807 65737 1369 0
3 2 S116 958 66695 2327 1
3 2 S116 1065 67760 3392 1
3 2 S116 1032 68792 4424 1
3 2 S116 948 69740 5372 1
3 2 S116 858 70598 6230 0
0 0 0 824 71422 -14233 0
0 0 0 816 72238 -13417 0
0 0 0 796 73034 -12621 0
0 0 0 791 73825 -11830 0
0 0 0 804 74629 -11026 0
0 0 0 818 75447 -10208 0
0 0 0 849 76296 -9359 0
0 0 0 830 77126 -8529 0
0 0 0 806 77932 -7723 0
0 0 0 777 78709 -6946 0
0 0 0 779 79488 -6167 0
0 0 0 770 80258 -5397 0
0 0 0 762 81020 -4635 0
0 0 0 789 81809 -3846 0
0 0 0 810 82619 -3036 0
0 0 0 803 83422 -2233 0
4 1 S106 790 84212 -1443 0
4 1 S106 793 85005 -650 0
4 2 S106 792 85797 142 0
4 2 S106 789 86586 931 0
4 2 S106 789 87375 1720 0
4 2 S106 777 88152 2497 0
4 2 S106 778 88930 3275 0
4 2 S106 809 89739 4084 0
4 2 S106 820 90559 4904 0
4 2 S106 797 91356 5701 0
4 2 S106 785 92141 6486 0
0 0 0 775 92916 -10759 0
0 0 0 774 93690 -9985 0
0 0 0 773 94463 -9212 0
0 0 0 774 95237 -8438 0
0 0 0 781 96018 -7657 0
0 0 0 815 96833 -6842 0
0 0 0 810 97643 -6032 0
0 0 0 806 98449 -5226 0
0 0 0 783 99232 -4443 0
0 0 0 783 100015 -3660 0
0 0 0 767 100782 -2893 0
0 0 0 766 101548 -2127 0
5 1 S116 757 102305 -1370 0
5 1 S116 761 103066 -609 0
5 2 S116 753 103819 144 0
5 2 S116 752 104571 896 0
5 2 S116 777 105348 1673 0
5 2 S116 796 106144 2469 0
5 2 S116 777 106921 3246 0
5 2 S116 796 107717 4042 0
5 2 S116 811 108528 4853 0
5 2 S116 796 109324 5649 0
5 2 S116 773 110097 6422 0
0 0 0 761 110858 -14353 0
0 0 0 758 111616 -13595 0
0 0 0 765 112381 -12830 0
0 0 0 772 113153 -12058 0
0 0 0 782 113935 -11276 0
0 0 0 797 114732 -10479 0
0 0 0 836 115568 -9643 0
0 0 0 824 116392 -8819 0
0 0 0 811 117203 -8008 0
0 0 0 807 118010 -7201 0
0 0 0 782 118792 -6419 0
0 0 0 779 119571 -5640 0
0 0 0 770 120341 -4870 0
0 0 0 771 121112 -4099 0
0 0 0 760 121872 -3339 0
0 0 0 750 122622 -2589 0
6 1 S106 755 123377 -1834 0
6 1 S106 749 124126 -1085 0
6 1 S106 751 124877 -334 0
6 2 S106 777 125654 443 0
6 2 S106 796 126450 1239 0
6 2 S106 798 127248 2037 0
6 2 S106 790 128038 2827 0
6 2 S106 787 128825 3614 0
6 2 S106 764 129589 4378 0
6 2 S106 740 130329 5118 0
6 2 S106 727 131056 5845 0
6 2 S106 722 131778 6567 0
0 0 0 712 132490 -14455 0
0 0 0 691 133181 -13764 0
0 0 0 682 133863 -13082 0
0 0 0 687 134550 -12395 0
0 0 0 704 135254 -11691 0
0 0 0 733 135987 -10958 0
0 0 0 767 136754 -10191 0
0 0 0 789 137543 -9402 0
0 0 0 752 138295 -8650 0
0 0 0 751 139046 -7899 0
0 0 0 743 139789 -7156 0
0 0 0 736 140525 -6420 0
0 0 0 724 141249 -5696 0
0 0 0 729 141978 -4967 0
0 0 0 738 142716 -4229 0
0 0 0 750 143466 -3479 0
0 0 0 750 144216 -2729 0
7 1 S102 748 144964 -1981 0
7 1 S102 762 145726 -1219 0
7 1 S102 761 146487 -458 0
7 2 S102 778 147265 320 0
7 2 S102 767 148032 1087 0
7 2 S102 775 148807 1862 0
7 2 S102 751 149558 2613 0
7 2 S102 748 150306 3361 0
7 2 S102 750 151056 4111 0
7 2 S102 750 151806 4861 0
7 2 S102 756 152562 5617 0
7 2 S102 733 153295 6350 0
0 0 0 735 154030 -12295 0
0 0 0 743 154773 -11552 0
0 0 0 737 155510 -10815 0
0 0 0 730 156240 -10085 0
0 0 0 727 156967 -9358 0
0 0 0 751 157718 -8607 0
0 0 0 790 158508 -7817 0
0 0 0 788 159296 -7029 0
0 0 0 785 160081 -6244 0
0 0 0 769 160850 -5475 0
0 0 0 762 161612 -4713 0
0 0 0 754 162366 -3959 0
0 0 0 747 163113 -3212 0
0 0 0 748 163861 -2464 0
8 1 S112 738 164599 -1726 0
8 1 S112 734 165333 -992 0
8 1 S112 735 166068 -257 0
8 2 S112 747 166815 490 0
8 2 S112 772 167587 1262 0
8 2 S112 814 168401 2076 0
8 2 S112 842 169243 2918 0
8 2 S112 828 170071 3746 0
8 2 S112 849 170920 4595 0
8 2 S112 861 171781 5456 0
8 2 S112 825 172606 6281 0
0 0 0 801 173407 -9182 0
0 0 0 790 174197 -8392 0
0 0 0 790 174987 -7602 0
0 0 0 772 175759 -6830 0
0 0 0 750 176509 -6080 0
0 0 0 737 177246 -5343 0
0 0 0 735 177981 -4608 0
0 0 0 738 178719 -3870 0
0 0 0 724 179443 -3146 0
0 0 0 723 180166 -2423 0
9 1 S116 734 180900 -1689 0
9 1 S116 748 181648 -941 0
9 1 S116 751 182399 -190 0
9 2 S116 775 183174 585 0
9 2 S116 819 183993 1404 0
9 2 S116 840 184833 2244 0
9 2 S116 827 185660 3071 0
9 2 S116 836 186496 3907 0
9 2 S116 865 187361 4772 0
9 2 S116 824 188185 5596 0
9 2 S116 814 188999 6410 0
0 0 0 803 189802 -12167 0
0 0 0 802 190604 -11365 0
0 0 0 796 191400 -10569 0
0 0 0 795 192195 -9774 0
0 0 0 812 193007 -8962 0
0 0 0 802 193809 -8160 0
0 0 0 791 194600 -7369 0
0 0 0 774 195374 -6595 0
0 0 0 778 196152 -5817 0
0 0 0 774 196926 -5043 0
0 0 0 766 197692 -4277 0
0 0 0 774 198466 -3503 0
0 0 0 768 199234 -2735 0
10 1 S102 795 200029 -1940 0
10 1 S102 827 200856 -1113 0
10 1 S102 812 201668 -301 0
10 2 S102 797 202465 496 0
10 2 S102 793 203258 1289 0
10 2 S102 779 204037 2068 0
10 2 S102 770 204807 2838 0
10 2 S102 767 205574 3605 0
10 2 S102 759 206333 4364 0
10 2 S102 762 207095 5126 0
10 2 S102 756 207851 5882 0
10 2 S102 765 208616 6647 0
0 0 0 766 209382 -16791 0
0 0 0 770 210152 -16021 0
0 0 0 768 210920 -15253 0
0 0 0 763 211683 -14490 0
0 0 0 788 212471 -13702 0
0 0 0 810 213281 -12892 0
0 0 0 817 214098 -12075 0
0 0 0 832 214930 -11243 0
0 0 0 827 215757 -10416 0
0 0 0 823 216580 -9593 0
0 0 0 803 217383 -8790 0
0 0 0 792 218175 -7998 0
0 0 0 781 218956 -7217 0
0 0 0 774 219730 -6443 0
0 0 0 795 220525 -5648 0
0 0 0 789 221314 -4859 0
0 0 0 804 222118 -4055 0
0 0 0 799 222917 -3256 0
0 0 0 809 223726 -2447 0
11 1 S112 806 224532 -1641 0
11 1 S112 792 225324 -849 0
11 1 S112 790 226114 -59 0
11 2 S112 786 226900 727 0
11 2 S112 797 227697 1524 0
11 2 S112 819 228516 2343 0
11 2 S112 842 229358 3185 0
11 2 S112 836 230194 4021 0
11 2 S112 878 231072 4899 0
11 2 S112 862 231934 5761 0
11 2 S112 836 232770 6597 0
0 0 0 823 233593 -9391 0
0 0 0 813 234406 -8578 0
0 0 0 787 235193 -7791 0
0 0 0 770 235963 -7021 0
0 0 0 779 236742 -6242 0
0 0 0 808 237550 -5434 0
0 0 0 835 238385 -4599 0
0 0 0 798 239183 -3801 0
0 0 0 790 239973 -3011 0
0 0 0 793 240766 -2218 0
12 1 S116 762 241528 -1456 0
12 1 S116 757 242285 -699 0
12 2 S116 728 243013 29 0
12 2 S116 725 243738 754 0
12 2 S116 735 244473 1489 0
12 2 S116 743 245216 2232 0
12 2 S116 787 246003 3019 0
12 2 S116 835 246838 3854 0
12 2 S116 840 247678 4694 0
12 2 S116 838 248516 5532 0
12 2 S116 807 249323 6339 0
0 0 0 765 250088 -15973 0
0 0 0 743 250831 -15230 0
0 0 0 731 251562 -14499 0
0 0 0 747 252309 -13752 0
0 0 0 737 253046 -13015 0
0 0 0 737 253783 -12278 0
0 0 0 730 254513 -11548 0
0 0 0 728 255241 -10820 0
0 0 0 738 255979 -10082 0
0 0 0 736 256715 -9346 0
0 0 0 768 257483 -8578 0
0 0 0 773 258256 -7805 0
0 0 0 755 259011 -7050 0
0 0 0 761 259772 -6289 0
0 0 0 767 260539 -5522 0
0 0 0 767 261306 -4755 0
0 0 0 764 262070 -3991 0
0 0 0 759 262829 -3232 0
0 0 0 756 263585 -2476 0
13 1 S112 768 264353 -1708 0
13 1 S112 749 265102 -959 0
13 1 S112 768 265870 -191 0
13 2 S112 783 266653 592 0
13 2 S112 788 267441 1380 0
13 2 S112 777 268218 2157 0
13 2 S112 801 269019 2958 0
13 2 S112 839 269858 3797 0
13 2 S112 824 270682 4621 0
13 2 S112 803 271485 5424 0
13 2 S112 812 272297 6236 0
0 0 0 805 273102 -13881 0
0 0 0 777 273879 -13104 0
0 0 0 758 274637 -12346 0
0 0 0 760 275397 -11586 0
0 0 0 780 276177 -10806 0
0 0 0 760 276937 -10046 0
0 0 0 741 277678 -9305 0
0 0 0 763 278441 -8542 0
0 0 0 768 279209 -7774 0
0 0 0 740 279949 -7034 0
0 0 0 725 280674 -6309 0
0 0 0 706 281380 -5603 0
0 0 0 691 282071 -4912 0
0 0 0 690 282761 -4222 0
0 0 0 700 283461 -3522 0
0 0 0 696 284157 -2826 0
0 0 0 705 284862 -2121 0
14 1 S106 705 285567 -1416 0
14 1 S106 706 286273 -710 0
14 1 S106 700 286973 -10 0
14 2 S106 691 287664 681 0
14 2 S106 683 288347 1364 0
14 2 S106 670 289017 2034 0
14 2 S106 658 289675 2692 0
14 2 S106 652 290327 3344 0
14 2 S106 647 290974 3991 0
14 2 S106 639 291613 4630 0
14 2 S106 633 292246 5263 0
14 2 S106 628 292874 5891 0
14 2 S106 640 293514 6531 0
0 0 0 753 294267 -12394 0
0 0 0 1323 295590 -11071 1
0 0 0 969 296559 -10102 1
0 0 0 962 297521 -9140 1
0 0 0 955 298476 -8185 1
0 0 0 908 299384 -7277 0
0 0 0 871 300255 -6406 0
0 0 0 831 301086 -5575 0
0 0 0 800 301886 -4775 0
0 0 0 771 302657 -4004 0
0 0 0 743 303400 -3261 0
0 0 0 720 304120 -2541 0
15 1 S116 712 304832 -1829 0
15 1 S116 714 305546 -1115 0
15 1 S116 708 306254 -407 0
15 2 S116 705 306959 298 0
15 2 S116 712 307671 1010 0
15 2 S116 726 308397 1736 0
15 2 S116 747 309144 2483 0
15 2 S116 741 309885 3224 0
15 2 S116 760 310645 3984 0
15 2 S116 769 311414 4753 0
15 2 S116 771 312185 5524 0
15 2 S116 784 312969 6308 0
0 0 0 806 313775 -11172 0
0 0 0 823 314598 -10349 0
0 0 0 817 315415 -9532 0
0 0 0 802 316217 -8730 0
0 0 0 800 317017 -7930 0
0 0 0 808 317825 -7122 0
0 0 0 801 318626 -6321 0
0 0 0 782 319408 -5539 0
0 0 0 768 320176 -4771 0
0 0 0 780 320956 -3991 0
0 0 0 764 321720 -3227 0
0 0 0 752 322472 -2475 0
16 1 S116 742 323214 -1733 0
16 1 S116 735 323949 -998 0
16 1 S116 754 324703 -244 0
16 2 S116 749 325452 505 0
16 2 S116 744 326196 1249 0
16 2 S116 760 326956 2009 0
16 2 S116 764 327720 2773 0
16 2 S116 755 328475 3528 0
16 2 S116 756 329231 4284 0
16 2 S116 760 329991 5044 0
16 2 S116 756 330747 5800 0
16 2 S116 755 331502 6555 0
0 0 0 745 332247 -11069 0
0 0 0 741 332988 -10328 0
0 0 0 749 333737 -9579 0
0 0 0 750 334487 -8829 0
0 0 0 750 335237 -8079 0
0 0 0 761 335998 -7318 0
0 0 0 767 336765 -6551 0
0 0 0 757 337522 -5794 0
0 0 0 745 338267 -5049 0
0 0 0 731 338998 -4318 0
0 0 0 725 339723 -3593 0
0 0 0 723 340446 -2870 0
0 0 0 722 341168 -2148 0
17 1 S106 728 341896 -1420 0
17 1 S106 748 342644 -672 0
17 2 S106 769 343413 97 0
17 2 S106 779 344192 876 0
17 2 S106 778 344970 1654 0
17 2 S106 758 345728 2412 0
17 2 S106 741 346469 3153 0
17 2 S106 718 347187 3871 0
17 2 S106 709 347896 4580 0
17 2 S106 693 348589 5273 0
17 2 S106 691 349280 5964 0
17 2 S106 702 349982 6666 0
0 0 0 735 350717 -13554 0
0 0 0 742 351459 -12812 0
0 0 0 734 352193 -12078 0
0 0 0 741 352934 -11337 0
0 0 0 754 353688 -10583 0
0 0 0 778 354466 -9805 0
0 0 0 786 355252 -9019 0
0 0 0 770 356022 -8249 0
0 0 0 732 356754 -7517 0
0 0 0 717 357471 -6800 0
0 0 0 702 358173 -6098 0
0 0 0 709 358882 -5389 0
0 0 0 718 359600 -4671 0
0 0 0 734 360334 -3937 0
0 0 0 731 361065 -3206 0
0 0 0 732 361797 -2474 0
18 1 S102 732 362529 -1742 0
18 1 S102 721 363250 -1021 0
18 1 S102 725 363975 -296 0
18 2 S102 715 364690 419 0
18 2 S102 715 365405 1134 0
18 2 S102 695 366100 1829 0
18 2 S102 688 366788 2517 0
18 2 S102 684 367472 3201 0
18 2 S102 680 368152 3881 0
18 2 S102 673 368825 4554 0
18 2 S102 672 369497 5226 0
18 2 S102 679 370176 5905 0
18 2 S102 708 370884 6613 0
0 0 0 782 371666 -9615 0
0 0 0 863 372529 -8752 0
0 0 0 858 373387 -7894 0
0 0 0 909 374296 -6985 0
0 0 0 884 375180 -6101 0
0 0 0 928 376108 -5173 0
0 0 0 887 376995 -4286 0
0 0 0 824 377819 -3462 0
0 0 0 796 378615 -2666 0
19 1 S106 791 379406 -1875 0
19 1 S106 775 380181 -1100 0
19 1 S106 773 380954 -327 0
19 2 S106 780 381734 453 0
19 2 S106 782 382516 1235 0
19 2 S106 790 383306 2025 0
19 2 S106 797 384103 2822 0
19 2 S106 816 384919 3638 0
19 2 S106 814 385733 4452 0
19 2 S106 812 386545 5264 0
19 2 S106 806 387351 6070 0
19 2 S106 797 388148 6867 0
0 0 0 795 388943 -14287 0
0 0 0 797 389740 -13490 0
0 0 0 776 390516 -12714 0
0 0 0 766 391282 -11948 0
0 0 0 783 392065 -11165 0
0 0 0 797 392862 -10368 0
0 0 0 785 393647 -9583 0
0 0 0 779 394426 -8804 0
0 0 0 767 395193 -8037 0
0 0 0 754 395947 -7283 0
0 0 0 744 396691 -6539 0
0 0 0 732 397423 -5807 0
0 0 0 743 398166 -5064 0
0 0 0 740 398906 -4324 0
0 0 0 732 399638 -3592 0
0 0 0 737 400375 -2855 0
0 0 0 743 401118 -2112 0
20 1 S112 735 401853 -1377 0
20 1 S112 737 402590 -640 0
20 2 S112 742 403332 102 0
20 2 S112 738 404070 840 0
20 2 S112 749 404819 1589 0
20 2 S112 748 405567 2337 0
20 2 S112 784 406351 3121 0
20 2 S112 808 407159 3929 0
20 2 S112 849 408008 4778 0
20 2 S112 834 408842 5612 0
20 2 S112 825 409667 6437 0
0 0 0 817 410484 -10750 0
0 0 0 797 411281 -9953 0
0 0 0 795 412076 -9158 0
0 0 0 792 412868 -8366 0
0 0 0 787 413655 -7579 0
0 0 0 773 414428 -6806 0
0 0 0 759 415187 -6047 0
0 0 0 734 415921 -5313 0
0 0 0 739 416660 -4574 0
0 0 0 734 417394 -3840 0
0 0 0 735 418129 -3105 0
0 0 0 754 418883 -2351 0
21 1 S106 752 419635 -1599 0
21 1 S106 767 420402 -832 0
21 1 S106 768 421170 -64 0
21 2 S106 765 421935 701 0
21 2 S106 747 422682 1448 0
21 2 S106 733 423415 2181 0
21 2 S106 732 424147 2913 0
21 2 S106 738 424885 3651 0
21 2 S106 726 425611 4377 0
21 2 S106 731 426342 5108 0
21 2 S106 733 427075 5841 0
21 2 S106 725 427800 6566 0
0 0 0 733 428533 -14187 0
0 0 0 749 429282 -13438 0
0 0 0 771 430053 -12667 0
0 0 0 757 430810 -11910 0
0 0 0 767 431577 -11143 0
0 0 0 735 432312 -10408 0
0 0 0 970 433282 -9438 1
0 0 0 823 434105 -8615 0
0 0 0 763 434868 -7852 0
0 0 0 731 435599 -7121 0
0 0 0 720 436319 -6401 0
0 0 0 728 437047 -5673 0
0 0 0 765 437812 -4908 0
0 0 0 869 438681 -4039 0
0 0 0 925 439606 -3114 0
0 0 0 907 440513 -2207 0
22 1 S116 883 441396 -1324 0
22 1 S116 869 442265 -455 0
22 2 S116 866 443131 411 0
22 2 S116 854 443985 1265 0
22 2 S116 872 444857 2137 0
22 2 S116 879 445736 3016 0
22 2 S116 858 446594 3874 0
22 2 S116 823 447417 4697 0
22 2 S116 827 448244 5524 0
22 2 S116 826 449070 6350 0
0 0 0 808 449878 -12720 0
0 0 0 797 450675 -11923 0
0 0 0 780 451455 -11143 0
0 0 0 776 452231 -10367 0
0 0 0 773 453004 -9594 0
0 0 0 769 453773 -8825 0
0 0 0 799 454572 -8026 0
0 0 0 807 455379 -7219 0
0 0 0 825 456204 -6394 0
0 0 0 822 457026 -5572 0
0 0 0 804 457830 -4768 0
0 0 0 782 458612 -3986 0
0 0 0 760 459372 -3226 0
0 0 0 744 460116 -2482 0
23 1 S112 737 460853 -1745 0
23 1 S112 744 461597 -1001 0
23 1 S112 756 462353 -245 0
23 2 S112 764 463117 519 0
23 2 S112 797 463914 1316 0
23 2 S112 813 464727 2129 0
23 2 S112 780 465507 2909 0
23 2 S112 759 466266 3668 0
23 2 S112 746 467012 4414 0
23 2 S112 741 467753 5155 0
23 2 S112 731 468484 5886 0
23 2 S112 727 469211 6613 0
0 0 0 722 469933 -12973 0
0 0 0 731 470664 -12242 0
0 0 0 746 471410 -11496 0
0 0 0 733 472143 -10763 0
0 0 0 737 472880 -10026 0
0 0 0 758 473638 -9268 0
0 0 0 771 474409 -8497 0
0 0 0 770 475179 -7727 0
0 0 0 774 475953 -6953 0
0 0 0 765 476718 -6188 0
0 0 0 779 477497 -5409 0
0 0 0 770 478267 -4639 0
0 0 0 754 479021 -3885 0
0 0 0 752 479773 -3133 0
0 0 0 753 480526 -2380 0
24 1 S106 751 481277 -1629 0
24 1 S106 754 482031 -875 0
24 1 S106 745 482776 -130 0
24 2 S106 734 483510 604 0
24 2 S106 725 484235 1329 0
24 2 S106 719 484954 2048 0
24 2 S106 707 485661 2755 0
24 2 S106 708 486369 3463 0
24 2 S106 709 487078 4172 0
24 2 S106 704 487782 4876 0
24 2 S106 708 488490 5584 0
24 2 S106 716 489206 6300 0
24 2 S106 719 489925 7019 0
0 0 0 718 490643 -10499 0
0 0 0 737 491380 -9762 0
0 0 0 759 492139 -9003 0
0 0 0 765 492904 -8238 0
0 0 0 782 493686 -7456 0
0 0 0 795 494481 -6661 0
0 0 0 774 495255 -5887 0
0 0 0 756 496011 -5131 0
0 0 0 729 496740 -4402 0
0 0 0 731 497471 -3671 0
0 0 0 722 498193 -2949 0
0 0 0 716 498909 -2233 0
25 1 S102 710 499619 -1523 0
25 1 S102 722 500341 -801 0
25 1 S102 724 501065 -77 0
25 2 S102 718 501783 641 0
25 2 S102 722 502505 1363 0
25 2 S102 705 503210 2068 0
25 2 S102 694 503904 2762 0
25 2 S102 1372 505276 4134 1
25 2 S102 671 505947 4805 0
25 2 S102 649 506596 5454 0
25 2 S102 656 507252 6110 0
25 2 S102 677 507929 6787 0
0 0 0 870 508799 -11342 0
0 0 0 1299 510098 -10043 1
0 0 0 888 510986 -9155 0
0 0 0 927 511913 -8228 0
0 0 0 969 512882 -7259 1
0 0 0 998 513880 -6261 1
0 0 0 929 514809 -5332 0
0 0 0 887 515696 -4445 0
0 0 0 848 516544 -3597 0
0 0 0 788 517332 -2809 0
0 0 0 781 518113 -2028 0
26 1 S116 762 518875 -1266 0
26 1 S116 773 519648 -493 0
26 2 S116 757 520405 264 0
26 2 S116 748 521153 1012 0
26 2 S116 749 521902 1761 0
26 2 S116 759 522661 2520 0
26 2 S116 759 523420 3279 0
26 2 S116 775 524195 4054 0
26 2 S116 774 524969 4828 0
26 2 S116 780 525749 5608 0
26 2 S116 773 526522 6381 0
0 0 0 767 527289 -10375 0
0 0 0 773 528062 -9602 0
0 0 0 762 528824 -8840 0
0 0 0 742 529566 -8098 0
0 0 0 707 530273 -7391 0
0 0 0 701 530974 -6690 0
0 0 0 693 531667 -5997 0
0 0 0 700 532367 -5297 0
0 0 0 697 533064 -4600 0
0 0 0 710 533774 -3890 0
0 0 0 751 534525 -3139 0
0 0 0 826 535351 -2313 0
27 1 S106 853 536204 -1460 0
27 1 S106 825 537029 -635 0
27 2 S106 833 537862 198 0
27 2 S106 815 538677 1013 0
27 2 S106 802 539479 1815 0
27 2 S106 785 540264 2600 0
27 2 S106 763 541027 3363 0
27 2 S106 752 541779 4115 0
27 2 S106 733 542512 4848 0
27 2 S106 736 543248 5584 0
27 2 S106 748 543996 6332 0
0 0 0 739 544735 -10718 0
0 0 0 753 545488 -9965 0
0 0 0 777 546265 -9188 0
0 0 0 771 547036 -8417 0
0 0 0 760 547796 -7657 0
0 0 0 764 548560 -6893 0
0 0 0 785 549345 -6108 0
0 0 0 784 550129 -5324 0
0 0 0 763 550892 -4561 0
0 0 0 734 551626 -3827 0
0 0 0 719 552345 -3108 0
0 0 0 715 553060 -2393 0
28 1 S102 705 553765 -1688 0
28 1 S102 703 554468 -985 0
28 1 S102 713 555181 -272 0
28 2 S102 727 555908 455 0
28 2 S102 746 556654 1201 0
28 2 S102 754 557408 1955 0
28 2 S102 752 558160 2707 0
28 2 S102 775 558935 3482 0
28 2 S102 791 559726 4273 0
28 2 S102 774 560500 5047 0
28 2 S102 768 561268 5815 0
28 2 S102 767 562035 6582 0
0 0 0 789 562824 -14181 0
0 0 0 772 563596 -13409 0
0 0 0 755 564351 -12654 0
0 0 0 740 565091 -11914 0
0 0 0 736 565827 -11178 0
0 0 0 742 566569 -10436 0
0 0 0 733 567302 -9703 0
0 0 0 768 568070 -8935 0
0 0 0 776 568846 -8159 0
0 0 0 759 569605 -7400 0
0 0 0 738 570343 -6662 0
0 0 0 724 571067 -5938 0
0 0 0 724 571791 -5214 0
0 0 0 737 572528 -4477 0
0 0 0 742 573270 -3735 0
0 0 0 751 574021 -2984 0
0 0 0 763 574784 -2221 0
29 1 S112 767 575551 -1454 0
29 1 S112 752 576303 -702 0
29 2 S112 749 577052 47 0
29 2 S112 736 577788 783 0
29 2 S112 725 578513 1508 0
29 2 S112 724 579237 2232 0
29 2 S112 731 579968 2963 0
29 2 S112 730 580698 3693 0
29 2 S112 727 581425 4420 0
29 2 S112 736 582161 5156 0
29 2 S112 765 582926 5921 0
29 2 S112 771 583697 6692 0
0 0 0 777 584474 -10187 0
0 0 0 784 585258 -9403 0
0 0 0 783 586041 -8620 0
0 0 0 772 586813 -7848 0
0 0 0 787 587600 -7061 0
0 0 0 818 588418 -6243 0
0 0 0 819 589237 -5424 0
0 0 0 781 590018 -4643 0
0 0 0 773 590791 -3870 0
0 0 0 756 591547 -3114 0
0 0 0 752 592299 -2362 0
30 1 S112 753 593052 -1609 0
30 1 S112 745 593797 -864 0
30 1 S112 737 594534 -127 0
30 2 S112 738 595272 611 0
30 2 S112 737 596009 1348 0
30 2 S112 738 596747 2086 0
30 2 S112 755 597502 2841 0
30 2 S112 803 598305 3644 0
30 2 S112 821 599126 4465 0
30 2 S112 853 599979 5318 0
30 2 S112 865 600844 6183 0
0 0 0 871 601715 -193843 0
0 0 0 863 602578 -192980 0
0 0 0 848 603426 -192132 0
0 0 0 795 604221 -191337 0
0 0 0 768 604989 -190569 0
0 0 0 753 605742 -189816 0
0 0 0 753 606495 -189063 0
0 0 0 750 607245 -188313 0
0 0 0 748 607993 -187565 0
0 0 0 736 608729 -186829 0
0 0 0 751 609480 -186078 0
0 0 0 741 610221 -185337 0
0 0 0 730 610951 -184607 0
0 0 0 728 611679 -183879 0
0 0 0 729 612408 -183150 0
0 0 0 728 613136 -182422 0
0 0 0 715 613851 -181707 0
0 0 0 716 614567 -180991 0
0 0 0 715 615282 -180276 0
0 0 0 714 615996 -179562 0
0 0 0 697 616693 -178865 0
0 0 0 676 617369 -178189 0
0 0 0 656 618025 -177533 0
0 0 0 646 618671 -176887 0
0 0 0 645 619316 -176242 0
0 0 0 638 619954 -175604 0
0 0 0 647 620601 -174957 0
0 0 0 669 621270 -174288 0
0 0 0 678 621948 -173610 0
0 0 0 683 622631 -172927 0
0 0 0 660 623291 -172267 0
0 0 0 680 623971 -171587 0
0 0 0 675 624646 -170912 0
0 0 0 686 625332 -170226 0
0 0 0 664 625996 -169562 0
0 0 0 656 626652 -168906 0
0 0 0 641 627293 -168265 0
0 0 0 635 627928 -167630 0
0 0 0 636 628564 -166994 0
0 0 0 630 629194 -166364 0
0 0 0 617 629811 -165747 0
0 0 0 612 630423 -165135 0
0 0 0 614 631037 -164521 0
0 0 0 607 631644 -163914 0
0 0 0 615 632259 -163299 0
0 0 0 648 632907 -162651 0
0 0 0 684 633591 -161967 0
0 0 0 712 634303 -161255 0
0 0 0 708 635011 -160547 0
0 0 0 696 635707 -159851 0
0 0 0 686 636393 -159165 0
0 0 0 664 637057 -158501 0
0 0 0 659 637716 -157842 0
0 0 0 656 638372 -157186 0
0 0 0 642 639014 -156544 0
0 0 0 635 639649 -155909 0
0 0 0 636 640285 -155273 0
0 0 0 646 640931 -154627 0
0 0 0 644 641575 -153983 0
0 0 0 640 642215 -153343 0
0 0 0 637 642852 -152706 0
0 0 0 634 643486 -152072 0
0 0 0 643 644129 -151429 0
0 0 0 625 644754 -150804 0
0 0 0 620 645374 -150184 0
0 0 0 618 645992 -149566 0
0 0 0 612 646604 -148954 0
0 0 0 611 647215 -148343 0
0 0 0 618 647833 -147725 0
0 0 0 598 648431 -147127 1
0 0 0 612 649043 -146515 0
0 0 0 597 649640 -145918 1
0 0 0 582 650222 -145336 1
0 0 0 594 650816 -144742 1
0 0 0 583 651399 -144159 1
0 0 0 578 651977 -143581 1
0 0 0 577 652554 -143004 1
0 0 0 584 653138 -142420 1
0 0 0 593 653731 -141827 1
0 0 0 612 654343 -141215 0
0 0 0 1112 655455 -140103 1
0 0 0 817 656272 -139286 0
0 0 0 843 657115 -138443 0
0 0 0 722 657837 -137721 0
0 0 0 691 658528 -137030 0
0 0 0 671 659199 -136359 0
0 0 0 659 659858 -135700 0
0 0 0 642 660500 -135058 0
0 0 0 657 661157 -134401 0
0 0 0 716 661873 -133685 0
0 0 0 771 662644 -132914 0
0 0 0 803 663447 -132111 0
0 0 0 863 664310 -131248 0
0 0 0 823 665133 -130425 0
0 0 0 817 665950 -129608 0
0 0 0 810 666760 -128798 0
0 0 0 790 667550 -128008 0
0 0 0 800 668350 -127208 0
0 0 0 793 669143 -126415 0
0 0 0 825 669968 -125590 0
0 0 0 838 670806 -124752 0
0 0 0 812 671618 -123940 0
0 0 0 784 672402 -123156 0
0 0 0 777 673179 -122379 0
0 0 0 762 673941 -121617 0
0 0 0 786 674727 -120831 0
0 0 0 822 675549 -120009 0
0 0 0 798 676347 -119211 0
0 0 0 810 677157 -118401 0
0 0 0 799 677956 -117602 0
0 0 0 806 678762 -116796 0
0 0 0 813 679575 -115983 0
0 0 0 785 680360 -115198 0
0 0 0 732 681092 -114466 0
0 0 0 715 681807 -113751 0
0 0 0 763 682570 -112988 0
0 0 0 814 683384 -112174 0
0 0 0 811 684195 -111363 0
0 0 0 999 685194 -110364 1
0 0 0 954 686148 -109410 1
0 0 0 857 687005 -108553 0
0 0 0 831 687836 -107722 0
0 0 0 857 688693 -106865 0
0 0 0 864 689557 -106001 0
0 0 0 826 690383 -105175 0
0 0 0 812 691195 -104363 0
0 0 0 822 692017 -103541 0
0 0 0 802 692819 -102739 0
0 0 0 791 693610 -101948 0
0 0 0 806 694416 -101142 0
0 0 0 819 695235 -100323 0
0 0 0 826 696061 -99497 0
0 0 0 822 696883 -98675 0
0 0 0 846 697729 -97829 0
0 0 0 884 698613 -96945 0
0 0 0 854 699467 -96091 0
0 0 0 841 700308 -95250 0
0 0 0 811 701119 -94439 0
0 0 0 808 701927 -93631 0
0 0 0 792 702719 -92839 0
0 0 0 804 703523 -92035 0
0 0 0 865 704388 -91170 0
0 0 0 920 705308 -90250 0
0 0 0 875 706183 -89375 0
0 0 0 870 707053 -88505 0
0 0 0 883 707936 -87622 0
0 0 0 891 708827 -86731 0
0 0 0 849 709676 -85882 0
0 0 0 808 710484 -85074 0
0 0 0 799 711283 -84275 0
0 0 0 815 712098 -83460 0
0 0 0 816 712914 -82644 0
0 0 0 838 713752 -81806 0
0 0 0 822 714574 -80984 0
0 0 0 845 715419 -80139 0
0 0 0 823 716242 -79316 0
0 0 0 828 717070 -78488 0
0 0 0 818 717888 -77670 0
0 0 0 814 718702 -76856 0
0 0 0 809 719511 -76047 0
0 0 0 775 720286 -75272 0
0 0 0 743 721029 -74529 0
0 0 0 732 721761 -73797 0
0 0 0 737 722498 -73060 0
0 0 0 733 723231 -72327 0
0 0 0 837 724068 -71490 0
0 0 0 761 724829 -70729 0
0 0 0 716 725545 -70013 0
0 0 0 697 726242 -69316 0
0 0 0 680 726922 -68636 0
0 0 0 661 727583 -67975 0
0 0 0 648 728231 -67327 0
0 0 0 667 728898 -66660 0
0 0 0 696 729594 -65964 0
0 0 0 707 730301 -65257 0
0 0 0 692 730993 -64565 0
0 0 0 690 731683 -63875 0
0 0 0 676 732359 -63199 0
0 0 0 703 733062 -62496 0
0 0 0 806 733868 -61690 0
0 0 0 889 734757 -60801 0
0 0 0 886 735643 -59915 0
0 0 0 831 736474 -59084 0
0 0 0 807 737281 -58277 0
0 0 0 818 738099 -57459 0
0 0 0 821 738920 -56638 0
0 0 0 805 739725 -55833 0
0 0 0 819 740544 -55014 0
0 0 0 911 741455 -54103 0
0 0 0 886 742341 -53217 0
0 0 0 850 743191 -52367 0
0 0 0 796 743987 -51571 0
0 0 0 764 744751 -50807 0
0 0 0 756 745507 -50051 0
0 0 0 773 746280 -49278 0
0 0 0 776 747056 -48502 0
0 0 0 764 747820 -47738 0
0 0 0 761 748581 -46977 0
0 0 0 763 749344 -46214 0
0 0 0 741 750085 -45473 0
0 0 0 696 750781 -44777 0
0 0 0 707 751488 -44070 0
0 0 0 668 752156 -43402 0
0 0 0 681 752837 -42721 0
0 0 0 664 753501 -42057 0
0 0 0 659 754160 -41398 0
0 0 0 668 754828 -40730 0
0 0 0 651 755479 -40079 0
0 0 0 646 756125 -39433 0
0 0 0 642 756767 -38791 0
0 0 0 645 757412 -38146 0
0 0 0 644 758056 -37502 0
0 0 0 642 758698 -36860 0
0 0 0 645 759343 -36215 0
0 0 0 644 759987 -35571 0
0 0 0 645 760632 -34926 0
0 0 0 655 761287 -34271 0
0 0 0 669 761956 -33602 0
0 0 0 673 762629 -32929 0
0 0 0 707 763336 -32222 0
0 0 0 708 764044 -31514 0
0 0 0 700 764744 -30814 0
0 0 0 684 765428 -30130 0
0 0 0 671 766099 -29459 0
0 0 0 663 766762 -28796 0
0 0 0 655 767417 -28141 0
0 0 0 657 768074 -27484 0
0 0 0 686 768760 -26798 0
0 0 0 695 769455 -26103 0
0 0 0 696 770151 -25407 0
0 0 0 728 770879 -24679 0
0 0 0 815 771694 -23864 0
0 0 0 825 772519 -23039 0
0 0 0 896 773415 -22143 0
0 0 0 969 774384 -21174 1
0 0 0 875 775259 -20299 0
0 0 0 822 776081 -19477 0
0 0 0 807 776888 -18670 0
0 0 0 783 777671 -17887 0
0 0 0 768 778439 -17119 0
0 0 0 744 779183 -16375 0
0 0 0 721 779904 -15654 0
0 0 0 721 780625 -14933 0
0 0 0 742 781367 -14191 0
0 0 0 729 782096 -13462 0
0 0 0 719 782815 -12743 0
0 0 0 704 783519 -12039 0
0 0 0 713 784232 -11326 0
0 0 0 713 784945 -10613 0
0 0 0 716 785661 -9897 0
0 0 0 723 786384 -9174 0
0 0 0 718 787102 -8456 0
0 0 0 711 787813 -7745 0
0 0 0 708 788521 -7037 0
0 0 0 713 789234 -6324 0
0 0 0 746 789980 -5578 0
0 0 0 750 790730 -4828 0
0 0 0 736 791466 -4092 0
0 0 0 726 792192 -3366 0
0 0 0 737 792929 -2629 0
31 1 S106 738 793667 -1891 0
31 1 S106 738 794405 -1153 0
31 1 S106 733 795138 -420 0
31 2 S106 714 795852 294 0
31 2 S106 694 796546 988 0
31 2 S106 686 797232 1674 0
31 2 S106 701 797933 2375 0
31 2 S106 748 798681 3123 0
31 2 S106 750 799431 3873 0
31 2 S106 724 800155 4597 0
31 2 S106 726 800881 5323 0
31 2 S106 723 801604 6046 0
31 2 S106 715 802319 6761 0
0 0 0 719 803038 -10491 0
0 0 0 691 803729 -9800 0
0 0 0 676 804405 -9124 0
0 0 0 663 805068 -8461 0
0 0 0 655 805723 -7806 0
0 0 0 632 806355 -7174 0
0 0 0 638 806993 -6536 0
0 0 0 672 807665 -5864 0
0 0 0 708 808373 -5156 0
0 0 0 728 809101 -4428 0
0 0 0 803 809904 -3625 0
0 0 0 870 810774 -2755 0
32 1 S102 924 811698 -1831 0
32 1 S102 884 812582 -947 0
32 1 S102 894 813476 -53 0
32 2 S102 852 814328 799 0
32 2 S102 838 815166 1637 0
32 2 S102 806 815972 2443 0
32 2 S102 800 816772 3243 0
32 2 S102 796 817568 4039 0
32 2 S102 790 818358 4829 0
32 2 S102 795 819153 5624 0
32 2 S102 817 819970 6441 0
0 0 0 821 820791 -15649 0
0 0 0 806 821597 -14843 0
0 0 0 783 822380 -14060 0
0 0 0 776 823156 -13284 0
0 0 0 788 823944 -12496 0
0 0 0 795 824739 -11701 0
0 0 0 829 825568 -10872 0
0 0 0 867 826435 -10005 0
0 0 0 932 827367 -9073 0
0 0 0 894 828261 -8179 0
0 0 0 836 829097 -7343 0
0 0 0 790 829887 -6553 0
0 0 0 753 830640 -5800 0
0 0 0 731 831371 -5069 0
0 0 0 714 832085 -4355 0
0 0 0 705 832790 -3650 0
0 0 0 709 833499 -2941 0
0 0 0 688 834187 -2253 0
33 1 S112 685 834872 -1568 0
33 1 S112 738 835610 -830 0
33 2 S112 854 836464 24 0
33 2 S112 866 837330 890 0
33 2 S112 849 838179 1739 0
33 2 S112 826 839005 2565 0
33 2 S112 822 839827 3387 0
33 2 S112 809 840636 4196 0
33 2 S112 776 841412 4972 0
33 2 S112 770 842182 5742 0
33 2 S112 766 842948 6508 0
0 0 0 771 843719 -13162 0
0 0 0 771 844490 -12391 0
0 0 0 778 845268 -11613 0
0 0 0 784 846052 -10829 0
0 0 0 791 846843 -10038 0
0 0 0 811 847654 -9227 0
0 0 0 841 848495 -8386 0
0 0 0 841 849336 -7545 0
0 0 0 819 850155 -6726 0
0 0 0 798 850953 -5928 0
0 0 0 794 851747 -5134 0
0 0 0 804 852551 -4330 0
0 0 0 794 853345 -3536 0
0 0 0 777 854122 -2759 0
34 1 S106 777 854899 -1982 0
34 1 S106 784 855683 -1198 0
34 1 S106 798 856481 -400 0
34 2 S106 778 857259 378 0
34 2 S106 778 858037 1156 0
34 2 S106 780 858817 1936 0
34 2 S106 797 859614 2733 0
34 2 S106 800 860414 3533 0
34 2 S106 805 861219 4338 0
34 2 S106 806 862025 5144 0
34 2 S106 831 862856 5975 0
34 2 S106 820 863676 6795 0
0 0 0 821 864497 -11781 0
0 0 0 820 865317 -10961 0
0 0 0 797 866114 -10164 0
0 0 0 775 866889 -9389 0
0 0 0 774 867663 -8615 0
0 0 0 778 868441 -7837 0
0 0 0 778 869219 -7059 0
0 0 0 782 870001 -6277 0
0 0 0 778 870779 -5499 0
0 0 0 785 871564 -4714 0
0 0 0 795 872359 -3919 0
0 0 0 784 873143 -3135 0
0 0 0 782 873925 -2353 0
35 1 S102 779 874704 -1574 0
35 1 S102 795 875499 -779 0
35 2 S102 788 876287 9 0
35 2 S102 799 877086 808 0
35 2 S102 800 877886 1608 0
35 2 S102 798 878684 2406 0
35 2 S102 789 879473 3195 0
35 2 S102 777 880250 3972 0
35 2 S102 765 881015 4737 0
35 2 S102 770 881785 5507 0
35 2 S102 787 882572 6294 0
0 0 0 790 883362 -12545 0
0 0 0 812 884174 -11733 0
0 0 0 814 884988 -10919 0
0 0 0 792 885780 -10127 0
0 0 0 775 886555 -9352 0
0 0 0 769 887324 -8583 0
0 0 0 802 888126 -7781 0
0 0 0 834 888960 -6947 0
0 0 0 825 889785 -6122 0
0 0 0 834 890619 -5288 0
0 0 0 834 891453 -4454 0
0 0 0 815 892268 -3639 0
0 0 0 816 893084 -2823 0
0 0 0 818 893902 -2005 0
36 1 S106 815 894717 -1190 0
36 1 S106 850 895567 -340 0
36 2 S106 841 896408 501 0
36 2 S106 821 897229 1322 0
36 2 S106 826 898055 2148 0
36 2 S106 826 898881 2974 0
36 2 S106 829 899710 3803 0
36 2 S106 832 900542 4635 0
36 2 S106 846 901388 5481 0
36 2 S106 852 902240 6333 0
0 0 0 841 903081 -10183 0
0 0 0 821 903902 -9362 0
0 0 0 810 904712 -8552 0
0 0 0 797 905509 -7755 0
0 0 0 785 906294 -6970 0
0 0 0 779 907073 -6191 0
0 0 0 771 907844 -5420 0
0 0 0 762 908606 -4658 0
0 0 0 751 909357 -3907 0
0 0 0 754 910111 -3153 0
0 0 0 771 910882 -2382 0
37 1 S116 777 911659 -1605 0
37 1 S116 773 912432 -832 0
37 1 S116 764 913196 -68 0
37 2 S116 751 913947 683 0
37 2 S116 735 914682 1418 0
37 2 S116 728 915410 2146 0
37 2 S116 726 916136 2872 0
37 2 S116 724 916860 3596 0
37 2 S116 716 917576 4312 0
37 2 S116 723 918299 5035 0
37 2 S116 744 919043 5779 0
37 2 S116 785 919828 6564 0
0 0 0 771 920599 -11399 0
0 0 0 789 921388 -10610 0
0 0 0 796 922184 -9814 0
0 0 0 812 922996 -9002 0
0 0 0 793 923789 -8209 0
0 0 0 777 924566 -7432 0
0 0 0 761 925327 -6671 0
0 0 0 751 926078 -5920 0
0 0 0 732 926810 -5188 0
0 0 0 730 927540 -4458 0
0 0 0 724 928264 -3734 0
0 0 0 728 928992 -3006 0
0 0 0 735 929727 -2271 0
38 1 S102 790 930517 -1481 0
38 1 S102 911 931428 -570 0
38 2 S102 854 932282 284 0
38 2 S102 857 933139 1141 0
38 2 S102 826 933965 1967 0
38 2 S102 817 934782 2784 0
38 2 S102 812 935594 3596 0
38 2 S102 819 936413 4415 0
38 2 S102 799 937212 5214 0
38 2 S102 779 937991 5993 0
38 2 S102 772 938763 6765 0
0 0 0 792 939555 -11641 0
0 0 0 809 940364 -10832 0
0 0 0 809 941173 -10023 0
0 0 0 804 941977 -9219 0
0 0 0 790 942767 -8429 0
0 0 0 794 943561 -7635 0
0 0 0 787 944348 -6848 0
0 0 0 781 945129 -6067 0
0 0 0 780 945909 -5287 0
0 0 0 776 946685 -4511 0
0 0 0 788 947473 -3723 0
0 0 0 789 948262 -2934 0
0 0 0 794 949056 -2140 0
39 1 S116 804 949860 -1336 0
39 1 S116 793 950653 -543 0
39 2 S116 794 951447 251 0
39 2 S116 792 952239 1043 0
39 2 S116 798 953037 1841 0
39 2 S116 803 953840 2644 0
39 2 S116 792 954632 3436 0
39 2 S116 782 955414 4218 0
39 2 S116 778 956192 4996 0
39 2 S116 782 956974 5778 0
39 2 S116 785 957759 6563 0
0 0 0 790 958549 -8015 0
0 0 0 811 959360 -7204 0
0 0 0 810 960170 -6394 0
0 0 0 800 960970 -5594 0
0 0 0 794 961764 -4800 0
0 0 0 790 962554 -4010 0
0 0 0 771 963325 -3239 0
0 0 0 755 964080 -2484 0
40 1 S112 749 964829 -1735 0
40 1 S112 753 965582 -982 0
40 1 S112 770 966352 -212 0
40 2 S112 785 967137 573 0
40 2 S112 827 967964 1400 0
40 2 S112 817 968781 2217 0
40 2 S112 854 969635 3071 0
40 2 S112 871 970506 3942 0
40 2 S112 887 971393 4829 0
40 2 S112 885 972278 5714 0
40 2 S112 862 973140 6576 0
0 0 0 856 973996 -10290 0
0 0 0 823 974819 -9467 0
0 0 0 813 975632 -8654 0
0 0 0 814 976446 -7840 0
0 0 0 840 977286 -7000 0
0 0 0 849 978135 -6151 0
0 0 0 863 978998 -5288 0
0 0 0 836 979834 -4452 0
0 0 0 812 980646 -3640 0
0 0 0 799 981445 -2841 0
0 0 0 770 982215 -2071 0
41 1 S102 751 982966 -1320 0
41 1 S102 742 983708 -578 0
41 2 S102 737 984445 159 0
41 2 S102 733 985178 892 0
41 2 S102 715 985893 1607 0
41 2 S102 703 986596 2310 0
41 2 S102 687 987283 2997 0
41 2 S102 684 987967 3681 0
41 2 S102 682 988649 4363 0
41 2 S102 710 989359 5073 0
41 2 S102 732 990091 5805 0
41 2 S102 773 990864 6578 0
0 0 0 788 991652 -9677 0
0 0 0 772 992424 -8905 0
0 0 0 753 993177 -8152 0
0 0 0 740 993917 -7412 0
0 0 0 765 994682 -6647 0
0 0 0 756 995438 -5891 0
0 0 0 749 996187 -5142 0
0 0 0 761 996948 -4381 0
0 0 0 768 997716 -3613 0
0 0 0 784 998500 -2829 0
0 0 0 784 999284 -2045 0
42 1 S112 788 1000072 -1257 0
42 1 S112 792 1000864 -465 0
42 2 S112 799 1001663 334 0
42 2 S112 801 1002464 1135 0
42 2 S112 825 1003289 1960 0
42 2 S112 844 1004133 2804 0
42 2 S112 831 1004964 3635 0
42 2 S112 833 1005797 4468 0
42 2 S112 813 1006610 5281 0
42 2 S112 789 1007399 6070 0
42 2 S112 792 1008191 6862 0
0 0 0 820 1009011 -12891 0
0 0 0 825 1009836 -12066 0
0 0 0 807 1010643 -11259 0
0 0 0 799 1011442 -10460 0
0 0 0 812 1012254 -9648 0
0 0 0 831 1013085 -8817 0
0 0 0 815 1013900 -8002 0
0 0 0 860 1014760 -7142 0
0 0 0 820 1015580 -6322 0
0 0 0 804 1016384 -5518 0
0 0 0 796 1017180 -4722 0
0 0 0 790 1017970 -3932 0
0 0 0 792 1018762 -3140 0
0 0 0 815 1019577 -2325 0
43 1 S116 808 1020385 -1517 0
43 1 S116 844 1021229 -673 0
43 2 S116 841 1022070 168 0
43 2 S116 835 1022905 1003 0
43 2 S116 846 1023751 1849 0
43 2 S116 840 1024591 2689 0
43 2 S116 841 1025432 3530 0
43 2 S116 829 1026261 4359 0
43 2 S116 840 1027101 5199 0
43 2 S116 863 1027964 6062 0
43 2 S116 850 1028814 6912 0
0 0 0 879 1029693 -7395 0
0 0 0 845 1030538 -6550 0
0 0 0 805 1031343 -5745 0
0 0 0 790 1032133 -4955 0
0 0 0 782 1032915 -4173 0
0 0 0 771 1033686 -3402 0
0 0 0 769 1034455 -2633 0
44 1 S102 778 1035233 -1855 0
44 1 S102 773 1036006 -1082 0
44 1 S102 767 1036773 -315 0
44 2 S102 771 1037544 456 0
44 2 S102 767 1038311 1223 0
44 2 S102 769 1039080 1992 0
44 2 S102 769 1039849 2761 0
44 2 S102 767 1040616 3528 0
44 2 S102 801 1041417 4329 0
44 2 S102 827 1042244 5156 0
44 2 S102 812 1043056 5968 0
44 2 S102 804 1043860 6772 0
0 0 0 791 1044651 -10657 0
0 0 0 796 1045447 -9861 0
0 0 0 795 1046242 -9066 0
0 0 0 792 1047034 -8274 0
0 0 0 790 1047824 -7484 0
0 0 0 790 1048614 -6694 0
0 0 0 781 1049395 -5913 0
0 0 0 758 1050153 -5155 0
0 0 0 777 1050930 -4378 0
0 0 0 783 1051713 -3595 0
0 0 0 780 1052493 -2815 0
0 0 0 787 1053280 -2028 0
45 1 S116 785 1054065 -1243 0
45 1 S116 782 1054847 -461 0
45 2 S116 800 1055647 339 0
45 2 S116 777 1056424 1116 0
45 2 S116 762 1057186 1878 0
45 2 S116 747 1057933 2625 0
45 2 S116 730 1058663 3355 0
45 2 S116 723 1059386 4078 0
45 2 S116 713 1060099 4791 0
45 2 S116 711 1060810 5502 0
45 2 S116 735 1061545 6237 0
45 2 S116 763 1062308 7000 0
0 0 0 760 1063068 -11935 0
0 0 0 758 1063826 -11177 0
0 0 0 754 1064580 -10423 0
0 0 0 766 1065346 -9657 0
0 0 0 790 1066136 -8867 0
0 0 0 781 1066917 -8086 0
0 0 0 769 1067686 -7317 0
0 0 0 743 1068429 -6574 0
0 0 0 728 1069157 -5846 0
0 0 0 734 1069891 -5112 0
0 0 0 749 1070640 -4363 0
0 0 0 784 1071424 -3579 0
0 0 0 791 1072215 -2788 0
46 1 S102 795 1073010 -1993 0
46 1 S102 801 1073811 -1192 0
46 1 S102 807 1074618 -385 0
46 2 S102 842 1075460 457 0
46 2 S102 829 1076289 1286 0
46 2 S102 834 1077123 2120 0
46 2 S102 815 1077938 2935 0
46 2 S102 828 1078766 3763 0
46 2 S102 876 1079642 4639 0
46 2 S102 860 1080502 5499 0
46 2 S102 866 1081368 6365 0
0 0 0 845 1082213 -10347 0
0 0 0 851 1083064 -9496 0
0 0 0 821 1083885 -8675 0
0 0 0 794 1084679 -7881 0
0 0 0 773 1085452 -7108 0
0 0 0 769 1086221 -6339 0
0 0 0 776 1086997 -5563 0
0 0 0 773 1087770 -4790 0
0 0 0 773 1088543 -4017 0
0 0 0 796 1089339 -3221 0
0 0 0 817 1090156 -2404 0
47 1 S112 838 1090994 -1566 0
47 1 S112 854 1091848 -712 0
47 2 S112 822 1092670 110 0
47 2 S112 836 1093506 946 0
47 2 S112 838 1094344 1784 0
47 2 S112 853 1095197 2637 0
47 2 S112 878 1096075 3515 0
47 2 S112 926 1097001 4441 0
47 2 S112 925 1097926 5366 0
47 2 S112 885 1098811 6251 0
0 0 0 865 1099676 -11982 0
0 0 0 857 1100533 -11125 0
0 0 0 808 1101341 -10317 0
0 0 0 787 1102128 -9530 0
0 0 0 773 1102901 -8757 0
0 0 0 768 1103669 -7989 0
0 0 0 760 1104429 -7229 0
0 0 0 765 1105194 -6464 0
0 0 0 766 1105960 -5698 0
0 0 0 768 1106728 -4930 0
0 0 0 767 1107495 -4163 0
0 0 0 754 1108249 -3409 0
0 0 0 760 1109009 -2649 0
48 1 S116 809 1109818 -1840 0
48 1 S116 769 1110587 -1071 0
48 1 S116 746 1111333 -325 0
48 2 S116 732 1112065 407 0
48 2 S116 716 1112781 1123 0
48 2 S116 718 1113499 1841 0
48 2 S116 746 1114245 2587 0
48 2 S116 834 1115079 3421 0
48 2 S116 943 1116022 4364 0
48 2 S116 964 1116986 5328 1
48 2 S116 947 1117933 6275 1
0 0 0 897 1118830 -8445 0
0 0 0 839 1119669 -7606 0
0 0 0 805 1120474 -6801 0
0 0 0 782 1121256 -6019 0
0 0 0 791 1122047 -5228 0
0 0 0 795 1122842 -4433 0
0 0 0 806 1123648 -3627 0
0 0 0 816 1124464 -2811 0
49 1 S112 812 1125276 -1999 0
49 1 S112 814 1126090 -1185 0
49 1 S112 827 1126917 -358 0
49 2 S112 830 1127747 472 0
49 2 S112 826 1128573 1298 0
49 2 S112 832 1129405 2130 0
49 2 S112 820 1130225 2950 0
49 2 S112 815 1131040 3765 0
49 2 S112 812 1131852 4577 0
49 2 S112 818 1132670 5395 0
49 2 S112 815 1133485 6210 0
0 0 0 833 1134318 -15404 0
0 0 0 830 1135148 -14574 0
0 0 0 839 1135987 -13735 0
0 0 0 834 1136821 -12901 0
0 0 0 847 1137668 -12054 0
0 0 0 846 1138514 -11208 0
0 0 0 857 1139371 -10351 0
0 0 0 851 1140222 -9500 0
0 0 0 822 1141044 -8678 0
0 0 0 798 1141842 -7880 0
0 0 0 780 1142622 -7100 0
0 0 0 767 1143389 -6333 0
0 0 0 749 1144138 -5584 0
0 0 0 728 1144866 -4856 0
0 0 0 716 1145582 -4140 0
0 0 0 710 1146292 -3430 0
0 0 0 699 1146991 -2731 0
0 0 0 704 1147695 -2027 0
50 1 S106 713 1148408 -1314 0
50 1 S106 711 1149119 -603 0
50 2 S106 721 1149840 118 0
50 2 S106 720 1150560 838 0
50 2 S106 715 1151275 1553 0
50 2 S106 717 1151992 2270 0
50 2 S106 716 1152708 2986 0
50 2 S106 711 1153419 3697 0
50 2 S106 696 1154115 4393 0
50 2 S106 685 1154800 5078 0
50 2 S106 678 1155478 5756 0
50 2 S106 677 1156155 6433 0
0 0 0 679 1156834 -10146 0
0 0 0 679 1157513 -9467 0
0 0 0 692 1158205 -8775 0
0 0 0 719 1158924 -8056 0
0 0 0 768 1159692 -7288 0
0 0 0 790 1160482 -6498 0
0 0 0 875 1161357 -5623 0
0 0 0 859 1162216 -4764 0
0 0 0 833 1163049 -3931 0
0 0 0 806 1163855 -3125 0
0 0 0 763 1164618 -2362 0
51 1 S112 752 1165370 -1610 0
51 1 S112 758 1166128 -852 0
51 1 S112 761 1166889 -91 0
51 2 S112 788 1167677 697 0
51 2 S112 819 1168496 1516 0
51 2 S112 858 1169354 2374 0
51 2 S112 869 1170223 3243 0
51 2 S112 849 1171072 4092 0
51 2 S112 850 1171922 4942 0
51 2 S112 835 1172757 5777 0
51 2 S112 819 1173576 6596 0
0 0 0 798 1174374 -7145 0
0 0 0 791 1175165 -6354 0
0 0 0 779 1175944 -5575 0
0 0 0 789 1176733 -4786 0
0 0 0 798 1177531 -3988 0
0 0 0 798 1178329 -3190 0
0 0 0 809 1179138 -2381 0
52 1 S116 839 1179977 -1542 0
52 1 S116 829 1180806 -713 0
52 2 S116 808 1181614 95 0
52 2 S116 801 1182415 896 0
52 2 S116 796 1183211 1692 0
52 2 S116 818 1184029 2510 0
52 2 S116 816 1184845 3326 0
52 2 S116 830 1185675 4156 0
52 2 S116 842 1186517 4998 0
52 2 S116 819 1187336 5817 0
52 2 S116 823 1188159 6640 0
0 0 0 811 1188970 -11714 0
0 0 0 801 1189771 -10913 0
0 0 0 785 1190556 -10128 0
0 0 0 775 1191331 -9353 0
0 0 0 804 1192135 -8549 0
0 0 0 837 1192972 -7712 0
0 0 0 821 1193793 -6891 0
0 0 0 811 1194604 -6080 0
0 0 0 817 1195421 -5263 0
0 0 0 799 1196220 -4464 0
0 0 0 783 1197003 -3681 0
0 0 0 785 1197788 -2896 0
0 0 0 798 1198586 -2098 0
53 1 S106 792 1199378 -1306 0
53 1 S106 786 1200164 -520 0
53 2 S106 782 1200946 262 0
53 2 S106 807 1201753 1069 0
53 2 S106 812 1202565 1881 0
53 2 S106 813 1203378 2694 0
53 2 S106 843 1204221 3537 0
53 2 S106 838 1205059 4375 0
53 2 S106 821 1205880 5196 0
53 2 S106 821 1206701 6017 0
53 2 S106 824 1207525 6841 0
0 0 0 854 1208379 -7026 0
0 0 0 850 1209229 -6176 0
0 0 0 822 1210051 -5354 0
0 0 0 822 1210873 -4532 0
0 0 0 815 1211688 -3717 0
0 0 0 781 1212469 -2936 0
0 0 0 783 1213252 -2153 0
54 1 S102 795 1214047 -1358 0
54 1 S102 778 1214825 -580 0
54 2 S102 756 1215581 176 0
54 2 S102 733 1216314 909 0
54 2 S102 712 1217026 1621 0
54 2 S102 701 1217727 2322 0
54 2 S102 706 1218433 3028 0
54 2 S102 683 1219116 3711 0
54 2 S102 687 1219803 4398 0
54 2 S102 694 1220497 5092 0
54 2 S102 724 1221221 5816 0
54 2 S102 766 1221987 6582 0
0 0 0 824 1222811 -11295 0
0 0 0 823 1223634 -10472 0
0 0 0 822 1224456 -9650 0
0 0 0 811 1225267 -8839 0
0 0 0 776 1226043 -8063 0
0 0 0 751 1226794 -7312 0
0 0 0 727 1227521 -6585 0
0 0 0 707 1228228 -5878 0
0 0 0 697 1228925 -5181 0
0 0 0 683 1229608 -4498 0
0 0 0 694 1230302 -3804 0
0 0 0 722 1231024 -3082 0
0 0 0 777 1231801 -2305 0
55 1 S106 816 1232617 -1489 0
55 1 S106 802 1233419 -687 0
55 2 S106 814 1234233 127 0
55 2 S106 822 1235055 949 0
55 2 S106 804 1235859 1753 0
55 2 S106 809 1236668 2562 0
55 2 S106 830 1237498 3392 0
55 2 S106 902 1238400 4294 0
55 2 S106 858 1239258 5152 0
55 2 S106 816 1240074 5968 0
55 2 S106 781 1240855 6749 0
0 0 0 763 1241618 -7740 0
0 0 0 767 1242385 -6973 0
0 0 0 763 1243148 -6210 0
0 0 0 778 1243926 -5432 0
0 0 0 786 1244712 -4646 0
0 0 0 785 1245497 -3861 0
0 0 0 783 1246280 -3078 0
0 0 0 774 1247054 -2304 0
56 1 S116 771 1247825 -1533 0
56 1 S116 781 1248606 -752 0
56 2 S116 799 1249405 47 0
56 2 S116 799 1250204 846 0
56 2 S116 807 1251011 1653 0
56 2 S116 818 1251829 2471 0
56 2 S116 828 1252657 3299 0
56 2 S116 832 1253489 4131 0
56 2 S116 857 1254346 4988 0
56 2 S116 889 1255235 5877 0
56 2 S116 855 1256090 6732 0
0 0 0 872 1256962 -7515 0
0 0 0 863 1257825 -6652 0
0 0 0 825 1258650 -5827 0
0 0 0 793 1259443 -5034 0
0 0 0 769 1260212 -4265 0
0 0 0 765 1260977 -3500 0
0 0 0 769 1261746 -2731 0
57 1 S106 769 1262515 -1962 0
57 1 S106 796 1263311 -1166 0
57 1 S106 823 1264134 -343 0
57 2 S106 834 1264968 491 0
57 2 S106 836 1265804 1327 0
57 2 S106 824 1266628 2151 0
57 2 S106 810 1267438 2961 0
57 2 S106 811 1268249 3772 0
57 2 S106 800 1269049 4572 0
57 2 S106 787 1269836 5359 0
57 2 S106 770 1270606 6129 0
57 2 S106 766 1271372 6895 0
0 0 0 770 1272142 -10008 0
0 0 0 771 1272913 -9237 0
0 0 0 799 1273712 -8438 0
0 0 0 771 1274483 -7667 0
0 0 0 777 1275260 -6890 0
0 0 0 768 1276028 -6122 0
0 0 0 778 1276806 -5344 0
0 0 0 786 1277592 -4558 0
0 0 0 818 1278410 -3740 0
0 0 0 831 1279241 -2909 0
0 0 0 827 1280068 -2082 0
58 1 S102 823 1280891 -1259 0
58 1 S102 834 1281725 -425 0
58 2 S102 850 1282575 425 0
58 2 S102 848 1283423 1273 0
58 2 S102 851 1284274 2124 0
58 2 S102 858 1285132 2982 0
58 2 S102 855 1285987 3837 0
58 2 S102 866 1286853 4703 0
58 2 S102 841 1287694 5544 0
58 2 S102 815 1288509 6359 0
0 0 0 810 1289319 -8249 0
0 0 0 826 1290145 -7423 0
0 0 0 812 1290957 -6611 0
0 0 0 832 1291789 -5779 0
0 0 0 813 1292602 -4966 0
0 0 0 803 1293405 -4163 0
0 0 0 789 1294194 -3374 0
0 0 0 790 1294984 -2584 0
59 1 S112 784 1295768 -1800 0
59 1 S112 767 1296535 -1033 0
59 1 S112 766 1297301 -267 0
59 2 S112 750 1298051 483 0
59 2 S112 771 1298822 1254 0
59 2 S112 802 1299624 2056 0
59 2 S112 803 1300427 2859 0
59 2 S112 801 1301228 3660 0
59 2 S112 816 1302044 4476 0
59 2 S112 834 1302878 5310 0
59 2 S112 818 1303696 6128 0
59 2 S112 825 1304521 6953 0
0 0 0 825 1305346 -10856 0
0 0 0 849 1306195 -10007 0
0 0 0 811 1307006 -9196 0
0 0 0 807 1307813 -8389 0
0 0 0 811 1308624 -7578 0
0 0 0 805 1309429 -6773 0
0 0 0 809 1310238 -5964 0
0 0 0 807 1311045 -5157 0
0 0 0 826 1311871 -4331 0
0 0 0 818 1312689 -3513 0
0 0 0 796 1313485 -2717 0
60 1 S102 798 1314283 -1919 0
60 1 S102 795 1315078 -1124 0
60 1 S102 804 1315882 -320 0
60 2 S102 839 1316721 519 0
60 2 S102 896 1317617 1415 0
60 2 S102 892 1318509 2307 0
60 2 S102 888 1319397 3195 0
60 2 S102 864 1320261 4059 0
60 2 S102 819 1321080 4878 0
60 2 S102 791 1321871 5669 0
60 2 S102 776 1322647 6445 0
