P_0002
BeatCount Mean SD BeatCountNoOutliers MeanNoOutliers SDNoOutliers
1546 737,698576972833 53,315131624236 1529 735,480706344016 46,2111500590229

Trial TrialStatus Trialtype IBI AbsPosition RelPosition Outlier
0 0 0 806 927 -4045 0
0 0 0 822 1749 -3223 0
0 0 0 834 2583 -2389 0
1 1 S106 794 3377 -1595 0
1 1 S106 772 4149 -823 0
1 1 S106 754 4903 -69 0
1 2 S106 748 5651 679 0
1 2 S106 732 6383 1411 0
1 2 S106 714 7097 2125 0
1 2 S106 733 7830 2858 0
1 2 S106 787 8617 3645 0
1 2 S106 861 9478 4506 0
1 2 S106 893 10371 5399 1
1 2 S106 902 11273 6301 1
0 0 0 887 12160 -8910 1
0 0 0 828 12988 -8082 0
0 0 0 769 13757 -7313 0
0 0 0 748 14505 -6565 0
0 0 0 734 15239 -5831 0
0 0 0 792 16031 -5039 0
0 0 0 799 16830 -4240 0
0 0 0 817 17647 -3423 0
0 0 0 873 18520 -2550 0
2 1 S116 901 19421 -1649 1
2 1 S116 919 20340 -730 1
2 2 S116 865 21205 135 0
2 2 S116 856 22061 991 0
2 2 S116 818 22879 1809 0
2 2 S116 788 23667 2597 0
2 2 S116 754 24421 3351 0
2 2 S116 749 25170 4100 0
2 2 S116 765 25935 4865 0
2 2 S116 770 26705 5635 0
2 2 S116 803 27508 6438 0
0 0 0 779 28287 -15015 0
0 0 0 788 29075 -14227 0
0 0 0 799 29874 -13428 0
0 0 0 782 30656 -12646 0
0 0 0 747 31403 -11899 0
0 0 0 710 32113 -11189 0
0 0 0 707 32820 -10482 0
0 0 0 682 33502 -9800 0
0 0 0 743 34245 -9057 0
0 0 0 821 35066 -8236 0
0 0 0 852 35918 -7384 0
0 0 0 813 36731 -6571 0
0 0 0 811 37542 -5760 0
0 0 0 795 38337 -4965 0
0 0 0 790 39127 -4175 0
0 0 0 747 39874 -3428 0
0 0 0 739 40613 -2689 0
3 1 S106 744 41357 -1945 0
3 1 S106 771 42128 -1174 0
3 1 S106 776 42904 -398 0
3 2 S106 772 43676 374 0
3 2 S106 816 44492 1190 0
3 2 S106 821 45313 2011 0
3 2 S106 845 46158 2856 0
3 2 S106 816 46974 3672 0
3 2 S106 782 47756 4454 0
3 2 S106 778 48534 5232 0
3 2 S106 755 49289 5987 0
3 2 S106 736 50025 6723 0
0 0 0 727 50752 -11267 0
0 0 0 751 51503 -10516 0
0 0 0 762 52265 -9754 0
0 0 0 819 53084 -8935 0
0 0 0 777 53861 -8158 0
0 0 0 802 54663 -7356 0
0 0 0 784 55447 -6572 0
0 0 0 794 56241 -5778 0
0 0 0 752 56993 -5026 0
0 0 0 759 57752 -4267 0
0 0 0 747 58499 -3520 0
0 0 0 750 59249 -2770 0
0 0 0 714 59963 -2056 0
4 1 S102 714 60677 -1342 0
4 1 S102 714 61391 -628 0
4 2 S102 744 62135 116 0
4 2 S102 753 62888 869 0
4 2 S102 745 63633 1614 0
4 2 S102 782 64415 2396 0
4 2 S102 787 65202 3183 0
4 2 S102 772 65974 3955 0
4 2 S102 731 66705 4686 0
4 2 S102 708 67413 5394 0
4 2 S102 676 68089 6070 0
4 2 S102 664 68753 6734 0
0 0 0 702 69455 -9142 0
0 0 0 751 70206 -8391 0
0 0 0 727 70933 -7664 0
0 0 0 750 71683 -6914 0
0 0 0 746 72429 -6168 0
0 0 0 756 73185 -5412 0
0 0 0 723 73908 -4689 0
0 0 0 723 74631 -3966 0
0 0 0 750 75381 -3216 0
0 0 0 785 76166 -2431 0
5 1 S112 808 76974 -1623 0
5 1 S112 788 77762 -835 0
5 1 S112 785 78547 -50 0
5 2 S112 779 79326 729 0
5 2 S112 793 80119 1522 0
5 2 S112 776 80895 2298 0
5 2 S112 734 81629 3032 0
5 2 S112 754 82383 3786 0
5 2 S112 752 83135 4538 0
5 2 S112 777 83912 5315 0
5 2 S112 759 84671 6074 0
5 2 S112 799 85470 6873 0
0 0 0 822 86292 -11652 0
0 0 0 862 87154 -10790 0
0 0 0 854 88008 -9936 0
0 0 0 800 88808 -9136 0
0 0 0 784 89592 -8352 0
0 0 0 773 90365 -7579 0
0 0 0 756 91121 -6823 0
0 0 0 719 91840 -6104 0
0 0 0 746 92586 -5358 0
0 0 0 748 93334 -4610 0
0 0 0 781 94115 -3829 0
0 0 0 779 94894 -3050 0
0 0 0 778 95672 -2272 0
6 1 S116 802 96474 -1470 0
6 1 S116 804 97278 -666 0
6 2 S116 804 98082 138 0
6 2 S116 752 98834 890 0
6 2 S116 757 99591 1647 0
6 2 S116 745 100336 2392 0
6 2 S116 740 101076 3132 0
6 2 S116 745 101821 3877 0
6 2 S116 712 102533 4589 0
6 2 S116 724 103257 5313 0
6 2 S116 742 103999 6055 0
6 2 S116 814 104813 6869 0
0 0 0 829 105642 -11633 0
0 0 0 776 106418 -10857 0
0 0 0 773 107191 -10084 0
0 0 0 758 107949 -9326 0
0 0 0 752 108701 -8574 0
0 0 0 722 109423 -7852 0
0 0 0 699 110122 -7153 0
0 0 0 722 110844 -6431 0
0 0 0 751 111595 -5680 0
0 0 0 839 112434 -4841 0
0 0 0 863 113297 -3978 0
0 0 0 825 114122 -3153 0
0 0 0 808 114930 -2345 0
7 1 S102 809 115739 -1536 0
7 1 S102 802 116541 -734 0
7 2 S102 787 117328 53 0
7 2 S102 737 118065 790 0
7 2 S102 751 118816 1541 0
7 2 S102 765 119581 2306 0
7 2 S102 795 120376 3101 0
7 2 S102 756 121132 3857 0
7 2 S102 764 121896 4621 0
7 2 S102 795 122691 5416 0
7 2 S102 812 123503 6228 0
0 0 0 813 124316 -12189 0
0 0 0 777 125093 -11412 0
0 0 0 771 125864 -10641 0
0 0 0 777 126641 -9864 0
0 0 0 792 127433 -9072 0
0 0 0 755 128188 -8317 0
0 0 0 723 128911 -7594 0
0 0 0 727 129638 -6867 0
0 0 0 740 130378 -6127 0
0 0 0 780 131158 -5347 0
0 0 0 810 131968 -4537 0
0 0 0 782 132750 -3755 0
0 0 0 786 133536 -2969 0
0 0 0 796 134332 -2173 0
8 1 S112 798 135130 -1375 0
8 1 S112 804 135934 -571 0
8 2 S112 772 136706 201 0
8 2 S112 761 137467 962 0
8 2 S112 751 138218 1713 0
8 2 S112 759 138977 2472 0
8 2 S112 775 139752 3247 0
8 2 S112 780 140532 4027 0
8 2 S112 804 141336 4831 0
8 2 S112 825 142161 5656 0
8 2 S112 856 143017 6512 0
0 0 0 797 143814 -7844 0
0 0 0 772 144586 -7072 0
0 0 0 766 145352 -6306 0
0 0 0 763 146115 -5543 0
0 0 0 744 146859 -4799 0
0 0 0 718 147577 -4081 0
0 0 0 722 148299 -3359 0
0 0 0 721 149020 -2638 0
9 1 S116 757 149777 -1881 0
9 1 S116 792 150569 -1089 0
9 1 S116 769 151338 -320 0
9 2 S116 772 152110 452 0
9 2 S116 778 152888 1230 0
9 2 S116 781 153669 2011 0
9 2 S116 783 154452 2794 0
9 2 S116 760 155212 3554 0
9 2 S116 767 155979 4321 0
9 2 S116 770 156749 5091 0
9 2 S116 771 157520 5862 0
9 2 S116 740 158260 6602 0
0 0 0 718 158978 -13685 0
0 0 0 715 159693 -12970 0
0 0 0 706 160399 -12264 0
0 0 0 742 161141 -11522 0
0 0 0 722 161863 -10800 0
0 0 0 703 162566 -10097 0
0 0 0 694 163260 -9403 0
0 0 0 734 163994 -8669 0
0 0 0 776 164770 -7893 0
0 0 0 748 165518 -7145 0
0 0 0 703 166221 -6442 0
0 0 0 695 166916 -5747 0
0 0 0 678 167594 -5069 0
0 0 0 691 168285 -4378 0
0 0 0 690 168975 -3688 0
0 0 0 695 169670 -2993 0
0 0 0 681 170351 -2312 0
10 1 S112 674 171025 -1638 0
10 1 S112 690 171715 -948 0
10 1 S112 701 172416 -247 0
10 2 S112 743 173159 496 0
10 2 S112 749 173908 1245 0
10 2 S112 747 174655 1992 0
10 2 S112 769 175424 2761 0
10 2 S112 749 176173 3510 0
10 2 S112 737 176910 4247 0
10 2 S112 722 177632 4969 0
10 2 S112 691 178323 5660 0
10 2 S112 700 179023 6360 0
0 0 0 715 179738 -11360 0
0 0 0 775 180513 -10585 0
0 0 0 812 181325 -9773 0
0 0 0 774 182099 -8999 0
0 0 0 773 182872 -8226 0
0 0 0 761 183633 -7465 0
0 0 0 754 184387 -6711 0
0 0 0 752 185139 -5959 0
0 0 0 713 185852 -5246 0
0 0 0 707 186559 -4539 0
0 0 0 700 187259 -3839 0
0 0 0 698 187957 -3141 0
0 0 0 709 188666 -2432 0
11 1 S106 704 189370 -1728 0
11 1 S106 702 190072 -1026 0
11 1 S106 738 190810 -288 0
11 2 S106 759 191569 471 0
11 2 S106 787 192356 1258 0
11 2 S106 772 193128 2030 0
11 2 S106 749 193877 2779 0
11 2 S106 761 194638 3540 0
11 2 S106 756 195394 4296 0
11 2 S106 758 196152 5054 0
11 2 S106 731 196883 5785 0
11 2 S106 716 197599 6501 0
0 0 0 732 198331 -10373 0
0 0 0 733 199064 -9640 0
0 0 0 756 199820 -8884 0
0 0 0 711 200531 -8173 0
0 0 0 689 201220 -7484 0
0 0 0 672 201892 -6812 0
0 0 0 694 202586 -6118 0
0 0 0 773 203359 -5345 0
0 0 0 796 204155 -4549 0
0 0 0 779 204934 -3770 0
0 0 0 879 205813 -2891 1
0 0 0 825 206638 -2066 0
12 1 S116 779 207417 -1287 0
12 1 S116 769 208186 -518 0
12 2 S116 764 208950 246 0
12 2 S116 763 209713 1009 0
12 2 S116 740 210453 1749 0
12 2 S116 724 211177 2473 0
12 2 S116 726 211903 3199 0
12 2 S116 748 212651 3947 0
12 2 S116 796 213447 4743 0
12 2 S116 802 214249 5545 0
12 2 S116 781 215030 6326 0
0 0 0 789 215819 -12249 0
0 0 0 782 216601 -11467 0
0 0 0 785 217386 -10682 0
0 0 0 745 218131 -9937 0
0 0 0 703 218834 -9234 0
0 0 0 706 219540 -8528 0
0 0 0 714 220254 -7814 0
0 0 0 794 221048 -7020 0
0 0 0 837 221885 -6183 0
0 0 0 816 222701 -5367 0
0 0 0 820 223521 -4547 0
0 0 0 806 224327 -3741 0
0 0 0 800 225127 -2941 0
0 0 0 779 225906 -2162 0
13 1 S116 765 226671 -1397 0
13 1 S116 757 227428 -640 0
13 2 S116 746 228174 106 0
13 2 S116 746 228920 852 0
13 2 S116 713 229633 1565 0
13 2 S116 703 230336 2268 0
13 2 S116 726 231062 2994 0
13 2 S116 786 231848 3780 0
13 2 S116 840 232688 4620 0
13 2 S116 832 233520 5452 0
13 2 S116 785 234305 6237 0
13 2 S116 784 235089 7021 0
0 0 0 766 235855 -9753 0
0 0 0 761 236616 -8992 0
0 0 0 712 237328 -8280 0
0 0 0 699 238027 -7581 0
0 0 0 709 238736 -6872 0
0 0 0 715 239451 -6157 0
0 0 0 729 240180 -5428 0
0 0 0 718 240898 -4710 0
0 0 0 717 241615 -3993 0
0 0 0 732 242347 -3261 0
0 0 0 739 243086 -2522 0
14 1 S106 742 243828 -1780 0
14 1 S106 708 244536 -1072 0
14 1 S106 698 245234 -374 0
14 2 S106 701 245935 327 0
14 2 S106 709 246644 1036 0
14 2 S106 718 247362 1754 0
14 2 S106 685 248047 2439 0
14 2 S106 669 248716 3108 0
14 2 S106 677 249393 3785 0
14 2 S106 674 250067 4459 0
14 2 S106 696 250763 5155 0
14 2 S106 702 251465 5857 0
14 2 S106 701 252166 6558 0
0 0 0 720 252886 -11969 0
0 0 0 766 253652 -11203 0
0 0 0 811 254463 -10392 0
0 0 0 806 255269 -9586 0
0 0 0 755 256024 -8831 0
0 0 0 742 256766 -8089 0
0 0 0 715 257481 -7374 0
0 0 0 699 258180 -6675 0
0 0 0 664 258844 -6011 0
0 0 0 658 259502 -5353 0
0 0 0 675 260177 -4678 0
0 0 0 717 260894 -3961 0
0 0 0 803 261697 -3158 0
0 0 0 841 262538 -2317 0
15 1 S102 814 263352 -1503 0
15 1 S102 821 264173 -682 0
15 2 S102 813 264986 131 0
15 2 S102 804 265790 935 0
15 2 S102 749 266539 1684 0
15 2 S102 727 267266 2411 0
15 2 S102 716 267982 3127 0
15 2 S102 723 268705 3850 0
15 2 S102 718 269423 4568 0
15 2 S102 720 270143 5288 0
15 2 S102 752 270895 6040 0
15 2 S102 802 271697 6842 0
0 0 0 880 272577 -10266 1
0 0 0 843 273420 -9423 0
0 0 0 756 274176 -8667 0
0 0 0 711 274887 -7956 0
0 0 0 720 275607 -7236 0
0 0 0 746 276353 -6490 0
0 0 0 772 277125 -5718 0
0 0 0 769 277894 -4949 0
0 0 0 732 278626 -4217 0
0 0 0 741 279367 -3476 0
0 0 0 726 280093 -2750 0
0 0 0 727 280820 -2023 0
16 1 S106 696 281516 -1327 0
16 1 S106 695 282211 -632 0
16 2 S106 704 282915 72 0
16 2 S106 710 283625 782 0
16 2 S106 729 284354 1511 0
16 2 S106 713 285067 2224 0
16 2 S106 728 285795 2952 0
16 2 S106 748 286543 3700 0
16 2 S106 783 287326 4483 0
16 2 S106 794 288120 5277 0
16 2 S106 752 288872 6029 0
16 2 S106 750 289622 6779 0
0 0 0 742 290364 -11163 0
0 0 0 739 291103 -10424 0
0 0 0 752 291855 -9672 0
0 0 0 716 292571 -8956 0
0 0 0 723 293294 -8233 0
0 0 0 728 294022 -7505 0
0 0 0 785 294807 -6720 0
0 0 0 782 295589 -5938 0
0 0 0 754 296343 -5184 0
0 0 0 761 297104 -4423 0
0 0 0 767 297871 -3656 0
0 0 0 768 298639 -2888 0
0 0 0 747 299386 -2141 0
17 1 S112 725 300111 -1416 0
17 1 S112 731 300842 -685 0
17 2 S112 720 301562 35 0
17 2 S112 728 302290 763 0
17 2 S112 710 303000 1473 0
17 2 S112 701 303701 2174 0
17 2 S112 733 304434 2907 0
17 2 S112 752 305186 3659 0
17 2 S112 843 306029 4502 0
17 2 S112 822 306851 5324 0
17 2 S112 800 307651 6124 0
17 2 S112 786 308437 6910 0
0 0 0 797 309234 -12253 0
0 0 0 759 309993 -11494 0
0 0 0 701 310694 -10793 0
0 0 0 657 311351 -10136 0
0 0 0 634 311985 -9502 0
0 0 0 623 312608 -8879 0
0 0 0 646 313254 -8233 0
0 0 0 735 313989 -7498 0
0 0 0 805 314794 -6693 0
0 0 0 764 315558 -5929 0
0 0 0 712 316270 -5217 0
0 0 0 734 317004 -4483 0
0 0 0 727 317731 -3756 0
0 0 0 700 318431 -3056 0
0 0 0 690 319121 -2366 0
18 1 S106 685 319806 -1681 0
18 1 S106 686 320492 -995 0
18 1 S106 686 321178 -309 0
18 2 S106 685 321863 376 0
18 2 S106 678 322541 1054 0
18 2 S106 679 323220 1733 0
18 2 S106 704 323924 2437 0
18 2 S106 717 324641 3154 0
18 2 S106 739 325380 3893 0
18 2 S106 767 326147 4660 0
18 2 S106 747 326894 5407 0
18 2 S106 745 327639 6152 0
18 2 S106 749 328388 6901 0
0 0 0 750 329138 -10188 0
0 0 0 734 329872 -9454 0
0 0 0 729 330601 -8725 0
0 0 0 689 331290 -8036 0
0 0 0 672 331962 -7364 0
0 0 0 679 332641 -6685 0
0 0 0 696 333337 -5989 0
0 0 0 728 334065 -5261 0
0 0 0 759 334824 -4502 0
0 0 0 730 335554 -3772 0
0 0 0 734 336288 -3038 0
0 0 0 737 337025 -2301 0
19 1 S116 737 337762 -1564 0
19 1 S116 738 338500 -826 0
19 1 S116 699 339199 -127 0
19 2 S116 696 339895 569 0
19 2 S116 693 340588 1262 0
19 2 S116 697 341285 1959 0
19 2 S116 698 341983 2657 0
19 2 S116 694 342677 3351 0
19 2 S116 714 343391 4065 0
19 2 S116 777 344168 4842 0
19 2 S116 840 345008 5682 0
19 2 S116 841 345849 6523 0
0 0 0 783 346632 -11626 0
0 0 0 748 347380 -10878 0
0 0 0 739 348119 -10139 0
0 0 0 725 348844 -9414 0
0 0 0 688 349532 -8726 0
0 0 0 691 350223 -8035 0
0 0 0 703 350926 -7332 0
0 0 0 720 351646 -6612 0
0 0 0 730 352376 -5882 0
0 0 0 718 353094 -5164 0
0 0 0 720 353814 -4444 0
0 0 0 735 354549 -3709 0
0 0 0 760 355309 -2949 0
0 0 0 749 356058 -2200 0
20 1 S112 713 356771 -1487 0
20 1 S112 718 357489 -769 0
20 1 S112 719 358208 -50 0
20 2 S112 740 358948 690 0
20 2 S112 738 359686 1428 0
20 2 S112 703 360389 2131 0
20 2 S112 701 361090 2832 0
20 2 S112 702 361792 3534 0
20 2 S112 718 362510 4252 0
20 2 S112 737 363247 4989 0
20 2 S112 757 364004 5746 0
20 2 S112 761 364765 6507 0
0 0 0 793 365558 -9710 0
0 0 0 820 366378 -8890 0
0 0 0 785 367163 -8105 0
0 0 0 729 367892 -7376 0
0 0 0 730 368622 -6646 0
0 0 0 701 369323 -5945 0
0 0 0 697 370020 -5248 0
0 0 0 679 370699 -4569 0
0 0 0 668 371367 -3901 0
0 0 0 688 372055 -3213 0
0 0 0 707 372762 -2506 0
21 1 S106 739 373501 -1767 0
21 1 S106 761 374262 -1006 0
21 1 S106 738 375000 -268 0
21 2 S106 750 375750 482 0
21 2 S106 750 376500 1232 0
21 2 S106 743 377243 1975 0
21 2 S106 711 377954 2686 0
21 2 S106 678 378632 3364 0
21 2 S106 681 379313 4045 0
21 2 S106 684 379997 4729 0
21 2 S106 708 380705 5437 0
21 2 S106 734 381439 6171 0
21 2 S106 722 382161 6893 0
0 0 0 733 382894 -12898 0
0 0 0 759 383653 -12139 0
0 0 0 781 384434 -11358 0
0 0 0 749 385183 -10609 0
0 0 0 687 385870 -9922 0
0 0 0 651 386521 -9271 0
0 0 0 655 387176 -8616 0
0 0 0 638 387814 -7978 0
0 0 0 665 388479 -7313 0
0 0 0 651 389130 -6662 0
0 0 0 633 389763 -6029 0
0 0 0 660 390423 -5369 0
0 0 0 651 391074 -4718 0
0 0 0 647 391721 -4071 0
0 0 0 657 392378 -3414 0
0 0 0 668 393046 -2746 0
0 0 0 695 393741 -2051 0
22 1 S102 688 394429 -1363 0
22 1 S102 674 395103 -689 0
22 1 S102 656 395759 -33 0
22 2 S102 664 396423 631 0
22 2 S102 660 397083 1291 0
22 2 S102 674 397757 1965 0
22 2 S102 695 398452 2660 0
22 2 S102 697 399149 3357 0
22 2 S102 715 399864 4072 0
22 2 S102 747 400611 4819 0
22 2 S102 757 401368 5576 0
22 2 S102 761 402129 6337 0
0 0 0 755 402884 -6883 0
0 0 0 701 403585 -6182 0
0 0 0 692 404277 -5490 0
0 0 0 686 404963 -4804 0
0 0 0 680 405643 -4124 0
0 0 0 681 406324 -3443 0
0 0 0 664 406988 -2779 0
0 0 0 688 407676 -2091 0
23 1 S116 727 408403 -1364 0
23 1 S116 791 409194 -573 0
23 2 S116 832 410026 259 0
23 2 S116 793 410819 1052 0
23 2 S116 780 411599 1832 0
23 2 S116 758 412357 2590 0
23 2 S116 750 413107 3340 0
23 2 S116 710 413817 4050 0
23 2 S116 689 414506 4739 0
23 2 S116 702 415208 5441 0
23 2 S116 709 415917 6150 0
23 2 S116 729 416646 6879 0
0 0 0 718 417364 -9247 0
0 0 0 706 418070 -8541 0
0 0 0 717 418787 -7824 0
0 0 0 708 419495 -7116 0
0 0 0 707 420202 -6409 0
0 0 0 686 420888 -5723 0
0 0 0 706 421594 -5017 0
0 0 0 708 422302 -4309 0
0 0 0 722 423024 -3587 0
0 0 0 698 423722 -2889 0
0 0 0 685 424407 -2204 0
24 1 S106 688 425095 -1516 0
24 1 S106 687 425782 -829 0
24 1 S106 706 426488 -123 0
24 2 S106 679 427167 556 0
24 2 S106 664 427831 1220 0
24 2 S106 680 428511 1900 0
24 2 S106 683 429194 2583 0
24 2 S106 697 429891 3280 0
24 2 S106 699 430590 3979 0
24 2 S106 671 431261 4650 0
24 2 S106 680 431941 5330 0
24 2 S106 684 432625 6014 0
24 2 S106 692 433317 6706 0
0 0 0 698 434015 -7583 0
0 0 0 669 434684 -6914 0
0 0 0 680 435364 -6234 0
0 0 0 675 436039 -5559 0
0 0 0 708 436747 -4851 0
0 0 0 730 437477 -4121 0
0 0 0 725 438202 -3396 0
0 0 0 739 438941 -2657 0
25 1 S102 751 439692 -1906 0
25 1 S102 794 440486 -1112 0
25 1 S102 803 441289 -309 0
25 2 S102 763 442052 454 0
25 2 S102 743 442795 1197 0
25 2 S102 723 443518 1920 0
25 2 S102 716 444234 2636 0
25 2 S102 702 444936 3338 0
25 2 S102 676 445612 4014 0
25 2 S102 685 446297 4699 0
25 2 S102 718 447015 5417 0
25 2 S102 771 447786 6188 0
0 0 0 859 448645 -11703 0
0 0 0 850 449495 -10853 0
0 0 0 768 450263 -10085 0
0 0 0 731 450994 -9354 0
0 0 0 712 451706 -8642 0
0 0 0 708 452414 -7934 0
0 0 0 698 453112 -7236 0
0 0 0 689 453801 -6547 0
0 0 0 676 454477 -5871 0
0 0 0 707 455184 -5164 0
0 0 0 733 455917 -4431 0
0 0 0 796 456713 -3635 0
0 0 0 822 457535 -2813 0
0 0 0 795 458330 -2018 0
26 1 S112 809 459139 -1209 0
26 1 S112 793 459932 -416 0
26 2 S112 772 460704 356 0
26 2 S112 718 461422 1074 0
26 2 S112 690 462112 1764 0
26 2 S112 693 462805 2457 0
26 2 S112 703 463508 3160 0
26 2 S112 769 464277 3929 0
26 2 S112 794 465071 4723 0
26 2 S112 804 465875 5527 0
26 2 S112 829 466704 6356 0
0 0 0 831 467535 -9889 0
0 0 0 806 468341 -9083 0
0 0 0 727 469068 -8356 0
0 0 0 671 469739 -7685 0
0 0 0 665 470404 -7020 0
0 0 0 655 471059 -6365 0
0 0 0 690 471749 -5675 0
0 0 0 758 472507 -4917 0
0 0 0 727 473234 -4190 0
0 0 0 667 473901 -3523 0
0 0 0 672 474573 -2851 0
0 0 0 703 475276 -2148 0
27 1 S112 702 475978 -1446 0
27 1 S112 703 476681 -743 0
27 1 S112 690 477371 -53 0
27 2 S112 661 478032 608 0
27 2 S112 660 478692 1268 0
27 2 S112 656 479348 1924 0
27 2 S112 668 480016 2592 0
27 2 S112 677 480693 3269 0
27 2 S112 670 481363 3939 0
27 2 S112 685 482048 4624 0
27 2 S112 717 482765 5341 0
27 2 S112 766 483531 6107 0
27 2 S112 807 484338 6914 0
0 0 0 751 485089 -11731 0
0 0 0 727 485816 -11004 0
0 0 0 721 486537 -10283 0
0 0 0 714 487251 -9569 0
0 0 0 705 487956 -8864 0
0 0 0 685 488641 -8179 0
0 0 0 686 489327 -7493 0
0 0 0 714 490041 -6779 0
0 0 0 762 490803 -6017 0
0 0 0 828 491631 -5189 0
0 0 0 758 492389 -4431 0
0 0 0 754 493143 -3677 0
0 0 0 747 493890 -2930 0
0 0 0 738 494628 -2192 0
28 1 S106 728 495356 -1464 0
28 1 S106 688 496044 -776 0
28 1 S106 679 496723 -97 0
28 2 S106 687 497410 590 0
28 2 S106 698 498108 1288 0
28 2 S106 727 498835 2015 0
28 2 S106 725 499560 2740 0
28 2 S106 702 500262 3442 0
28 2 S106 723 500985 4165 0
28 2 S106 725 501710 4890 0
28 2 S106 745 502455 5635 0
28 2 S106 716 503171 6351 0
0 0 0 697 503868 -8486 0
0 0 0 701 504569 -7785 0
0 0 0 697 505266 -7088 0
0 0 0 705 505971 -6383 0
0 0 0 697 506668 -5686 0
0 0 0 678 507346 -5008 0
0 0 0 682 508028 -4326 0
0 0 0 689 508717 -3637 0
0 0 0 711 509428 -2926 0
0 0 0 725 510153 -2201 0
29 1 S102 702 510855 -1499 0
29 1 S102 699 511554 -800 0
29 1 S102 695 512249 -105 0
29 2 S102 702 512951 597 0
29 2 S102 712 513663 1309 0
29 2 S102 708 514371 2017 0
29 2 S102 691 515062 2708 0
29 2 S102 690 515752 3398 0
29 2 S102 687 516439 4085 0
29 2 S102 698 517137 4783 0
29 2 S102 684 517821 5467 0
29 2 S102 677 518498 6144 0
29 2 S102 698 519196 6842 0
0 0 0 709 519905 -10520 0
0 0 0 740 520645 -9780 0
0 0 0 730 521375 -9050 0
0 0 0 717 522092 -8333 0
0 0 0 712 522804 -7621 0
0 0 0 721 523525 -6900 0
0 0 0 707 524232 -6193 0
0 0 0 671 524903 -5522 0
0 0 0 666 525569 -4856 0
0 0 0 664 526233 -4192 0
0 0 0 680 526913 -3512 0
0 0 0 707 527620 -2805 0
0 0 0 712 528332 -2093 0
30 1 S112 702 529034 -1391 0
30 1 S112 730 529764 -661 0
30 2 S112 738 530502 77 0
30 2 S112 751 531253 828 0
30 2 S112 737 531990 1565 0
30 2 S112 710 532700 2275 0
30 2 S112 706 533406 2981 0
30 2 S112 703 534109 3684 0
30 2 S112 732 534841 4416 0
30 2 S112 745 535586 5161 0
30 2 S112 719 536305 5880 0
30 2 S112 746 537051 6626 0
0 0 0 764 537815 -11393 0
0 0 0 778 538593 -10615 0
0 0 0 759 539352 -9856 0
0 0 0 706 540058 -9150 0
0 0 0 705 540763 -8445 0
0 0 0 683 541446 -7762 0
0 0 0 690 542136 -7072 0
0 0 0 681 542817 -6391 0
0 0 0 688 543505 -5703 0
0 0 0 729 544234 -4974 0
0 0 0 781 545015 -4193 0
0 0 0 812 545827 -3381 0
0 0 0 783 546610 -2598 0
31 1 S106 758 547368 -1840 0
31 1 S106 757 548125 -1083 0
31 1 S106 747 548872 -336 0
31 2 S106 732 549604 396 0
31 2 S106 696 550300 1092 0
31 2 S106 676 550976 1768 0
31 2 S106 688 551664 2456 0
31 2 S106 704 552368 3160 0
31 2 S106 768 553136 3928 0
31 2 S106 819 553955 4747 0
31 2 S106 783 554738 5530 0
31 2 S106 793 555531 6323 0
0 0 0 776 556307 -9446 0
0 0 0 778 557085 -8668 0
0 0 0 733 557818 -7935 0
0 0 0 726 558544 -7209 0
0 0 0 718 559262 -6491 0
0 0 0 707 559969 -5784 0
0 0 0 711 560680 -5073 0
0 0 0 700 561380 -4373 0
0 0 0 716 562096 -3657 0
0 0 0 758 562854 -2899 0
0 0 0 804 563658 -2095 0
32 1 S102 821 564479 -1274 0
32 1 S102 783 565262 -491 0
32 2 S102 777 566039 286 0
32 2 S102 773 566812 1059 0
32 2 S102 767 567579 1826 0
32 2 S102 746 568325 2572 0
32 2 S102 701 569026 3273 0
32 2 S102 694 569720 3967 0
32 2 S102 694 570414 4661 0
32 2 S102 729 571143 5390 0
32 2 S102 778 571921 6168 0
32 2 S102 749 572670 6917 0
0 0 0 760 573430 -6332 0
0 0 0 775 574205 -5557 0
0 0 0 782 574987 -4775 0
0 0 0 750 575737 -4025 0
0 0 0 700 576437 -3325 0
0 0 0 695 577132 -2630 0
33 1 S106 685 577817 -1945 0
33 1 S106 694 578511 -1251 0
33 1 S106 718 579229 -533 0
33 2 S106 705 579934 172 0
33 2 S106 707 580641 879 0
33 2 S106 728 581369 1607 0
33 2 S106 726 582095 2333 0
33 2 S106 751 582846 3084 0
33 2 S106 728 583574 3812 0
33 2 S106 690 584264 4502 0
33 2 S106 691 584955 5193 0
33 2 S106 687 585642 5880 0
33 2 S106 686 586328 6566 0
0 0 0 679 587007 -8239 0
0 0 0 662 587669 -7577 0
0 0 0 693 588362 -6884 0
0 0 0 702 589064 -6182 0
0 0 0 754 589818 -5428 0
0 0 0 771 590589 -4657 0
0 0 0 752 591341 -3905 0
0 0 0 776 592117 -3129 0
0 0 0 763 592880 -2366 0
34 1 S116 752 593632 -1614 0
34 1 S116 706 594338 -908 0
34 1 S116 685 595023 -223 0
34 2 S116 685 595708 462 0
34 2 S116 691 596399 1153 0
34 2 S116 702 597101 1855 0
34 2 S116 689 597790 2544 0
34 2 S116 679 598469 3223 0
34 2 S116 697 599166 3920 0
34 2 S116 712 599878 4632 0
34 2 S116 753 600631 5385 0
34 2 S116 746 601377 6131 0
34 2 S116 724 602101 6855 0
0 0 0 734 602835 -18887 0
0 0 0 715 603550 -18172 0
0 0 0 711 604261 -17461 0
0 0 0 665 604926 -16796 0
0 0 0 641 605567 -16155 0
0 0 0 623 606190 -15532 0
0 0 0 617 606807 -14915 0
0 0 0 699 607506 -14216 0
0 0 0 1102 608608 -13114 1
0 0 0 933 609541 -12181 1
0 0 0 875 610416 -11306 0
0 0 0 790 611206 -10516 0
0 0 0 780 611986 -9736 0
0 0 0 810 612796 -8926 0
0 0 0 761 613557 -8165 0
0 0 0 703 614260 -7462 0
0 0 0 662 614922 -6800 0
0 0 0 636 615558 -6164 0
0 0 0 630 616188 -5534 0
0 0 0 652 616840 -4882 0
0 0 0 679 617519 -4203 0
0 0 0 716 618235 -3487 0
0 0 0 758 618993 -2729 0
35 1 S102 755 619748 -1974 0
35 1 S102 731 620479 -1243 0
35 1 S102 743 621222 -500 0
35 2 S102 730 621952 230 0
35 2 S102 734 622686 964 0
35 2 S102 720 623406 1684 0
35 2 S102 691 624097 2375 0
35 2 S102 707 624804 3082 0
35 2 S102 709 625513 3791 0
35 2 S102 752 626265 4543 0
35 2 S102 784 627049 5327 0
35 2 S102 749 627798 6076 0
35 2 S102 761 628559 6837 0
0 0 0 747 629306 -8580 0
0 0 0 744 630050 -7836 0
0 0 0 710 630760 -7126 0
0 0 0 706 631466 -6420 0
0 0 0 692 632158 -5728 0
0 0 0 700 632858 -5028 0
0 0 0 723 633581 -4305 0
0 0 0 718 634299 -3587 0
0 0 0 756 635055 -2831 0
0 0 0 752 635807 -2079 0
36 1 S116 769 636576 -1310 0
36 1 S116 749 637325 -561 0
36 2 S116 731 638056 170 0
36 2 S116 732 638788 902 0
36 2 S116 727 639515 1629 0
36 2 S116 722 640237 2351 0
36 2 S116 699 640936 3050 0
36 2 S116 699 641635 3749 0
36 2 S116 703 642338 4452 0
36 2 S116 734 643072 5186 0
36 2 S116 772 643844 5958 0
36 2 S116 734 644578 6692 0
0 0 0 748 645326 -9437 0
0 0 0 750 646076 -8687 0
0 0 0 767 646843 -7920 0
0 0 0 723 647566 -7197 0
0 0 0 684 648250 -6513 0
0 0 0 661 648911 -5852 0
0 0 0 660 649571 -5192 0
0 0 0 674 650245 -4518 0
0 0 0 722 650967 -3796 0
0 0 0 773 651740 -3023 0
0 0 0 767 652507 -2256 0
37 1 S112 740 653247 -1516 0
37 1 S112 735 653982 -781 0
37 1 S112 726 654708 -55 0
37 2 S112 714 655422 659 0
37 2 S112 690 656112 1349 0
37 2 S112 668 656780 2017 0
37 2 S112 679 657459 2696 0
37 2 S112 681 658140 3377 0
37 2 S112 692 658832 4069 0
37 2 S112 721 659553 4790 0
37 2 S112 716 660269 5506 0
37 2 S112 738 661007 6244 0
37 2 S112 739 661746 6983 0
0 0 0 742 662488 -9450 0
0 0 0 726 663214 -8724 0
0 0 0 682 663896 -8042 0
0 0 0 669 664565 -7373 0
0 0 0 663 665228 -6710 0
0 0 0 685 665913 -6025 0
0 0 0 708 666621 -5317 0
0 0 0 726 667347 -4591 0
0 0 0 707 668054 -3884 0
0 0 0 720 668774 -3164 0
0 0 0 712 669486 -2452 0
38 1 S102 714 670200 -1738 0
38 1 S102 700 670900 -1038 0
38 1 S102 672 671572 -366 0
38 2 S102 681 672253 315 0
38 2 S102 681 672934 996 0
38 2 S102 689 673623 1685 0
38 2 S102 682 674305 2367 0
38 2 S102 674 674979 3041 0
38 2 S102 689 675668 3730 0
38 2 S102 689 676357 4419 0
38 2 S102 707 677064 5126 0
38 2 S102 692 677756 5818 0
38 2 S102 660 678416 6478 0
0 0 0 651 679067 -8703 0
0 0 0 646 679713 -8057 0
0 0 0 630 680343 -7427 0
0 0 0 630 680973 -6797 0
0 0 0 620 681593 -6177 0
0 0 0 621 682214 -5556 0
0 0 0 671 682885 -4885 0
0 0 0 754 683639 -4131 0
0 0 0 811 684450 -3320 0
0 0 0 788 685238 -2532 0
39 1 S112 755 685993 -1777 0
39 1 S112 716 686709 -1061 0
39 1 S112 706 687415 -355 0
39 2 S112 677 688092 322 0
39 2 S112 660 688752 982 0
39 2 S112 631 689383 1613 0
39 2 S112 628 690011 2241 0
39 2 S112 636 690647 2877 0
39 2 S112 647 691294 3524 0
39 2 S112 622 691916 4146 0
39 2 S112 628 692544 4774 0
39 2 S112 668 693212 5442 0
39 2 S112 681 693893 6123 0
39 2 S112 731 694624 6854 0
0 0 0 752 695376 -8575 0
0 0 0 767 696143 -7808 0
0 0 0 741 696884 -7067 0
0 0 0 735 697619 -6332 0
0 0 0 715 698334 -5617 0
0 0 0 714 699048 -4903 0
0 0 0 687 699735 -4216 0
0 0 0 704 700439 -3512 0
0 0 0 716 701155 -2796 0
0 0 0 761 701916 -2035 0
40 1 S116 790 702706 -1245 0
40 1 S116 771 703477 -474 0
40 2 S116 784 704261 310 0
40 2 S116 792 705053 1102 0
40 2 S116 817 705870 1919 0
40 2 S116 821 706691 2740 0
40 2 S116 782 707473 3522 0
40 2 S116 793 708266 4315 0
40 2 S116 787 709053 5102 0
40 2 S116 805 709858 5907 0
40 2 S116 764 710622 6671 0
0 0 0 754 711376 -8490 0
0 0 0 766 712142 -7724 0
0 0 0 769 712911 -6955 0
0 0 0 808 713719 -6147 0
0 0 0 809 714528 -5338 0
0 0 0 784 715312 -4554 0
0 0 0 796 716108 -3758 0
0 0 0 777 716885 -2981 0
0 0 0 770 717655 -2211 0
41 1 S102 732 718387 -1479 0
41 1 S102 708 719095 -771 0
41 1 S102 691 719786 -80 0
41 2 S102 696 720482 616 0
41 2 S102 698 721180 1314 0
41 2 S102 671 721851 1985 0
41 2 S102 689 722540 2674 0
41 2 S102 704 723244 3378 0
41 2 S102 759 724003 4137 0
41 2 S102 824 724827 4961 0
41 2 S102 824 725651 5785 0
41 2 S102 772 726423 6557 0
0 0 0 750 727173 -9006 0
0 0 0 735 727908 -8271 0
0 0 0 734 728642 -7537 0
0 0 0 721 729363 -6816 0
0 0 0 689 730052 -6127 0
0 0 0 706 730758 -5421 0
0 0 0 718 731476 -4703 0
0 0 0 765 732241 -3938 0
0 0 0 766 733007 -3172 0
0 0 0 750 733757 -2422 0
42 1 S116 775 734532 -1647 0
42 1 S116 774 735306 -873 0
42 1 S116 778 736084 -95 0
42 2 S116 715 736799 620 0
42 2 S116 704 737503 1324 0
42 2 S116 706 738209 2030 0
42 2 S116 717 738926 2747 0
42 2 S116 760 739686 3507 0
42 2 S116 742 740428 4249 0
42 2 S116 765 741193 5014 0
42 2 S116 773 741966 5787 0
42 2 S116 785 742751 6572 0
0 0 0 763 743514 -12808 0
0 0 0 732 744246 -12076 0
0 0 0 744 744990 -11332 0
0 0 0 737 745727 -10595 0
0 0 0 760 746487 -9835 0
0 0 0 742 747229 -9093 0
0 0 0 727 747956 -8366 0
0 0 0 723 748679 -7643 0
0 0 0 736 749415 -6907 0
0 0 0 753 750168 -6154 0
0 0 0 723 750891 -5431 0
0 0 0 734 751625 -4697 0
0 0 0 739 752364 -3958 0
0 0 0 750 753114 -3208 0
0 0 0 771 753885 -2437 0
43 1 S102 736 754621 -1701 0
43 1 S102 762 755383 -939 0
43 1 S102 762 756145 -177 0
43 2 S102 792 756937 615 0
43 2 S102 796 757733 1411 0
43 2 S102 769 758502 2180 0
43 2 S102 795 759297 2975 0
43 2 S102 800 760097 3775 0
43 2 S102 794 760891 4569 0
43 2 S102 760 761651 5329 0
43 2 S102 768 762419 6097 0
43 2 S102 757 763176 6854 0
0 0 0 782 763958 -10766 0
0 0 0 754 764712 -10012 0
0 0 0 733 765445 -9279 0
0 0 0 769 766214 -8510 0
0 0 0 796 767010 -7714 0
0 0 0 836 767846 -6878 0
0 0 0 796 768642 -6082 0
0 0 0 769 769411 -5313 0
0 0 0 771 770182 -4542 0
0 0 0 767 770949 -3775 0
0 0 0 760 771709 -3015 0
0 0 0 729 772438 -2286 0
44 1 S112 719 773157 -1567 0
44 1 S112 728 773885 -839 0
44 1 S112 761 774646 -78 0
44 2 S112 766 775412 688 0
44 2 S112 739 776151 1427 0
44 2 S112 759 776910 2186 0
44 2 S112 762 777672 2948 0
44 2 S112 793 778465 3741 0
44 2 S112 773 779238 4514 0
44 2 S112 748 779986 5262 0
44 2 S112 768 780754 6030 0
44 2 S112 798 781552 6828 0
0 0 0 783 782335 -12399 0
0 0 0 747 783082 -11652 0
0 0 0 731 783813 -10921 0
0 0 0 719 784532 -10202 0
0 0 0 732 785264 -9470 0
0 0 0 791 786055 -8679 0
0 0 0 768 786823 -7911 0
0 0 0 769 787592 -7142 0
0 0 0 784 788376 -6358 0
0 0 0 809 789185 -5549 0
0 0 0 821 790006 -4728 0
0 0 0 782 790788 -3946 0
0 0 0 765 791553 -3181 0
0 0 0 747 792300 -2434 0
45 1 S116 738 793038 -1696 0
45 1 S116 725 793763 -971 0
45 1 S116 709 794472 -262 0
45 2 S116 719 795191 457 0
45 2 S116 723 795914 1180 0
45 2 S116 743 796657 1923 0
45 2 S116 768 797425 2691 0
45 2 S116 755 798180 3446 0
45 2 S116 775 798955 4221 0
45 2 S116 773 799728 4994 0
45 2 S116 787 800515 5781 0
45 2 S116 758 801273 6539 0
0 0 0 753 802026 -9568 0
0 0 0 746 802772 -8822 0
0 0 0 749 803521 -8073 0
0 0 0 745 804266 -7328 0
0 0 0 705 804971 -6623 0
0 0 0 690 805661 -5933 0
0 0 0 650 806311 -5283 0
0 0 0 654 806965 -4629 0
0 0 0 695 807660 -3934 0
0 0 0 764 808424 -3170 0
0 0 0 724 809148 -2446 0
46 1 S112 819 809967 -1627 0
46 1 S112 824 810791 -803 0
46 1 S112 801 811592 -2 0
46 2 S112 771 812363 769 0
46 2 S112 759 813122 1528 0
46 2 S112 759 813881 2287 0
46 2 S112 740 814621 3027 0
46 2 S112 698 815319 3725 0
46 2 S112 699 816018 4424 0
46 2 S112 711 816729 5135 0
46 2 S112 748 817477 5883 0
46 2 S112 765 818242 6648 0
0 0 0 785 819027 -11119 0
0 0 0 763 819790 -10356 0
0 0 0 773 820563 -9583 0
0 0 0 761 821324 -8822 0
0 0 0 747 822071 -8075 0
0 0 0 727 822798 -7348 0
0 0 0 700 823498 -6648 0
0 0 0 720 824218 -5928 0
0 0 0 712 824930 -5216 0
0 0 0 771 825701 -4445 0
0 0 0 780 826481 -3665 0
0 0 0 757 827238 -2908 0
0 0 0 757 827995 -2151 0
47 1 S106 747 828742 -1404 0
47 1 S106 748 829490 -656 0
47 2 S106 730 830220 74 0
47 2 S106 715 830935 789 0
47 2 S106 731 831666 1520 0
47 2 S106 737 832403 2257 0
47 2 S106 761 833164 3018 0
47 2 S106 748 833912 3766 0
47 2 S106 733 834645 4499 0
47 2 S106 742 835387 5241 0
47 2 S106 751 836138 5992 0
47 2 S106 741 836879 6733 0
0 0 0 703 837582 -6174 0
0 0 0 713 838295 -5461 0
0 0 0 703 838998 -4758 0
0 0 0 705 839703 -4053 0
0 0 0 694 840397 -3359 0
0 0 0 701 841098 -2658 0
48 1 S112 729 841827 -1929 0
48 1 S112 763 842590 -1166 0
48 1 S112 783 843373 -383 0
48 2 S112 743 844116 360 0
48 2 S112 760 844876 1120 0
48 2 S112 748 845624 1868 0
48 2 S112 758 846382 2626 0
48 2 S112 726 847108 3352 0
48 2 S112 703 847811 4055 0
48 2 S112 709 848520 4764 0
48 2 S112 712 849232 5476 0
48 2 S112 717 849949 6193 0
48 2 S112 686 850635 6879 0
0 0 0 692 851327 -10848 0
0 0 0 703 852030 -10145 0
0 0 0 736 852766 -9409 0
0 0 0 771 853537 -8638 0
0 0 0 737 854274 -7901 0
0 0 0 757 855031 -7144 0
0 0 0 747 855778 -6397 0
0 0 0 761 856539 -5636 0
0 0 0 729 857268 -4907 0
0 0 0 740 858008 -4167 0
0 0 0 719 858727 -3448 0
0 0 0 728 859455 -2720 0
0 0 0 711 860166 -2009 0
49 1 S116 718 860884 -1291 0
49 1 S116 728 861612 -563 0
49 2 S116 735 862347 172 0
49 2 S116 744 863091 916 0
49 2 S116 716 863807 1632 0
49 2 S116 714 864521 2346 0
49 2 S116 725 865246 3071 0
49 2 S116 743 865989 3814 0
49 2 S116 747 866736 4561 0
49 2 S116 730 867466 5291 0
49 2 S116 735 868201 6026 0
49 2 S116 726 868927 6752 0
0 0 0 729 869656 -8633 0
0 0 0 705 870361 -7928 0
0 0 0 665 871026 -7263 0
0 0 0 645 871671 -6618 0
0 0 0 640 872311 -5978 0
0 0 0 673 872984 -5305 0
0 0 0 785 873769 -4520 0
0 0 0 876 874645 -3644 1
0 0 0 884 875529 -2760 1
50 1 S106 850 876379 -1910 0
50 1 S106 828 877207 -1082 0
50 1 S106 782 877989 -300 0
50 2 S106 744 878733 444 0
50 2 S106 702 879435 1146 0
50 2 S106 700 880135 1846 0
50 2 S106 688 880823 2534 0
50 2 S106 712 881535 3246 0
50 2 S106 736 882271 3982 0
50 2 S106 728 882999 4710 0
50 2 S106 754 883753 5464 0
50 2 S106 761 884514 6225 0
50 2 S106 798 885312 7023 0
0 0 0 805 886117 -6678 0
0 0 0 773 886890 -5905 0
0 0 0 771 887661 -5134 0
0 0 0 752 888413 -4382 0
0 0 0 728 889141 -3654 0
0 0 0 699 889840 -2955 0
0 0 0 682 890522 -2273 0
51 1 S102 699 891221 -1574 0
51 1 S102 717 891938 -857 0
51 1 S102 770 892708 -87 0
51 2 S102 828 893536 741 0
51 2 S102 793 894329 1534 0
51 2 S102 816 895145 2350 0
51 2 S102 797 895942 3147 0
51 2 S102 787 896729 3934 0
51 2 S102 744 897473 4678 0
51 2 S102 730 898203 5408 0
51 2 S102 713 898916 6121 0
51 2 S102 685 899601 6806 0
0 0 0 655 900256 -10858 0
0 0 0 626 900882 -10232 0
0 0 0 642 901524 -9590 0
0 0 0 700 902224 -8890 0
0 0 0 747 902971 -8143 0
0 0 0 794 903765 -7349 0
0 0 0 778 904543 -6571 0
0 0 0 766 905309 -5805 0
0 0 0 765 906074 -5040 0
0 0 0 761 906835 -4279 0
0 0 0 739 907574 -3540 0
0 0 0 714 908288 -2826 0
0 0 0 715 909003 -2111 0
52 1 S106 703 909706 -1408 0
52 1 S106 707 910413 -701 0
52 1 S106 687 911100 -14 0
52 2 S106 685 911785 671 0
52 2 S106 711 912496 1382 0
52 2 S106 753 913249 2135 0
52 2 S106 791 914040 2926 0
52 2 S106 766 914806 3692 0
52 2 S106 760 915566 4452 0
52 2 S106 740 916306 5192 0
52 2 S106 730 917036 5922 0
52 2 S106 716 917752 6638 0
0 0 0 722 918474 -6533 0
0 0 0 717 919191 -5816 0
0 0 0 755 919946 -5061 0
0 0 0 716 920662 -4345 0
0 0 0 760 921422 -3585 0
0 0 0 772 922194 -2813 0
0 0 0 801 922995 -2012 0
53 1 S116 752 923747 -1260 0
53 1 S116 745 924492 -515 0
53 2 S116 735 925227 220 0
53 2 S116 727 925954 947 0
53 2 S116 711 926665 1658 0
53 2 S116 697 927362 2355 0
53 2 S116 711 928073 3066 0
53 2 S116 698 928771 3764 0
53 2 S116 705 929476 4469 0
53 2 S116 685 930161 5154 0
53 2 S116 691 930852 5845 0
53 2 S116 716 931568 6561 0
0 0 0 769 932337 -9149 0
0 0 0 847 933184 -8302 0
0 0 0 802 933986 -7500 0
0 0 0 818 934804 -6682 0
0 0 0 800 935604 -5882 0
0 0 0 790 936394 -5092 0
0 0 0 748 937142 -4344 0
0 0 0 722 937864 -3622 0
0 0 0 700 938564 -2922 0
0 0 0 720 939284 -2202 0
54 1 S106 733 940017 -1469 0
54 1 S106 727 940744 -742 0
54 2 S106 749 941493 7 0
54 2 S106 768 942261 775 0
54 2 S106 796 943057 1571 0
54 2 S106 786 943843 2357 0
54 2 S106 741 944584 3098 0
54 2 S106 740 945324 3838 0
54 2 S106 736 946060 4574 0
54 2 S106 744 946804 5318 0
54 2 S106 745 947549 6063 0
54 2 S106 725 948274 6788 0
0 0 0 710 948984 -9014 0
0 0 0 727 949711 -8287 0
0 0 0 721 950432 -7566 0
0 0 0 748 951180 -6818 0
0 0 0 713 951893 -6105 0
0 0 0 726 952619 -5379 0
0 0 0 732 953351 -4647 0
0 0 0 749 954100 -3898 0
0 0 0 745 954845 -3153 0
0 0 0 752 955597 -2401 0
55 1 S102 769 956366 -1632 0
55 1 S102 777 957143 -855 0
55 1 S102 774 957917 -81 0
55 2 S102 731 958648 650 0
55 2 S102 738 959386 1388 0
55 2 S102 729 960115 2117 0
55 2 S102 745 960860 2862 0
55 2 S102 734 961594 3596 0
55 2 S102 720 962314 4316 0
55 2 S102 746 963060 5062 0
55 2 S102 764 963824 5826 0
55 2 S102 809 964633 6635 0
0 0 0 767 965400 -6507 0
0 0 0 745 966145 -5762 0
0 0 0 764 966909 -4998 0
0 0 0 744 967653 -4254 0
0 0 0 724 968377 -3530 0
0 0 0 686 969063 -2844 0
0 0 0 702 969765 -2142 0
56 1 S112 701 970466 -1441 0
56 1 S112 740 971206 -701 0
56 2 S112 776 971982 75 0
56 2 S112 758 972740 833 0
56 2 S112 785 973525 1618 0
56 2 S112 789 974314 2407 0
56 2 S112 812 975126 3219 0
56 2 S112 775 975901 3994 0
56 2 S112 741 976642 4735 0
56 2 S112 734 977376 5469 0
56 2 S112 727 978103 6196 0
56 2 S112 746 978849 6942 0
0 0 0 718 979567 -10892 0
0 0 0 687 980254 -10205 0
0 0 0 669 980923 -9536 0
0 0 0 698 981621 -8838 0
0 0 0 803 982424 -8035 0
0 0 0 891 983315 -7144 1
0 0 0 846 984161 -6298 0
0 0 0 769 984930 -5529 0
0 0 0 721 985651 -4808 0
0 0 0 672 986323 -4136 0
0 0 0 657 986980 -3479 0
0 0 0 664 987644 -2815 0
0 0 0 640 988284 -2175 0
57 1 S102 643 988927 -1532 0
57 1 S102 662 989589 -870 0
57 1 S102 698 990287 -172 0
57 2 S102 753 991040 581 0
57 2 S102 795 991835 1376 0
57 2 S102 774 992609 2150 0
57 2 S102 796 993405 2946 0
57 2 S102 789 994194 3735 0
57 2 S102 792 994986 4527 0
57 2 S102 734 995720 5261 0
57 2 S102 731 996451 5992 0
57 2 S102 716 997167 6708 0
