P_0009
BeatCount Mean SD BeatCountNoOutliers MeanNoOutliers SDNoOutliers
2009 757,197610751618 50,6216462591435 1971 759,163876204972 46,6950053734961

Trial TrialStatus Trialtype IBI AbsPosition RelPosition Outlier
0 0 0 729 1135 -14917 0
0 0 0 734 1869 -14183 0
0 0 0 735 2604 -13448 0
0 0 0 708 3312 -12740 0
0 0 0 682 3994 -12058 0
0 0 0 662 4656 -11396 0
0 0 0 660 5316 -10736 0
0 0 0 692 6008 -10044 0
0 0 0 754 6762 -9290 0
0 0 0 795 7557 -8495 0
0 0 0 859 8416 -7636 0
0 0 0 868 9284 -6768 0
0 0 0 836 10120 -5932 0
0 0 0 805 10925 -5127 0
0 0 0 807 11732 -4320 0
0 0 0 816 12548 -3504 0
0 0 0 814 13362 -2690 0
1 1 S112 753 14115 -1937 0
1 1 S112 758 14873 -1179 0
1 1 S112 771 15644 -408 0
1 2 S112 818 16462 410 0
1 2 S112 830 17292 1240 0
1 2 S112 811 18103 2051 0
1 2 S112 759 18862 2810 0
1 2 S112 774 19636 3584 0
1 2 S112 792 20428 4376 0
1 2 S112 809 21237 5185 0
1 2 S112 823 22060 6008 0
1 2 S112 784 22844 6792 0
0 0 0 738 23582 -10706 0
0 0 0 737 24319 -9969 0
0 0 0 742 25061 -9227 0
0 0 0 739 25800 -8488 0
0 0 0 752 26552 -7736 0
0 0 0 731 27283 -7005 0
0 0 0 746 28029 -6259 0
0 0 0 786 28815 -5473 0
0 0 0 816 29631 -4657 0
0 0 0 840 30471 -3817 0
0 0 0 847 31318 -2970 0
0 0 0 836 32154 -2134 0
2 1 S102 790 32944 -1344 0
2 1 S102 754 33698 -590 0
2 2 S102 761 34459 171 0
2 2 S102 779 35238 950 0
2 2 S102 804 36042 1754 0
2 2 S102 808 36850 2562 0
2 2 S102 799 37649 3361 0
2 2 S102 751 38400 4112 0
2 2 S102 755 39155 4867 0
2 2 S102 786 39941 5653 0
2 2 S102 809 40750 6462 0
0 0 0 828 41578 -10084 0
0 0 0 799 42377 -9285 0
0 0 0 730 43107 -8555 0
0 0 0 724 43831 -7831 0
0 0 0 736 44567 -7095 0
0 0 0 748 45315 -6347 0
0 0 0 769 46084 -5578 0
0 0 0 734 46818 -4844 0
0 0 0 733 47551 -4111 0
0 0 0 748 48299 -3363 0
0 0 0 776 49075 -2587 0
3 1 S116 799 49874 -1788 0
3 1 S116 761 50635 -1027 0
3 1 S116 724 51359 -303 0
3 2 S116 726 52085 423 0
3 2 S116 741 52826 1164 0
3 2 S116 771 53597 1935 0
3 2 S116 802 54399 2737 0
3 2 S116 807 55206 3544 0
3 2 S116 752 55958 4296 0
3 2 S116 711 56669 5007 0
3 2 S116 703 57372 5710 0
3 2 S116 726 58098 6436 0
0 0 0 750 58848 -11631 0
0 0 0 789 59637 -10842 0
0 0 0 793 60430 -10049 0
0 0 0 746 61176 -9303 0
0 0 0 765 61941 -8538 0
0 0 0 776 62717 -7762 0
0 0 0 771 63488 -6991 0
0 0 0 729 64217 -6262 0
0 0 0 707 64924 -5555 0
0 0 0 701 65625 -4854 0
0 0 0 715 66340 -4139 0
0 0 0 735 67075 -3404 0
0 0 0 759 67834 -2645 0
4 1 S106 739 68573 -1906 0
4 1 S106 727 69300 -1179 0
4 1 S106 746 70046 -433 0
4 2 S106 777 70823 344 0
4 2 S106 789 71612 1133 0
4 2 S106 800 72412 1933 0
4 2 S106 753 73165 2686 0
4 2 S106 727 73892 3413 0
4 2 S106 742 74634 4155 0
4 2 S106 770 75404 4925 0
4 2 S106 816 76220 5741 0
4 2 S106 854 77074 6595 0
0 0 0 843 77917 -8460 0
0 0 0 769 78686 -7691 0
0 0 0 743 79429 -6948 0
0 0 0 741 80170 -6207 0
0 0 0 756 80926 -5451 0
0 0 0 787 81713 -4664 0
0 0 0 742 82455 -3922 0
0 0 0 715 83170 -3207 0
0 0 0 722 83892 -2485 0
5 1 S116 718 84610 -1767 0
5 1 S116 695 85305 -1072 0
5 1 S116 684 85989 -388 0
5 2 S116 701 86690 313 0
5 2 S116 688 87378 1001 0
5 2 S116 669 88047 1670 0
5 2 S116 657 88704 2327 0
5 2 S116 657 89361 2984 0
5 2 S116 669 90030 3653 0
5 2 S116 707 90737 4360 0
5 2 S116 775 91512 5135 0
5 2 S116 806 92318 5941 0
5 2 S116 785 93103 6726 0
0 0 0 735 93838 -9366 0
0 0 0 723 94561 -8643 0
0 0 0 727 95288 -7916 0
0 0 0 748 96036 -7168 0
0 0 0 756 96792 -6412 0
0 0 0 754 97546 -5658 0
0 0 0 722 98268 -4936 0
0 0 0 732 99000 -4204 0
0 0 0 746 99746 -3458 0
0 0 0 779 100525 -2679 0
6 1 S106 787 101312 -1892 0
6 1 S106 760 102072 -1132 0
6 1 S106 716 102788 -416 0
6 2 S106 712 103500 296 0
6 2 S106 718 104218 1014 0
6 2 S106 721 104939 1735 0
6 2 S106 705 105644 2440 0
6 2 S106 698 106342 3138 0
6 2 S106 717 107059 3855 0
6 2 S106 750 107809 4605 0
6 2 S106 794 108603 5399 0
6 2 S106 829 109432 6228 0
6 2 S106 776 110208 7004 0
0 0 0 728 110936 -11715 0
0 0 0 725 111661 -10990 0
0 0 0 736 112397 -10254 0
0 0 0 750 113147 -9504 0
0 0 0 764 113911 -8740 0
0 0 0 734 114645 -8006 0
0 0 0 717 115362 -7289 0
0 0 0 728 116090 -6561 0
0 0 0 760 116850 -5801 0
0 0 0 793 117643 -5008 0
0 0 0 826 118469 -4182 0
0 0 0 785 119254 -3397 0
0 0 0 737 119991 -2660 0
7 1 S102 745 120736 -1915 0
7 1 S102 775 121511 -1140 0
7 1 S102 833 122344 -307 0
7 2 S102 868 123212 561 0
7 2 S102 806 124018 1367 0
7 2 S102 754 124772 2121 0
7 2 S102 761 125533 2882 0
7 2 S102 781 126314 3663 0
7 2 S102 796 127110 4459 0
7 2 S102 802 127912 5261 0
7 2 S102 742 128654 6003 0
7 2 S102 715 129369 6718 0
0 0 0 722 130091 -8906 0
0 0 0 732 130823 -8174 0
0 0 0 773 131596 -7401 0
0 0 0 776 132372 -6625 0
0 0 0 729 133101 -5896 0
0 0 0 724 133825 -5172 0
0 0 0 730 134555 -4442 0
0 0 0 741 135296 -3701 0
0 0 0 747 136043 -2954 0
0 0 0 747 136790 -2207 0
8 1 S112 728 137518 -1479 0
8 1 S112 733 138251 -746 0
8 2 S112 760 139011 14 0
8 2 S112 794 139805 808 0
8 2 S112 816 140621 1624 0
8 2 S112 773 141394 2397 0
8 2 S112 729 142123 3126 0
8 2 S112 735 142858 3861 0
8 2 S112 744 143602 4605 0
8 2 S112 758 144360 5363 0
8 2 S112 782 145142 6145 0
8 2 S112 745 145887 6890 0
0 0 0 723 146610 -6562 0
0 0 0 728 147338 -5834 0
0 0 0 754 148092 -5080 0
0 0 0 768 148860 -4312 0
0 0 0 741 149601 -3571 0
0 0 0 723 150324 -2848 0
0 0 0 721 151045 -2127 0
9 1 S116 732 151777 -1395 0
9 1 S116 747 152524 -648 0
9 2 S116 764 153288 116 0
9 2 S116 738 154026 854 0
9 2 S116 716 154742 1570 0
9 2 S116 717 155459 2287 0
9 2 S116 720 156179 3007 0
9 2 S116 744 156923 3751 0
9 2 S116 772 157695 4523 0
9 2 S116 769 158464 5292 0
9 2 S116 732 159196 6024 0
9 2 S116 739 159935 6763 0
0 0 0 751 160686 -10838 0
0 0 0 766 161452 -10072 0
0 0 0 789 162241 -9283 0
0 0 0 770 163011 -8513 0
0 0 0 730 163741 -7783 0
0 0 0 721 164462 -7062 0
0 0 0 737 165199 -6325 0
0 0 0 757 165956 -5568 0
0 0 0 765 166721 -4803 0
0 0 0 731 167452 -4072 0
0 0 0 705 168157 -3367 0
0 0 0 709 168866 -2658 0
10 1 S102 738 169604 -1920 0
10 1 S102 787 170391 -1133 0
10 1 S102 807 171198 -326 0
10 2 S102 757 171955 431 0
10 2 S102 745 172700 1176 0
10 2 S102 747 173447 1923 0
10 2 S102 761 174208 2684 0
10 2 S102 770 174978 3454 0
10 2 S102 733 175711 4187 0
10 2 S102 703 176414 4890 0
10 2 S102 713 177127 5603 0
10 2 S102 734 177861 6337 0
0 0 0 775 178636 -10859 0
0 0 0 800 179436 -10059 0
0 0 0 770 180206 -9289 0
0 0 0 740 180946 -8549 0
0 0 0 740 181686 -7809 0
0 0 0 750 182436 -7059 0
0 0 0 774 183210 -6285 0
0 0 0 780 183990 -5505 0
0 0 0 747 184737 -4758 0
0 0 0 760 185497 -3998 0
0 0 0 767 186264 -3231 0
0 0 0 790 187054 -2441 0
11 1 S112 794 187848 -1647 0
11 1 S112 765 188613 -882 0
11 1 S112 755 189368 -127 0
11 2 S112 768 190136 641 0
11 2 S112 791 190927 1432 0
11 2 S112 827 191754 2259 0
11 2 S112 800 192554 3059 0
11 2 S112 751 193305 3810 0
11 2 S112 740 194045 4550 0
11 2 S112 741 194786 5291 0
11 2 S112 756 195542 6047 0
11 2 S112 784 196326 6831 0
0 0 0 769 197095 -6458 0
0 0 0 737 197832 -5721 0
0 0 0 742 198574 -4979 0
0 0 0 751 199325 -4228 0
0 0 0 764 200089 -3464 0
0 0 0 739 200828 -2725 0
0 0 0 711 201539 -2014 0
12 1 S116 716 202255 -1298 0
12 1 S116 714 202969 -584 0
12 2 S116 724 203693 140 0
12 2 S116 733 204426 873 0
12 2 S116 710 205136 1583 0
12 2 S116 710 205846 2293 0
12 2 S116 723 206569 3016 0
12 2 S116 753 207322 3769 0
12 2 S116 812 208134 4581 0
12 2 S116 834 208968 5415 0
12 2 S116 791 209759 6206 0
12 2 S116 756 210515 6962 0
0 0 0 764 211279 -11605 0
0 0 0 768 212047 -10837 0
0 0 0 771 212818 -10066 0
0 0 0 757 213575 -9309 0
0 0 0 765 214340 -8544 0
0 0 0 783 215123 -7761 0
0 0 0 798 215921 -6963 0
0 0 0 750 216671 -6213 0
0 0 0 737 217408 -5476 0
0 0 0 741 218149 -4735 0
0 0 0 749 218898 -3986 0
0 0 0 758 219656 -3228 0
0 0 0 738 220394 -2490 0
13 1 S112 712 221106 -1778 0
13 1 S112 716 221822 -1062 0
13 1 S112 733 222555 -329 0
13 2 S112 784 223339 455 0
13 2 S112 829 224168 1284 0
13 2 S112 798 224966 2082 0
13 2 S112 756 225722 2838 0
13 2 S112 766 226488 3604 0
13 2 S112 784 227272 4388 0
13 2 S112 805 228077 5193 0
13 2 S112 823 228900 6016 0
13 2 S112 765 229665 6781 0
0 0 0 729 230394 -10809 0
0 0 0 728 231122 -10081 0
0 0 0 748 231870 -9333 0
0 0 0 775 232645 -8558 0
0 0 0 775 233420 -7783 0
0 0 0 729 234149 -7054 0
0 0 0 735 234884 -6319 0
0 0 0 744 235628 -5575 0
0 0 0 775 236403 -4800 0
0 0 0 785 237188 -4015 0
0 0 0 754 237942 -3261 0
0 0 0 711 238653 -2550 0
14 1 S106 701 239354 -1849 0
14 1 S106 701 240055 -1148 0
14 1 S106 727 240782 -421 0
14 2 S106 769 241551 348 0
14 2 S106 797 242348 1145 0
14 2 S106 764 243112 1909 0
14 2 S106 727 243839 2636 0
14 2 S106 727 244566 3363 0
14 2 S106 742 245308 4105 0
14 2 S106 780 246088 4885 0
14 2 S106 801 246889 5686 0
14 2 S106 816 247705 6502 0
0 0 0 785 248490 -11662 0
0 0 0 725 249215 -10937 0
0 0 0 711 249926 -10226 0
0 0 0 711 250637 -9515 0
0 0 0 737 251374 -8778 0
0 0 0 767 252141 -8011 0
0 0 0 776 252917 -7235 0
0 0 0 760 253677 -6475 0
0 0 0 782 254459 -5693 0
0 0 0 809 255268 -4884 0
0 0 0 826 256094 -4058 0
0 0 0 807 256901 -3251 0
0 0 0 758 257659 -2493 0
15 1 S116 723 258382 -1770 0
15 1 S116 716 259098 -1054 0
15 1 S116 730 259828 -324 0
15 2 S116 776 260604 452 0
15 2 S116 828 261432 1280 0
15 2 S116 863 262295 2143 0
15 2 S116 811 263106 2954 0
15 2 S116 785 263891 3739 0
15 2 S116 794 264685 4533 0
15 2 S116 830 265515 5363 0
15 2 S116 846 266361 6209 0
0 0 0 835 267196 -9717 0
0 0 0 772 267968 -8945 0
0 0 0 761 268729 -8184 0
0 0 0 772 269501 -7412 0
0 0 0 786 270287 -6626 0
0 0 0 774 271061 -5852 0
0 0 0 733 271794 -5119 0
0 0 0 722 272516 -4397 0
0 0 0 717 273233 -3680 0
0 0 0 735 273968 -2945 0
0 0 0 771 274739 -2174 0
16 1 S116 799 275538 -1375 0
16 1 S116 757 276295 -618 0
16 2 S116 747 277042 129 0
16 2 S116 752 277794 881 0
16 2 S116 774 278568 1655 0
16 2 S116 801 279369 2456 0
16 2 S116 800 280169 3256 0
16 2 S116 750 280919 4006 0
16 2 S116 726 281645 4732 0
16 2 S116 720 282365 5452 0
16 2 S116 741 283106 6193 0
16 2 S116 787 283893 6980 0
0 0 0 819 284712 -9177 0
0 0 0 783 285495 -8394 0
0 0 0 784 286279 -7610 0
0 0 0 807 287086 -6803 0
0 0 0 816 287902 -5987 0
0 0 0 781 288683 -5206 0
0 0 0 747 289430 -4459 0
0 0 0 759 290189 -3700 0
0 0 0 774 290963 -2926 0
0 0 0 802 291765 -2124 0
17 1 S106 759 292524 -1365 0
17 1 S106 723 293247 -642 0
17 2 S106 715 293962 73 0
17 2 S106 722 294684 795 0
17 2 S106 747 295431 1542 0
17 2 S106 799 296230 2341 0
17 2 S106 835 297065 3176 0
17 2 S106 798 297863 3974 0
17 2 S106 743 298606 4717 0
17 2 S106 741 299347 5458 0
17 2 S106 749 300096 6207 0
17 2 S106 786 300882 6993 0
0 0 0 805 301687 -10074 0
0 0 0 787 302474 -9287 0
0 0 0 742 303216 -8545 0
0 0 0 738 303954 -7807 0
0 0 0 733 304687 -7074 0
0 0 0 741 305428 -6333 0
0 0 0 760 306188 -5573 0
0 0 0 759 306947 -4814 0
0 0 0 715 307662 -4099 0
0 0 0 707 308369 -3392 0
0 0 0 711 309080 -2681 0
18 1 S102 757 309837 -1924 0
18 1 S102 813 310650 -1111 0
18 1 S102 836 311486 -275 0
18 2 S102 773 312259 498 0
18 2 S102 763 313022 1261 0
18 2 S102 761 313783 2022 0
18 2 S102 778 314561 2800 0
18 2 S102 775 315336 3575 0
18 2 S102 753 316089 4328 0
18 2 S102 705 316794 5033 0
18 2 S102 706 317500 5739 0
18 2 S102 702 318202 6441 0
0 0 0 709 318911 -6858 0
0 0 0 698 319609 -6160 0
0 0 0 671 320280 -5489 0
0 0 0 676 320956 -4813 0
0 0 0 682 321638 -4131 0
0 0 0 654 322292 -3477 0
0 0 0 655 322947 -2822 0
0 0 0 656 323603 -2166 0
19 1 S106 657 324260 -1509 0
19 1 S106 663 324923 -846 0
19 1 S106 673 325596 -173 0
19 2 S106 646 326242 473 0
19 2 S106 646 326888 1119 0
19 2 S106 652 327540 1771 0
19 2 S106 661 328201 2432 0
19 2 S106 688 328889 3120 0
19 2 S106 728 329617 3848 0
19 2 S106 769 330386 4617 0
19 2 S106 771 331157 5388 0
19 2 S106 732 331889 6120 0
19 2 S106 719 332608 6839 0
0 0 0 715 333323 -10666 0
0 0 0 728 334051 -9938 0
0 0 0 748 334799 -9190 0
0 0 0 739 335538 -8451 0
0 0 0 707 336245 -7744 0
0 0 0 708 336953 -7036 0
0 0 0 725 337678 -6311 0
0 0 0 755 338433 -5556 0
0 0 0 778 339211 -4778 0
0 0 0 752 339963 -4026 0
0 0 0 722 340685 -3304 0
0 0 0 720 341405 -2584 0
20 1 S112 728 342133 -1856 0
20 1 S112 768 342901 -1088 0
20 1 S112 811 343712 -277 0
20 2 S112 787 344499 510 0
20 2 S112 741 345240 1251 0
20 2 S112 741 345981 1992 0
20 2 S112 752 346733 2744 0
20 2 S112 772 347505 3516 0
20 2 S112 789 348294 4305 0
20 2 S112 740 349034 5045 0
20 2 S112 724 349758 5769 0
20 2 S112 741 350499 6510 0
0 0 0 765 351264 -8939 0
0 0 0 789 352053 -8150 0
0 0 0 799 352852 -7351 0
0 0 0 745 353597 -6606 0
0 0 0 732 354329 -5874 0
0 0 0 734 355063 -5140 0
0 0 0 740 355803 -4400 0
0 0 0 731 356534 -3669 0
0 0 0 711 357245 -2958 0
0 0 0 717 357962 -2241 0
21 1 S106 730 358692 -1511 0
21 1 S106 764 359456 -747 0
21 2 S106 793 360249 46 0
21 2 S106 756 361005 802 0
21 2 S106 743 361748 1545 0
21 2 S106 763 362511 2308 0
21 2 S106 794 363305 3102 0
21 2 S106 813 364118 3915 0
21 2 S106 810 364928 4725 0
21 2 S106 756 365684 5481 0
21 2 S106 743 366427 6224 0
21 2 S106 744 367171 6968 0
0 0 0 750 367921 -10634 0
0 0 0 769 368690 -9865 0
0 0 0 760 369450 -9105 0
0 0 0 745 370195 -8360 0
0 0 0 771 370966 -7589 0
0 0 0 785 371751 -6804 0
0 0 0 795 372546 -6009 0
0 0 0 739 373285 -5270 0
0 0 0 713 373998 -4557 0
0 0 0 709 374707 -3848 0
0 0 0 714 375421 -3134 0
0 0 0 727 376148 -2407 0
22 1 S116 739 376887 -1668 0
22 1 S116 729 377616 -939 0
22 1 S116 708 378324 -231 0
22 2 S116 709 379033 478 0
22 2 S116 725 379758 1203 0
22 2 S116 765 380523 1968 0
22 2 S116 801 381324 2769 0
22 2 S116 844 382168 3613 0
22 2 S116 820 382988 4433 0
22 2 S116 774 383762 5207 0
22 2 S116 766 384528 5973 0
22 2 S116 770 385298 6743 0
0 0 0 787 386085 -8816 0
0 0 0 804 386889 -8012 0
0 0 0 778 387667 -7234 0
0 0 0 729 388396 -6505 0
0 0 0 731 389127 -5774 0
0 0 0 740 389867 -5034 0
0 0 0 761 390628 -4273 0
0 0 0 778 391406 -3495 0
0 0 0 738 392144 -2757 0
0 0 0 702 392846 -2055 0
23 1 S112 698 393544 -1357 0
23 1 S112 704 394248 -653 0
23 2 S112 731 394979 78 0
23 2 S112 774 395753 852 0
23 2 S112 811 396564 1663 0
23 2 S112 783 397347 2446 0
23 2 S112 738 398085 3184 0
23 2 S112 738 398823 3922 0
23 2 S112 748 399571 4670 0
23 2 S112 762 400333 5432 0
23 2 S112 769 401102 6201 0
23 2 S112 734 401836 6935 0
0 0 0 716 402552 -9640 0
0 0 0 723 403275 -8917 0
0 0 0 747 404022 -8170 0
0 0 0 792 404814 -7378 0
0 0 0 796 405610 -6582 0
0 0 0 757 406367 -5825 0
0 0 0 768 407135 -5057 0
0 0 0 773 407908 -4284 0
0 0 0 776 408684 -3508 0
0 0 0 745 409429 -2763 0
0 0 0 720 410149 -2043 0
24 1 S106 718 410867 -1325 0
24 1 S106 724 411591 -601 0
24 2 S106 751 412342 150 0
24 2 S106 785 413127 935 0
24 2 S106 793 413920 1728 0
24 2 S106 750 414670 2478 0
24 2 S106 757 415427 3235 0
24 2 S106 775 416202 4010 0
24 2 S106 799 417001 4809 0
24 2 S106 823 417824 5632 0
24 2 S106 815 418639 6447 0
0 0 0 769 419408 -9280 0
0 0 0 743 420151 -8537 0
0 0 0 760 420911 -7777 0
0 0 0 774 421685 -7003 0
0 0 0 788 422473 -6215 0
0 0 0 769 423242 -5446 0
0 0 0 746 423988 -4700 0
0 0 0 752 424740 -3948 0
0 0 0 778 425518 -3170 0
0 0 0 813 426331 -2357 0
25 1 S102 837 427168 -1520 0
25 1 S102 821 427989 -699 0
25 2 S102 775 428764 76 0
25 2 S102 743 429507 819 0
25 2 S102 739 430246 1558 0
25 2 S102 746 430992 2304 0
25 2 S102 771 431763 3075 0
25 2 S102 807 432570 3882 0
25 2 S102 799 433369 4681 0
25 2 S102 763 434132 5444 0
25 2 S102 721 434853 6165 0
25 2 S102 712 435565 6877 0
0 0 0 717 436282 -6630 0
0 0 0 750 437032 -5880 0
0 0 0 788 437820 -5092 0
0 0 0 792 438612 -4300 0
0 0 0 757 439369 -3543 0
0 0 0 725 440094 -2818 0
0 0 0 725 440819 -2093 0
26 1 S116 735 441554 -1358 0
26 1 S116 745 442299 -613 0
26 2 S116 754 443053 141 0
26 2 S116 732 443785 873 0
26 2 S116 710 444495 1583 0
26 2 S116 704 445199 2287 0
26 2 S116 701 445900 2988 0
26 2 S116 725 446625 3713 0
26 2 S116 768 447393 4481 0
26 2 S116 793 448186 5274 0
26 2 S116 794 448980 6068 0
26 2 S116 739 449719 6807 0
0 0 0 722 450441 -7392 0
0 0 0 720 451161 -6672 0
0 0 0 746 451907 -5926 0
0 0 0 771 452678 -5155 0
0 0 0 748 453426 -4407 0
0 0 0 733 454159 -3674 0
0 0 0 736 454895 -2938 0
0 0 0 750 455645 -2188 0
27 1 S106 765 456410 -1423 0
27 1 S106 759 457169 -664 0
27 2 S106 721 457890 57 0
27 2 S106 699 458589 756 0
27 2 S106 697 459286 1453 0
27 2 S106 704 459990 2157 0
27 2 S106 739 460729 2896 0
27 2 S106 785 461514 3681 0
27 2 S106 781 462295 4462 0
27 2 S106 741 463036 5203 0
27 2 S106 741 463777 5944 0
27 2 S106 745 464522 6689 0
0 0 0 766 465288 -6421 0
0 0 0 791 466079 -5630 0
0 0 0 793 466872 -4837 0
0 0 0 721 467593 -4116 0
0 0 0 709 468302 -3407 0
0 0 0 698 469000 -2709 0
0 0 0 707 469707 -2002 0
28 1 S102 709 470416 -1293 0
28 1 S102 718 471134 -575 0
28 2 S102 705 471839 130 0
28 2 S102 704 472543 834 0
28 2 S102 727 473270 1561 0
28 2 S102 762 474032 2323 0
28 2 S102 790 474822 3113 0
28 2 S102 777 475599 3890 0
28 2 S102 744 476343 4634 0
28 2 S102 727 477070 5361 0
28 2 S102 724 477794 6085 0
28 2 S102 733 478527 6818 0
0 0 0 740 479267 -10479 0
0 0 0 758 480025 -9721 0
0 0 0 727 480752 -8994 0
0 0 0 695 481447 -8299 0
0 0 0 701 482148 -7598 0
0 0 0 712 482860 -6886 0
0 0 0 726 483586 -6160 0
0 0 0 757 484343 -5403 0
0 0 0 726 485069 -4677 0
0 0 0 704 485773 -3973 0
0 0 0 707 486480 -3266 0
0 0 0 708 487188 -2558 0
29 1 S112 723 487911 -1835 0
29 1 S112 750 488661 -1085 0
29 1 S112 738 489399 -347 0
29 2 S112 705 490104 358 0
29 2 S112 702 490806 1060 0
29 2 S112 710 491516 1770 0
29 2 S112 735 492251 2505 0
29 2 S112 755 493006 3260 0
29 2 S112 731 493737 3991 0
29 2 S112 701 494438 4692 0
29 2 S112 704 495142 5396 0
29 2 S112 717 495859 6113 0
29 2 S112 737 496596 6850 0
0 0 0 759 497355 -7179 0
0 0 0 733 498088 -6446 0
0 0 0 717 498805 -5729 0
0 0 0 728 499533 -5001 0
0 0 0 729 500262 -4272 0
0 0 0 736 500998 -3536 0
0 0 0 710 501708 -2826 0
0 0 0 696 502404 -2130 0
30 1 S112 706 503110 -1424 0
30 1 S112 723 503833 -701 0
30 2 S112 744 504577 43 0
30 2 S112 781 505358 824 0
30 2 S112 747 506105 1571 0
30 2 S112 715 506820 2286 0
30 2 S112 724 507544 3010 0
30 2 S112 737 508281 3747 0
30 2 S112 772 509053 4519 0
30 2 S112 793 509846 5312 0
30 2 S112 764 510610 6076 0
30 2 S112 741 511351 6817 0
0 0 0 748 512099 -9096 0
0 0 0 766 512865 -8330 0
0 0 0 783 513648 -7547 0
0 0 0 771 514419 -6776 0
0 0 0 717 515136 -6059 0
0 0 0 705 515841 -5354 0
0 0 0 702 516543 -4652 0
0 0 0 709 517252 -3943 0
0 0 0 736 517988 -3207 0
0 0 0 730 518718 -2477 0
31 1 S106 708 519426 -1769 0
31 1 S106 720 520146 -1049 0
31 1 S106 729 520875 -320 0
31 2 S106 745 521620 425 0
31 2 S106 752 522372 1177 0
31 2 S106 753 523125 1930 0
31 2 S106 732 523857 2662 0
31 2 S106 731 524588 3393 0
31 2 S106 745 525333 4138 0
31 2 S106 767 526100 4905 0
31 2 S106 792 526892 5697 0
31 2 S106 770 527662 6467 0
0 0 0 730 528392 -9680 0
0 0 0 717 529109 -8963 0
0 0 0 718 529827 -8245 0
0 0 0 742 530569 -7503 0
0 0 0 778 531347 -6725 0
0 0 0 806 532153 -5919 0
0 0 0 784 532937 -5135 0
0 0 0 733 533670 -4402 0
0 0 0 724 534394 -3678 0
0 0 0 724 535118 -2954 0
0 0 0 733 535851 -2221 0
32 1 S102 753 536604 -1468 0
32 1 S102 771 537375 -697 0
32 2 S102 753 538128 56 0
32 2 S102 717 538845 773 0
32 2 S102 704 539549 1477 0
32 2 S102 701 540250 2178 0
32 2 S102 715 540965 2893 0
32 2 S102 742 541707 3635 0
32 2 S102 776 542483 4411 0
32 2 S102 771 543254 5182 0
32 2 S102 741 543995 5923 0
32 2 S102 743 544738 6666 0
0 0 0 762 545500 -10842 0
0 0 0 778 546278 -10064 0
0 0 0 794 547072 -9270 0
0 0 0 742 547814 -8528 0
0 0 0 713 548527 -7815 0
0 0 0 710 549237 -7105 0
0 0 0 716 549953 -6389 0
0 0 0 737 550690 -5652 0
0 0 0 775 551465 -4877 0
0 0 0 749 552214 -4128 0
0 0 0 751 552965 -3377 0
0 0 0 756 553721 -2621 0
33 1 S112 776 554497 -1845 0
33 1 S112 787 555284 -1058 0
33 1 S112 756 556040 -302 0
33 2 S112 720 556760 418 0
33 2 S112 727 557487 1145 0
33 2 S112 745 558232 1890 0
33 2 S112 788 559020 2678 0
33 2 S112 827 559847 3505 0
33 2 S112 787 560634 4292 0
33 2 S112 775 561409 5067 0
33 2 S112 791 562200 5858 0
33 2 S112 811 563011 6669 0
0 0 0 829 563840 -10837 0
0 0 0 794 564634 -10043 0
0 0 0 753 565387 -9290 0
0 0 0 760 566147 -8530 0
0 0 0 753 566900 -7777 0
0 0 0 745 567645 -7032 0
0 0 0 716 568361 -6316 0
0 0 0 701 569062 -5615 0
0 0 0 685 569747 -4930 0
0 0 0 665 570412 -4265 0
0 0 0 662 571074 -3603 0
0 0 0 672 571746 -2931 0
0 0 0 704 572450 -2227 0
34 1 S106 685 573135 -1542 0
34 1 S106 669 573804 -873 0
34 1 S106 675 574479 -198 0
34 2 S106 692 575171 494 0
34 2 S106 722 575893 1216 0
34 2 S106 762 576655 1978 0
34 2 S106 769 577424 2747 0
34 2 S106 731 578155 3478 0
34 2 S106 708 578863 4186 0
34 2 S106 712 579575 4898 0
34 2 S106 724 580299 5622 0
34 2 S106 759 581058 6381 0
0 0 0 805 581863 -9658 0
0 0 0 849 582712 -8809 0
0 0 0 804 583516 -8005 0
0 0 0 749 584265 -7256 0
0 0 0 744 585009 -6512 0
0 0 0 750 585759 -5762 0
0 0 0 760 586519 -5002 0
0 0 0 783 587302 -4219 0
0 0 0 748 588050 -3471 0
0 0 0 716 588766 -2755 0
0 0 0 725 589491 -2030 0
35 1 S102 749 590240 -1281 0
35 1 S102 789 591029 -492 0
35 2 S102 832 591861 340 0
35 2 S102 835 592696 1175 0
35 2 S102 784 593480 1959 0
35 2 S102 751 594231 2710 0
35 2 S102 747 594978 3457 0
35 2 S102 753 595731 4210 0
35 2 S102 782 596513 4992 0
35 2 S102 798 597311 5790 0
35 2 S102 784 598095 6574 0
0 0 0 728 598823 -6773 0
0 0 0 711 599534 -6062 0
0 0 0 711 600245 -5351 0
0 0 0 721 600966 -4630 0
0 0 0 749 601715 -3881 0
0 0 0 768 602483 -3113 0
0 0 0 778 603261 -2335 0
36 1 S106 759 604020 -1576 0
36 1 S106 714 604734 -862 0
36 1 S106 714 605448 -148 0
36 2 S106 721 606169 573 0
36 2 S106 732 606901 1305 0
36 2 S106 742 607643 2047 0
36 2 S106 734 608377 2781 0
36 2 S106 716 609093 3497 0
36 2 S106 733 609826 4230 0
36 2 S106 752 610578 4982 0
36 2 S106 790 611368 5772 0
36 2 S106 818 612186 6590 0
0 0 0 774 612960 -8601 0
0 0 0 761 613721 -7840 0
0 0 0 772 614493 -7068 0
0 0 0 769 615262 -6299 0
0 0 0 761 616023 -5538 0
0 0 0 734 616757 -4804 0
0 0 0 712 617469 -4092 0
0 0 0 714 618183 -3378 0
0 0 0 735 618918 -2643 0
37 1 S116 764 619682 -1879 0
37 1 S116 793 620475 -1086 0
37 1 S116 789 621264 -297 0
37 2 S116 740 622004 443 0
37 2 S116 753 622757 1196 0
37 2 S116 766 623523 1962 0
37 2 S116 793 624316 2755 0
37 2 S116 812 625128 3567 0
37 2 S116 801 625929 4368 0
37 2 S116 756 626685 5124 0
37 2 S116 746 627431 5870 0
37 2 S116 749 628180 6619 0
0 0 0 762 628942 -11701 0
0 0 0 798 629740 -10903 0
0 0 0 798 630538 -10105 0
0 0 0 816 631354 -9289 0
0 0 0 851 632205 -8438 0
0 0 0 882 633087 -7556 0
0 0 0 870 633957 -6686 0
0 0 0 783 634740 -5903 0
0 0 0 749 635489 -5154 0
0 0 0 756 636245 -4398 0
0 0 0 767 637012 -3631 0
0 0 0 795 637807 -2836 0
0 0 0 824 638631 -2012 0
38 1 S102 797 639428 -1215 0
38 1 S102 755 640183 -460 0
38 2 S102 767 640950 307 0
38 2 S102 780 641730 1087 0
38 2 S102 805 642535 1892 0
38 2 S102 806 643341 2698 0
38 2 S102 767 644108 3465 0
38 2 S102 749 644857 4214 0
38 2 S102 763 645620 4977 0
38 2 S102 785 646405 5762 0
38 2 S102 794 647199 6556 0
0 0 0 765 647964 -8743 0
0 0 0 727 648691 -8016 0
0 0 0 730 649421 -7286 0
0 0 0 735 650156 -6551 0
0 0 0 749 650905 -5802 0
0 0 0 741 651646 -5061 0
0 0 0 726 652372 -4335 0
0 0 0 726 653098 -3609 0
0 0 0 739 653837 -2870 0
0 0 0 764 654601 -2106 0
39 1 S116 774 655375 -1332 0
39 1 S116 734 656109 -598 0
39 2 S116 712 656821 114 0
39 2 S116 710 657531 824 0
39 2 S116 717 658248 1541 0
39 2 S116 742 658990 2283 0
39 2 S116 769 659759 3052 0
39 2 S116 739 660498 3791 0
39 2 S116 752 661250 4543 0
39 2 S116 790 662040 5333 0
39 2 S116 828 662868 6161 0
39 2 S116 853 663721 7014 0
0 0 0 812 664533 -7062 0
0 0 0 766 665299 -6296 0
0 0 0 766 666065 -5530 0
0 0 0 780 666845 -4750 0
0 0 0 763 667608 -3987 0
0 0 0 732 668340 -3255 0
0 0 0 729 669069 -2526 0
40 1 S112 738 669807 -1788 0
40 1 S112 773 670580 -1015 0
40 1 S112 785 671365 -230 0
40 2 S112 746 672111 516 0
40 2 S112 746 672857 1262 0
40 2 S112 760 673617 2022 0
40 2 S112 764 674381 2786 0
40 2 S112 765 675146 3551 0
40 2 S112 722 675868 4273 0
40 2 S112 715 676583 4988 0
40 2 S112 720 677303 5708 0
40 2 S112 722 678025 6430 0
0 0 0 707 678732 -186863 0
0 0 0 680 679412 -186183 0
0 0 0 654 680066 -185529 0
0 0 0 654 680720 -184875 0
0 0 0 661 681381 -184214 0
0 0 0 684 682065 -183530 0
0 0 0 686 682751 -182844 0
0 0 0 678 683429 -182166 0
0 0 0 660 684089 -181506 0
0 0 0 658 684747 -180848 0
0 0 0 656 685403 -180192 0
0 0 0 656 686059 -179536 0
0 0 0 653 686712 -178883 0
0 0 0 645 687357 -178238 0
0 0 0 646 688003 -177592 0
0 0 0 654 688657 -176938 0
0 0 0 656 689313 -176282 0
0 0 0 639 689952 -175643 0
0 0 0 623 690575 -175020 1
0 0 0 625 691200 -174395 1
0 0 0 623 691823 -173772 1
0 0 0 625 692448 -173147 1
0 0 0 640 693088 -172507 0
0 0 0 638 693726 -171869 0
0 0 0 626 694352 -171243 1
0 0 0 632 694984 -170611 0
0 0 0 647 695631 -169964 0
0 0 0 666 696297 -169298 0
0 0 0 697 696994 -168601 0
0 0 0 697 697691 -167904 0
0 0 0 672 698363 -167232 0
0 0 0 677 699040 -166555 0
0 0 0 688 699728 -165867 0
0 0 0 689 700417 -165178 0
0 0 0 664 701081 -164514 0
0 0 0 660 701741 -163854 0
0 0 0 670 702411 -163184 0
0 0 0 694 703105 -162490 0
0 0 0 687 703792 -161803 0
0 0 0 664 704456 -161139 0
0 0 0 651 705107 -160488 0
0 0 0 647 705754 -159841 0
0 0 0 640 706394 -159201 0
0 0 0 633 707027 -158568 0
0 0 0 628 707655 -157940 0
0 0 0 612 708267 -157328 1
0 0 0 614 708881 -156714 1
0 0 0 631 709512 -156083 0
0 0 0 658 710170 -155425 0
0 0 0 652 710822 -154773 0
0 0 0 645 711467 -154128 0
0 0 0 644 712111 -153484 0
0 0 0 651 712762 -152833 0
0 0 0 644 713406 -152189 0
0 0 0 649 714055 -151540 0
0 0 0 656 714711 -150884 0
0 0 0 652 715363 -150232 0
0 0 0 652 716015 -149580 0
0 0 0 631 716646 -148949 0
0 0 0 620 717266 -148329 1
0 0 0 609 717875 -147720 1
0 0 0 597 718472 -147123 1
0 0 0 585 719057 -146538 1
0 0 0 587 719644 -145951 1
0 0 0 611 720255 -145340 1
0 0 0 654 720909 -144686 0
0 0 0 657 721566 -144029 0
0 0 0 682 722248 -143347 0
0 0 0 719 722967 -142628 0
0 0 0 736 723703 -141892 0
0 0 0 723 724426 -141169 0
0 0 0 667 725093 -140502 0
0 0 0 666 725759 -139836 0
0 0 0 676 726435 -139160 0
0 0 0 661 727096 -138499 0
0 0 0 637 727733 -137862 0
0 0 0 616 728349 -137246 1
0 0 0 604 728953 -136642 1
0 0 0 613 729566 -136029 1
0 0 0 599 730165 -135430 1
0 0 0 596 730761 -134834 1
0 0 0 586 731347 -134248 1
0 0 0 580 731927 -133668 1
0 0 0 589 732516 -133079 1
0 0 0 598 733114 -132481 1
0 0 0 595 733709 -131886 1
0 0 0 609 734318 -131277 1
0 0 0 629 734947 -130648 0
0 0 0 664 735611 -129984 0
0 0 0 710 736321 -129274 0
0 0 0 756 737077 -128518 0
0 0 0 787 737864 -127731 0
0 0 0 776 738640 -126955 0
0 0 0 739 739379 -126216 0
0 0 0 710 740089 -125506 0
0 0 0 659 740748 -124847 0
0 0 0 647 741395 -124200 0
0 0 0 659 742054 -123541 0
0 0 0 648 742702 -122893 0
0 0 0 651 743353 -122242 0
0 0 0 684 744037 -121558 0
0 0 0 771 744808 -120787 0
0 0 0 849 745657 -119938 0
0 0 0 893 746550 -119045 1
0 0 0 862 747412 -118183 0
0 0 0 781 748193 -117402 0
0 0 0 755 748948 -116647 0
0 0 0 749 749697 -115898 0
0 0 0 768 750465 -115130 0
0 0 0 822 751287 -114308 0
0 0 0 838 752125 -113470 0
0 0 0 812 752937 -112658 0
0 0 0 768 753705 -111890 0
0 0 0 768 754473 -111122 0
0 0 0 784 755257 -110338 0
0 0 0 795 756052 -109543 0
0 0 0 785 756837 -108758 0
0 0 0 752 757589 -108006 0
0 0 0 711 758300 -107295 0
0 0 0 704 759004 -106591 0
0 0 0 715 759719 -105876 0
0 0 0 752 760471 -105124 0
0 0 0 783 761254 -104341 0
0 0 0 783 762037 -103558 0
0 0 0 794 762831 -102764 0
0 0 0 749 763580 -102015 0
0 0 0 717 764297 -101298 0
0 0 0 727 765024 -100571 0
0 0 0 753 765777 -99818 0
0 0 0 785 766562 -99033 0
0 0 0 795 767357 -98238 0
0 0 0 789 768146 -97449 0
0 0 0 744 768890 -96705 0
0 0 0 740 769630 -95965 0
0 0 0 741 770371 -95224 0
0 0 0 739 771110 -94485 0
0 0 0 749 771859 -93736 0
0 0 0 715 772574 -93021 0
0 0 0 678 773252 -92343 0
0 0 0 663 773915 -91680 0
0 0 0 663 774578 -91017 0
0 0 0 666 775244 -90351 0
0 0 0 675 775919 -89676 0
0 0 0 703 776622 -88973 0
0 0 0 737 777359 -88236 0
0 0 0 715 778074 -87521 0
0 0 0 725 778799 -86796 0
0 0 0 735 779534 -86061 0
0 0 0 770 780304 -85291 0
0 0 0 779 781083 -84512 0
0 0 0 747 781830 -83765 0
0 0 0 742 782572 -83023 0
0 0 0 776 783348 -82247 0
0 0 0 806 784154 -81441 0
0 0 0 834 784988 -80607 0
0 0 0 790 785778 -79817 0
0 0 0 784 786562 -79033 0
0 0 0 798 787360 -78235 0
0 0 0 814 788174 -77421 0
0 0 0 827 789001 -76594 0
0 0 0 776 789777 -75818 0
0 0 0 775 790552 -75043 0
0 0 0 809 791361 -74234 0
0 0 0 838 792199 -73396 0
0 0 0 828 793027 -72568 0
0 0 0 786 793813 -71782 0
0 0 0 799 794612 -70983 0
0 0 0 804 795416 -70179 0
0 0 0 812 796228 -69367 0
0 0 0 783 797011 -68584 0
0 0 0 745 797756 -67839 0
0 0 0 740 798496 -67099 0
0 0 0 752 799248 -66347 0
0 0 0 779 800027 -65568 0
0 0 0 778 800805 -64790 0
0 0 0 778 801583 -64012 0
0 0 0 797 802380 -63215 0
0 0 0 816 803196 -62399 0
0 0 0 782 803978 -61617 0
0 0 0 749 804727 -60868 0
0 0 0 763 805490 -60105 0
0 0 0 776 806266 -59329 0
0 0 0 774 807040 -58555 0
0 0 0 764 807804 -57791 0
0 0 0 743 808547 -57048 0
0 0 0 761 809308 -56287 0
0 0 0 792 810100 -55495 0
0 0 0 797 810897 -54698 0
0 0 0 756 811653 -53942 0
0 0 0 746 812399 -53196 0
0 0 0 771 813170 -52425 0
0 0 0 821 813991 -51604 0
0 0 0 819 814810 -50785 0
0 0 0 796 815606 -49989 0
0 0 0 772 816378 -49217 0
0 0 0 768 817146 -48449 0
0 0 0 775 817921 -47674 0
0 0 0 801 818722 -46873 0
0 0 0 802 819524 -46071 0
0 0 0 805 820329 -45266 0
0 0 0 837 821166 -44429 0
0 0 0 858 822024 -43571 0
0 0 0 824 822848 -42747 0
0 0 0 769 823617 -41978 0
0 0 0 771 824388 -41207 0
0 0 0 780 825168 -40427 0
0 0 0 798 825966 -39629 0
0 0 0 785 826751 -38844 0
0 0 0 744 827495 -38100 0
0 0 0 744 828239 -37356 0
0 0 0 764 829003 -36592 0
0 0 0 795 829798 -35797 0
0 0 0 813 830611 -34984 0
0 0 0 785 831396 -34199 0
0 0 0 779 832175 -33420 0
0 0 0 786 832961 -32634 0
0 0 0 789 833750 -31845 0
0 0 0 775 834525 -31070 0
0 0 0 735 835260 -30335 0
0 0 0 718 835978 -29617 0
0 0 0 718 836696 -28899 0
0 0 0 739 837435 -28160 0
0 0 0 785 838220 -27375 0
0 0 0 826 839046 -26549 0
0 0 0 788 839834 -25761 0
0 0 0 750 840584 -25011 0
0 0 0 764 841348 -24247 0
0 0 0 776 842124 -23471 0
0 0 0 790 842914 -22681 0
0 0 0 777 843691 -21904 0
0 0 0 739 844430 -21165 0
0 0 0 715 845145 -20450 0
0 0 0 708 845853 -19742 0
0 0 0 724 846577 -19018 0
0 0 0 751 847328 -18267 0
0 0 0 784 848112 -17483 0
0 0 0 757 848869 -16726 0
0 0 0 736 849605 -15990 0
0 0 0 742 850347 -15248 0
0 0 0 748 851095 -14500 0
0 0 0 752 851847 -13748 0
0 0 0 720 852567 -13028 0
0 0 0 693 853260 -12335 0
0 0 0 688 853948 -11647 0
0 0 0 698 854646 -10949 0
0 0 0 720 855366 -10229 0
0 0 0 728 856094 -9501 0
0 0 0 709 856803 -8792 0
0 0 0 706 857509 -8086 0
0 0 0 723 858232 -7363 0
0 0 0 739 858971 -6624 0
0 0 0 753 859724 -5871 0
0 0 0 722 860446 -5149 0
0 0 0 716 861162 -4433 0
0 0 0 726 861888 -3707 0
0 0 0 715 862603 -2992 0
0 0 0 688 863291 -2304 0
41 1 S102 671 863962 -1633 0
41 1 S102 646 864608 -987 0
41 1 S102 632 865240 -355 0
41 2 S102 622 865862 267 1
41 2 S102 624 866486 891 1
41 2 S102 626 867112 1517 1
41 2 S102 658 867770 2175 0
41 2 S102 707 868477 2882 0
41 2 S102 692 869169 3574 0
41 2 S102 674 869843 4248 0
41 2 S102 692 870535 4940 0
41 2 S102 718 871253 5658 0
41 2 S102 751 872004 6409 0
0 0 0 763 872767 -6571 0
0 0 0 726 873493 -5845 0
0 0 0 712 874205 -5133 0
0 0 0 721 874926 -4412 0
0 0 0 711 875637 -3701 0
0 0 0 714 876351 -2987 0
0 0 0 729 877080 -2258 0
42 1 S112 738 877818 -1520 0
42 1 S112 731 878549 -789 0
42 1 S112 710 879259 -79 0
42 2 S112 682 879941 603 0
42 2 S112 662 880603 1265 0
42 2 S112 660 881263 1925 0
42 2 S112 668 881931 2593 0
42 2 S112 686 882617 3279 0
42 2 S112 736 883353 4015 0
42 2 S112 780 884133 4795 0
42 2 S112 730 884863 5525 0
42 2 S112 728 885591 6253 0
42 2 S112 770 886361 7023 0
0 0 0 798 887159 -7846 0
0 0 0 819 887978 -7027 0
0 0 0 736 888714 -6291 0
0 0 0 709 889423 -5582 0
0 0 0 720 890143 -4862 0
0 0 0 743 890886 -4119 0
0 0 0 773 891659 -3346 0
0 0 0 771 892430 -2575 0
43 1 S116 724 893154 -1851 0
43 1 S116 709 893863 -1142 0
43 1 S116 721 894584 -421 0
43 2 S116 760 895344 339 0
43 2 S116 787 896131 1126 0
43 2 S116 784 896915 1910 0
43 2 S116 737 897652 2647 0
43 2 S116 730 898382 3377 0
43 2 S116 745 899127 4122 0
43 2 S116 780 899907 4902 0
43 2 S116 853 900760 5755 0
43 2 S116 834 901594 6589 0
0 0 0 771 902365 -7063 0
0 0 0 763 903128 -6300 0
0 0 0 783 903911 -5517 0
0 0 0 799 904710 -4718 0
0 0 0 799 905509 -3919 0
0 0 0 758 906267 -3161 0
0 0 0 751 907018 -2410 0
44 1 S102 764 907782 -1646 0
44 1 S102 796 908578 -850 0
44 1 S102 807 909385 -43 0
44 2 S102 767 910152 724 0
44 2 S102 736 910888 1460 0
44 2 S102 739 911627 2199 0
44 2 S102 765 912392 2964 0
44 2 S102 808 913200 3772 0
44 2 S102 824 914024 4596 0
44 2 S102 767 914791 5363 0
44 2 S102 759 915550 6122 0
44 2 S102 776 916326 6898 0
0 0 0 809 917135 -8938 0
0 0 0 806 917941 -8132 0
0 0 0 760 918701 -7372 0
0 0 0 770 919471 -6602 0
0 0 0 783 920254 -5819 0
0 0 0 800 921054 -5019 0
0 0 0 748 921802 -4271 0
0 0 0 705 922507 -3566 0
0 0 0 697 923204 -2869 0
0 0 0 701 923905 -2168 0
45 1 S116 728 924633 -1440 0
45 1 S116 787 925420 -653 0
45 2 S116 838 926258 185 0
45 2 S116 786 927044 971 0
45 2 S116 774 927818 1745 0
45 2 S116 800 928618 2545 0
45 2 S116 836 929454 3381 0
45 2 S116 870 930324 4251 0
45 2 S116 882 931206 5133 0
45 2 S116 831 932037 5964 0
45 2 S116 794 932831 6758 0
0 0 0 810 933641 -10900 0
0 0 0 828 934469 -10072 0
0 0 0 872 935341 -9200 0
0 0 0 817 936158 -8383 0
0 0 0 761 936919 -7622 0
0 0 0 749 937668 -6873 0
0 0 0 757 938425 -6116 0
0 0 0 775 939200 -5341 0
0 0 0 779 939979 -4562 0
0 0 0 742 940721 -3820 0
0 0 0 734 941455 -3086 0
0 0 0 757 942212 -2329 0
46 1 S102 788 943000 -1541 0
46 1 S102 804 943804 -737 0
46 2 S102 777 944581 40 0
46 2 S102 767 945348 807 0
46 2 S102 782 946130 1589 0
46 2 S102 804 946934 2393 0
46 2 S102 816 947750 3209 0
46 2 S102 774 948524 3983 0
46 2 S102 744 949268 4727 0
46 2 S102 743 950011 5470 0
46 2 S102 760 950771 6230 0
46 2 S102 795 951566 7025 0
0 0 0 818 952384 -8769 0
0 0 0 790 953174 -7979 0
0 0 0 794 953968 -7185 0
0 0 0 810 954778 -6375 0
0 0 0 841 955619 -5534 0
0 0 0 848 956467 -4686 0
0 0 0 796 957263 -3890 0
0 0 0 738 958001 -3152 0
0 0 0 714 958715 -2438 0
47 1 S112 722 959437 -1716 0
47 1 S112 748 960185 -968 0
47 1 S112 801 960986 -167 0
47 2 S112 801 961787 634 0
47 2 S112 768 962555 1402 0
47 2 S112 796 963351 2198 0
47 2 S112 849 964200 3047 0
47 2 S112 876 965076 3923 0
47 2 S112 854 965930 4777 0
47 2 S112 793 966723 5570 0
47 2 S112 811 967534 6381 0
0 0 0 830 968364 -11423 0
0 0 0 843 969207 -10580 0
0 0 0 801 970008 -9779 0
0 0 0 778 970786 -9001 0
0 0 0 788 971574 -8213 0
0 0 0 791 972365 -7422 0
0 0 0 776 973141 -6646 0
0 0 0 739 973880 -5907 0
0 0 0 750 974630 -5157 0
0 0 0 766 975396 -4391 0
0 0 0 805 976201 -3586 0
0 0 0 811 977012 -2775 0
0 0 0 763 977775 -2012 0
48 1 S116 762 978537 -1250 0
48 1 S116 767 979304 -483 0
48 2 S116 781 980085 298 0
48 2 S116 770 980855 1068 0
48 2 S116 741 981596 1809 0
48 2 S116 729 982325 2538 0
48 2 S116 746 983071 3284 0
48 2 S116 775 983846 4059 0
48 2 S116 802 984648 4861 0
48 2 S116 776 985424 5637 0
48 2 S116 747 986171 6384 0
0 0 0 752 986923 -8050 0
0 0 0 761 987684 -7289 0
0 0 0 795 988479 -6494 0
0 0 0 783 989262 -5711 0
0 0 0 775 990037 -4936 0
0 0 0 783 990820 -4153 0
0 0 0 805 991625 -3348 0
0 0 0 783 992408 -2565 0
49 1 S112 731 993139 -1834 0
49 1 S112 722 993861 -1112 0
49 1 S112 740 994601 -372 0
49 2 S112 766 995367 394 0
49 2 S112 798 996165 1192 0
49 2 S112 761 996926 1953 0
49 2 S112 751 997677 2704 0
49 2 S112 781 998458 3485 0
49 2 S112 805 999263 4290 0
49 2 S112 757 1000020 5047 0
49 2 S112 752 1000772 5799 0
49 2 S112 796 1001568 6595 0
0 0 0 839 1002407 -10553 0
0 0 0 837 1003244 -9716 0
0 0 0 770 1004014 -8946 0
0 0 0 774 1004788 -8172 0
0 0 0 775 1005563 -7397 0
0 0 0 752 1006315 -6645 0
0 0 0 700 1007015 -5945 0
0 0 0 717 1007732 -5228 0
0 0 0 743 1008475 -4485 0
0 0 0 788 1009263 -3697 0
0 0 0 796 1010059 -2901 0
0 0 0 736 1010795 -2165 0
50 1 S106 747 1011542 -1418 0
50 1 S106 776 1012318 -642 0
50 2 S106 792 1013110 150 0
50 2 S106 780 1013890 930 0
50 2 S106 719 1014609 1649 0
50 2 S106 726 1015335 2375 0
50 2 S106 751 1016086 3126 0
50 2 S106 789 1016875 3915 0
50 2 S106 834 1017709 4749 0
50 2 S106 816 1018525 5565 0
50 2 S106 747 1019272 6312 0
0 0 0 742 1020014 -7469 0
0 0 0 746 1020760 -6723 0
0 0 0 783 1021543 -5940 0
0 0 0 842 1022385 -5098 0
0 0 0 805 1023190 -4293 0
0 0 0 760 1023950 -3533 0
0 0 0 762 1024712 -2771 0
51 1 S112 791 1025503 -1980 0
51 1 S112 823 1026326 -1157 0
51 1 S112 814 1027140 -343 0
51 2 S112 746 1027886 403 0
51 2 S112 717 1028603 1120 0
51 2 S112 723 1029326 1843 0
51 2 S112 747 1030073 2590 0
51 2 S112 763 1030836 3353 0
51 2 S112 790 1031626 4143 0
51 2 S112 775 1032401 4918 0
51 2 S112 757 1033158 5675 0
51 2 S112 801 1033959 6476 0
0 0 0 839 1034798 -7042 0
0 0 0 857 1035655 -6185 0
0 0 0 807 1036462 -5378 0
0 0 0 785 1037247 -4593 0
0 0 0 781 1038028 -3812 0
0 0 0 765 1038793 -3047 0
0 0 0 752 1039545 -2295 0
52 1 S116 719 1040264 -1576 0
52 1 S116 720 1040984 -856 0
52 1 S116 737 1041721 -119 0
52 2 S116 759 1042480 640 0
52 2 S116 782 1043262 1422 0
52 2 S116 780 1044042 2202 0
52 2 S116 739 1044781 2941 0
52 2 S116 765 1045546 3706 0
52 2 S116 786 1046332 4492 0
52 2 S116 808 1047140 5300 0
52 2 S116 781 1047921 6081 0
52 2 S116 759 1048680 6840 0
0 0 0 775 1049455 -9129 0
0 0 0 810 1050265 -8319 0
0 0 0 838 1051103 -7481 0
0 0 0 784 1051887 -6697 0
0 0 0 744 1052631 -5953 0
0 0 0 748 1053379 -5205 0
0 0 0 765 1054144 -4440 0
0 0 0 780 1054924 -3660 0
0 0 0 754 1055678 -2906 0
0 0 0 737 1056415 -2169 0
53 1 S106 761 1057176 -1408 0
53 1 S106 814 1057990 -594 0
53 2 S106 835 1058825 241 0
53 2 S106 797 1059622 1038 0
53 2 S106 754 1060376 1792 0
53 2 S106 757 1061133 2549 0
53 2 S106 775 1061908 3324 0
53 2 S106 786 1062694 4110 0
53 2 S106 778 1063472 4888 0
53 2 S106 746 1064218 5634 0
53 2 S106 765 1064983 6399 0
0 0 0 777 1065760 -6418 0
0 0 0 800 1066560 -5618 0
0 0 0 768 1067328 -4850 0
0 0 0 728 1068056 -4122 0
0 0 0 727 1068783 -3395 0
0 0 0 742 1069525 -2653 0
54 1 S102 766 1070291 -1887 0
54 1 S102 778 1071069 -1109 0
54 1 S102 732 1071801 -377 0
54 2 S102 743 1072544 366 0
54 2 S102 790 1073334 1156 0
54 2 S102 826 1074160 1982 0
54 2 S102 803 1074963 2785 0
54 2 S102 747 1075710 3532 0
54 2 S102 763 1076473 4295 0
54 2 S102 781 1077254 5076 0
54 2 S102 813 1078067 5889 0
54 2 S102 785 1078852 6674 0
0 0 0 749 1079601 -10432 0
0 0 0 760 1080361 -9672 0
0 0 0 792 1081153 -8880 0
0 0 0 808 1081961 -8072 0
0 0 0 757 1082718 -7315 0
0 0 0 730 1083448 -6585 0
0 0 0 761 1084209 -5824 0
0 0 0 792 1085001 -5032 0
0 0 0 816 1085817 -4216 0
0 0 0 765 1086582 -3451 0
0 0 0 758 1087340 -2693 0
55 1 S106 774 1088114 -1919 0
55 1 S106 800 1088914 -1119 0
55 1 S106 798 1089712 -321 0
55 2 S106 751 1090463 430 0
55 2 S106 723 1091186 1153 0
55 2 S106 743 1091929 1896 0
55 2 S106 770 1092699 2666 0
55 2 S106 829 1093528 3495 0
55 2 S106 868 1094396 4363 0
55 2 S106 841 1095237 5204 0
55 2 S106 779 1096016 5983 0
55 2 S106 784 1096800 6767 0
0 0 0 793 1097593 -6797 0
0 0 0 828 1098421 -5969 0
0 0 0 850 1099271 -5119 0
0 0 0 787 1100058 -4332 0
0 0 0 732 1100790 -3600 0
0 0 0 735 1101525 -2865 0
0 0 0 724 1102249 -2141 0
56 1 S116 696 1102945 -1445 0
56 1 S116 690 1103635 -755 0
56 1 S116 716 1104351 -39 0
56 2 S116 701 1105052 662 0
56 2 S116 685 1105737 1347 0
56 2 S116 705 1106442 2052 0
56 2 S116 733 1107175 2785 0
56 2 S116 768 1107943 3553 0
56 2 S116 801 1108744 4354 0
56 2 S116 786 1109530 5140 0
56 2 S116 737 1110267 5877 0
56 2 S116 726 1110993 6603 0
0 0 0 731 1111724 -7404 0
0 0 0 752 1112476 -6652 0
0 0 0 797 1113273 -5855 0
0 0 0 769 1114042 -5086 0
0 0 0 762 1114804 -4324 0
0 0 0 788 1115592 -3536 0
0 0 0 808 1116400 -2728 0
57 1 S106 795 1117195 -1933 0
57 1 S106 741 1117936 -1192 0
57 1 S106 738 1118674 -454 0
57 2 S106 759 1119433 305 0
57 2 S106 779 1120212 1084 0
57 2 S106 826 1121038 1910 0
57 2 S106 793 1121831 2703 0
57 2 S106 738 1122569 3441 0
57 2 S106 739 1123308 4180 0
57 2 S106 755 1124063 4935 0
57 2 S106 784 1124847 5719 0
57 2 S106 844 1125691 6563 0
0 0 0 861 1126552 -8790 0
0 0 0 797 1127349 -7993 0
0 0 0 762 1128111 -7231 0
0 0 0 756 1128867 -6475 0
0 0 0 758 1129625 -5717 0
0 0 0 775 1130400 -4942 0
0 0 0 746 1131146 -4196 0
0 0 0 731 1131877 -3465 0
0 0 0 763 1132640 -2702 0
58 1 S102 822 1133462 -1880 0
58 1 S102 874 1134336 -1006 0
58 1 S102 828 1135164 -178 0
58 2 S102 805 1135969 627 0
58 2 S102 800 1136769 1427 0
58 2 S102 811 1137580 2238 0
58 2 S102 824 1138404 3062 0
58 2 S102 782 1139186 3844 0
58 2 S102 766 1139952 4610 0
58 2 S102 803 1140755 5413 0
58 2 S102 830 1141585 6243 0
0 0 0 876 1142461 -6691 0
0 0 0 808 1143269 -5883 0
0 0 0 794 1144063 -5089 0
0 0 0 796 1144859 -4293 0
0 0 0 806 1145665 -3487 0
0 0 0 826 1146491 -2661 0
59 1 S112 778 1147269 -1883 0
59 1 S112 757 1148026 -1126 0
59 1 S112 772 1148798 -354 0
59 2 S112 800 1149598 446 0
59 2 S112 809 1150407 1255 0
59 2 S112 767 1151174 2022 0
59 2 S112 751 1151925 2773 0
59 2 S112 773 1152698 3546 0
59 2 S112 810 1153508 4356 0
59 2 S112 810 1154318 5166 0
59 2 S112 750 1155068 5916 0
59 2 S112 743 1155811 6659 0
0 0 0 770 1156581 -8353 0
0 0 0 803 1157384 -7550 0
0 0 0 797 1158181 -6753 0
0 0 0 731 1158912 -6022 0
0 0 0 723 1159635 -5299 0
0 0 0 733 1160368 -4566 0
0 0 0 747 1161115 -3819 0
0 0 0 758 1161873 -3061 0
0 0 0 729 1162602 -2332 0
60 1 S102 719 1163321 -1613 0
60 1 S102 735 1164056 -878 0
60 1 S102 758 1164814 -120 0
60 2 S102 787 1165601 667 0
60 2 S102 752 1166353 1419 0
60 2 S102 734 1167087 2153 0
60 2 S102 745 1167832 2898 0
60 2 S102 767 1168599 3665 0
60 2 S102 789 1169388 4454 0
60 2 S102 787 1170175 5241 0
60 2 S102 764 1170939 6005 0
60 2 S102 769 1171708 6774 0
0 0 0 794 1172502 -10138 0
0 0 0 826 1173328 -9312 0
0 0 0 800 1174128 -8512 0
0 0 0 747 1174875 -7765 0
0 0 0 739 1175614 -7026 0
0 0 0 744 1176358 -6282 0
0 0 0 765 1177123 -5517 0
0 0 0 788 1177911 -4729 0
0 0 0 756 1178667 -3973 0
0 0 0 785 1179452 -3188 0
0 0 0 796 1180248 -2392 0
61 1 S106 812 1181060 -1580 0
61 1 S106 766 1181826 -814 0
61 1 S106 740 1182566 -74 0
61 2 S106 733 1183299 659 0
61 2 S106 746 1184045 1405 0
61 2 S106 792 1184837 2197 0
61 2 S106 814 1185651 3011 0
61 2 S106 790 1186441 3801 0
61 2 S106 798 1187239 4599 0
61 2 S106 827 1188066 5426 0
61 2 S106 879 1188945 6305 0
0 0 0 855 1189800 -7180 0
0 0 0 777 1190577 -6403 0
0 0 0 754 1191331 -5649 0
0 0 0 747 1192078 -4902 0
0 0 0 746 1192824 -4156 0
0 0 0 750 1193574 -3406 0
0 0 0 719 1194293 -2687 0
62 1 S112 711 1195004 -1976 0
62 1 S112 747 1195751 -1229 0
62 1 S112 808 1196559 -421 0
62 2 S112 867 1197426 446 0
62 2 S112 815 1198241 1261 0
62 2 S112 757 1198998 2018 0
62 2 S112 772 1199770 2790 0
62 2 S112 799 1200569 3589 0
62 2 S112 799 1201368 4388 0
62 2 S112 745 1202113 5133 0
62 2 S112 744 1202857 5877 0
62 2 S112 774 1203631 6651 0
0 0 0 813 1204444 -11054 0
0 0 0 844 1205288 -10210 0
0 0 0 775 1206063 -9435 0
0 0 0 754 1206817 -8681 0
0 0 0 772 1207589 -7909 0
0 0 0 800 1208389 -7109 0
0 0 0 805 1209194 -6304 0
0 0 0 741 1209935 -5563 0
0 0 0 732 1210667 -4831 0
0 0 0 749 1211416 -4082 0
0 0 0 796 1212212 -3286 0
0 0 0 832 1213044 -2454 0
63 1 S102 779 1213823 -1675 0
63 1 S102 787 1214610 -888 0
63 1 S102 808 1215418 -80 0
63 2 S102 828 1216246 748 0
63 2 S102 771 1217017 1519 0
63 2 S102 729 1217746 2248 0
63 2 S102 743 1218489 2991 0
63 2 S102 758 1219247 3749 0
63 2 S102 801 1220048 4550 0
63 2 S102 802 1220850 5352 0
63 2 S102 740 1221590 6092 0
63 2 S102 750 1222340 6842 0
0 0 0 772 1223112 -7887 0
0 0 0 809 1223921 -7078 0
0 0 0 817 1224738 -6261 0
0 0 0 745 1225483 -5516 0
0 0 0 730 1226213 -4786 0
0 0 0 744 1226957 -4042 0
0 0 0 755 1227712 -3287 0
0 0 0 779 1228491 -2508 0
64 1 S112 753 1229244 -1755 0
64 1 S112 742 1229986 -1013 0
64 1 S112 782 1230768 -231 0
64 2 S112 806 1231574 575 0
64 2 S112 820 1232394 1395 0
64 2 S112 752 1233146 2147 0
64 2 S112 726 1233872 2873 0
64 2 S112 742 1234614 3615 0
64 2 S112 768 1235382 4383 0
64 2 S112 787 1236169 5170 0
64 2 S112 758 1236927 5928 0
64 2 S112 747 1237674 6675 0
0 0 0 793 1238467 -7171 0
0 0 0 818 1239285 -6353 0
0 0 0 835 1240120 -5518 0
0 0 0 751 1240871 -4767 0
0 0 0 742 1241613 -4025 0
0 0 0 761 1242374 -3264 0
0 0 0 774 1243148 -2490 0
65 1 S106 765 1243913 -1725 0
65 1 S106 723 1244636 -1002 0
65 1 S106 737 1245373 -265 0
65 2 S106 763 1246136 498 0
65 2 S106 802 1246938 1300 0
65 2 S106 838 1247776 2138 0
65 2 S106 764 1248540 2902 0
65 2 S106 740 1249280 3642 0
65 2 S106 754 1250034 4396 0
65 2 S106 770 1250804 5166 0
65 2 S106 830 1251634 5996 0
65 2 S106 882 1252516 6878 0
0 0 0 832 1253348 -6597 0
0 0 0 775 1254123 -5822 0
0 0 0 785 1254908 -5037 0
0 0 0 806 1255714 -4231 0
0 0 0 817 1256531 -3414 0
0 0 0 798 1257329 -2616 0
66 1 S116 740 1258069 -1876 0
66 1 S116 733 1258802 -1143 0
66 1 S116 754 1259556 -389 0
66 2 S116 810 1260366 421 0
66 2 S116 871 1261237 1292 0
66 2 S116 863 1262100 2155 0
66 2 S116 806 1262906 2961 0
66 2 S116 827 1263733 3788 0
66 2 S116 857 1264590 4645 0
66 2 S116 881 1265471 5526 0
66 2 S116 834 1266305 6360 0
0 0 0 790 1267095 -10970 0
0 0 0 789 1267884 -10181 0
0 0 0 820 1268704 -9361 0
0 0 0 827 1269531 -8534 0
0 0 0 782 1270313 -7752 0
0 0 0 769 1271082 -6983 0
0 0 0 804 1271886 -6179 0
0 0 0 849 1272735 -5330 0
0 0 0 849 1273584 -4481 0
0 0 0 795 1274379 -3686 0
0 0 0 739 1275118 -2947 0
0 0 0 755 1275873 -2192 0
67 1 S102 772 1276645 -1420 0
67 1 S102 809 1277454 -611 0
67 2 S102 799 1278253 188 0
67 2 S102 741 1278994 929 0
67 2 S102 751 1279745 1680 0
67 2 S102 772 1280517 2452 0
67 2 S102 811 1281328 3263 0
67 2 S102 839 1282167 4102 0
67 2 S102 798 1282965 4900 0
67 2 S102 757 1283722 5657 0
67 2 S102 761 1284483 6418 0
0 0 0 781 1285264 -6594 0
0 0 0 816 1286080 -5778 0
0 0 0 835 1286915 -4943 0
0 0 0 795 1287710 -4148 0
0 0 0 763 1288473 -3385 0
0 0 0 794 1289267 -2591 0
68 1 S106 843 1290110 -1748 0
68 1 S106 873 1290983 -875 0
68 1 S106 822 1291805 -53 0
68 2 S106 769 1292574 716 0
68 2 S106 763 1293337 1479 0
68 2 S106 778 1294115 2257 0
68 2 S106 805 1294920 3062 0
68 2 S106 847 1295767 3909 0
68 2 S106 816 1296583 4725 0
68 2 S106 763 1297346 5488 0
68 2 S106 773 1298119 6261 0
0 0 0 797 1298916 -11494 0
0 0 0 831 1299747 -10663 0
0 0 0 850 1300597 -9813 0
0 0 0 790 1301387 -9023 0
0 0 0 764 1302151 -8259 0
0 0 0 764 1302915 -7495 0
0 0 0 776 1303691 -6719 0
0 0 0 834 1304525 -5885 0
0 0 0 798 1305323 -5087 0
0 0 0 780 1306103 -4307 0
0 0 0 813 1306916 -3494 0
0 0 0 858 1307774 -2636 0
69 1 S102 873 1308647 -1763 0
69 1 S102 792 1309439 -971 0
69 1 S102 758 1310197 -213 0
69 2 S102 761 1310958 548 0
69 2 S102 767 1311725 1315 0
69 2 S102 764 1312489 2079 0
69 2 S102 734 1313223 2813 0
69 2 S102 699 1313922 3512 0
69 2 S102 717 1314639 4229 0
69 2 S102 742 1315381 4971 0
69 2 S102 774 1316155 5745 0
69 2 S102 801 1316956 6546 0
0 0 0 740 1317696 -8364 0
0 0 0 749 1318445 -7615 0
0 0 0 772 1319217 -6843 0
0 0 0 768 1319985 -6075 0
0 0 0 707 1320692 -5368 0
0 0 0 696 1321388 -4672 0
0 0 0 704 1322092 -3968 0
0 0 0 721 1322813 -3247 0
0 0 0 755 1323568 -2492 0
70 1 S112 788 1324356 -1704 0
70 1 S112 756 1325112 -948 0
70 1 S112 717 1325829 -231 0
70 2 S112 716 1326545 485 0
70 2 S112 729 1327274 1214 0
70 2 S112 749 1328023 1963 0
70 2 S112 784 1328807 2747 0
70 2 S112 770 1329577 3517 0
70 2 S112 753 1330330 4270 0
70 2 S112 772 1331102 5042 0
70 2 S112 803 1331905 5845 0
70 2 S112 799 1332704 6644 0
0 0 0 761 1333465 -10284 0
0 0 0 739 1334204 -9545 0
0 0 0 737 1334941 -8808 0
0 0 0 734 1335675 -8074 0
0 0 0 721 1336396 -7353 0
0 0 0 698 1337094 -6655 0
0 0 0 663 1337757 -5992 0
0 0 0 658 1338415 -5334 0
0 0 0 659 1339074 -4675 0
0 0 0 674 1339748 -4001 0
0 0 0 690 1340438 -3311 0
0 0 0 708 1341146 -2603 0
71 1 S116 683 1341829 -1920 0
71 1 S116 691 1342520 -1229 0
71 1 S116 697 1343217 -532 0
71 2 S116 708 1343925 176 0
71 2 S116 708 1344633 884 0
71 2 S116 677 1345310 1561 0
71 2 S116 676 1345986 2237 0
71 2 S116 698 1346684 2935 0
71 2 S116 739 1347423 3674 0
71 2 S116 786 1348209 4460 0
71 2 S116 800 1349009 5260 0
71 2 S116 757 1349766 6017 0
71 2 S116 782 1350548 6799 0
0 0 0 807 1351355 -8574 0
0 0 0 844 1352199 -7730 0
0 0 0 816 1353015 -6914 0
0 0 0 750 1353765 -6164 0
0 0 0 735 1354500 -5429 0
0 0 0 737 1355237 -4692 0
0 0 0 759 1355996 -3933 0
0 0 0 782 1356778 -3151 0
0 0 0 762 1357540 -2389 0
72 1 S102 738 1358278 -1651 0
72 1 S102 761 1359039 -890 0
72 1 S102 780 1359819 -110 0
72 2 S102 773 1360592 663 0
72 2 S102 738 1361330 1401 0
72 2 S102 717 1362047 2118 0
72 2 S102 730 1362777 2848 0
72 2 S102 761 1363538 3609 0
72 2 S102 800 1364338 4409 0
72 2 S102 752 1365090 5161 0
72 2 S102 749 1365839 5910 0
72 2 S102 766 1366605 6676 0
0 0 0 793 1367398 -6407 0
0 0 0 791 1368189 -5616 0
0 0 0 733 1368922 -4883 0
0 0 0 725 1369647 -4158 0
0 0 0 728 1370375 -3430 0
0 0 0 736 1371111 -2694 0
73 1 S116 733 1371844 -1961 0
73 1 S116 699 1372543 -1262 0
73 1 S116 692 1373235 -570 0
73 2 S116 713 1373948 143 0
73 2 S116 767 1374715 910 0
73 2 S116 861 1375576 1771 0
73 2 S116 829 1376405 2600 0
73 2 S116 808 1377213 3408 0
73 2 S116 866 1378079 4274 0
73 2 S116 887 1378966 5161 0
73 2 S116 846 1379812 6007 0
73 2 S116 775 1380587 6782 0
0 0 0 787 1381374 -8778 0
0 0 0 818 1382192 -7960 0
0 0 0 832 1383024 -7128 0
0 0 0 761 1383785 -6367 0
0 0 0 728 1384513 -5639 0
0 0 0 741 1385254 -4898 0
0 0 0 778 1386032 -4120 0
0 0 0 804 1386836 -3316 0
0 0 0 819 1387655 -2497 0
74 1 S106 791 1388446 -1706 0
74 1 S106 830 1389276 -876 0
74 1 S106 842 1390118 -34 0
74 2 S106 837 1390955 803 0
74 2 S106 774 1391729 1577 0
74 2 S106 741 1392470 2318 0
74 2 S106 745 1393215 3063 0
74 2 S106 798 1394013 3861 0
74 2 S106 855 1394868 4716 0
74 2 S106 886 1395754 5602 0
74 2 S106 825 1396579 6427 0
0 0 0 833 1397412 -6947 0
0 0 0 854 1398266 -6093 0
0 0 0 869 1399135 -5224 0
0 0 0 850 1399985 -4374 0
0 0 0 792 1400777 -3582 0
0 0 0 742 1401519 -2840 0
0 0 0 740 1402259 -2100 0
75 1 S112 763 1403022 -1337 0
75 1 S112 822 1403844 -515 0
75 2 S112 880 1404724 365 0
75 2 S112 846 1405570 1211 0
75 2 S112 805 1406375 2016 0
75 2 S112 823 1407198 2839 0
75 2 S112 855 1408053 3694 0
75 2 S112 870 1408923 4564 0
75 2 S112 782 1409705 5346 0
75 2 S112 762 1410467 6108 0
75 2 S112 787 1411254 6895 0
0 0 0 844 1412098 -6403 0
0 0 0 903 1413001 -5500 1
0 0 0 786 1413787 -4714 0
0 0 0 756 1414543 -3958 0
0 0 0 767 1415310 -3191 0
0 0 0 789 1416099 -2402 0
76 1 S116 816 1416915 -1586 0
76 1 S116 758 1417673 -828 0
76 1 S116 756 1418429 -72 0
76 2 S116 780 1419209 708 0
76 2 S116 821 1420030 1529 0
76 2 S116 844 1420874 2373 0
76 2 S116 816 1421690 3189 0
76 2 S116 775 1422465 3964 0
76 2 S116 785 1423250 4749 0
76 2 S116 801 1424051 5550 0
76 2 S116 828 1424879 6378 0
0 0 0 858 1425737 -7303 0
0 0 0 847 1426584 -6456 0
0 0 0 858 1427442 -5598 0
0 0 0 798 1428240 -4800 0
0 0 0 730 1428970 -4070 0
0 0 0 722 1429692 -3348 0
0 0 0 738 1430430 -2610 0
77 1 S106 792 1431222 -1818 0
77 1 S106 833 1432055 -985 0
77 1 S106 809 1432864 -176 0
77 2 S106 782 1433646 606 0
77 2 S106 800 1434446 1406 0
77 2 S106 827 1435273 2233 0
77 2 S106 833 1436106 3066 0
77 2 S106 788 1436894 3854 0
77 2 S106 754 1437648 4608 0
77 2 S106 760 1438408 5368 0
77 2 S106 783 1439191 6151 0
77 2 S106 831 1440022 6982 0
0 0 0 845 1440867 -8287 0
0 0 0 788 1441655 -7499 0
0 0 0 767 1442422 -6732 0
0 0 0 785 1443207 -5947 0
0 0 0 811 1444018 -5136 0
0 0 0 811 1444829 -4325 0
0 0 0 746 1445575 -3579 0
0 0 0 715 1446290 -2864 0
0 0 0 721 1447011 -2143 0
78 1 S112 746 1447757 -1397 0
78 1 S112 839 1448596 -558 0
78 2 S112 883 1449479 325 0
78 2 S112 845 1450324 1170 0
78 2 S112 798 1451122 1968 0
78 2 S112 822 1451944 2790 0
78 2 S112 830 1452774 3620 0
78 2 S112 838 1453612 4458 0
78 2 S112 786 1454398 5244 0
78 2 S112 720 1455118 5964 0
78 2 S112 697 1455815 6661 0
0 0 0 704 1456519 -10357 0
0 0 0 730 1457249 -9627 0
0 0 0 809 1458058 -8818 0
0 0 0 854 1458912 -7964 0
0 0 0 812 1459724 -7152 0
0 0 0 806 1460530 -6346 0
0 0 0 861 1461391 -5485 0
0 0 0 885 1462276 -4600 0
0 0 0 865 1463141 -3735 0
0 0 0 764 1463905 -2971 0
0 0 0 742 1464647 -2229 0
79 1 S102 745 1465392 -1484 0
79 1 S102 771 1466163 -713 0
79 2 S102 790 1466953 77 0
79 2 S102 827 1467780 904 0
79 2 S102 764 1468544 1668 0
79 2 S102 749 1469293 2417 0
79 2 S102 761 1470054 3178 0
79 2 S102 804 1470858 3982 0
79 2 S102 860 1471718 4842 0
79 2 S102 870 1472588 5712 0
79 2 S102 774 1473362 6486 0
0 0 0 769 1474131 -8694 0
0 0 0 778 1474909 -7916 0
0 0 0 788 1475697 -7128 0
0 0 0 801 1476498 -6327 0
0 0 0 773 1477271 -5554 0
0 0 0 718 1477989 -4836 0
0 0 0 713 1478702 -4123 0
0 0 0 722 1479424 -3401 0
0 0 0 749 1480173 -2652 0
80 1 S116 821 1480994 -1831 0
80 1 S116 821 1481815 -1010 0
80 1 S116 761 1482576 -249 0
80 2 S116 790 1483366 541 0
80 2 S116 854 1484220 1395 0
80 2 S116 922 1485142 2317 1
80 2 S116 921 1486063 3238 1
80 2 S116 812 1486875 4050 0
80 2 S116 821 1487696 4871 0
80 2 S116 851 1488547 5722 0
80 2 S116 878 1489425 6600 0
