P_0004
BeatCount Mean SD BeatCountNoOutliers MeanNoOutliers SDNoOutliers
1466 851,99863574352 100,018155339193 1434 844,048814504881 85,2780309491897

Trial TrialStatus Trialtype IBI AbsPosition RelPosition Outlier
0 0 0 740 1192 -19966 0
0 0 0 737 1929 -19229 0
0 0 0 722 2651 -18507 0
0 0 0 758 3409 -17749 0
0 0 0 799 4208 -16950 0
0 0 0 918 5126 -16032 0
0 0 0 892 6018 -15140 0
0 0 0 852 6870 -14288 0
0 0 0 810 7680 -13478 0
0 0 0 792 8472 -12686 0
0 0 0 826 9298 -11860 0
0 0 0 817 10115 -11043 0
0 0 0 880 10995 -10163 0
0 0 0 889 11884 -9274 0
0 0 0 926 12810 -8348 0
0 0 0 863 13673 -7485 0
0 0 0 869 14542 -6616 0
0 0 0 953 15495 -5663 0
0 0 0 938 16433 -4725 0
0 0 0 869 17302 -3856 0
0 0 0 889 18191 -2967 0
0 0 0 916 19107 -2051 0
1 1 S112 931 20038 -1120 0
1 1 S112 878 20916 -242 0
1 2 S112 904 21820 662 0
1 2 S112 1230 23050 1892 1
1 2 S112 1172 24222 3064 1
1 2 S112 974 25196 4038 0
1 2 S112 995 26191 5033 0
1 2 S112 984 27175 6017 0
1 2 S112 993 28168 7010 0
0 0 0 947 29115 -13230 0
0 0 0 985 30100 -12245 0
0 0 0 1001 31101 -11244 0
0 0 0 913 32014 -10331 0
0 0 0 964 32978 -9367 0
0 0 0 944 33922 -8423 0
0 0 0 872 34794 -7551 0
0 0 0 806 35600 -6745 0
0 0 0 809 36409 -5936 0
0 0 0 903 37312 -5033 0
0 0 0 1109 38421 -3924 0
0 0 0 971 39392 -2953 0
0 0 0 840 40232 -2113 0
2 1 S102 830 41062 -1283 0
2 1 S102 849 41911 -434 0
2 2 S102 883 42794 449 0
2 2 S102 862 43656 1311 0
2 2 S102 908 44564 2219 0
2 2 S102 963 45527 3182 0
2 2 S102 991 46518 4173 0
2 2 S102 902 47420 5075 0
2 2 S102 900 48320 5975 0
2 2 S102 926 49246 6901 0
0 0 0 913 50159 -8914 0
0 0 0 952 51111 -7962 0
0 0 0 978 52089 -6984 0
0 0 0 930 53019 -6054 0
0 0 0 860 53879 -5194 0
0 0 0 809 54688 -4385 0
0 0 0 829 55517 -3556 0
0 0 0 825 56342 -2731 0
3 1 S116 837 57179 -1894 0
3 1 S116 794 57973 -1100 0
3 1 S116 870 58843 -230 0
3 2 S116 893 59736 663 0
3 2 S116 952 60688 1615 0
3 2 S116 919 61607 2534 0
3 2 S116 835 62442 3369 0
3 2 S116 812 63254 4181 0
3 2 S116 873 64127 5054 0
3 2 S116 915 65042 5969 0
3 2 S116 869 65911 6838 0
0 0 0 860 66771 -11732 0
0 0 0 972 67743 -10760 0
0 0 0 1082 68825 -9678 0
0 0 0 1001 69826 -8677 0
0 0 0 844 70670 -7833 0
0 0 0 863 71533 -6970 0
0 0 0 827 72360 -6143 0
0 0 0 812 73172 -5331 0
0 0 0 793 73965 -4538 0
0 0 0 826 74791 -3712 0
0 0 0 862 75653 -2850 0
4 1 S106 858 76511 -1992 0
4 1 S106 849 77360 -1143 0
4 1 S106 915 78275 -228 0
4 2 S106 901 79176 673 0
4 2 S106 946 80122 1619 0
4 2 S106 876 80998 2495 0
4 2 S106 910 81908 3405 0
4 2 S106 908 82816 4313 0
4 2 S106 888 83704 5201 0
4 2 S106 863 84567 6064 0
4 2 S106 866 85433 6930 0
0 0 0 857 86290 -5890 0
0 0 0 916 87206 -4974 0
0 0 0 876 88082 -4098 0
0 0 0 889 88971 -3209 0
0 0 0 935 89906 -2274 0
5 1 S116 981 90887 -1293 0
5 1 S116 932 91819 -361 0
5 2 S116 887 92706 526 0
5 2 S116 925 93631 1451 0
5 2 S116 912 94543 2363 0
5 2 S116 903 95446 3266 0
5 2 S116 859 96305 4125 0
5 2 S116 922 97227 5047 0
5 2 S116 957 98184 6004 0
5 2 S116 911 99095 6915 0
0 0 0 863 99958 -7872 0
0 0 0 991 100949 -6881 0
0 0 0 913 101862 -5968 0
0 0 0 861 102723 -5107 0
0 0 0 818 103541 -4289 0
0 0 0 904 104445 -3385 0
0 0 0 874 105319 -2511 0
6 1 S106 847 106166 -1664 0
6 1 S106 817 106983 -847 0
6 2 S106 856 107839 9 0
6 2 S106 864 108703 873 0
6 2 S106 877 109580 1750 0
6 2 S106 852 110432 2602 0
6 2 S106 926 111358 3528 0
6 2 S106 911 112269 4439 0
6 2 S106 881 113150 5320 0
6 2 S106 843 113993 6163 0
0 0 0 874 114867 -11348 0
0 0 0 883 115750 -10465 0
0 0 0 877 116627 -9588 0
0 0 0 847 117474 -8741 0
0 0 0 816 118290 -7925 0
0 0 0 822 119112 -7103 0
0 0 0 771 119883 -6332 0
0 0 0 774 120657 -5558 0
0 0 0 786 121443 -4772 0
0 0 0 816 122259 -3956 0
0 0 0 784 123043 -3172 0
0 0 0 784 123827 -2388 0
7 1 S102 847 124674 -1541 0
7 1 S102 819 125493 -722 0
7 2 S102 824 126317 102 0
7 2 S102 793 127110 895 0
7 2 S102 839 127949 1734 0
7 2 S102 843 128792 2577 0
7 2 S102 841 129633 3418 0
7 2 S102 825 130458 4243 0
7 2 S102 779 131237 5022 0
7 2 S102 810 132047 5832 0
7 2 S102 831 132878 6663 0
0 0 0 851 133729 -8882 0
0 0 0 859 134588 -8023 0
0 0 0 901 135489 -7122 0
0 0 0 883 136372 -6239 0
0 0 0 865 137237 -5374 0
0 0 0 807 138044 -4567 0
0 0 0 804 138848 -3763 0
0 0 0 812 139660 -2951 0
0 0 0 818 140478 -2133 0
8 1 S112 830 141308 -1303 0
8 1 S112 856 142164 -447 0
8 2 S112 890 143054 443 0
8 2 S112 1095 144149 1538 0
8 2 S112 1077 145226 2615 0
8 2 S112 970 146196 3585 0
8 2 S112 977 147173 4562 0
8 2 S112 938 148111 5500 0
8 2 S112 881 148992 6381 0
0 0 0 926 149918 -8244 0
0 0 0 921 150839 -7323 0
0 0 0 982 151821 -6341 0
0 0 0 902 152723 -5439 0
0 0 0 944 153667 -4495 0
0 0 0 878 154545 -3617 0
0 0 0 815 155360 -2802 0
0 0 0 751 156111 -2051 0
9 1 S116 717 156828 -1334 0
9 1 S116 698 157526 -636 0
9 2 S116 695 158221 59 0
9 2 S116 738 158959 797 0
9 2 S116 1095 160054 1892 0
9 2 S116 1151 161205 3043 1
9 2 S116 1000 162205 4043 0
9 2 S116 871 163076 4914 0
9 2 S116 811 163887 5725 0
9 2 S116 797 164684 6522 0
0 0 0 808 165492 -9928 0
0 0 0 853 166345 -9075 0
0 0 0 812 167157 -8263 0
0 0 0 809 167966 -7454 0
0 0 0 809 168775 -6645 0
0 0 0 818 169593 -5827 0
0 0 0 824 170417 -5003 0
0 0 0 851 171268 -4152 0
0 0 0 859 172127 -3293 0
0 0 0 935 173062 -2358 0
10 1 S102 938 174000 -1420 0
10 1 S102 982 174982 -438 0
10 2 S102 992 175974 554 0
10 2 S102 1020 176994 1574 0
10 2 S102 916 177910 2490 0
10 2 S102 840 178750 3330 0
10 2 S102 896 179646 4226 0
10 2 S102 984 180630 5210 0
10 2 S102 1045 181675 6255 0
0 0 0 880 182555 -10488 0
0 0 0 790 183345 -9698 0
0 0 0 799 184144 -8899 0
0 0 0 858 185002 -8041 0
0 0 0 920 185922 -7121 0
0 0 0 879 186801 -6242 0
0 0 0 832 187633 -5410 0
0 0 0 846 188479 -4564 0
0 0 0 864 189343 -3700 0
0 0 0 858 190201 -2842 0
0 0 0 835 191036 -2007 0
11 1 S112 800 191836 -1207 0
11 1 S112 767 192603 -440 0
11 2 S112 773 193376 333 0
11 2 S112 880 194256 1213 0
11 2 S112 1281 195537 2494 1
11 2 S112 1193 196730 3687 1
11 2 S112 942 197672 4629 0
11 2 S112 920 198592 5549 0
11 2 S112 950 199542 6499 0
0 0 0 909 200451 -5805 0
0 0 0 898 201349 -4907 0
0 0 0 854 202203 -4053 0
0 0 0 916 203119 -3137 0
0 0 0 880 203999 -2257 0
12 1 S116 907 204906 -1350 0
12 1 S116 940 205846 -410 0
12 2 S116 920 206766 510 0
12 2 S116 913 207679 1423 0
12 2 S116 1032 208711 2455 0
12 2 S116 1010 209721 3465 0
12 2 S116 951 210672 4416 0
12 2 S116 918 211590 5334 0
12 2 S116 934 212524 6268 0
0 0 0 930 213454 -12083 0
0 0 0 898 214352 -11185 0
0 0 0 967 215319 -10218 0
0 0 0 981 216300 -9237 0
0 0 0 906 217206 -8331 0
0 0 0 806 218012 -7525 0
0 0 0 759 218771 -6766 0
0 0 0 729 219500 -6037 0
0 0 0 755 220255 -5282 0
0 0 0 821 221076 -4461 0
0 0 0 840 221916 -3621 0
0 0 0 850 222766 -2771 0
13 1 S112 811 223577 -1960 0
13 1 S112 789 224366 -1171 0
13 1 S112 835 225201 -336 0
13 2 S112 846 226047 510 0
13 2 S112 852 226899 1362 0
13 2 S112 847 227746 2209 0
13 2 S112 865 228611 3074 0
13 2 S112 864 229475 3938 0
13 2 S112 878 230353 4816 0
13 2 S112 874 231227 5690 0
13 2 S112 927 232154 6617 0
0 0 0 971 233125 -12654 0
0 0 0 1028 234153 -11626 0
0 0 0 874 235027 -10752 0
0 0 0 940 235967 -9812 0
0 0 0 950 236917 -8862 0
0 0 0 834 237751 -8028 0
0 0 0 778 238529 -7250 0
0 0 0 751 239280 -6499 0
0 0 0 778 240058 -5721 0
0 0 0 810 240868 -4911 0
0 0 0 872 241740 -4039 0
0 0 0 835 242575 -3204 0
0 0 0 803 243378 -2401 0
14 1 S106 833 244211 -1568 0
14 1 S106 843 245054 -725 0
14 2 S106 849 245903 124 0
14 2 S106 812 246715 936 0
14 2 S106 866 247581 1802 0
14 2 S106 857 248438 2659 0
14 2 S106 876 249314 3535 0
14 2 S106 848 250162 4383 0
14 2 S106 899 251061 5282 0
14 2 S106 888 251949 6170 0
14 2 S106 852 252801 7022 0
0 0 0 921 253722 -10989 0
0 0 0 991 254713 -9998 0
0 0 0 946 255659 -9052 0
0 0 0 840 256499 -8212 0
0 0 0 826 257325 -7386 0
0 0 0 826 258151 -6560 0
0 0 0 810 258961 -5750 0
0 0 0 798 259759 -4952 0
0 0 0 853 260612 -4099 0
0 0 0 858 261470 -3241 0
0 0 0 836 262306 -2405 0
15 1 S116 866 263172 -1539 0
15 1 S116 914 264086 -625 0
15 2 S116 920 265006 295 0
15 2 S116 889 265895 1184 0
15 2 S116 897 266792 2081 0
15 2 S116 924 267716 3005 0
15 2 S116 930 268646 3935 0
15 2 S116 858 269504 4793 0
15 2 S116 807 270311 5600 0
15 2 S116 852 271163 6452 0
0 0 0 892 272055 -9119 0
0 0 0 872 272927 -8247 0
0 0 0 890 273817 -7357 0
0 0 0 894 274711 -6463 0
0 0 0 837 275548 -5626 0
0 0 0 784 276332 -4842 0
0 0 0 756 277088 -4086 0
0 0 0 775 277863 -3311 0
0 0 0 796 278659 -2515 0
16 1 S116 828 279487 -1687 0
16 1 S116 808 280295 -879 0
16 1 S116 802 281097 -77 0
16 2 S116 833 281930 756 0
16 2 S116 936 282866 1692 0
16 2 S116 935 283801 2627 0
16 2 S116 868 284669 3495 0
16 2 S116 860 285529 4355 0
16 2 S116 883 286412 5238 0
16 2 S116 898 287310 6136 0
16 2 S116 877 288187 7013 0
0 0 0 958 289145 -8375 0
0 0 0 1033 290178 -7342 0
0 0 0 995 291173 -6347 0
0 0 0 833 292006 -5514 0
0 0 0 814 292820 -4700 0
0 0 0 831 293651 -3869 0
0 0 0 892 294543 -2977 0
0 0 0 881 295424 -2096 0
17 1 S106 943 296367 -1153 0
17 1 S106 961 297328 -192 0
17 2 S106 879 298207 687 0
17 2 S106 845 299052 1532 0
17 2 S106 859 299911 2391 0
17 2 S106 886 300797 3277 0
17 2 S106 856 301653 4133 0
17 2 S106 801 302454 4934 0
17 2 S106 765 303219 5699 0
17 2 S106 777 303996 6476 0
0 0 0 811 304807 -11960 0
0 0 0 916 305723 -11044 0
0 0 0 911 306634 -10133 0
0 0 0 840 307474 -9293 0
0 0 0 843 308317 -8450 0
0 0 0 817 309134 -7633 0
0 0 0 804 309938 -6829 0
0 0 0 778 310716 -6051 0
0 0 0 785 311501 -5266 0
0 0 0 801 312302 -4465 0
0 0 0 824 313126 -3641 0
0 0 0 784 313910 -2857 0
0 0 0 819 314729 -2038 0
18 1 S102 830 315559 -1208 0
18 1 S102 830 316389 -378 0
18 2 S102 828 317217 450 0
18 2 S102 875 318092 1325 0
18 2 S102 930 319022 2255 0
18 2 S102 918 319940 3173 0
18 2 S102 860 320800 4033 0
18 2 S102 901 321701 4934 0
18 2 S102 881 322582 5815 0
18 2 S102 857 323439 6672 0
0 0 0 816 324255 -7997 0
0 0 0 864 325119 -7133 0
0 0 0 891 326010 -6242 0
0 0 0 841 326851 -5401 0
0 0 0 795 327646 -4606 0
0 0 0 777 328423 -3829 0
0 0 0 822 329245 -3007 0
0 0 0 816 330061 -2191 0
19 1 S106 831 330892 -1360 0
19 1 S106 793 331685 -567 0
19 2 S106 782 332467 215 0
19 2 S106 801 333268 1016 0
19 2 S106 826 334094 1842 0
19 2 S106 806 334900 2648 0
19 2 S106 787 335687 3435 0
19 2 S106 798 336485 4233 0
19 2 S106 820 337305 5053 0
19 2 S106 807 338112 5860 0
19 2 S106 786 338898 6646 0
0 0 0 826 339724 -10814 0
0 0 0 879 340603 -9935 0
0 0 0 863 341466 -9072 0
0 0 0 808 342274 -8264 0
0 0 0 774 343048 -7490 0
0 0 0 780 343828 -6710 0
0 0 0 805 344633 -5905 0
0 0 0 786 345419 -5119 0
0 0 0 767 346186 -4352 0
0 0 0 784 346970 -3568 0
0 0 0 831 347801 -2737 0
20 1 S112 797 348598 -1940 0
20 1 S112 764 349362 -1176 0
20 1 S112 747 350109 -429 0
20 2 S112 718 350827 289 0
20 2 S112 741 351568 1030 0
20 2 S112 775 352343 1805 0
20 2 S112 992 353335 2797 0
20 2 S112 1106 354441 3903 0
20 2 S112 1011 355452 4914 0
20 2 S112 969 356421 5883 0
20 2 S112 909 357330 6792 0
0 0 0 877 358207 -10832 0
0 0 0 893 359100 -9939 0
0 0 0 902 360002 -9037 0
0 0 0 853 360855 -8184 0
0 0 0 884 361739 -7300 0
0 0 0 867 362606 -6433 0
0 0 0 850 363456 -5583 0
0 0 0 816 364272 -4767 0
0 0 0 815 365087 -3952 0
0 0 0 869 365956 -3083 0
0 0 0 948 366904 -2135 0
21 1 S106 1071 367975 -1064 0
21 1 S106 950 368925 -114 0
21 2 S106 978 369903 864 0
21 2 S106 1011 370914 1875 0
21 2 S106 994 371908 2869 0
21 2 S106 924 372832 3793 0
21 2 S106 830 373662 4623 0
21 2 S106 792 374454 5415 0
21 2 S106 826 375280 6241 0
0 0 0 914 376194 -11380 0
0 0 0 925 377119 -10455 0
0 0 0 1018 378137 -9437 0
0 0 0 866 379003 -8571 0
0 0 0 812 379815 -7759 0
0 0 0 829 380644 -6930 0
0 0 0 808 381452 -6122 0
0 0 0 773 382225 -5349 0
0 0 0 757 382982 -4592 0
0 0 0 758 383740 -3834 0
0 0 0 754 384494 -3080 0
0 0 0 740 385234 -2340 0
22 1 S116 714 385948 -1626 0
22 1 S116 710 386658 -916 0
22 1 S116 698 387356 -218 0
22 2 S116 690 388046 472 0
22 2 S116 689 388735 1161 0
22 2 S116 694 389429 1855 0
22 2 S116 681 390110 2536 0
22 2 S116 673 390783 3209 0
22 2 S116 668 391451 3877 0
22 2 S116 674 392125 4551 0
22 2 S116 687 392812 5238 0
22 2 S116 713 393525 5951 0
22 2 S116 743 394268 6694 0
0 0 0 765 395033 -10561 0
0 0 0 767 395800 -9794 0
0 0 0 762 396562 -9032 0
0 0 0 750 397312 -8282 0
0 0 0 776 398088 -7506 0
0 0 0 817 398905 -6689 0
0 0 0 798 399703 -5891 0
0 0 0 805 400508 -5086 0
0 0 0 791 401299 -4295 0
0 0 0 821 402120 -3474 0
0 0 0 866 402986 -2608 0
23 1 S112 874 403860 -1734 0
23 1 S112 831 404691 -903 0
23 1 S112 791 405482 -112 0
23 2 S112 759 406241 647 0
23 2 S112 792 407033 1439 0
23 2 S112 879 407912 2318 0
23 2 S112 918 408830 3236 0
23 2 S112 904 409734 4140 0
23 2 S112 853 410587 4993 0
23 2 S112 822 411409 5815 0
23 2 S112 844 412253 6659 0
0 0 0 848 413101 -10166 0
0 0 0 838 413939 -9328 0
0 0 0 867 414806 -8461 0
0 0 0 868 415674 -7593 0
0 0 0 895 416569 -6698 0
0 0 0 804 417373 -5894 0
0 0 0 810 418183 -5084 0
0 0 0 849 419032 -4235 0
0 0 0 877 419909 -3358 0
0 0 0 830 420739 -2528 0
24 1 S106 794 421533 -1734 0
24 1 S106 763 422296 -971 0
24 1 S106 763 423059 -208 0
24 2 S106 789 423848 581 0
24 2 S106 779 424627 1360 0
24 2 S106 764 425391 2124 0
24 2 S106 733 426124 2857 0
24 2 S106 742 426866 3599 0
24 2 S106 740 427606 4339 0
24 2 S106 729 428335 5068 0
24 2 S106 749 429084 5817 0
24 2 S106 781 429865 6598 0
0 0 0 805 430670 -9590 0
0 0 0 797 431467 -8793 0
0 0 0 883 432350 -7910 0
0 0 0 880 433230 -7030 0
0 0 0 846 434076 -6184 0
0 0 0 799 434875 -5385 0
0 0 0 778 435653 -4607 0
0 0 0 741 436394 -3866 0
0 0 0 731 437125 -3135 0
0 0 0 763 437888 -2372 0
25 1 S102 907 438795 -1465 0
25 1 S102 959 439754 -506 0
25 2 S102 935 440689 429 0
25 2 S102 904 441593 1333 0
25 2 S102 877 442470 2210 0
25 2 S102 887 443357 3097 0
25 2 S102 881 444238 3978 0
25 2 S102 850 445088 4828 0
25 2 S102 851 445939 5679 0
25 2 S102 921 446860 6600 0
0 0 0 949 447809 -6542 0
0 0 0 942 448751 -5600 0
0 0 0 914 449665 -4686 0
0 0 0 874 450539 -3812 0
0 0 0 832 451371 -2980 0
0 0 0 795 452166 -2185 0
26 1 S116 846 453012 -1339 0
26 1 S116 879 453891 -460 0
26 2 S116 979 454870 519 0
26 2 S116 924 455794 1443 0
26 2 S116 947 456741 2390 0
26 2 S116 933 457674 3323 0
26 2 S116 887 458561 4210 0
26 2 S116 858 459419 5068 0
26 2 S116 903 460322 5971 0
26 2 S116 885 461207 6856 0
0 0 0 940 462147 -6296 0
0 0 0 904 463051 -5392 0
0 0 0 931 463982 -4461 0
0 0 0 865 464847 -3596 0
0 0 0 793 465640 -2803 0
0 0 0 754 466394 -2049 0
27 1 S106 728 467122 -1321 0
27 1 S106 735 467857 -586 0
27 2 S106 800 468657 214 0
27 2 S106 874 469531 1088 0
27 2 S106 835 470366 1923 0
27 2 S106 837 471203 2760 0
27 2 S106 819 472022 3579 0
27 2 S106 770 472792 4349 0
27 2 S106 744 473536 5093 0
27 2 S106 714 474250 5807 0
27 2 S106 724 474974 6531 0
0 0 0 730 475704 -6997 0
0 0 0 745 476449 -6252 0
0 0 0 805 477254 -5447 0
0 0 0 845 478099 -4602 0
0 0 0 816 478915 -3786 0
0 0 0 783 479698 -3003 0
0 0 0 762 480460 -2241 0
28 1 S102 749 481209 -1492 0
28 1 S102 769 481978 -723 0
28 2 S102 827 482805 104 0
28 2 S102 854 483659 958 0
28 2 S102 910 484569 1868 0
28 2 S102 847 485416 2715 0
28 2 S102 919 486335 3634 0
28 2 S102 892 487227 4526 0
28 2 S102 880 488107 5406 0
28 2 S102 811 488918 6217 0
28 2 S102 788 489706 7005 0
0 0 0 788 490494 -10492 0
0 0 0 911 491405 -9581 0
0 0 0 904 492309 -8677 0
0 0 0 882 493191 -7795 0
0 0 0 851 494042 -6944 0
0 0 0 835 494877 -6109 0
0 0 0 869 495746 -5240 0
0 0 0 884 496630 -4356 0
0 0 0 883 497513 -3473 0
0 0 0 876 498389 -2597 0
29 1 S112 878 499267 -1719 0
29 1 S112 920 500187 -799 0
29 2 S112 911 501098 112 0
29 2 S112 897 501995 1009 0
29 2 S112 991 502986 2000 0
29 2 S112 1032 504018 3032 0
29 2 S112 1004 505022 4036 0
29 2 S112 933 505955 4969 0
29 2 S112 1065 507020 6034 0
0 0 0 1111 508131 -8273 1
0 0 0 1030 509161 -7243 0
0 0 0 828 509989 -6415 0
0 0 0 773 510762 -5642 0
0 0 0 741 511503 -4901 0
0 0 0 721 512224 -4180 0
0 0 0 752 512976 -3428 0
0 0 0 805 513781 -2623 0
30 1 S112 1035 514816 -1588 0
30 1 S112 966 515782 -622 0
30 2 S112 915 516697 293 0
30 2 S112 901 517598 1194 0
30 2 S112 902 518500 2096 0
30 2 S112 876 519376 2972 0
30 2 S112 861 520237 3833 0
30 2 S112 821 521058 4654 0
30 2 S112 823 521881 5477 0
30 2 S112 848 522729 6325 0
0 0 0 879 523608 -189449 0
0 0 0 944 524552 -188505 0
0 0 0 934 525486 -187571 0
0 0 0 990 526476 -186581 0
0 0 0 935 527411 -185646 0
0 0 0 846 528257 -184800 0
0 0 0 792 529049 -184008 0
0 0 0 808 529857 -183200 0
0 0 0 1026 530883 -182174 0
0 0 0 1208 532091 -180966 1
0 0 0 1079 533170 -179887 0
0 0 0 905 534075 -178982 0
0 0 0 912 534987 -178070 0
0 0 0 929 535916 -177141 0
0 0 0 867 536783 -176274 0
0 0 0 887 537670 -175387 0
0 0 0 894 538564 -174493 0
0 0 0 859 539423 -173634 0
0 0 0 845 540268 -172789 0
0 0 0 803 541071 -171986 0
0 0 0 788 541859 -171198 0
0 0 0 764 542623 -170434 0
0 0 0 754 543377 -169680 0
0 0 0 774 544151 -168906 0
0 0 0 779 544930 -168127 0
0 0 0 776 545706 -167351 0
0 0 0 750 546456 -166601 0
0 0 0 736 547192 -165865 0
0 0 0 714 547906 -165151 0
0 0 0 702 548608 -164449 0
0 0 0 674 549282 -163775 0
0 0 0 668 549950 -163107 0
0 0 0 654 550604 -162453 0
0 0 0 633 551237 -161820 0
0 0 0 626 551863 -161194 0
0 0 0 627 552490 -160567 0
0 0 0 625 553115 -159942 0
0 0 0 647 553762 -159295 0
0 0 0 678 554440 -158617 0
0 0 0 651 555091 -157966 0
0 0 0 660 555751 -157306 0
0 0 0 700 556451 -156606 0
0 0 0 760 557211 -155846 0
0 0 0 854 558065 -154992 0
0 0 0 772 558837 -154220 0
0 0 0 815 559652 -153405 0
0 0 0 912 560564 -152493 0
0 0 0 953 561517 -151540 0
0 0 0 886 562403 -150654 0
0 0 0 799 563202 -149855 0
0 0 0 803 564005 -149052 0
0 0 0 785 564790 -148267 0
0 0 0 781 565571 -147486 0
0 0 0 767 566338 -146719 0
0 0 0 772 567110 -145947 0
0 0 0 815 567925 -145132 0
0 0 0 878 568803 -144254 0
0 0 0 871 569674 -143383 0
0 0 0 920 570594 -142463 0
0 0 0 893 571487 -141570 0
0 0 0 915 572402 -140655 0
0 0 0 889 573291 -139766 0
0 0 0 871 574162 -138895 0
0 0 0 916 575078 -137979 0
0 0 0 896 575974 -137083 0
0 0 0 821 576795 -136262 0
0 0 0 772 577567 -135490 0
0 0 0 767 578334 -134723 0
0 0 0 778 579112 -133945 0
0 0 0 781 579893 -133164 0
0 0 0 793 580686 -132371 0
0 0 0 738 581424 -131633 0
0 0 0 721 582145 -130912 0
0 0 0 711 582856 -130201 0
0 0 0 699 583555 -129502 0
0 0 0 690 584245 -128812 0
0 0 0 738 584983 -128074 0
0 0 0 842 585825 -127232 0
0 0 0 876 586701 -126356 0
0 0 0 973 587674 -125383 0
0 0 0 1021 588695 -124362 0
0 0 0 923 589618 -123439 0
0 0 0 818 590436 -122621 0
0 0 0 800 591236 -121821 0
0 0 0 823 592059 -120998 0
0 0 0 892 592951 -120106 0
0 0 0 1096 594047 -119010 0
0 0 0 1080 595127 -117930 0
0 0 0 919 596046 -117011 0
0 0 0 917 596963 -116094 0
0 0 0 943 597906 -115151 0
0 0 0 897 598803 -114254 0
0 0 0 935 599738 -113319 0
0 0 0 976 600714 -112343 0
0 0 0 865 601579 -111478 0
0 0 0 821 602400 -110657 0
0 0 0 904 603304 -109753 0
0 0 0 1019 604323 -108734 0
0 0 0 1008 605331 -107726 0
0 0 0 944 606275 -106782 0
0 0 0 1103 607378 -105679 0
0 0 0 941 608319 -104738 0
0 0 0 851 609170 -103887 0
0 0 0 924 610094 -102963 0
0 0 0 1364 611458 -101599 1
0 0 0 1363 612821 -100236 1
0 0 0 1154 613975 -99082 1
0 0 0 917 614892 -98165 0
0 0 0 838 615730 -97327 0
0 0 0 791 616521 -96536 0
0 0 0 838 617359 -95698 0
0 0 0 945 618304 -94753 0
0 0 0 1186 619490 -93567 1
0 0 0 901 620391 -92666 0
0 0 0 888 621279 -91778 0
0 0 0 872 622151 -90906 0
0 0 0 836 622987 -90070 0
0 0 0 776 623763 -89294 0
0 0 0 739 624502 -88555 0
0 0 0 704 625206 -87851 0
0 0 0 715 625921 -87136 0
0 0 0 737 626658 -86399 0
0 0 0 844 627502 -85555 0
0 0 0 929 628431 -84626 0
0 0 0 1152 629583 -83474 1
0 0 0 1022 630605 -82452 0
0 0 0 928 631533 -81524 0
0 0 0 1027 632560 -80497 0
0 0 0 1068 633628 -79429 0
0 0 0 1017 634645 -78412 0
0 0 0 942 635587 -77470 0
0 0 0 853 636440 -76617 0
0 0 0 837 637277 -75780 0
0 0 0 798 638075 -74982 0
0 0 0 828 638903 -74154 0
0 0 0 959 639862 -73195 0
0 0 0 1329 641191 -71866 1
0 0 0 1297 642488 -70569 1
0 0 0 1125 643613 -69444 1
0 0 0 1080 644693 -68364 0
0 0 0 931 645624 -67433 0
0 0 0 887 646511 -66546 0
0 0 0 899 647410 -65647 0
0 0 0 899 648309 -64748 0
0 0 0 838 649147 -63910 0
0 0 0 794 649941 -63116 0
0 0 0 783 650724 -62333 0
0 0 0 778 651502 -61555 0
0 0 0 762 652264 -60793 0
0 0 0 747 653011 -60046 0
0 0 0 743 653754 -59303 0
0 0 0 762 654516 -58541 0
0 0 0 803 655319 -57738 0
0 0 0 785 656104 -56953 0
0 0 0 774 656878 -56179 0
0 0 0 760 657638 -55419 0
0 0 0 770 658408 -54649 0
0 0 0 785 659193 -53864 0
0 0 0 789 659982 -53075 0
0 0 0 807 660789 -52268 0
0 0 0 816 661605 -51452 0
0 0 0 830 662435 -50622 0
0 0 0 819 663254 -49803 0
0 0 0 814 664068 -48989 0
0 0 0 825 664893 -48164 0
0 0 0 880 665773 -47284 0
0 0 0 800 666573 -46484 0
0 0 0 749 667322 -45735 0
0 0 0 745 668067 -44990 0
0 0 0 780 668847 -44210 0
0 0 0 874 669721 -43336 0
0 0 0 925 670646 -42411 0
0 0 0 946 671592 -41465 0
0 0 0 900 672492 -40565 0
0 0 0 820 673312 -39745 0
0 0 0 866 674178 -38879 0
0 0 0 878 675056 -38001 0
0 0 0 965 676021 -37036 0
0 0 0 940 676961 -36096 0
0 0 0 956 677917 -35140 0
0 0 0 878 678795 -34262 0
0 0 0 842 679637 -33420 0
0 0 0 887 680524 -32533 0
0 0 0 1019 681543 -31514 0
0 0 0 1136 682679 -30378 1
0 0 0 959 683638 -29419 0
0 0 0 935 684573 -28484 0
0 0 0 951 685524 -27533 0
0 0 0 919 686443 -26614 0
0 0 0 846 687289 -25768 0
0 0 0 846 688135 -24922 0
0 0 0 863 688998 -24059 0
0 0 0 884 689882 -23175 0
0 0 0 820 690702 -22355 0
0 0 0 814 691516 -21541 0
0 0 0 786 692302 -20755 0
0 0 0 760 693062 -19995 0
0 0 0 811 693873 -19184 0
0 0 0 801 694674 -18383 0
0 0 0 788 695462 -17595 0
0 0 0 760 696222 -16835 0
0 0 0 790 697012 -16045 0
0 0 0 802 697814 -15243 0
0 0 0 830 698644 -14413 0
0 0 0 783 699427 -13630 0
0 0 0 759 700186 -12871 0
0 0 0 752 700938 -12119 0
0 0 0 759 701697 -11360 0
0 0 0 766 702463 -10594 0
0 0 0 769 703232 -9825 0
0 0 0 762 703994 -9063 0
0 0 0 807 704801 -8256 0
0 0 0 836 705637 -7420 0
0 0 0 864 706501 -6556 0
0 0 0 862 707363 -5694 0
0 0 0 786 708149 -4908 0
0 0 0 761 708910 -4147 0
0 0 0 818 709728 -3329 0
0 0 0 870 710598 -2459 0
31 1 S106 879 711477 -1580 0
31 1 S106 823 712300 -757 0
31 2 S106 827 713127 70 0
31 2 S106 855 713982 925 0
31 2 S106 928 714910 1853 0
31 2 S106 842 715752 2695 0
31 2 S106 828 716580 3523 0
31 2 S106 868 717448 4391 0
31 2 S106 897 718345 5288 0
31 2 S106 894 719239 6182 0
31 2 S106 838 720077 7020 0
0 0 0 848 720925 -8744 0
0 0 0 870 721795 -7874 0
0 0 0 844 722639 -7030 0
0 0 0 808 723447 -6222 0
0 0 0 811 724258 -5411 0
0 0 0 840 725098 -4571 0
0 0 0 860 725958 -3711 0
0 0 0 883 726841 -2828 0
32 1 S102 917 727758 -1911 0
32 1 S102 921 728679 -990 0
32 1 S102 868 729547 -122 0
32 2 S102 831 730378 709 0
32 2 S102 891 731269 1600 0
32 2 S102 957 732226 2557 0
32 2 S102 866 733092 3423 0
32 2 S102 808 733900 4231 0
32 2 S102 775 734675 5006 0
32 2 S102 801 735476 5807 0
32 2 S102 859 736335 6666 0
0 0 0 867 737202 -10587 0
0 0 0 839 738041 -9748 0
0 0 0 825 738866 -8923 0
0 0 0 820 739686 -8103 0
0 0 0 855 740541 -7248 0
0 0 0 816 741357 -6432 0
0 0 0 815 742172 -5617 0
0 0 0 817 742989 -4800 0
0 0 0 799 743788 -4001 0
0 0 0 762 744550 -3239 0
0 0 0 729 745279 -2510 0
33 1 S112 699 745978 -1811 0
33 1 S112 692 746670 -1119 0
33 1 S112 763 747433 -356 0
33 2 S112 1315 748748 959 1
33 2 S112 1253 750001 2212 1
33 2 S112 1230 751231 3442 1
33 2 S112 1216 752447 4658 1
33 2 S112 1114 753561 5772 1
33 2 S112 1005 754566 6777 0
0 0 0 997 755563 -11639 0
0 0 0 993 756556 -10646 0
0 0 0 969 757525 -9677 0
0 0 0 896 758421 -8781 0
0 0 0 842 759263 -7939 0
0 0 0 838 760101 -7101 0
0 0 0 826 760927 -6275 0
0 0 0 839 761766 -5436 0
0 0 0 869 762635 -4567 0
0 0 0 905 763540 -3662 0
0 0 0 921 764461 -2741 0
34 1 S106 866 765327 -1875 0
34 1 S106 881 766208 -994 0
34 1 S106 869 767077 -125 0
34 2 S106 878 767955 753 0
34 2 S106 849 768804 1602 0
34 2 S106 802 769606 2404 0
34 2 S106 842 770448 3246 0
34 2 S106 870 771318 4116 0
34 2 S106 917 772235 5033 0
34 2 S106 890 773125 5923 0
34 2 S106 834 773959 6757 0
0 0 0 876 774835 -8382 0
0 0 0 874 775709 -7508 0
0 0 0 845 776554 -6663 0
0 0 0 799 777353 -5864 0
0 0 0 765 778118 -5099 0
0 0 0 754 778872 -4345 0
0 0 0 794 779666 -3551 0
0 0 0 823 780489 -2728 0
35 1 S102 817 781306 -1911 0
35 1 S102 747 782053 -1164 0
35 1 S102 727 782780 -437 0
35 2 S102 704 783484 267 0
35 2 S102 700 784184 967 0
35 2 S102 683 784867 1650 0
35 2 S102 674 785541 2324 0
35 2 S102 673 786214 2997 0
35 2 S102 667 786881 3664 0
35 2 S102 663 787544 4327 0
35 2 S102 651 788195 4978 0
35 2 S102 648 788843 5626 0
35 2 S102 638 789481 6264 0
35 2 S102 637 790118 6901 0
0 0 0 638 790756 -6967 0
0 0 0 644 791400 -6323 0
0 0 0 664 792064 -5659 0
0 0 0 706 792770 -4953 0
0 0 0 750 793520 -4203 0
0 0 0 798 794318 -3405 0
0 0 0 868 795186 -2537 0
36 1 S106 970 796156 -1567 0
36 1 S106 916 797072 -651 0
36 2 S106 879 797951 228 0
36 2 S106 1131 799082 1359 1
36 2 S106 1169 800251 2528 1
36 2 S106 1051 801302 3579 0
36 2 S106 859 802161 4438 0
36 2 S106 849 803010 5287 0
36 2 S106 835 803845 6122 0
36 2 S106 799 804644 6921 0
0 0 0 777 805421 -9179 0
0 0 0 852 806273 -8327 0
0 0 0 910 807183 -7417 0
0 0 0 929 808112 -6488 0
0 0 0 802 808914 -5686 0
0 0 0 760 809674 -4926 0
0 0 0 726 810400 -4200 0
0 0 0 727 811127 -3473 0
0 0 0 770 811897 -2703 0
37 1 S116 832 812729 -1871 0
37 1 S116 843 813572 -1028 0
37 1 S116 801 814373 -227 0
37 2 S116 788 815161 561 0
37 2 S116 883 816044 1444 0
37 2 S116 1229 817273 2673 1
37 2 S116 1171 818444 3844 1
37 2 S116 1056 819500 4900 0
37 2 S116 977 820477 5877 0
37 2 S116 1004 821481 6881 0
0 0 0 890 822371 -11393 0
0 0 0 963 823334 -10430 0
0 0 0 970 824304 -9460 0
0 0 0 928 825232 -8532 0
0 0 0 828 826060 -7704 0
0 0 0 828 826888 -6876 0
0 0 0 815 827703 -6061 0
0 0 0 846 828549 -5215 0
0 0 0 818 829367 -4397 0
0 0 0 834 830201 -3563 0
0 0 0 893 831094 -2670 0
38 1 S102 886 831980 -1784 0
38 1 S102 810 832790 -974 0
38 1 S102 772 833562 -202 0
38 2 S102 772 834334 570 0
38 2 S102 853 835187 1423 0
38 2 S102 890 836077 2313 0
38 2 S102 844 836921 3157 0
38 2 S102 820 837741 3977 0
38 2 S102 840 838581 4817 0
38 2 S102 827 839408 5644 0
38 2 S102 793 840201 6437 0
0 0 0 784 840985 -9457 0
0 0 0 790 841775 -8667 0
0 0 0 836 842611 -7831 0
0 0 0 809 843420 -7022 0
0 0 0 769 844189 -6253 0
0 0 0 780 844969 -5473 0
0 0 0 785 845754 -4688 0
0 0 0 829 846583 -3859 0
0 0 0 796 847379 -3063 0
0 0 0 854 848233 -2209 0
39 1 S116 969 849202 -1240 0
39 1 S116 847 850049 -393 0
39 2 S116 865 850914 472 0
39 2 S116 913 851827 1385 0
39 2 S116 924 852751 2309 0
39 2 S116 901 853652 3210 0
39 2 S116 906 854558 4116 0
39 2 S116 912 855470 5028 0
39 2 S116 930 856400 5958 0
39 2 S116 891 857291 6849 0
0 0 0 995 858286 -6894 0
0 0 0 997 859283 -5897 0
0 0 0 915 860198 -4982 0
0 0 0 844 861042 -4138 0
0 0 0 824 861866 -3314 0
0 0 0 815 862681 -2499 0
40 1 S112 773 863454 -1726 0
40 1 S112 784 864238 -942 0
40 1 S112 809 865047 -133 0
40 2 S112 845 865892 712 0
40 2 S112 870 866762 1582 0
40 2 S112 888 867650 2470 0
40 2 S112 887 868537 3357 0
40 2 S112 854 869391 4211 0
40 2 S112 817 870208 5028 0
40 2 S112 812 871020 5840 0
40 2 S112 820 871840 6660 0
0 0 0 830 872670 -8923 0
0 0 0 790 873460 -8133 0
0 0 0 805 874265 -7328 0
0 0 0 865 875130 -6463 0
0 0 0 860 875990 -5603 0
0 0 0 841 876831 -4762 0
0 0 0 809 877640 -3953 0
0 0 0 808 878448 -3145 0
0 0 0 784 879232 -2361 0
41 1 S102 783 880015 -1578 0
41 1 S102 812 880827 -766 0
41 2 S102 860 881687 94 0
41 2 S102 827 882514 921 0
41 2 S102 850 883364 1771 0
41 2 S102 876 884240 2647 0
41 2 S102 895 885135 3542 0
41 2 S102 833 885968 4375 0
41 2 S102 851 886819 5226 0
41 2 S102 784 887603 6010 0
41 2 S102 761 888364 6771 0
0 0 0 728 889092 -6626 0
0 0 0 750 889842 -5876 0
0 0 0 762 890604 -5114 0
0 0 0 790 891394 -4324 0
0 0 0 774 892168 -3550 0
0 0 0 783 892951 -2767 0
0 0 0 748 893699 -2019 0
42 1 S112 773 894472 -1246 0
42 1 S112 831 895303 -415 0
42 2 S112 857 896160 442 0
42 2 S112 843 897003 1285 0
42 2 S112 934 897937 2219 0
42 2 S112 973 898910 3192 0
42 2 S112 983 899893 4175 0
42 2 S112 998 900891 5173 0
42 2 S112 1006 901897 6179 0
0 0 0 919 902816 -8917 0
0 0 0 870 903686 -8047 0
0 0 0 916 904602 -7131 0
0 0 0 888 905490 -6243 0
0 0 0 856 906346 -5387 0
0 0 0 785 907131 -4602 0
0 0 0 740 907871 -3862 0
0 0 0 699 908570 -3163 0
0 0 0 695 909265 -2468 0
43 1 S116 715 909980 -1753 0
43 1 S116 892 910872 -861 0
43 2 S116 1213 912085 352 1
43 2 S116 1086 913171 1438 0
43 2 S116 1041 914212 2479 0
43 2 S116 974 915186 3453 0
43 2 S116 933 916119 4386 0
43 2 S116 923 917042 5309 0
43 2 S116 921 917963 6230 0
0 0 0 906 918869 -8149 0
0 0 0 899 919768 -7250 0
0 0 0 899 920667 -6351 0
0 0 0 889 921556 -5462 0
0 0 0 895 922451 -4567 0
0 0 0 867 923318 -3700 0
0 0 0 825 924143 -2875 0
0 0 0 819 924962 -2056 0
44 1 S102 828 925790 -1228 0
44 1 S102 863 926653 -365 0
44 2 S102 903 927556 538 0
44 2 S102 945 928501 1483 0
44 2 S102 918 929419 2401 0
44 2 S102 850 930269 3251 0
44 2 S102 821 931090 4072 0
44 2 S102 801 931891 4873 0
44 2 S102 786 932677 5659 0
44 2 S102 765 933442 6424 0
0 0 0 755 934197 -9034 0
0 0 0 749 934946 -8285 0
0 0 0 777 935723 -7508 0
0 0 0 809 936532 -6699 0
0 0 0 800 937332 -5899 0
0 0 0 780 938112 -5119 0
0 0 0 746 938858 -4373 0
0 0 0 718 939576 -3655 0
0 0 0 711 940287 -2944 0
0 0 0 731 941018 -2213 0
45 1 S116 765 941783 -1448 0
45 1 S116 778 942561 -670 0
45 2 S116 751 943312 81 0
45 2 S116 735 944047 816 0
45 2 S116 734 944781 1550 0
45 2 S116 797 945578 2347 0
45 2 S116 831 946409 3178 0
45 2 S116 859 947268 4037 0
45 2 S116 818 948086 4855 0
45 2 S116 820 948906 5675 0
45 2 S116 805 949711 6480 0
0 0 0 785 950496 -11270 0
0 0 0 808 951304 -10462 0
0 0 0 804 952108 -9658 0
0 0 0 817 952925 -8841 0
0 0 0 794 953719 -8047 0
0 0 0 780 954499 -7267 0
0 0 0 776 955275 -6491 0
0 0 0 778 956053 -5713 0
0 0 0 775 956828 -4938 0
0 0 0 751 957579 -4187 0
0 0 0 742 958321 -3445 0
0 0 0 744 959065 -2701 0
46 1 S102 770 959835 -1931 0
46 1 S102 770 960605 -1161 0
46 1 S102 761 961366 -400 0
46 2 S102 798 962164 398 0
46 2 S102 830 962994 1228 0
46 2 S102 839 963833 2067 0
46 2 S102 819 964652 2886 0
46 2 S102 854 965506 3740 0
46 2 S102 838 966344 4578 0
46 2 S102 845 967189 5423 0
46 2 S102 795 967984 6218 0
46 2 S102 792 968776 7010 0
0 0 0 811 969587 -8360 0
0 0 0 795 970382 -7565 0
0 0 0 783 971165 -6782 0
0 0 0 738 971903 -6044 0
0 0 0 728 972631 -5316 0
0 0 0 719 973350 -4597 0
0 0 0 734 974084 -3863 0
0 0 0 739 974823 -3124 0
0 0 0 762 975585 -2362 0
47 1 S112 811 976396 -1551 0
47 1 S112 853 977249 -698 0
47 2 S112 905 978154 207 0
47 2 S112 875 979029 1082 0
47 2 S112 999 980028 2081 0
47 2 S112 1078 981106 3159 0
47 2 S112 1061 982167 4220 0
47 2 S112 1043 983210 5263 0
47 2 S112 1067 984277 6330 0
0 0 0 1160 985437 -12967 1
0 0 0 1000 986437 -11967 0
0 0 0 839 987276 -11128 0
0 0 0 813 988089 -10315 0
0 0 0 895 988984 -9420 0
0 0 0 971 989955 -8449 0
0 0 0 857 990812 -7592 0
0 0 0 814 991626 -6778 0
0 0 0 838 992464 -5940 0
0 0 0 923 993387 -5017 0
0 0 0 846 994233 -4171 0
0 0 0 778 995011 -3393 0
0 0 0 759 995770 -2634 0
48 1 S116 755 996525 -1879 0
48 1 S116 770 997295 -1109 0
48 1 S116 762 998057 -347 0
48 2 S116 754 998811 407 0
48 2 S116 774 999585 1181 0
48 2 S116 782 1000367 1963 0
48 2 S116 778 1001145 2741 0
48 2 S116 789 1001934 3530 0
48 2 S116 785 1002719 4315 0
48 2 S116 778 1003497 5093 0
48 2 S116 765 1004262 5858 0
48 2 S116 757 1005019 6615 0
0 0 0 796 1005815 -6946 0
0 0 0 847 1006662 -6099 0
0 0 0 836 1007498 -5263 0
0 0 0 807 1008305 -4456 0
0 0 0 822 1009127 -3634 0
0 0 0 862 1009989 -2772 0
49 1 S112 875 1010864 -1897 0
49 1 S112 858 1011722 -1039 0
49 1 S112 924 1012646 -115 0
49 2 S112 902 1013548 787 0
49 2 S112 889 1014437 1676 0
49 2 S112 958 1015395 2634 0
49 2 S112 905 1016300 3539 0
49 2 S112 840 1017140 4379 0
49 2 S112 856 1017996 5235 0
49 2 S112 921 1018917 6156 0
49 2 S112 868 1019785 7024 0
0 0 0 917 1020702 -11274 0
0 0 0 1127 1021829 -10147 1
0 0 0 991 1022820 -9156 0
0 0 0 881 1023701 -8275 0
0 0 0 893 1024594 -7382 0
0 0 0 884 1025478 -6498 0
0 0 0 854 1026332 -5644 0
0 0 0 907 1027239 -4737 0
0 0 0 914 1028153 -3823 0
0 0 0 855 1029008 -2968 0
0 0 0 867 1029875 -2101 0
50 1 S106 1031 1030906 -1070 0
50 1 S106 968 1031874 -102 0
50 2 S106 858 1032732 756 0
50 2 S106 897 1033629 1653 0
50 2 S106 909 1034538 2562 0
50 2 S106 849 1035387 3411 0
50 2 S106 837 1036224 4248 0
50 2 S106 930 1037154 5178 0
50 2 S106 939 1038093 6117 0
50 2 S106 908 1039001 7025 0
0 0 0 936 1039937 -6246 0
0 0 0 1000 1040937 -5246 0
0 0 0 915 1041852 -4331 0
0 0 0 847 1042699 -3484 0
0 0 0 875 1043574 -2609 0
51 1 S112 889 1044463 -1720 0
51 1 S112 956 1045419 -764 0
51 2 S112 861 1046280 97 0
51 2 S112 978 1047258 1075 0
51 2 S112 1067 1048325 2142 0
51 2 S112 1072 1049397 3214 0
51 2 S112 983 1050380 4197 0
51 2 S112 993 1051373 5190 0
51 2 S112 980 1052353 6170 0
0 0 0 921 1053274 -7465 0
0 0 0 969 1054243 -6496 0
0 0 0 944 1055187 -5552 0
0 0 0 948 1056135 -4604 0
0 0 0 836 1056971 -3768 0
0 0 0 856 1057827 -2912 0
0 0 0 843 1058670 -2069 0
52 1 S116 835 1059505 -1234 0
52 1 S116 792 1060297 -442 0
52 2 S116 855 1061152 413 0
52 2 S116 934 1062086 1347 0
52 2 S116 1022 1063108 2369 0
52 2 S116 1019 1064127 3388 0
52 2 S116 1190 1065317 4578 1
52 2 S116 1004 1066321 5582 0
52 2 S116 868 1067189 6450 0
0 0 0 866 1068055 -11169 0
0 0 0 858 1068913 -10311 0
0 0 0 796 1069709 -9515 0
0 0 0 743 1070452 -8772 0
0 0 0 732 1071184 -8040 0
0 0 0 784 1071968 -7256 0
0 0 0 860 1072828 -6396 0
0 0 0 860 1073688 -5536 0
0 0 0 798 1074486 -4738 0
0 0 0 784 1075270 -3954 0
0 0 0 795 1076065 -3159 0
0 0 0 872 1076937 -2287 0
53 1 S106 953 1077890 -1334 0
53 1 S106 966 1078856 -368 0
53 2 S106 965 1079821 597 0
53 2 S106 961 1080782 1558 0
53 2 S106 888 1081670 2446 0
53 2 S106 839 1082509 3285 0
53 2 S106 831 1083340 4116 0
53 2 S106 834 1084174 4950 0
53 2 S106 830 1085004 5780 0
53 2 S106 813 1085817 6593 0
0 0 0 861 1086678 -6803 0
0 0 0 896 1087574 -5907 0
0 0 0 872 1088446 -5035 0
0 0 0 799 1089245 -4236 0
0 0 0 772 1090017 -3464 0
0 0 0 790 1090807 -2674 0
54 1 S102 853 1091660 -1821 0
54 1 S102 878 1092538 -943 0
54 1 S102 845 1093383 -98 0
54 2 S102 822 1094205 724 0
54 2 S102 962 1095167 1686 0
54 2 S102 1341 1096508 3027 1
54 2 S102 1210 1097718 4237 1
54 2 S102 996 1098714 5233 0
54 2 S102 897 1099611 6130 0
54 2 S102 852 1100463 6982 0
0 0 0 821 1101284 -10599 0
0 0 0 851 1102135 -9748 0
0 0 0 880 1103015 -8868 0
0 0 0 842 1103857 -8026 0
0 0 0 818 1104675 -7208 0
0 0 0 794 1105469 -6414 0
0 0 0 810 1106279 -5604 0
0 0 0 848 1107127 -4756 0
0 0 0 816 1107943 -3940 0
0 0 0 756 1108699 -3184 0
0 0 0 720 1109419 -2464 0
55 1 S106 704 1110123 -1760 0
55 1 S106 717 1110840 -1043 0
55 1 S106 772 1111612 -271 0
55 2 S106 922 1112534 651 0
55 2 S106 917 1113451 1568 0
55 2 S106 874 1114325 2442 0
55 2 S106 828 1115153 3270 0
55 2 S106 777 1115930 4047 0
55 2 S106 760 1116690 4807 0
55 2 S106 749 1117439 5556 0
55 2 S106 753 1118192 6309 0
0 0 0 751 1118943 -7015 0
0 0 0 749 1119692 -6266 0
0 0 0 730 1120422 -5536 0
0 0 0 707 1121129 -4829 0
0 0 0 686 1121815 -4143 0
0 0 0 673 1122488 -3470 0
0 0 0 660 1123148 -2810 0
0 0 0 673 1123821 -2137 0
56 1 S116 712 1124533 -1425 0
56 1 S116 752 1125285 -673 0
56 2 S116 784 1126069 111 0
56 2 S116 819 1126888 930 0
56 2 S116 897 1127785 1827 0
56 2 S116 987 1128772 2814 0
56 2 S116 1021 1129793 3835 0
56 2 S116 916 1130709 4751 0
56 2 S116 810 1131519 5561 0
56 2 S116 775 1132294 6336 0
0 0 0 757 1133051 -7231 0
0 0 0 792 1133843 -6439 0
0 0 0 1073 1134916 -5366 0
0 0 0 1143 1136059 -4223 1
0 0 0 913 1136972 -3310 0
0 0 0 814 1137786 -2496 0
57 1 S106 794 1138580 -1702 0
57 1 S106 809 1139389 -893 0
57 1 S106 847 1140236 -46 0
57 2 S106 820 1141056 774 0
57 2 S106 850 1141906 1624 0
57 2 S106 891 1142797 2515 0
57 2 S106 888 1143685 3403 0
57 2 S106 834 1144519 4237 0
57 2 S106 841 1145360 5078 0
57 2 S106 842 1146202 5920 0
57 2 S106 877 1147079 6797 0
0 0 0 823 1147902 -8992 0
0 0 0 775 1148677 -8217 0
0 0 0 752 1149429 -7465 0
0 0 0 764 1150193 -6701 0
0 0 0 786 1150979 -5915 0
0 0 0 798 1151777 -5117 0
0 0 0 769 1152546 -4348 0
0 0 0 747 1153293 -3601 0
0 0 0 757 1154050 -2844 0
0 0 0 785 1154835 -2059 0
58 1 S102 810 1155645 -1249 0
58 1 S102 799 1156444 -450 0
58 2 S102 827 1157271 377 0
58 2 S102 882 1158153 1259 0
58 2 S102 868 1159021 2127 0
58 2 S102 811 1159832 2938 0
58 2 S102 822 1160654 3760 0
58 2 S102 803 1161457 4563 0
58 2 S102 785 1162242 5348 0
58 2 S102 746 1162988 6094 0
58 2 S102 728 1163716 6822 0
0 0 0 721 1164437 -7211 0
0 0 0 749 1165186 -6462 0
0 0 0 801 1165987 -5661 0
0 0 0 785 1166772 -4876 0
0 0 0 839 1167611 -4037 0
0 0 0 848 1168459 -3189 0
0 0 0 809 1169268 -2380 0
59 1 S112 801 1170069 -1579 0
59 1 S112 765 1170834 -814 0
59 1 S112 765 1171599 -49 0
59 2 S112 818 1172417 769 0
59 2 S112 832 1173249 1601 0
59 2 S112 842 1174091 2443 0
59 2 S112 890 1174981 3333 0
59 2 S112 885 1175866 4218 0
59 2 S112 850 1176716 5068 0
59 2 S112 871 1177587 5939 0
59 2 S112 911 1178498 6850 0
0 0 0 964 1179462 -10373 0
0 0 0 902 1180364 -9471 0
0 0 0 883 1181247 -8588 0
0 0 0 917 1182164 -7671 0
0 0 0 874 1183038 -6797 0
0 0 0 803 1183841 -5994 0
0 0 0 839 1184680 -5155 0
0 0 0 868 1185548 -4287 0
0 0 0 828 1186376 -3459 0
0 0 0 849 1187225 -2610 0
60 1 S102 887 1188112 -1723 0
60 1 S102 900 1189012 -823 0
60 2 S102 835 1189847 12 0
60 2 S102 869 1190716 881 0
60 2 S102 884 1191600 1765 0
60 2 S102 853 1192453 2618 0
60 2 S102 791 1193244 3409 0
60 2 S102 777 1194021 4186 0
60 2 S102 820 1194841 5006 0
60 2 S102 873 1195714 5879 0
60 2 S102 843 1196557 6722 0
