T_0011
BeatCount Mean SD BeatCountNoOutliers MeanNoOutliers SDNoOutliers
2111 723,529133112269 104,014895848828 2102 722,396764985728 70,0112128213411

Trial TrialStatus Trialtype IBI AbsPosition RelPosition Outlier
0 0 0 715 1241 -14728 0
0 0 0 714 1955 -14014 0
0 0 0 695 2650 -13319 0
0 0 0 716 3366 -12603 0
0 0 0 706 4072 -11897 0
0 0 0 699 4771 -11198 0
0 0 0 690 5461 -10508 0
0 0 0 676 6137 -9832 0
0 0 0 665 6802 -9167 0
0 0 0 650 7452 -8517 0
0 0 0 637 8089 -7880 0
0 0 0 621 8710 -7259 0
0 0 0 613 9323 -6646 0
0 0 0 645 9968 -6001 0
0 0 0 649 10617 -5352 0
0 0 0 663 11280 -4689 0
0 0 0 710 11990 -3979 0
0 0 0 773 12763 -3206 0
0 0 0 798 13561 -2408 0
1 1 S112 824 14385 -1584 0
1 1 S112 817 15202 -767 0
1 1 S112 763 15965 -4 0
1 2 S112 759 16724 755 0
1 2 S112 770 17494 1525 0
1 2 S112 791 18285 2316 0
1 2 S112 816 19101 3132 0
1 2 S112 789 19890 3921 0
1 2 S112 825 20715 4746 0
1 2 S112 866 21581 5612 0
1 2 S112 870 22451 6482 0
0 0 0 827 23278 -11508 0
0 0 0 842 24120 -10666 0
0 0 0 808 24928 -9858 0
0 0 0 775 25703 -9083 0
0 0 0 755 26458 -8328 0
0 0 0 720 27178 -7608 0
0 0 0 700 27878 -6908 0
0 0 0 690 28568 -6218 0
0 0 0 706 29274 -5512 0
0 0 0 698 29972 -4814 0
0 0 0 740 30712 -4074 0
0 0 0 751 31463 -3323 0
0 0 0 753 32216 -2570 0
2 1 S102 726 32942 -1844 0
2 1 S102 737 33679 -1107 0
2 1 S102 780 34459 -327 0
2 2 S102 798 35257 471 0
2 2 S102 791 36048 1262 0
2 2 S102 762 36810 2024 0
2 2 S102 760 37570 2784 0
2 2 S102 782 38352 3566 0
2 2 S102 770 39122 4336 0
2 2 S102 771 39893 5107 0
2 2 S102 742 40635 5849 0
2 2 S102 743 41378 6592 0
0 0 0 762 42140 -8677 0
0 0 0 788 42928 -7889 0
0 0 0 801 43729 -7088 0
0 0 0 798 44527 -6290 0
0 0 0 769 45296 -5521 0
0 0 0 726 46022 -4795 0
0 0 0 712 46734 -4083 0
0 0 0 699 47433 -3384 0
0 0 0 704 48137 -2680 0
3 1 S116 901 49038 -1779 0
3 1 S116 904 49942 -875 0
3 2 S116 899 50841 24 0
3 2 S116 870 51711 894 0
3 2 S116 862 52573 1756 0
3 2 S116 881 53454 2637 0
3 2 S116 868 54322 3505 0
3 2 S116 833 55155 4338 0
3 2 S116 802 55957 5140 0
3 2 S116 754 56711 5894 0
3 2 S116 742 57453 6636 0
0 0 0 723 58176 -11292 0
0 0 0 737 58913 -10555 0
0 0 0 718 59631 -9837 0
0 0 0 702 60333 -9135 0
0 0 0 711 61044 -8424 0
0 0 0 694 61738 -7730 0
0 0 0 681 62419 -7049 0
0 0 0 660 63079 -6389 0
0 0 0 669 63748 -5720 0
0 0 0 673 64421 -5047 0
0 0 0 696 65117 -4351 0
0 0 0 761 65878 -3590 0
0 0 0 836 66714 -2754 0
4 1 S106 872 67586 -1882 0
4 1 S106 838 68424 -1044 0
4 1 S106 780 69204 -264 0
4 2 S106 790 69994 526 0
4 2 S106 789 70783 1315 0
4 2 S106 786 71569 2101 0
4 2 S106 797 72366 2898 0
4 2 S106 779 73145 3677 0
4 2 S106 739 73884 4416 0
4 2 S106 752 74636 5168 0
4 2 S106 742 75378 5910 0
4 2 S106 751 76129 6661 0
0 0 0 546 76675 -7846 0
0 0 0 794 77469 -7052 0
0 0 0 689 78158 -6363 0
0 0 0 706 78864 -5657 0
0 0 0 707 79571 -4950 0
0 0 0 705 80276 -4245 0
0 0 0 693 80969 -3552 0
0 0 0 726 81695 -2826 0
0 0 0 711 82406 -2115 0
5 1 S116 714 83120 -1401 0
5 1 S116 703 83823 -698 0
5 1 S116 689 84512 -9 0
5 2 S116 713 85225 704 0
5 2 S116 723 85948 1427 0
5 2 S116 733 86681 2160 0
5 2 S116 709 87390 2869 0
5 2 S116 724 88114 3593 0
5 2 S116 742 88856 4335 0
5 2 S116 750 89606 5085 0
5 2 S116 748 90354 5833 0
5 2 S116 711 91065 6544 0
0 0 0 735 91800 -9581 0
0 0 0 757 92557 -8824 0
0 0 0 745 93302 -8079 0
0 0 0 742 94044 -7337 0
0 0 0 712 94756 -6625 0
0 0 0 724 95480 -5901 0
0 0 0 712 96192 -5189 0
0 0 0 693 96885 -4496 0
0 0 0 688 97573 -3808 0
0 0 0 686 98259 -3122 0
0 0 0 694 98953 -2428 0
6 1 S106 702 99655 -1726 0
6 1 S106 697 100352 -1029 0
6 1 S106 683 101035 -346 0
6 2 S106 663 101698 317 0
6 2 S106 675 102373 992 0
6 2 S106 673 103046 1665 0
6 2 S106 683 103729 2348 0
6 2 S106 676 104405 3024 0
6 2 S106 667 105072 3691 0
6 2 S106 689 105761 4380 0
6 2 S106 702 106463 5082 0
6 2 S106 714 107177 5796 0
6 2 S106 706 107883 6502 0
0 0 0 686 108569 -11695 0
0 0 0 707 109276 -10988 0
0 0 0 708 109984 -10280 0
0 0 0 722 110706 -9558 0
0 0 0 702 111408 -8856 0
0 0 0 533 111941 -8323 0
0 0 0 829 112770 -7494 0
0 0 0 708 113478 -6786 0
0 0 0 685 114163 -6101 0
0 0 0 700 114863 -5401 0
0 0 0 695 115558 -4706 0
0 0 0 694 116252 -4012 0
0 0 0 695 116947 -3317 0
0 0 0 719 117666 -2598 0
7 1 S102 723 118389 -1875 0
7 1 S102 700 119089 -1175 0
7 1 S102 732 119821 -443 0
7 2 S102 728 120549 285 0
7 2 S102 718 121267 1003 0
7 2 S102 700 121967 1703 0
7 2 S102 719 122686 2422 0
7 2 S102 715 123401 3137 0
7 2 S102 722 124123 3859 0
7 2 S102 717 124840 4576 0
7 2 S102 698 125538 5274 0
7 2 S102 711 126249 5985 0
7 2 S102 697 126946 6682 0
0 0 0 688 127634 -8926 0
0 0 0 673 128307 -8253 0
0 0 0 691 128998 -7562 0
0 0 0 687 129685 -6875 0
0 0 0 681 130366 -6194 0
0 0 0 673 131039 -5521 0
0 0 0 690 131729 -4831 0
0 0 0 679 132408 -4152 0
0 0 0 656 133064 -3496 0
0 0 0 670 133734 -2826 0
0 0 0 671 134405 -2155 0
8 1 S112 700 135105 -1455 0
8 1 S112 720 135825 -735 0
8 2 S112 805 136630 70 0
8 2 S112 871 137501 941 0
8 2 S112 870 138371 1811 0
8 2 S112 814 139185 2625 0
8 2 S112 820 140005 3445 0
8 2 S112 820 140825 4265 0
8 2 S112 806 141631 5071 0
8 2 S112 756 142387 5827 0
8 2 S112 743 143130 6570 0
0 0 0 735 143865 -7434 0
0 0 0 743 144608 -6691 0
0 0 0 527 145135 -6164 0
0 0 0 799 145934 -5365 0
0 0 0 724 146658 -4641 0
0 0 0 739 147397 -3902 0
0 0 0 714 148111 -3188 0
0 0 0 706 148817 -2482 0
9 1 S116 735 149552 -1747 0
9 1 S116 753 150305 -994 0
9 1 S116 820 151125 -174 0
9 2 S116 780 151905 606 0
9 2 S116 785 152690 1391 0
9 2 S116 796 153486 2187 0
9 2 S116 787 154273 2974 0
9 2 S116 748 155021 3722 0
9 2 S116 738 155759 4460 0
9 2 S116 775 156534 5235 0
9 2 S116 768 157302 6003 0
9 2 S116 748 158050 6751 0
0 0 0 712 158762 -10955 0
0 0 0 743 159505 -10212 0
0 0 0 738 160243 -9474 0
0 0 0 738 160981 -8736 0
0 0 0 709 161690 -8027 0
0 0 0 708 162398 -7319 0
0 0 0 727 163125 -6592 0
0 0 0 737 163862 -5855 0
0 0 0 712 164574 -5143 0
0 0 0 692 165266 -4451 0
0 0 0 681 165947 -3770 0
0 0 0 695 166642 -3075 0
0 0 0 723 167365 -2352 0
10 1 S102 736 168101 -1616 0
10 1 S102 734 168835 -882 0
10 1 S102 722 169557 -160 0
10 2 S102 705 170262 545 0
10 2 S102 726 170988 1271 0
10 2 S102 716 171704 1987 0
10 2 S102 716 172420 2703 0
10 2 S102 686 173106 3389 0
10 2 S102 667 173773 4056 0
10 2 S102 655 174428 4711 0
10 2 S102 649 175077 5360 0
10 2 S102 662 175739 6022 0
10 2 S102 670 176409 6692 0
0 0 0 687 177096 -11023 0
0 0 0 668 177764 -10355 0
0 0 0 682 178446 -9673 0
0 0 0 690 179136 -8983 0
0 0 0 701 179837 -8282 0
0 0 0 679 180516 -7603 0
0 0 0 697 181213 -6906 0
0 0 0 705 181918 -6201 0
0 0 0 708 182626 -5493 0
0 0 0 686 183312 -4807 0
0 0 0 707 184019 -4100 0
0 0 0 721 184740 -3379 0
0 0 0 739 185479 -2640 0
11 1 S112 710 186189 -1930 0
11 1 S112 720 186909 -1210 0
11 1 S112 729 187638 -481 0
11 2 S112 723 188361 242 0
11 2 S112 695 189056 937 0
11 2 S112 705 189761 1642 0
11 2 S112 733 190494 2375 0
11 2 S112 750 191244 3125 0
11 2 S112 735 191979 3860 0
11 2 S112 717 192696 4577 0
11 2 S112 757 193453 5334 0
11 2 S112 782 194235 6116 0
11 2 S112 786 195021 6902 0
0 0 0 765 195786 -7055 0
0 0 0 760 196546 -6295 0
0 0 0 757 197303 -5538 0
0 0 0 746 198049 -4792 0
0 0 0 710 198759 -4082 0
0 0 0 704 199463 -3378 0
0 0 0 699 200162 -2679 0
12 1 S116 738 200900 -1941 0
12 1 S116 842 201742 -1099 0
12 1 S116 774 202516 -325 0
12 2 S116 793 203309 468 0
12 2 S116 772 204081 1240 0
12 2 S116 785 204866 2025 0
12 2 S116 767 205633 2792 0
12 2 S116 735 206368 3527 0
12 2 S116 693 207061 4220 0
12 2 S116 685 207746 4905 0
12 2 S116 683 208429 5588 0
12 2 S116 720 209149 6308 0
0 0 0 762 209911 -11564 0
0 0 0 747 210658 -10817 0
0 0 0 739 211397 -10078 0
0 0 0 733 212130 -9345 0
0 0 0 718 212848 -8627 0
0 0 0 696 213544 -7931 0
0 0 0 705 214249 -7226 0
0 0 0 721 214970 -6505 0
0 0 0 703 215673 -5802 0
0 0 0 708 216381 -5094 0
0 0 0 723 217104 -4371 0
0 0 0 732 217836 -3639 0
0 0 0 729 218565 -2910 0
0 0 0 712 219277 -2198 0
13 1 S112 608 219885 -1590 0
13 1 S112 789 220674 -801 0
13 1 S112 685 221359 -116 0
13 2 S112 695 222054 579 0
13 2 S112 674 222728 1253 0
13 2 S112 565 223293 1818 0
13 2 S112 801 224094 2619 0
13 2 S112 707 224801 3326 0
13 2 S112 747 225548 4073 0
13 2 S112 774 226322 4847 0
13 2 S112 774 227096 5621 0
13 2 S112 735 227831 6356 0
0 0 0 733 228564 -12158 0
0 0 0 758 229322 -11400 0
0 0 0 741 230063 -10659 0
0 0 0 753 230816 -9906 0
0 0 0 748 231564 -9158 0
0 0 0 734 232298 -8424 0
0 0 0 719 233017 -7705 0
0 0 0 680 233697 -7025 0
0 0 0 659 234356 -6366 0
0 0 0 656 235012 -5710 0
0 0 0 633 235645 -5077 0
0 0 0 665 236310 -4412 0
0 0 0 758 237068 -3654 0
0 0 0 781 237849 -2873 0
0 0 0 769 238618 -2104 0
14 1 S106 802 239420 -1302 0
14 1 S106 742 240162 -560 0
14 2 S106 726 240888 166 0
14 2 S106 724 241612 890 0
14 2 S106 713 242325 1603 0
14 2 S106 708 243033 2311 0
14 2 S106 706 243739 3017 0
14 2 S106 682 244421 3699 0
14 2 S106 695 245116 4394 0
14 2 S106 687 245803 5081 0
14 2 S106 690 246493 5771 0
14 2 S106 668 247161 6439 0
0 0 0 676 247837 -11569 0
0 0 0 673 248510 -10896 0
0 0 0 681 249191 -10215 0
0 0 0 677 249868 -9538 0
0 0 0 689 250557 -8849 0
0 0 0 703 251260 -8146 0
0 0 0 695 251955 -7451 0
0 0 0 684 252639 -6767 0
0 0 0 705 253344 -6062 0
0 0 0 713 254057 -5349 0
0 0 0 702 254759 -4647 0
0 0 0 710 255469 -3937 0
0 0 0 773 256242 -3164 0
0 0 0 582 256824 -2582 0
15 1 S116 897 257721 -1685 0
15 1 S116 772 258493 -913 0
15 1 S116 762 259255 -151 0
15 2 S116 723 259978 572 0
15 2 S116 717 260695 1289 0
15 2 S116 767 261462 2056 0
15 2 S116 830 262292 2886 0
15 2 S116 784 263076 3670 0
15 2 S116 771 263847 4441 0
15 2 S116 812 264659 5253 0
15 2 S116 813 265472 6066 0
15 2 S116 773 266245 6839 0
0 0 0 808 267053 -9495 0
0 0 0 807 267860 -8688 0
0 0 0 762 268622 -7926 0
0 0 0 752 269374 -7174 0
0 0 0 772 270146 -6402 0
0 0 0 716 270862 -5686 0
0 0 0 719 271581 -4967 0
0 0 0 717 272298 -4250 0
0 0 0 708 273006 -3542 0
0 0 0 687 273693 -2855 0
0 0 0 680 274373 -2175 0
16 1 S116 693 275066 -1482 0
16 1 S116 710 275776 -772 0
16 1 S116 702 276478 -70 0
16 2 S116 748 277226 678 0
16 2 S116 786 278012 1464 0
16 2 S116 792 278804 2256 0
16 2 S116 749 279553 3005 0
16 2 S116 801 280354 3806 0
16 2 S116 811 281165 4617 0
16 2 S116 782 281947 5399 0
16 2 S116 756 282703 6155 0
16 2 S116 773 283476 6928 0
0 0 0 765 284241 -8836 0
0 0 0 498 284739 -8338 0
0 0 0 811 285550 -7527 0
0 0 0 732 286282 -6795 0
0 0 0 721 287003 -6074 0
0 0 0 686 287689 -5388 0
0 0 0 691 288380 -4697 0
0 0 0 701 289081 -3996 0
0 0 0 746 289827 -3250 0
0 0 0 815 290642 -2435 0
17 1 S106 831 291473 -1604 0
17 1 S106 858 292331 -746 0
17 2 S106 879 293210 133 0
17 2 S106 813 294023 946 0
17 2 S106 838 294861 1784 0
17 2 S106 864 295725 2648 0
17 2 S106 861 296586 3509 0
17 2 S106 795 297381 4304 0
17 2 S106 812 298193 5116 0
17 2 S106 812 299005 5928 0
17 2 S106 810 299815 6738 0
0 0 0 542 300357 -11089 0
0 0 0 915 301272 -10174 0
0 0 0 783 302055 -9391 0
0 0 0 750 302805 -8641 0
0 0 0 761 303566 -7880 0
0 0 0 756 304322 -7124 0
0 0 0 729 305051 -6395 0
0 0 0 491 305542 -5904 0
0 0 0 845 306387 -5059 0
0 0 0 757 307144 -4302 0
0 0 0 811 307955 -3491 0
0 0 0 756 308711 -2735 0
18 1 S102 777 309488 -1958 0
18 1 S102 795 310283 -1163 0
18 1 S102 515 310798 -648 0
18 2 S102 856 311654 208 0
18 2 S102 795 312449 1003 0
18 2 S102 778 313227 1781 0
18 2 S102 723 313950 2504 0
18 2 S102 708 314658 3212 0
18 2 S102 728 315386 3940 0
18 2 S102 753 316139 4693 0
18 2 S102 782 316921 5475 0
18 2 S102 745 317666 6220 0
18 2 S102 764 318430 6984 0
0 0 0 799 319229 -6557 0
0 0 0 793 320022 -5764 0
0 0 0 746 320768 -5018 0
0 0 0 756 321524 -4262 0
0 0 0 740 322264 -3522 0
0 0 0 698 322962 -2824 0
0 0 0 682 323644 -2142 0
19 1 S106 662 324306 -1480 0
19 1 S106 660 324966 -820 0
19 1 S106 700 325666 -120 0
19 2 S106 872 326538 752 0
19 2 S106 879 327417 1631 0
19 2 S106 866 328283 2497 0
19 2 S106 847 329130 3344 0
19 2 S106 843 329973 4187 0
19 2 S106 773 330746 4960 0
19 2 S106 791 331537 5751 0
19 2 S106 820 332357 6571 0
0 0 0 817 333174 -11064 0
0 0 0 797 333971 -10267 0
0 0 0 770 334741 -9497 0
0 0 0 806 335547 -8691 0
0 0 0 782 336329 -7909 0
0 0 0 760 337089 -7149 0
0 0 0 725 337814 -6424 0
0 0 0 737 338551 -5687 0
0 0 0 750 339301 -4937 0
0 0 0 769 340070 -4168 0
0 0 0 785 340855 -3383 0
0 0 0 755 341610 -2628 0
20 1 S112 812 342422 -1816 0
20 1 S112 848 343270 -968 0
20 1 S112 867 344137 -101 0
20 2 S112 801 344938 700 0
20 2 S112 844 345782 1544 0
20 2 S112 833 346615 2377 0
20 2 S112 841 347456 3218 0
20 2 S112 822 348278 4040 0
20 2 S112 785 349063 4825 0
20 2 S112 810 349873 5635 0
20 2 S112 805 350678 6440 0
0 0 0 819 351497 -9402 0
0 0 0 794 352291 -8608 0
0 0 0 798 353089 -7810 0
0 0 0 782 353871 -7028 0
0 0 0 734 354605 -6294 0
0 0 0 703 355308 -5591 0
0 0 0 689 355997 -4902 0
0 0 0 711 356708 -4191 0
0 0 0 728 357436 -3463 0
0 0 0 826 358262 -2637 0
21 1 S106 834 359096 -1803 0
21 1 S106 779 359875 -1024 0
21 1 S106 763 360638 -261 0
21 2 S106 759 361397 498 0
21 2 S106 439 361836 937 1
21 2 S106 809 362645 1746 0
21 2 S106 711 363356 2457 0
21 2 S106 671 364027 3128 0
21 2 S106 648 364675 3776 0
21 2 S106 636 365311 4412 0
21 2 S106 649 365960 5061 0
21 2 S106 689 366649 5750 0
21 2 S106 743 367392 6493 0
0 0 0 853 368245 -11785 0
0 0 0 806 369051 -10979 0
0 0 0 868 369919 -10111 0
0 0 0 908 370827 -9203 0
0 0 0 869 371696 -8334 0
0 0 0 803 372499 -7531 0
0 0 0 772 373271 -6759 0
0 0 0 792 374063 -5967 0
0 0 0 757 374820 -5210 0
0 0 0 721 375541 -4489 0
0 0 0 695 376236 -3794 0
0 0 0 671 376907 -3123 0
0 0 0 661 377568 -2462 0
22 1 S116 668 378236 -1794 0
22 1 S116 669 378905 -1125 0
22 1 S116 676 379581 -449 0
22 2 S116 715 380296 266 0
22 2 S116 767 381063 1033 0
22 2 S116 463 381526 1496 0
22 2 S116 883 382409 2379 0
22 2 S116 843 383252 3222 0
22 2 S116 794 384046 4016 0
22 2 S116 878 384924 4894 0
22 2 S116 454 385378 5348 1
22 2 S116 883 386261 6231 0
22 2 S116 776 387037 7007 0
0 0 0 781 387818 -9106 0
0 0 0 840 388658 -8266 0
0 0 0 839 389497 -7427 0
0 0 0 791 390288 -6636 0
0 0 0 457 390745 -6179 0
0 0 0 910 391655 -5269 0
0 0 0 839 392494 -4430 0
0 0 0 852 393346 -3578 0
0 0 0 768 394114 -2810 0
0 0 0 771 394885 -2039 0
23 1 S112 860 395745 -1179 0
23 1 S112 847 396592 -332 0
23 2 S112 812 397404 480 0
23 2 S112 758 398162 1238 0
23 2 S112 819 398981 2057 0
23 2 S112 863 399844 2920 0
23 2 S112 863 400707 3783 0
23 2 S112 789 401496 4572 0
23 2 S112 796 402292 5368 0
23 2 S112 846 403138 6214 0
0 0 0 873 404011 -9922 0
0 0 0 816 404827 -9106 0
0 0 0 775 405602 -8331 0
0 0 0 755 406357 -7576 0
0 0 0 778 407135 -6798 0
0 0 0 790 407925 -6008 0
0 0 0 793 408718 -5215 0
0 0 0 777 409495 -4438 0
0 0 0 746 410241 -3692 0
0 0 0 723 410964 -2969 0
0 0 0 696 411660 -2273 0
24 1 S106 710 412370 -1563 0
24 1 S106 727 413097 -836 0
24 1 S106 752 413849 -84 0
24 2 S106 745 414594 661 0
24 2 S106 746 415340 1407 0
24 2 S106 786 416126 2193 0
24 2 S106 814 416940 3007 0
24 2 S106 819 417759 3826 0
24 2 S106 769 418528 4595 0
24 2 S106 753 419281 5348 0
24 2 S106 735 420016 6083 0
24 2 S106 744 420760 6827 0
0 0 0 766 421526 -9002 0
0 0 0 806 422332 -8196 0
0 0 0 810 423142 -7386 0
0 0 0 458 423600 -6928 0
0 0 0 815 424415 -6113 0
0 0 0 762 425177 -5351 0
0 0 0 770 425947 -4581 0
0 0 0 733 426680 -3848 0
0 0 0 730 427410 -3118 0
0 0 0 751 428161 -2367 0
25 1 S102 790 428951 -1577 0
25 1 S102 785 429736 -792 0
25 1 S102 771 430507 -21 0
25 2 S102 807 431314 786 0
25 2 S102 834 432148 1620 0
25 2 S102 803 432951 2423 0
25 2 S102 819 433770 3242 0
25 2 S102 838 434608 4080 0
25 2 S102 836 435444 4916 0
25 2 S102 779 436223 5695 0
25 2 S102 809 437032 6504 0
0 0 0 805 437837 -6981 0
0 0 0 784 438621 -6197 0
0 0 0 738 439359 -5459 0
0 0 0 759 440118 -4700 0
0 0 0 762 440880 -3938 0
0 0 0 738 441618 -3200 0
0 0 0 726 442344 -2474 0
26 1 S116 776 443120 -1698 0
26 1 S116 780 443900 -918 0
26 1 S116 795 444695 -123 0
26 2 S116 783 445478 660 0
26 2 S116 786 446264 1446 0
26 2 S116 760 447024 2206 0
26 2 S116 727 447751 2933 0
26 2 S116 709 448460 3642 0
26 2 S116 714 449174 4356 0
26 2 S116 723 449897 5079 0
26 2 S116 741 450638 5820 0
26 2 S116 723 451361 6543 0
0 0 0 733 452094 -7247 0
0 0 0 786 452880 -6461 0
0 0 0 762 453642 -5699 0
0 0 0 534 454176 -5165 0
0 0 0 821 454997 -4344 0
0 0 0 721 455718 -3623 0
0 0 0 689 456407 -2934 0
0 0 0 719 457126 -2215 0
27 1 S106 719 457845 -1496 0
27 1 S106 743 458588 -753 0
27 1 S106 712 459300 -41 0
27 2 S106 503 459803 462 0
27 2 S106 803 460606 1265 0
27 2 S106 739 461345 2004 0
27 2 S106 769 462114 2773 0
27 2 S106 766 462880 3539 0
27 2 S106 745 463625 4284 0
27 2 S106 713 464338 4997 0
27 2 S106 737 465075 5734 0
27 2 S106 753 465828 6487 0
0 0 0 798 466626 -7138 0
0 0 0 787 467413 -6351 0
0 0 0 761 468174 -5590 0
0 0 0 789 468963 -4801 0
0 0 0 781 469744 -4020 0
0 0 0 721 470465 -3299 0
0 0 0 681 471146 -2618 0
28 1 S102 737 471883 -1881 0
28 1 S102 778 472661 -1103 0
28 1 S102 792 473453 -311 0
28 2 S102 782 474235 471 0
28 2 S102 812 475047 1283 0
28 2 S102 750 475797 2033 0
28 2 S102 438 476235 2471 1
28 2 S102 842 477077 3313 0
28 2 S102 761 477838 4074 0
28 2 S102 748 478586 4822 0
28 2 S102 721 479307 5543 0
28 2 S102 712 480019 6255 0
28 2 S102 730 480749 6985 0
0 0 0 751 481500 -10517 0
0 0 0 758 482258 -9759 0
0 0 0 754 483012 -9005 0
0 0 0 725 483737 -8280 0
0 0 0 748 484485 -7532 0
0 0 0 735 485220 -6797 0
0 0 0 716 485936 -6081 0
0 0 0 686 486622 -5395 0
0 0 0 705 487327 -4690 0
0 0 0 709 488036 -3981 0
0 0 0 764 488800 -3217 0
0 0 0 794 489594 -2423 0
29 1 S112 735 490329 -1688 0
29 1 S112 740 491069 -948 0
29 1 S112 785 491854 -163 0
29 2 S112 819 492673 656 0
29 2 S112 818 493491 1474 0
29 2 S112 819 494310 2293 0
29 2 S112 783 495093 3076 0
29 2 S112 807 495900 3883 0
29 2 S112 793 496693 4676 0
29 2 S112 767 497460 5443 0
29 2 S112 741 498201 6184 0
29 2 S112 778 498979 6962 0
0 0 0 767 499746 -7341 0
0 0 0 741 500487 -6600 0
0 0 0 732 501219 -5868 0
0 0 0 739 501958 -5129 0
0 0 0 736 502694 -4393 0
0 0 0 715 503409 -3678 0
0 0 0 705 504114 -2973 0
0 0 0 725 504839 -2248 0
30 1 S112 721 505560 -1527 0
30 1 S112 719 506279 -808 0
30 1 S112 701 506980 -107 0
30 2 S112 711 507691 604 0
30 2 S112 735 508426 1339 0
30 2 S112 824 509250 2163 0
30 2 S112 829 510079 2992 0
30 2 S112 802 510881 3794 0
30 2 S112 863 511744 4657 0
30 2 S112 880 512624 5537 0
30 2 S112 845 513469 6382 0
0 0 0 843 514312 -9917 0
0 0 0 830 515142 -9087 0
0 0 0 788 515930 -8299 0
0 0 0 729 516659 -7570 0
0 0 0 736 517395 -6834 0
0 0 0 747 518142 -6087 0
0 0 0 721 518863 -5366 0
0 0 0 449 519312 -4917 1
0 0 0 833 520145 -4084 0
0 0 0 705 520850 -3379 0
0 0 0 706 521556 -2673 0
31 1 S106 683 522239 -1990 0
31 1 S106 690 522929 -1300 0
31 1 S106 730 523659 -570 0
31 2 S106 775 524434 205 0
31 2 S106 826 525260 1031 0
31 2 S106 805 526065 1836 0
31 2 S106 856 526921 2692 0
31 2 S106 806 527727 3498 0
31 2 S106 768 528495 4266 0
31 2 S106 746 529241 5012 0
31 2 S106 732 529973 5744 0
31 2 S106 717 530690 6461 0
0 0 0 740 531430 -9891 0
0 0 0 744 532174 -9147 0
0 0 0 749 532923 -8398 0
0 0 0 730 533653 -7668 0
0 0 0 766 534419 -6902 0
0 0 0 765 535184 -6137 0
0 0 0 728 535912 -5409 0
0 0 0 720 536632 -4689 0
0 0 0 747 537379 -3942 0
0 0 0 757 538136 -3185 0
0 0 0 730 538866 -2455 0
32 1 S102 744 539610 -1711 0
32 1 S102 756 540366 -955 0
32 1 S102 737 541103 -218 0
32 2 S102 571 541674 353 0
32 2 S102 814 542488 1167 0
32 2 S102 733 543221 1900 0
32 2 S102 762 543983 2662 0
32 2 S102 774 544757 3436 0
32 2 S102 749 545506 4185 0
32 2 S102 748 546254 4933 0
32 2 S102 767 547021 5700 0
32 2 S102 789 547810 6489 0
0 0 0 751 548561 -11328 0
0 0 0 468 549029 -10860 0
0 0 0 866 549895 -9994 0
0 0 0 742 550637 -9252 0
0 0 0 746 551383 -8506 0
0 0 0 717 552100 -7789 0
0 0 0 719 552819 -7070 0
0 0 0 767 553586 -6303 0
0 0 0 793 554379 -5510 0
0 0 0 735 555114 -4775 0
0 0 0 770 555884 -4005 0
0 0 0 776 556660 -3229 0
0 0 0 781 557441 -2448 0
33 1 S112 766 558207 -1682 0
33 1 S112 762 558969 -920 0
33 1 S112 755 559724 -165 0
33 2 S112 718 560442 553 0
33 2 S112 686 561128 1239 0
33 2 S112 492 561620 1731 0
33 2 S112 748 562368 2479 0
33 2 S112 683 563051 3162 0
33 2 S112 705 563756 3867 0
33 2 S112 728 564484 4595 0
33 2 S112 707 565191 5302 0
33 2 S112 742 565933 6044 0
33 2 S112 809 566742 6853 0
0 0 0 860 567602 -10788 0
0 0 0 813 568415 -9975 0
0 0 0 775 569190 -9200 0
0 0 0 768 569958 -8432 0
0 0 0 674 570632 -7758 0
0 0 0 753 571385 -7005 0
0 0 0 683 572068 -6322 0
0 0 0 692 572760 -5630 0
0 0 0 685 573445 -4945 0
0 0 0 728 574173 -4217 0
0 0 0 718 574891 -3499 0
0 0 0 731 575622 -2768 0
34 1 S106 797 576419 -1971 0
34 1 S106 838 577257 -1133 0
34 1 S106 606 577863 -527 0
34 2 S106 890 578753 363 0
34 2 S106 807 579560 1170 0
34 2 S106 823 580383 1993 0
34 2 S106 801 581184 2794 0
34 2 S106 496 581680 3290 0
34 2 S106 922 582602 4212 0
34 2 S106 800 583402 5012 0
34 2 S106 748 584150 5760 0
34 2 S106 725 584875 6485 0
0 0 0 752 585627 -9922 0
0 0 0 772 586399 -9150 0
0 0 0 816 587215 -8334 0
0 0 0 474 587689 -7860 0
0 0 0 918 588607 -6942 0
0 0 0 848 589455 -6094 0
0 0 0 764 590219 -5330 0
0 0 0 762 590981 -4568 0
0 0 0 814 591795 -3754 0
0 0 0 817 592612 -2937 0
0 0 0 765 593377 -2172 0
35 1 S102 557 593934 -1615 0
35 1 S102 934 594868 -681 0
35 2 S102 786 595654 105 0
35 2 S102 726 596380 831 0
35 2 S102 695 597075 1526 0
35 2 S102 507 597582 2033 0
35 2 S102 845 598427 2878 0
35 2 S102 824 599251 3702 0
35 2 S102 848 600099 4550 0
35 2 S102 843 600942 5393 0
35 2 S102 801 601743 6194 0
35 2 S102 762 602505 6956 0
0 0 0 825 603330 -7405 0
0 0 0 858 604188 -6547 0
0 0 0 844 605032 -5703 0
0 0 0 812 605844 -4891 0
0 0 0 832 606676 -4059 0
0 0 0 794 607470 -3265 0
0 0 0 741 608211 -2524 0
36 1 S106 726 608937 -1798 0
36 1 S106 735 609672 -1063 0
36 1 S106 768 610440 -295 0
36 2 S106 825 611265 530 0
36 2 S106 536 611801 1066 0
36 2 S106 947 612748 2013 0
36 2 S106 891 613639 2904 0
36 2 S106 843 614482 3747 0
36 2 S106 767 615249 4514 0
36 2 S106 783 616032 5297 0
36 2 S106 781 616813 6078 0
36 2 S106 798 617611 6876 0
0 0 0 798 618409 -8970 0
0 0 0 564 618973 -8406 0
0 0 0 852 619825 -7554 0
0 0 0 817 620642 -6737 0
0 0 0 787 621429 -5950 0
0 0 0 775 622204 -5175 0
0 0 0 754 622958 -4421 0
0 0 0 788 623746 -3633 0
0 0 0 795 624541 -2838 0
0 0 0 780 625321 -2058 0
37 1 S116 731 626052 -1327 0
37 1 S116 763 626815 -564 0
37 2 S116 753 627568 189 0
37 2 S116 736 628304 925 0
37 2 S116 703 629007 1628 0
37 2 S116 729 629736 2357 0
37 2 S116 743 630479 3100 0
37 2 S116 799 631278 3899 0
37 2 S116 782 632060 4681 0
37 2 S116 768 632828 5449 0
37 2 S116 795 633623 6244 0
37 2 S116 716 634339 6960 0
0 0 0 841 635180 -10834 0
0 0 0 708 635888 -10126 0
0 0 0 712 636600 -9414 0
0 0 0 718 637318 -8696 0
0 0 0 739 638057 -7957 0
0 0 0 718 638775 -7239 0
0 0 0 703 639478 -6536 0
0 0 0 742 640220 -5794 0
0 0 0 789 641009 -5005 0
0 0 0 779 641788 -4226 0
0 0 0 732 642520 -3494 0
0 0 0 750 643270 -2744 0
38 1 S102 759 644029 -1985 0
38 1 S102 739 644768 -1246 0
38 1 S102 555 645323 -691 0
38 2 S102 822 646145 131 0
38 2 S102 693 646838 824 0
38 2 S102 663 647501 1487 0
38 2 S102 669 648170 2156 0
38 2 S102 689 648859 2845 0
38 2 S102 724 649583 3569 0
38 2 S102 722 650305 4291 0
38 2 S102 729 651034 5020 0
38 2 S102 545 651579 5565 0
38 2 S102 905 652484 6470 0
0 0 0 775 653259 -9764 0
0 0 0 734 653993 -9030 0
0 0 0 765 654758 -8265 0
0 0 0 765 655523 -7500 0
0 0 0 730 656253 -6770 0
0 0 0 658 656911 -6112 0
0 0 0 819 657730 -5293 0
0 0 0 752 658482 -4541 0
0 0 0 710 659192 -3831 0
0 0 0 706 659898 -3125 0
0 0 0 720 660618 -2405 0
39 1 S116 717 661335 -1688 0
39 1 S116 710 662045 -978 0
39 1 S116 734 662779 -244 0
39 2 S116 774 663553 530 0
39 2 S116 593 664146 1123 0
39 2 S116 968 665114 2091 0
39 2 S116 895 666009 2986 0
39 2 S116 904 666913 3890 0
39 2 S116 910 667823 4800 0
39 2 S116 869 668692 5669 0
39 2 S116 808 669500 6477 0
0 0 0 809 670309 -8729 0
0 0 0 808 671117 -7921 0
0 0 0 762 671879 -7159 0
0 0 0 729 672608 -6430 0
0 0 0 769 673377 -5661 0
0 0 0 795 674172 -4866 0
0 0 0 455 674627 -4411 1
0 0 0 793 675420 -3618 0
0 0 0 739 676159 -2879 0
0 0 0 707 676866 -2172 0
40 1 S112 733 677599 -1439 0
40 1 S112 729 678328 -710 0
40 2 S112 717 679045 7 0
40 2 S112 695 679740 702 0
40 2 S112 677 680417 1379 0
40 2 S112 664 681081 2043 0
40 2 S112 660 681741 2703 0
40 2 S112 678 682419 3381 0
40 2 S112 690 683109 4071 0
40 2 S112 737 683846 4808 0
40 2 S112 748 684594 5556 0
40 2 S112 729 685323 6285 0
0 0 0 755 686078 -188286 0
0 0 0 582 686660 -187704 0
0 0 0 926 687586 -186778 0
0 0 0 742 688328 -186036 0
0 0 0 754 689082 -185282 0
0 0 0 760 689842 -184522 0
0 0 0 518 690360 -184004 0
0 0 0 863 691223 -183141 0
0 0 0 747 691970 -182394 0
0 0 0 696 692666 -181698 0
0 0 0 2096 694762 -179602 1
0 0 0 724 695486 -178878 0
0 0 0 716 696202 -178162 0
0 0 0 712 696914 -177450 0
0 0 0 687 697601 -176763 0
0 0 0 679 698280 -176084 0
0 0 0 686 698966 -175398 0
0 0 0 673 699639 -174725 0
0 0 0 3881 703520 -170844 1
0 0 0 611 704131 -170233 0
0 0 0 604 704735 -169629 0
0 0 0 592 705327 -169037 0
0 0 0 573 705900 -168464 0
0 0 0 564 706464 -167900 0
0 0 0 565 707029 -167335 0
0 0 0 562 707591 -166773 0
0 0 0 585 708176 -166188 0
0 0 0 698 708874 -165490 0
0 0 0 722 709596 -164768 0
0 0 0 819 710415 -163949 0
0 0 0 805 711220 -163144 0
0 0 0 833 712053 -162311 0
0 0 0 787 712840 -161524 0
0 0 0 801 713641 -160723 0
0 0 0 787 714428 -159936 0
0 0 0 815 715243 -159121 0
0 0 0 769 716012 -158352 0
0 0 0 748 716760 -157604 0
0 0 0 746 717506 -156858 0
0 0 0 726 718232 -156132 0
0 0 0 716 718948 -155416 0
0 0 0 714 719662 -154702 0
0 0 0 702 720364 -154000 0
0 0 0 682 721046 -153318 0
0 0 0 651 721697 -152667 0
0 0 0 636 722333 -152031 0
0 0 0 625 722958 -151406 0
0 0 0 639 723597 -150767 0
0 0 0 670 724267 -150097 0
0 0 0 730 724997 -149367 0
0 0 0 729 725726 -148638 0
0 0 0 728 726454 -147910 0
0 0 0 752 727206 -147158 0
0 0 0 765 727971 -146393 0
0 0 0 749 728720 -145644 0
0 0 0 716 729436 -144928 0
0 0 0 687 730123 -144241 0
0 0 0 692 730815 -143549 0
0 0 0 666 731481 -142883 0
0 0 0 652 732133 -142231 0
0 0 0 646 732779 -141585 0
0 0 0 632 733411 -140953 0
0 0 0 625 734036 -140328 0
0 0 0 616 734652 -139712 0
0 0 0 622 735274 -139090 0
0 0 0 633 735907 -138457 0
0 0 0 649 736556 -137808 0
0 0 0 693 737249 -137115 0
0 0 0 699 737948 -136416 0
0 0 0 705 738653 -135711 0
0 0 0 737 739390 -134974 0
0 0 0 772 740162 -134202 0
0 0 0 822 740984 -133380 0
0 0 0 774 741758 -132606 0
0 0 0 776 742534 -131830 0
0 0 0 758 743292 -131072 0
0 0 0 760 744052 -130312 0
0 0 0 725 744777 -129587 0
0 0 0 720 745497 -128867 0
0 0 0 724 746221 -128143 0
0 0 0 705 746926 -127438 0
0 0 0 689 747615 -126749 0
0 0 0 676 748291 -126073 0
0 0 0 699 748990 -125374 0
0 0 0 727 749717 -124647 0
0 0 0 782 750499 -123865 0
0 0 0 754 751253 -123111 0
0 0 0 754 752007 -122357 0
0 0 0 769 752776 -121588 0
0 0 0 752 753528 -120836 0
0 0 0 754 754282 -120082 0
0 0 0 728 755010 -119354 0
0 0 0 717 755727 -118637 0
0 0 0 696 756423 -117941 0
0 0 0 682 757105 -117259 0
0 0 0 657 757762 -116602 0
0 0 0 622 758384 -115980 0
0 0 0 605 758989 -115375 0
0 0 0 587 759576 -114788 0
0 0 0 585 760161 -114203 0
0 0 0 608 760769 -113595 0
0 0 0 697 761466 -112898 0
0 0 0 814 762280 -112084 0
0 0 0 812 763092 -111272 0
0 0 0 813 763905 -110459 0
0 0 0 846 764751 -109613 0
0 0 0 810 765561 -108803 0
0 0 0 854 766415 -107949 0
0 0 0 819 767234 -107130 0
0 0 0 763 767997 -106367 0
0 0 0 746 768743 -105621 0
0 0 0 727 769470 -104894 0
0 0 0 736 770206 -104158 0
0 0 0 700 770906 -103458 0
0 0 0 709 771615 -102749 0
0 0 0 695 772310 -102054 0
0 0 0 695 773005 -101359 0
0 0 0 338 773343 -101021 1
0 0 0 342 773685 -100679 1
0 0 0 691 774376 -99988 0
0 0 0 684 775060 -99304 0
0 0 0 690 775750 -98614 0
0 0 0 860 776610 -97754 0
0 0 0 858 777468 -96896 0
0 0 0 807 778275 -96089 0
0 0 0 791 779066 -95298 0
0 0 0 776 779842 -94522 0
0 0 0 755 780597 -93767 0
0 0 0 718 781315 -93049 0
0 0 0 679 781994 -92370 0
0 0 0 655 782649 -91715 0
0 0 0 640 783289 -91075 0
0 0 0 621 783910 -90454 0
0 0 0 625 784535 -89829 0
0 0 0 635 785170 -89194 0
0 0 0 680 785850 -88514 0
0 0 0 707 786557 -87807 0
0 0 0 699 787256 -87108 0
0 0 0 778 788034 -86330 0
0 0 0 744 788778 -85586 0
0 0 0 767 789545 -84819 0
0 0 0 543 790088 -84276 0
0 0 0 943 791031 -83333 0
0 0 0 806 791837 -82527 0
0 0 0 796 792633 -81731 0
0 0 0 755 793388 -80976 0
0 0 0 734 794122 -80242 0
0 0 0 734 794856 -79508 0
0 0 0 707 795563 -78801 0
0 0 0 687 796250 -78114 0
0 0 0 706 796956 -77408 0
0 0 0 706 797662 -76702 0
0 0 0 712 798374 -75990 0
0 0 0 687 799061 -75303 0
0 0 0 687 799748 -74616 0
0 0 0 673 800421 -73943 0
0 0 0 665 801086 -73278 0
0 0 0 648 801734 -72630 0
0 0 0 655 802389 -71975 0
0 0 0 669 803058 -71306 0
0 0 0 661 803719 -70645 0
0 0 0 689 804408 -69956 0
0 0 0 708 805116 -69248 0
0 0 0 728 805844 -68520 0
0 0 0 707 806551 -67813 0
0 0 0 624 807175 -67189 0
0 0 0 852 808027 -66337 0
0 0 0 716 808743 -65621 0
0 0 0 706 809449 -64915 0
0 0 0 710 810159 -64205 0
0 0 0 529 810688 -63676 0
0 0 0 870 811558 -62806 0
0 0 0 724 812282 -62082 0
0 0 0 748 813030 -61334 0
0 0 0 771 813801 -60563 0
0 0 0 778 814579 -59785 0
0 0 0 738 815317 -59047 0
0 0 0 765 816082 -58282 0
0 0 0 747 816829 -57535 0
0 0 0 710 817539 -56825 0
0 0 0 724 818263 -56101 0
0 0 0 717 818980 -55384 0
0 0 0 699 819679 -54685 0
0 0 0 531 820210 -54154 0
0 0 0 768 820978 -53386 0
0 0 0 670 821648 -52716 0
0 0 0 674 822322 -52042 0
0 0 0 682 823004 -51360 0
0 0 0 694 823698 -50666 0
0 0 0 720 824418 -49946 0
0 0 0 705 825123 -49241 0
0 0 0 729 825852 -48512 0
0 0 0 721 826573 -47791 0
0 0 0 694 827267 -47097 0
0 0 0 712 827979 -46385 0
0 0 0 696 828675 -45689 0
0 0 0 681 829356 -45008 0
0 0 0 672 830028 -44336 0
0 0 0 675 830703 -43661 0
0 0 0 670 831373 -42991 0
0 0 0 658 832031 -42333 0
0 0 0 661 832692 -41672 0
0 0 0 675 833367 -40997 0
0 0 0 690 834057 -40307 0
0 0 0 710 834767 -39597 0
0 0 0 709 835476 -38888 0
0 0 0 743 836219 -38145 0
0 0 0 731 836950 -37414 0
0 0 0 751 837701 -36663 0
0 0 0 706 838407 -35957 0
0 0 0 503 838910 -35454 0
0 0 0 759 839669 -34695 0
0 0 0 676 840345 -34019 0
0 0 0 650 840995 -33369 0
0 0 0 628 841623 -32741 0
0 0 0 629 842252 -32112 0
0 0 0 626 842878 -31486 0
0 0 0 628 843506 -30858 0
0 0 0 631 844137 -30227 0
0 0 0 618 844755 -29609 0
0 0 0 623 845378 -28986 0
0 0 0 624 846002 -28362 0
0 0 0 621 846623 -27741 0
0 0 0 646 847269 -27095 0
0 0 0 656 847925 -26439 0
0 0 0 679 848604 -25760 0
0 0 0 681 849285 -25079 0
0 0 0 682 849967 -24397 0
0 0 0 701 850668 -23696 0
0 0 0 717 851385 -22979 0
0 0 0 704 852089 -22275 0
0 0 0 705 852794 -21570 0
0 0 0 728 853522 -20842 0
0 0 0 719 854241 -20123 0
0 0 0 699 854940 -19424 0
0 0 0 693 855633 -18731 0
0 0 0 721 856354 -18010 0
0 0 0 752 857106 -17258 0
0 0 0 721 857827 -16537 0
0 0 0 716 858543 -15821 0
0 0 0 733 859276 -15088 0
0 0 0 724 860000 -14364 0
0 0 0 698 860698 -13666 0
0 0 0 720 861418 -12946 0
0 0 0 729 862147 -12217 0
0 0 0 739 862886 -11478 0
0 0 0 550 863436 -10928 0
0 0 0 850 864286 -10078 0
0 0 0 700 864986 -9378 0
0 0 0 672 865658 -8706 0
0 0 0 656 866314 -8050 0
0 0 0 665 866979 -7385 0
0 0 0 657 867636 -6728 0
0 0 0 679 868315 -6049 0
0 0 0 661 868976 -5388 0
0 0 0 713 869689 -4675 0
0 0 0 715 870404 -3960 0
0 0 0 722 871126 -3238 0
0 0 0 721 871847 -2517 0
41 1 S102 706 872553 -1811 0
41 1 S102 682 873235 -1129 0
41 1 S102 660 873895 -469 0
41 2 S102 668 874563 199 0
41 2 S102 658 875221 857 0
41 2 S102 658 875879 1515 0
41 2 S102 640 876519 2155 0
41 2 S102 635 877154 2790 0
41 2 S102 631 877785 3421 0
41 2 S102 649 878434 4070 0
41 2 S102 664 879098 4734 0
41 2 S102 678 879776 5412 0
41 2 S102 678 880454 6090 0
41 2 S102 673 881127 6763 0
0 0 0 711 881838 -7231 0
0 0 0 731 882569 -6500 0
0 0 0 754 883323 -5746 0
0 0 0 716 884039 -5030 0
0 0 0 712 884751 -4318 0
0 0 0 720 885471 -3598 0
0 0 0 715 886186 -2883 0
0 0 0 692 886878 -2191 0
42 1 S112 676 887554 -1515 0
42 1 S112 656 888210 -859 0
42 1 S112 638 888848 -221 0
42 2 S112 625 889473 404 0
42 2 S112 619 890092 1023 0
42 2 S112 619 890711 1642 0
42 2 S112 629 891340 2271 0
42 2 S112 659 891999 2930 0
42 2 S112 758 892757 3688 0
42 2 S112 822 893579 4510 0
42 2 S112 822 894401 5332 0
42 2 S112 780 895181 6112 0
42 2 S112 783 895964 6895 0
0 0 0 806 896770 -8695 0
0 0 0 806 897576 -7889 0
0 0 0 759 898335 -7130 0
0 0 0 719 899054 -6411 0
0 0 0 706 899760 -5705 0
0 0 0 692 900452 -5013 0
0 0 0 769 901221 -4244 0
0 0 0 772 901993 -3472 0
0 0 0 758 902751 -2714 0
43 1 S116 751 903502 -1963 0
43 1 S116 733 904235 -1230 0
43 1 S116 694 904929 -536 0
43 2 S116 702 905631 166 0
43 2 S116 724 906355 890 0
43 2 S116 818 907173 1708 0
43 2 S116 872 908045 2580 0
43 2 S116 861 908906 3441 0
43 2 S116 914 909820 4355 0
43 2 S116 922 910742 5277 0
43 2 S116 908 911650 6185 0
43 2 S116 830 912480 7015 0
0 0 0 853 913333 -6820 0
0 0 0 830 914163 -5990 0
0 0 0 800 914963 -5190 0
0 0 0 747 915710 -4443 0
0 0 0 721 916431 -3722 0
0 0 0 718 917149 -3004 0
0 0 0 703 917852 -2301 0
44 1 S102 678 918530 -1623 0
44 1 S102 681 919211 -942 0
44 1 S102 692 919903 -250 0
44 2 S102 673 920576 423 0
44 2 S102 695 921271 1118 0
44 2 S102 711 921982 1829 0
44 2 S102 720 922702 2549 0
44 2 S102 692 923394 3241 0
44 2 S102 705 924099 3946 0
44 2 S102 721 924820 4667 0
44 2 S102 755 925575 5422 0
44 2 S102 770 926345 6192 0
44 2 S102 725 927070 6917 0
0 0 0 733 927803 -8547 0
0 0 0 752 928555 -7795 0
0 0 0 741 929296 -7054 0
0 0 0 568 929864 -6486 0
0 0 0 845 930709 -5641 0
0 0 0 727 931436 -4914 0
0 0 0 722 932158 -4192 0
0 0 0 705 932863 -3487 0
0 0 0 682 933545 -2805 0
0 0 0 691 934236 -2114 0
45 1 S116 699 934935 -1415 0
45 1 S116 703 935638 -712 0
45 1 S116 693 936331 -19 0
45 2 S116 708 937039 689 0
45 2 S116 727 937766 1416 0
45 2 S116 750 938516 2166 0
45 2 S116 751 939267 2917 0
45 2 S116 751 940018 3668 0
45 2 S116 792 940810 4460 0
45 2 S116 786 941596 5246 0
45 2 S116 754 942350 6000 0
45 2 S116 719 943069 6719 0
0 0 0 739 943808 -11326 0
0 0 0 728 944536 -10598 0
0 0 0 716 945252 -9882 0
0 0 0 697 945949 -9185 0
0 0 0 670 946619 -8515 0
0 0 0 680 947299 -7835 0
0 0 0 689 947988 -7146 0
0 0 0 702 948690 -6444 0
0 0 0 716 949406 -5728 0
0 0 0 735 950141 -4993 0
0 0 0 701 950842 -4292 0
0 0 0 711 951553 -3581 0
0 0 0 686 952239 -2895 0
0 0 0 664 952903 -2231 0
46 1 S102 651 953554 -1580 0
46 1 S102 631 954185 -949 0
46 1 S102 617 954802 -332 0
46 2 S102 609 955411 277 0
46 2 S102 604 956015 881 0
46 2 S102 614 956629 1495 0
46 2 S102 608 957237 2103 0
46 2 S102 611 957848 2714 0
46 2 S102 629 958477 3343 0
46 2 S102 615 959092 3958 0
46 2 S102 613 959705 4571 0
46 2 S102 637 960342 5208 0
46 2 S102 638 960980 5846 0
46 2 S102 640 961620 6486 0
0 0 0 637 962257 -9339 0
0 0 0 639 962896 -8700 0
0 0 0 657 963553 -8043 0
0 0 0 664 964217 -7379 0
0 0 0 667 964884 -6712 0
0 0 0 653 965537 -6059 0
0 0 0 636 966173 -5423 0
0 0 0 618 966791 -4805 0
0 0 0 606 967397 -4199 0
0 0 0 595 967992 -3604 0
0 0 0 584 968576 -3020 0
0 0 0 573 969149 -2447 0
47 1 S112 585 969734 -1862 0
47 1 S112 587 970321 -1275 0
47 1 S112 603 970924 -672 0
47 1 S112 627 971551 -45 0
47 2 S112 673 972224 628 0
47 2 S112 772 972996 1400 0
47 2 S112 767 973763 2167 0
47 2 S112 833 974596 3000 0
47 2 S112 847 975443 3847 0
47 2 S112 853 976296 4700 0
47 2 S112 840 977136 5540 0
47 2 S112 852 977988 6392 0
0 0 0 825 978813 -11019 0
0 0 0 762 979575 -10257 0
0 0 0 735 980310 -9522 0
0 0 0 722 981032 -8800 0
0 0 0 692 981724 -8108 0
0 0 0 668 982392 -7440 0
0 0 0 678 983070 -6762 0
0 0 0 687 983757 -6075 0
0 0 0 703 984460 -5372 0
0 0 0 693 985153 -4679 0
0 0 0 695 985848 -3984 0
0 0 0 696 986544 -3288 0
0 0 0 743 987287 -2545 0
48 1 S116 794 988081 -1751 0
48 1 S116 787 988868 -964 0
48 1 S116 770 989638 -194 0
48 2 S116 710 990348 516 0
48 2 S116 726 991074 1242 0
48 2 S116 721 991795 1963 0
48 2 S116 735 992530 2698 0
48 2 S116 703 993233 3401 0
48 2 S116 713 993946 4114 0
48 2 S116 748 994694 4862 0
48 2 S116 779 995473 5641 0
48 2 S116 798 996271 6439 0
0 0 0 764 997035 -7668 0
0 0 0 788 997823 -6880 0
0 0 0 783 998606 -6097 0
0 0 0 777 999383 -5320 0
0 0 0 735 1000118 -4585 0
0 0 0 716 1000834 -3869 0
0 0 0 702 1001536 -3167 0
0 0 0 742 1002278 -2425 0
49 1 S112 809 1003087 -1616 0
49 1 S112 784 1003871 -832 0
49 1 S112 780 1004651 -52 0
49 2 S112 769 1005420 717 0
49 2 S112 764 1006184 1481 0
49 2 S112 760 1006944 2241 0
49 2 S112 719 1007663 2960 0
49 2 S112 547 1008210 3507 0
49 2 S112 762 1008972 4269 0
49 2 S112 678 1009650 4947 0
49 2 S112 672 1010322 5619 0
49 2 S112 680 1011002 6299 0
49 2 S112 682 1011684 6981 0
0 0 0 676 1012360 -10861 0
0 0 0 692 1013052 -10169 0
0 0 0 674 1013726 -9495 0
0 0 0 660 1014386 -8835 0
0 0 0 650 1015036 -8185 0
0 0 0 642 1015678 -7543 0
0 0 0 655 1016333 -6888 0
0 0 0 659 1016992 -6229 0
0 0 0 678 1017670 -5551 0
0 0 0 724 1018394 -4827 0
0 0 0 748 1019142 -4079 0
0 0 0 747 1019889 -3332 0
0 0 0 712 1020601 -2620 0
50 1 S106 729 1021330 -1891 0
50 1 S106 723 1022053 -1168 0
50 1 S106 718 1022771 -450 0
50 2 S106 687 1023458 237 0
50 2 S106 670 1024128 907 0
50 2 S106 667 1024795 1574 0
50 2 S106 681 1025476 2255 0
50 2 S106 682 1026158 2937 0
50 2 S106 695 1026853 3632 0
50 2 S106 699 1027552 4331 0
50 2 S106 679 1028231 5010 0
50 2 S106 678 1028909 5688 0
50 2 S106 696 1029605 6384 0
0 0 0 698 1030303 -7175 0
0 0 0 710 1031013 -6465 0
0 0 0 696 1031709 -5769 0
0 0 0 581 1032290 -5188 0
0 0 0 844 1033134 -4344 0
0 0 0 719 1033853 -3625 0
0 0 0 699 1034552 -2926 0
0 0 0 687 1035239 -2239 0
51 1 S112 689 1035928 -1550 0
51 1 S112 681 1036609 -869 0
51 1 S112 671 1037280 -198 0
51 2 S112 657 1037937 459 0
51 2 S112 646 1038583 1105 0
51 2 S112 635 1039218 1740 0
51 2 S112 638 1039856 2378 0
51 2 S112 650 1040506 3028 0
51 2 S112 680 1041186 3708 0
51 2 S112 715 1041901 4423 0
51 2 S112 726 1042627 5149 0
51 2 S112 727 1043354 5876 0
51 2 S112 745 1044099 6621 0
0 0 0 658 1044757 -6946 0
0 0 0 870 1045627 -6076 0
0 0 0 735 1046362 -5341 0
0 0 0 717 1047079 -4624 0
0 0 0 694 1047773 -3930 0
0 0 0 480 1048253 -3450 0
0 0 0 754 1049007 -2696 0
0 0 0 671 1049678 -2025 0
52 1 S116 678 1050356 -1347 0
52 1 S116 669 1051025 -678 0
52 1 S116 645 1051670 -33 0
52 2 S116 646 1052316 613 0
52 2 S116 672 1052988 1285 0
52 2 S116 712 1053700 1997 0
52 2 S116 770 1054470 2767 0
52 2 S116 756 1055226 3523 0
52 2 S116 773 1055999 4296 0
52 2 S116 822 1056821 5118 0
52 2 S116 848 1057669 5966 0
52 2 S116 845 1058514 6811 0
0 0 0 792 1059306 -9290 0
0 0 0 763 1060069 -8527 0
0 0 0 747 1060816 -7780 0
0 0 0 727 1061543 -7053 0
0 0 0 704 1062247 -6349 0
0 0 0 684 1062931 -5665 0
0 0 0 667 1063598 -4998 0
0 0 0 644 1064242 -4354 0
0 0 0 621 1064863 -3733 0
0 0 0 603 1065466 -3130 0
0 0 0 590 1066056 -2540 0
53 1 S106 580 1066636 -1960 0
53 1 S106 580 1067216 -1380 0
53 1 S106 603 1067819 -777 0
53 1 S106 625 1068444 -152 0
53 2 S106 704 1069148 552 0
53 2 S106 898 1070046 1450 0
53 2 S106 892 1070938 2342 0
53 2 S106 872 1071810 3214 0
53 2 S106 811 1072621 4025 0
53 2 S106 854 1073475 4879 0
53 2 S106 874 1074349 5753 0
53 2 S106 851 1075200 6604 0
0 0 0 765 1075965 -7419 0
0 0 0 752 1076717 -6667 0
0 0 0 724 1077441 -5943 0
0 0 0 731 1078172 -5212 0
0 0 0 697 1078869 -4515 0
0 0 0 563 1079432 -3952 0
0 0 0 852 1080284 -3100 0
0 0 0 711 1080995 -2389 0
54 1 S102 686 1081681 -1703 0
54 1 S102 696 1082377 -1007 0
54 1 S102 681 1083058 -326 0
54 2 S102 678 1083736 352 0
54 2 S102 659 1084395 1011 0
54 2 S102 648 1085043 1659 0
54 2 S102 656 1085699 2315 0
54 2 S102 667 1086366 2982 0
54 2 S102 724 1087090 3706 0
54 2 S102 783 1087873 4489 0
54 2 S102 732 1088605 5221 0
54 2 S102 770 1089375 5991 0
54 2 S102 807 1090182 6798 0
0 0 0 817 1090999 -11516 0
0 0 0 769 1091768 -10747 0
0 0 0 722 1092490 -10025 0
0 0 0 735 1093225 -9290 0
0 0 0 722 1093947 -8568 0
0 0 0 684 1094631 -7884 0
0 0 0 682 1095313 -7202 0
0 0 0 687 1096000 -6515 0
0 0 0 674 1096674 -5841 0
0 0 0 662 1097336 -5179 0
0 0 0 650 1097986 -4529 0
0 0 0 652 1098638 -3877 0
0 0 0 658 1099296 -3219 0
0 0 0 673 1099969 -2546 0
55 1 S106 694 1100663 -1852 0
55 1 S106 700 1101363 -1152 0
55 1 S106 679 1102042 -473 0
55 2 S106 663 1102705 190 0
55 2 S106 646 1103351 836 0
55 2 S106 631 1103982 1467 0
55 2 S106 632 1104614 2099 0
55 2 S106 621 1105235 2720 0
55 2 S106 621 1105856 3341 0
55 2 S106 619 1106475 3960 0
55 2 S106 621 1107096 4581 0
55 2 S106 635 1107731 5216 0
55 2 S106 664 1108395 5880 0
55 2 S106 688 1109083 6568 0
0 0 0 677 1109760 -7427 0
0 0 0 683 1110443 -6744 0
0 0 0 692 1111135 -6052 0
0 0 0 680 1111815 -5372 0
0 0 0 679 1112494 -4693 0
0 0 0 659 1113153 -4034 0
0 0 0 646 1113799 -3388 0
0 0 0 639 1114438 -2749 0
0 0 0 643 1115081 -2106 0
56 1 S116 654 1115735 -1452 0
56 1 S116 665 1116400 -787 0
56 1 S116 700 1117100 -87 0
56 2 S116 683 1117783 596 0
56 2 S116 706 1118489 1302 0
56 2 S116 722 1119211 2024 0
56 2 S116 725 1119936 2749 0
56 2 S116 696 1120632 3445 0
56 2 S116 694 1121326 4139 0
56 2 S116 726 1122052 4865 0
56 2 S116 729 1122781 5594 0
56 2 S116 726 1123507 6320 0
56 2 S116 691 1124198 7011 0
0 0 0 724 1124922 -7401 0
0 0 0 719 1125641 -6682 0
0 0 0 735 1126376 -5947 0
0 0 0 691 1127067 -5256 0
0 0 0 710 1127777 -4546 0
0 0 0 706 1128483 -3840 0
0 0 0 678 1129161 -3162 0
0 0 0 667 1129828 -2495 0
57 1 S106 666 1130494 -1829 0
57 1 S106 695 1131189 -1134 0
57 1 S106 689 1131878 -445 0
57 2 S106 684 1132562 239 0
57 2 S106 685 1133247 924 0
57 2 S106 680 1133927 1604 0
57 2 S106 702 1134629 2306 0
57 2 S106 734 1135363 3040 0
57 2 S106 718 1136081 3758 0
57 2 S106 683 1136764 4441 0
57 2 S106 676 1137440 5117 0
57 2 S106 659 1138099 5776 0
57 2 S106 662 1138761 6438 0
0 0 0 669 1139430 -9239 0
0 0 0 692 1140122 -8547 0
0 0 0 682 1140804 -7865 0
0 0 0 617 1141421 -7248 0
0 0 0 695 1142116 -6553 0
0 0 0 637 1142753 -5916 0
0 0 0 616 1143369 -5300 0
0 0 0 608 1143977 -4692 0
0 0 0 620 1144597 -4072 0
0 0 0 636 1145233 -3436 0
0 0 0 718 1145951 -2718 0
58 1 S102 775 1146726 -1943 0
58 1 S102 744 1147470 -1199 0
58 1 S102 696 1148166 -503 0
58 2 S102 692 1148858 189 0
58 2 S102 715 1149573 904 0
58 2 S102 717 1150290 1621 0
58 2 S102 707 1150997 2328 0
58 2 S102 698 1151695 3026 0
58 2 S102 481 1152176 3507 0
58 2 S102 772 1152948 4279 0
58 2 S102 683 1153631 4962 0
58 2 S102 682 1154313 5644 0
58 2 S102 689 1155002 6333 0
0 0 0 698 1155700 -7824 0
0 0 0 694 1156394 -7130 0
0 0 0 684 1157078 -6446 0
0 0 0 694 1157772 -5752 0
0 0 0 703 1158475 -5049 0
0 0 0 692 1159167 -4357 0
0 0 0 686 1159853 -3671 0
0 0 0 658 1160511 -3013 0
0 0 0 655 1161166 -2358 0
59 1 S112 648 1161814 -1710 0
59 1 S112 641 1162455 -1069 0
59 1 S112 643 1163098 -426 0
59 2 S112 646 1163744 220 0
59 2 S112 642 1164386 862 0
59 2 S112 639 1165025 1501 0
59 2 S112 656 1165681 2157 0
59 2 S112 667 1166348 2824 0
59 2 S112 671 1167019 3495 0
59 2 S112 683 1167702 4178 0
59 2 S112 677 1168379 4855 0
59 2 S112 670 1169049 5525 0
59 2 S112 687 1169736 6212 0
59 2 S112 691 1170427 6903 0
0 0 0 686 1171113 -9039 0
0 0 0 683 1171796 -8356 0
0 0 0 673 1172469 -7683 0
0 0 0 680 1173149 -7003 0
0 0 0 698 1173847 -6305 0
0 0 0 685 1174532 -5620 0
0 0 0 699 1175231 -4921 0
0 0 0 685 1175916 -4236 0
0 0 0 679 1176595 -3557 0
0 0 0 662 1177257 -2895 0
0 0 0 645 1177902 -2250 0
60 1 S102 622 1178524 -1628 0
60 1 S102 607 1179131 -1021 0
60 1 S102 594 1179725 -427 0
60 2 S102 584 1180309 157 0
60 2 S102 588 1180897 745 0
60 2 S102 610 1181507 1355 0
60 2 S102 652 1182159 2007 0
60 2 S102 736 1182895 2743 0
60 2 S102 788 1183683 3531 0
60 2 S102 740 1184423 4271 0
60 2 S102 750 1185173 5021 0
60 2 S102 777 1185950 5798 0
60 2 S102 801 1186751 6599 0
0 0 0 778 1187529 -10295 0
0 0 0 760 1188289 -9535 0
0 0 0 759 1189048 -8776 0
0 0 0 750 1189798 -8026 0
0 0 0 702 1190500 -7324 0
0 0 0 698 1191198 -6626 0
0 0 0 679 1191877 -5947 0
0 0 0 663 1192540 -5284 0
0 0 0 649 1193189 -4635 0
0 0 0 670 1193859 -3965 0
0 0 0 668 1194527 -3297 0
0 0 0 678 1195205 -2619 0
61 1 S106 657 1195862 -1962 0
61 1 S106 659 1196521 -1303 0
61 1 S106 639 1197160 -664 0
61 1 S106 650 1197810 -14 0
61 2 S106 783 1198593 769 0
61 2 S106 798 1199391 1567 0
61 2 S106 847 1200238 2414 0
61 2 S106 871 1201109 3285 0
61 2 S106 849 1201958 4134 0
61 2 S106 818 1202776 4952 0
61 2 S106 794 1203570 5746 0
61 2 S106 746 1204316 6492 0
0 0 0 683 1204999 -7182 0
0 0 0 686 1205685 -6496 0
0 0 0 696 1206381 -5800 0
0 0 0 731 1207112 -5069 0
0 0 0 712 1207824 -4357 0
0 0 0 697 1208521 -3660 0
0 0 0 701 1209222 -2959 0
0 0 0 714 1209936 -2245 0
62 1 S112 727 1210663 -1518 0
62 1 S112 778 1211441 -740 0
62 2 S112 780 1212221 40 0
62 2 S112 529 1212750 569 0
62 2 S112 934 1213684 1503 0
62 2 S112 854 1214538 2357 0
62 2 S112 814 1215352 3171 0
62 2 S112 789 1216141 3960 0
62 2 S112 776 1216917 4736 0
62 2 S112 736 1217653 5472 0
62 2 S112 740 1218393 6212 0
62 2 S112 729 1219122 6941 0
0 0 0 726 1219848 -10685 0
0 0 0 705 1220553 -9980 0
0 0 0 691 1221244 -9289 0
0 0 0 699 1221943 -8590 0
0 0 0 690 1222633 -7900 0
0 0 0 666 1223299 -7234 0
0 0 0 649 1223948 -6585 0
0 0 0 648 1224596 -5937 0
0 0 0 644 1225240 -5293 0
0 0 0 659 1225899 -4634 0
0 0 0 659 1226558 -3975 0
0 0 0 656 1227214 -3319 0
0 0 0 652 1227866 -2667 0
63 1 S102 686 1228552 -1981 0
63 1 S102 701 1229253 -1280 0
63 1 S102 712 1229965 -568 0
63 1 S102 537 1230502 -31 0
63 2 S102 793 1231295 762 0
63 2 S102 704 1231999 1466 0
63 2 S102 701 1232700 2167 0
63 2 S102 693 1233393 2860 0
63 2 S102 517 1233910 3377 0
63 2 S102 776 1234686 4153 0
63 2 S102 681 1235367 4834 0
63 2 S102 681 1236048 5515 0
63 2 S102 661 1236709 6176 0
63 2 S102 653 1237362 6829 0
0 0 0 673 1238035 -8563 0
0 0 0 672 1238707 -7891 0
0 0 0 688 1239395 -7203 0
0 0 0 676 1240071 -6527 0
0 0 0 685 1240756 -5842 0
0 0 0 522 1241278 -5320 0
0 0 0 773 1242051 -4547 0
0 0 0 658 1242709 -3889 0
0 0 0 657 1243366 -3232 0
0 0 0 671 1244037 -2561 0
64 1 S112 676 1244713 -1885 0
64 1 S112 691 1245404 -1194 0
64 1 S112 676 1246080 -518 0
64 2 S112 696 1246776 178 0
64 2 S112 713 1247489 891 0
64 2 S112 747 1248236 1638 0
64 2 S112 709 1248945 2347 0
64 2 S112 701 1249646 3048 0
64 2 S112 700 1250346 3748 0
64 2 S112 717 1251063 4465 0
64 2 S112 738 1251801 5203 0
64 2 S112 721 1252522 5924 0
64 2 S112 513 1253035 6437 0
0 0 0 753 1253788 -7432 0
0 0 0 680 1254468 -6752 0
0 0 0 673 1255141 -6079 0
0 0 0 682 1255823 -5397 0
0 0 0 675 1256498 -4722 0
0 0 0 660 1257158 -4062 0
0 0 0 671 1257829 -3391 0
0 0 0 672 1258501 -2719 0
0 0 0 677 1259178 -2042 0
65 1 S106 682 1259860 -1360 0
65 1 S106 658 1260518 -702 0
65 1 S106 642 1261160 -60 0
65 2 S106 629 1261789 569 0
65 2 S106 617 1262406 1186 0
65 2 S106 611 1263017 1797 0
65 2 S106 604 1263621 2401 0
65 2 S106 618 1264239 3019 0
65 2 S106 635 1264874 3654 0
65 2 S106 666 1265540 4320 0
65 2 S106 688 1266228 5008 0
65 2 S106 666 1266894 5674 0
65 2 S106 678 1267572 6352 0
0 0 0 703 1268275 -7302 0
0 0 0 730 1269005 -6572 0
0 0 0 745 1269750 -5827 0
0 0 0 701 1270451 -5126 0
0 0 0 708 1271159 -4418 0
0 0 0 692 1271851 -3726 0
0 0 0 668 1272519 -3058 0
0 0 0 661 1273180 -2397 0
66 1 S116 644 1273824 -1753 0
66 1 S116 628 1274452 -1125 0
66 1 S116 657 1275109 -468 0
66 2 S116 774 1275883 306 0
66 2 S116 767 1276650 1073 0
66 2 S116 800 1277450 1873 0
66 2 S116 849 1278299 2722 0
66 2 S116 881 1279180 3603 0
66 2 S116 826 1280006 4429 0
66 2 S116 816 1280822 5245 0
66 2 S116 842 1281664 6087 0
66 2 S116 817 1282481 6904 0
0 0 0 770 1283251 -11358 0
0 0 0 768 1284019 -10590 0
0 0 0 747 1284766 -9843 0
0 0 0 753 1285519 -9090 0
0 0 0 730 1286249 -8360 0
0 0 0 711 1286960 -7649 0
0 0 0 722 1287682 -6927 0
0 0 0 729 1288411 -6198 0
0 0 0 721 1289132 -5477 0
0 0 0 713 1289845 -4764 0
0 0 0 737 1290582 -4027 0
0 0 0 759 1291341 -3268 0
0 0 0 766 1292107 -2502 0
67 1 S102 743 1292850 -1759 0
67 1 S102 738 1293588 -1021 0
67 1 S102 762 1294350 -259 0
67 2 S102 745 1295095 486 0
67 2 S102 758 1295853 1244 0
67 2 S102 722 1296575 1966 0
67 2 S102 721 1297296 2687 0
67 2 S102 710 1298006 3397 0
67 2 S102 685 1298691 4082 0
67 2 S102 690 1299381 4772 0
67 2 S102 678 1300059 5450 0
67 2 S102 696 1300755 6146 0
67 2 S102 696 1301451 6842 0
0 0 0 697 1302148 -7066 0
0 0 0 690 1302838 -6376 0
0 0 0 692 1303530 -5684 0
0 0 0 692 1304222 -4992 0
0 0 0 687 1304909 -4305 0
0 0 0 681 1305590 -3624 0
0 0 0 671 1306261 -2953 0
0 0 0 690 1306951 -2263 0
68 1 S106 680 1307631 -1583 0
68 1 S106 681 1308312 -902 0
68 1 S106 670 1308982 -232 0
68 2 S106 683 1309665 451 0
68 2 S106 696 1310361 1147 0
68 2 S106 718 1311079 1865 0
68 2 S106 756 1311835 2621 0
68 2 S106 730 1312565 3351 0
68 2 S106 723 1313288 4074 0
68 2 S106 712 1314000 4786 0
68 2 S106 703 1314703 5489 0
68 2 S106 686 1315389 6175 0
68 2 S106 694 1316083 6869 0
0 0 0 709 1316792 -11421 0
0 0 0 704 1317496 -10717 0
0 0 0 688 1318184 -10029 0
0 0 0 667 1318851 -9362 0
0 0 0 675 1319526 -8687 0
0 0 0 676 1320202 -8011 0
0 0 0 659 1320861 -7352 0
0 0 0 655 1321516 -6697 0
0 0 0 671 1322187 -6026 0
0 0 0 659 1322846 -5367 0
0 0 0 513 1323359 -4854 0
0 0 0 814 1324173 -4040 0
0 0 0 729 1324902 -3311 0
0 0 0 703 1325605 -2608 0
69 1 S102 694 1326299 -1914 0
69 1 S102 669 1326968 -1245 0
69 1 S102 662 1327630 -583 0
69 2 S102 650 1328280 67 0
69 2 S102 637 1328917 704 0
69 2 S102 622 1329539 1326 0
69 2 S102 618 1330157 1944 0
69 2 S102 621 1330778 2565 0
69 2 S102 612 1331390 3177 0
69 2 S102 610 1332000 3787 0
69 2 S102 599 1332599 4386 0
69 2 S102 603 1333202 4989 0
69 2 S102 600 1333802 5589 0
69 2 S102 606 1334408 6195 0
69 2 S102 616 1335024 6811 0
0 0 0 624 1335648 -8596 0
0 0 0 636 1336284 -7960 0
0 0 0 634 1336918 -7326 0
0 0 0 631 1337549 -6695 0
0 0 0 639 1338188 -6056 0
0 0 0 630 1338818 -5426 0
0 0 0 582 1339400 -4844 0
0 0 0 636 1340036 -4208 0
0 0 0 613 1340649 -3595 0
0 0 0 618 1341267 -2977 0
0 0 0 625 1341892 -2352 0
70 1 S112 657 1342549 -1695 0
70 1 S112 652 1343201 -1043 0
70 1 S112 687 1343888 -356 0
70 2 S112 727 1344615 371 0
70 2 S112 803 1345418 1174 0
70 2 S112 778 1346196 1952 0
70 2 S112 815 1347011 2767 0
70 2 S112 849 1347860 3616 0
70 2 S112 852 1348712 4468 0
70 2 S112 794 1349506 5262 0
70 2 S112 796 1350302 6058 0
70 2 S112 798 1351100 6856 0
0 0 0 742 1351842 -11584 0
0 0 0 746 1352588 -10838 0
0 0 0 727 1353315 -10111 0
0 0 0 719 1354034 -9392 0
0 0 0 688 1354722 -8704 0
0 0 0 692 1355414 -8012 0
0 0 0 691 1356105 -7321 0
0 0 0 683 1356788 -6638 0
0 0 0 671 1357459 -5967 0
0 0 0 669 1358128 -5298 0
0 0 0 673 1358801 -4625 0
0 0 0 777 1359578 -3848 0
0 0 0 801 1360379 -3047 0
0 0 0 799 1361178 -2248 0
71 1 S116 802 1361980 -1446 0
71 1 S116 795 1362775 -651 0
71 2 S116 782 1363557 131 0
71 2 S116 778 1364335 909 0
71 2 S116 770 1365105 1679 0
71 2 S116 763 1365868 2442 0
71 2 S116 742 1366610 3184 0
71 2 S116 719 1367329 3903 0
71 2 S116 675 1368004 4578 0
71 2 S116 676 1368680 5254 0
71 2 S116 689 1369369 5943 0
71 2 S116 718 1370087 6661 0
0 0 0 748 1370835 -10097 0
0 0 0 743 1371578 -9354 0
0 0 0 724 1372302 -8630 0
0 0 0 544 1372846 -8086 0
0 0 0 832 1373678 -7254 0
0 0 0 699 1374377 -6555 0
0 0 0 679 1375056 -5876 0
0 0 0 677 1375733 -5199 0
0 0 0 661 1376394 -4538 0
0 0 0 669 1377063 -3869 0
0 0 0 687 1377750 -3182 0
0 0 0 720 1378470 -2462 0
72 1 S102 756 1379226 -1706 0
72 1 S102 724 1379950 -982 0
72 1 S102 751 1380701 -231 0
72 2 S102 745 1381446 514 0
72 2 S102 524 1381970 1038 0
72 2 S102 838 1382808 1876 0
72 2 S102 706 1383514 2582 0
72 2 S102 719 1384233 3301 0
72 2 S102 719 1384952 4020 0
72 2 S102 720 1385672 4740 0
72 2 S102 721 1386393 5461 0
72 2 S102 696 1387089 6157 0
72 2 S102 713 1387802 6870 0
0 0 0 711 1388513 -7058 0
0 0 0 712 1389225 -6346 0
0 0 0 695 1389920 -5651 0
0 0 0 693 1390613 -4958 0
0 0 0 687 1391300 -4271 0
0 0 0 668 1391968 -3603 0
0 0 0 649 1392617 -2954 0
0 0 0 646 1393263 -2308 0
73 1 S116 651 1393914 -1657 0
73 1 S116 676 1394590 -981 0
73 1 S116 692 1395282 -289 0
73 2 S116 681 1395963 392 0
73 2 S116 714 1396677 1106 0
73 2 S116 734 1397411 1840 0
73 2 S116 731 1398142 2571 0
73 2 S116 725 1398867 3296 0
73 2 S116 766 1399633 4062 0
73 2 S116 778 1400411 4840 0
73 2 S116 760 1401171 5600 0
73 2 S116 729 1401900 6329 0
0 0 0 704 1402604 -9661 0
0 0 0 708 1403312 -8953 0
0 0 0 695 1404007 -8258 0
0 0 0 674 1404681 -7584 0
0 0 0 665 1405346 -6919 0
0 0 0 648 1405994 -6271 0
0 0 0 639 1406633 -5632 0
0 0 0 636 1407269 -4996 0
0 0 0 676 1407945 -4320 0
0 0 0 734 1408679 -3586 0
0 0 0 749 1409428 -2837 0
0 0 0 743 1410171 -2094 0
74 1 S106 761 1410932 -1333 0
74 1 S106 724 1411656 -609 0
74 2 S106 706 1412362 97 0
74 2 S106 722 1413084 819 0
74 2 S106 730 1413814 1549 0
74 2 S106 549 1414363 2098 0
74 2 S106 873 1415236 2971 0
74 2 S106 722 1415958 3693 0
74 2 S106 693 1416651 4386 0
74 2 S106 705 1417356 5091 0
74 2 S106 699 1418055 5790 0
74 2 S106 701 1418756 6491 0
0 0 0 705 1419461 -7625 0
0 0 0 711 1420172 -6914 0
0 0 0 692 1420864 -6222 0
0 0 0 709 1421573 -5513 0
0 0 0 705 1422278 -4808 0
0 0 0 683 1422961 -4125 0
0 0 0 688 1423649 -3437 0
0 0 0 682 1424331 -2755 0
0 0 0 693 1425024 -2062 0
75 1 S112 686 1425710 -1376 0
75 1 S112 682 1426392 -694 0
75 1 S112 676 1427068 -18 0
75 2 S112 674 1427742 656 0
75 2 S112 680 1428422 1336 0
75 2 S112 685 1429107 2021 0
75 2 S112 718 1429825 2739 0
75 2 S112 708 1430533 3447 0
75 2 S112 704 1431237 4151 0
75 2 S112 714 1431951 4865 0
75 2 S112 754 1432705 5619 0
75 2 S112 766 1433471 6385 0
0 0 0 752 1434223 -7734 0
0 0 0 739 1434962 -6995 0
0 0 0 736 1435698 -6259 0
0 0 0 719 1436417 -5540 0
0 0 0 702 1437119 -4838 0
0 0 0 681 1437800 -4157 0
0 0 0 663 1438463 -3494 0
0 0 0 644 1439107 -2850 0
0 0 0 636 1439743 -2214 0
76 1 S116 637 1440380 -1577 0
76 1 S116 663 1441043 -914 0
76 1 S116 691 1441734 -223 0
76 2 S116 753 1442487 530 0
76 2 S116 789 1443276 1319 0
76 2 S116 769 1444045 2088 0
76 2 S116 749 1444794 2837 0
76 2 S116 770 1445564 3607 0
76 2 S116 771 1446335 4378 0
76 2 S116 752 1447087 5130 0
76 2 S116 714 1447801 5844 0
76 2 S116 708 1448509 6552 0
0 0 0 691 1449200 -7512 0
0 0 0 700 1449900 -6812 0
0 0 0 716 1450616 -6096 0
0 0 0 727 1451343 -5369 0
0 0 0 717 1452060 -4652 0
0 0 0 694 1452754 -3958 0
0 0 0 685 1453439 -3273 0
0 0 0 684 1454123 -2589 0
77 1 S106 675 1454798 -1914 0
77 1 S106 688 1455486 -1226 0
77 1 S106 676 1456162 -550 0
77 2 S106 706 1456868 156 0
77 2 S106 733 1457601 889 0
77 2 S106 760 1458361 1649 0
77 2 S106 752 1459113 2401 0
77 2 S106 714 1459827 3115 0
77 2 S106 749 1460576 3864 0
77 2 S106 749 1461325 4613 0
77 2 S106 748 1462073 5361 0
77 2 S106 724 1462797 6085 0
77 2 S106 693 1463490 6778 0
0 0 0 708 1464198 -8877 0
0 0 0 698 1464896 -8179 0
0 0 0 691 1465587 -7488 0
0 0 0 672 1466259 -6816 0
0 0 0 676 1466935 -6140 0
0 0 0 671 1467606 -5469 0
0 0 0 665 1468271 -4804 0
0 0 0 661 1468932 -4143 0
0 0 0 651 1469583 -3492 0
0 0 0 686 1470269 -2806 0
0 0 0 700 1470969 -2106 0
78 1 S112 759 1471728 -1347 0
78 1 S112 748 1472476 -599 0
78 2 S112 756 1473232 157 0
78 2 S112 754 1473986 911 0
78 2 S112 751 1474737 1662 0
78 2 S112 708 1475445 2370 0
78 2 S112 732 1476177 3102 0
78 2 S112 710 1476887 3812 0
78 2 S112 692 1477579 4504 0
78 2 S112 667 1478246 5171 0
78 2 S112 675 1478921 5846 0
78 2 S112 678 1479599 6524 0
0 0 0 697 1480296 -11595 0
0 0 0 676 1480972 -10919 0
0 0 0 679 1481651 -10240 0
0 0 0 685 1482336 -9555 0
0 0 0 691 1483027 -8864 0
0 0 0 674 1483701 -8190 0
0 0 0 666 1484367 -7524 0
0 0 0 670 1485037 -6854 0
0 0 0 668 1485705 -6186 0
0 0 0 661 1486366 -5525 0
0 0 0 661 1487027 -4864 0
0 0 0 655 1487682 -4209 0
0 0 0 647 1488329 -3562 0
0 0 0 640 1488969 -2922 0
0 0 0 627 1489596 -2295 0
79 1 S102 619 1490215 -1676 0
79 1 S102 606 1490821 -1070 0
79 1 S102 586 1491407 -484 0
79 2 S102 578 1491985 94 0
79 2 S102 571 1492556 665 0
79 2 S102 586 1493142 1251 0
79 2 S102 639 1493781 1890 0
79 2 S102 662 1494443 2552 0
79 2 S102 699 1495142 3251 0
79 2 S102 776 1495918 4027 0
79 2 S102 839 1496757 4866 0
79 2 S102 811 1497568 5677 0
79 2 S102 809 1498377 6486 0
0 0 0 826 1499203 -9300 0
0 0 0 841 1500044 -8459 0
0 0 0 769 1500813 -7690 0
0 0 0 756 1501569 -6934 0
0 0 0 720 1502289 -6214 0
0 0 0 676 1502965 -5538 0
0 0 0 674 1503639 -4864 0
0 0 0 660 1504299 -4204 0
0 0 0 652 1504951 -3552 0
0 0 0 694 1505645 -2858 0
0 0 0 726 1506371 -2132 0
80 1 S116 726 1507097 -1406 0
80 1 S116 726 1507823 -680 0
80 2 S116 697 1508520 17 0
80 2 S116 677 1509197 694 0
80 2 S116 683 1509880 1377 0
80 2 S116 687 1510567 2064 0
80 2 S116 691 1511258 2755 0
80 2 S116 687 1511945 3442 0
80 2 S116 688 1512633 4130 0
80 2 S116 710 1513343 4840 0
80 2 S116 766 1514109 5606 0
80 2 S116 810 1514919 6416 0
