T_0030
BeatCount Mean SD BeatCountNoOutliers MeanNoOutliers SDNoOutliers
2195 686,960364464692 182,281161549508 2190 680,601826484018 68,7488085172562

Trial TrialStatus Trialtype IBI AbsPosition RelPosition Outlier
0 0 0 707 1420 -15130 0
0 0 0 722 2142 -14408 0
0 0 0 695 2837 -13713 0
0 0 0 707 3544 -13006 0
0 0 0 714 4258 -12292 0
0 0 0 655 4913 -11637 0
0 0 0 645 5558 -10992 0
0 0 0 689 6247 -10303 0
0 0 0 720 6967 -9583 0
0 0 0 788 7755 -8795 0
0 0 0 792 8547 -8003 0
0 0 0 739 9286 -7264 0
0 0 0 711 9997 -6553 0
0 0 0 723 10720 -5830 0
0 0 0 755 11475 -5075 0
0 0 0 738 12213 -4337 0
0 0 0 715 12928 -3622 0
0 0 0 690 13618 -2932 0
0 0 0 698 14316 -2234 0
1 1 S112 741 15057 -1493 0
1 1 S112 779 15836 -714 0
1 2 S112 784 16620 70 0
1 2 S112 736 17356 806 0
1 2 S112 739 18095 1545 0
1 2 S112 783 18878 2328 0
1 2 S112 771 19649 3099 0
1 2 S112 718 20367 3817 0
1 2 S112 684 21051 4501 0
1 2 S112 707 21758 5208 0
1 2 S112 716 22474 5924 0
1 2 S112 697 23171 6621 0
0 0 0 673 23844 -11490 0
0 0 0 700 24544 -10790 0
0 0 0 753 25297 -10037 0
0 0 0 808 26105 -9229 0
0 0 0 734 26839 -8495 0
0 0 0 681 27520 -7814 0
0 0 0 729 28249 -7085 0
0 0 0 782 29031 -6303 0
0 0 0 789 29820 -5514 0
0 0 0 702 30522 -4812 0
0 0 0 715 31237 -4097 0
0 0 0 721 31958 -3376 0
0 0 0 729 32687 -2647 0
2 1 S102 725 33412 -1922 0
2 1 S102 703 34115 -1219 0
2 1 S102 703 34818 -516 0
2 2 S102 770 35588 254 0
2 2 S102 771 36359 1025 0
2 2 S102 803 37162 1828 0
2 2 S102 763 37925 2591 0
2 2 S102 725 38650 3316 0
2 2 S102 763 39413 4079 0
2 2 S102 789 40202 4868 0
2 2 S102 786 40988 5654 0
2 2 S102 736 41724 6390 0
0 0 0 697 42421 -10303 0
0 0 0 723 43144 -9580 0
0 0 0 732 43876 -8848 0
0 0 0 744 44620 -8104 0
0 0 0 730 45350 -7374 0
0 0 0 702 46052 -6672 0
0 0 0 736 46788 -5936 0
0 0 0 757 47545 -5179 0
0 0 0 764 48309 -4415 0
0 0 0 692 49001 -3723 0
0 0 0 689 49690 -3034 0
0 0 0 728 50418 -2306 0
3 1 S116 742 51160 -1564 0
3 1 S116 747 51907 -817 0
3 1 S116 687 52594 -130 0
3 2 S116 690 53284 560 0
3 2 S116 730 54014 1290 0
3 2 S116 784 54798 2074 0
3 2 S116 825 55623 2899 0
3 2 S116 791 56414 3690 0
3 2 S116 747 57161 4437 0
3 2 S116 770 57931 5207 0
3 2 S116 837 58768 6044 0
3 2 S116 843 59611 6887 0
0 0 0 766 60377 -10401 0
0 0 0 713 61090 -9688 0
0 0 0 743 61833 -8945 0
0 0 0 734 62567 -8211 0
0 0 0 712 63279 -7499 0
0 0 0 671 63950 -6828 0
0 0 0 684 64634 -6144 0
0 0 0 712 65346 -5432 0
0 0 0 785 66131 -4647 0
0 0 0 820 66951 -3827 0
0 0 0 740 67691 -3087 0
0 0 0 700 68391 -2387 0
4 1 S106 748 69139 -1639 0
4 1 S106 785 69924 -854 0
4 1 S106 804 70728 -50 0
4 2 S106 724 71452 674 0
4 2 S106 742 72194 1416 0
4 2 S106 782 72976 2198 0
4 2 S106 788 73764 2986 0
4 2 S106 752 74516 3738 0
4 2 S106 706 75222 4444 0
4 2 S106 724 75946 5168 0
4 2 S106 774 76720 5942 0
4 2 S106 792 77512 6734 0
0 0 0 808 78320 -7860 0
0 0 0 722 79042 -7138 0
0 0 0 707 79749 -6431 0
0 0 0 738 80487 -5693 0
0 0 0 761 81248 -4932 0
0 0 0 714 81962 -4218 0
0 0 0 656 82618 -3562 0
0 0 0 686 83304 -2876 0
0 0 0 724 84028 -2152 0
5 1 S116 780 84808 -1372 0
5 1 S116 725 85533 -647 0
5 2 S116 698 86231 51 0
5 2 S116 715 86946 766 0
5 2 S116 774 87720 1540 0
5 2 S116 792 88512 2332 0
5 2 S116 792 89304 3124 0
5 2 S116 718 90022 3842 0
5 2 S116 722 90744 4564 0
5 2 S116 769 91513 5333 0
5 2 S116 778 92291 6111 0
5 2 S116 742 93033 6853 0
0 0 0 682 93715 -9192 0
0 0 0 694 94409 -8498 0
0 0 0 718 95127 -7780 0
0 0 0 738 95865 -7042 0
0 0 0 715 96580 -6327 0
0 0 0 679 97259 -5648 0
0 0 0 738 97997 -4910 0
0 0 0 843 98840 -4067 0
0 0 0 832 99672 -3235 0
0 0 0 755 100427 -2480 0
6 1 S106 752 101179 -1728 0
6 1 S106 758 101937 -970 0
6 1 S106 745 102682 -225 0
6 2 S106 703 103385 478 0
6 2 S106 664 104049 1142 0
6 2 S106 683 104732 1825 0
6 2 S106 709 105441 2534 0
6 2 S106 765 106206 3299 0
6 2 S106 806 107012 4105 0
6 2 S106 777 107789 4882 0
6 2 S106 747 108536 5629 0
6 2 S106 779 109315 6408 0
0 0 0 791 110106 -11054 0
0 0 0 767 110873 -10287 0
0 0 0 755 111628 -9532 0
0 0 0 692 112320 -8840 0
0 0 0 687 113007 -8153 0
0 0 0 724 113731 -7429 0
0 0 0 779 114510 -6650 0
0 0 0 790 115300 -5860 0
0 0 0 720 116020 -5140 0
0 0 0 766 116786 -4374 0
0 0 0 822 117608 -3552 0
0 0 0 832 118440 -2720 0
7 1 S102 786 119226 -1934 0
7 1 S102 710 119936 -1224 0
7 1 S102 724 120660 -500 0
7 2 S102 730 121390 230 0
7 2 S102 740 122130 970 0
7 2 S102 710 122840 1680 0
7 2 S102 676 123516 2356 0
7 2 S102 672 124188 3028 0
7 2 S102 721 124909 3749 0
7 2 S102 763 125672 4512 0
7 2 S102 811 126483 5323 0
7 2 S102 754 127237 6077 0
7 2 S102 718 127955 6795 0
0 0 0 779 128734 -7579 0
0 0 0 786 129520 -6793 0
0 0 0 741 130261 -6052 0
0 0 0 675 130936 -5377 0
0 0 0 663 131599 -4714 0
0 0 0 682 132281 -4032 0
0 0 0 718 132999 -3314 0
0 0 0 741 133740 -2573 0
8 1 S112 766 134506 -1807 0
8 1 S112 690 135196 -1117 0
8 1 S112 642 135838 -475 0
8 2 S112 635 136473 160 0
8 2 S112 702 137175 862 0
8 2 S112 734 137909 1596 0
8 2 S112 744 138653 2340 0
8 2 S112 792 139445 3132 0
8 2 S112 778 140223 3910 0
8 2 S112 733 140956 4643 0
8 2 S112 662 141618 5305 0
8 2 S112 663 142281 5968 0
8 2 S112 688 142969 6656 0
0 0 0 693 143662 -6858 0
0 0 0 664 144326 -6194 0
0 0 0 640 144966 -5554 0
0 0 0 607 145573 -4947 0
0 0 0 606 146179 -4341 0
0 0 0 617 146796 -3724 0
0 0 0 671 147467 -3053 0
0 0 0 745 148212 -2308 0
9 1 S116 771 148983 -1537 0
9 1 S116 721 149704 -816 0
9 1 S116 740 150444 -76 0
9 2 S116 778 151222 702 0
9 2 S116 832 152054 1534 0
9 2 S116 814 152868 2348 0
9 2 S116 790 153658 3138 0
9 2 S116 725 154383 3863 0
9 2 S116 664 155047 4527 0
9 2 S116 670 155717 5197 0
9 2 S116 670 156387 5867 0
9 2 S116 727 157114 6594 0
0 0 0 786 157900 -11536 0
0 0 0 765 158665 -10771 0
0 0 0 701 159366 -10070 0
0 0 0 729 160095 -9341 0
0 0 0 754 160849 -8587 0
0 0 0 786 161635 -7801 0
0 0 0 722 162357 -7079 0
0 0 0 686 163043 -6393 0
0 0 0 711 163754 -5682 0
0 0 0 736 164490 -4946 0
0 0 0 770 165260 -4176 0
0 0 0 794 166054 -3382 0
0 0 0 716 166770 -2666 0
10 1 S102 725 167495 -1941 0
10 1 S102 753 168248 -1188 0
10 1 S102 803 169051 -385 0
10 2 S102 810 169861 425 0
10 2 S102 801 170662 1226 0
10 2 S102 727 171389 1953 0
10 2 S102 739 172128 2692 0
10 2 S102 762 172890 3454 0
10 2 S102 786 173676 4240 0
10 2 S102 738 174414 4978 0
10 2 S102 690 175104 5668 0
10 2 S102 678 175782 6346 0
0 0 0 704 176486 -11900 0
0 0 0 754 177240 -11146 0
0 0 0 813 178053 -10333 0
0 0 0 717 178770 -9616 0
0 0 0 686 179456 -8930 0
0 0 0 716 180172 -8214 0
0 0 0 785 180957 -7429 0
0 0 0 784 181741 -6645 0
0 0 0 772 182513 -5873 0
0 0 0 715 183228 -5158 0
0 0 0 696 183924 -4462 0
0 0 0 719 184643 -3743 0
0 0 0 712 185355 -3031 0
0 0 0 721 186076 -2310 0
11 1 S112 689 186765 -1621 0
11 1 S112 682 187447 -939 0
11 1 S112 705 188152 -234 0
11 2 S112 741 188893 507 0
11 2 S112 818 189711 1325 0
11 2 S112 770 190481 2095 0
11 2 S112 712 191193 2807 0
11 2 S112 717 191910 3524 0
11 2 S112 752 192662 4276 0
11 2 S112 793 193455 5069 0
11 2 S112 794 194249 5863 0
11 2 S112 722 194971 6585 0
0 0 0 697 195668 -7157 0
0 0 0 700 196368 -6457 0
0 0 0 702 197070 -5755 0
0 0 0 685 197755 -5070 0
0 0 0 640 198395 -4430 0
0 0 0 640 199035 -3790 0
0 0 0 659 199694 -3131 0
0 0 0 686 200380 -2445 0
12 1 S116 721 201101 -1724 0
12 1 S116 703 201804 -1021 0
12 1 S116 692 202496 -329 0
12 2 S116 744 203240 415 0
12 2 S116 802 204042 1217 0
12 2 S116 825 204867 2042 0
12 2 S116 802 205669 2844 0
12 2 S116 726 206395 3570 0
12 2 S116 693 207088 4263 0
12 2 S116 696 207784 4959 0
12 2 S116 707 208491 5666 0
12 2 S116 727 209218 6393 0
0 0 0 722 209940 -11652 0
0 0 0 689 210629 -10963 0
0 0 0 700 211329 -10263 0
0 0 0 728 212057 -9535 0
0 0 0 750 212807 -8785 0
0 0 0 679 213486 -8106 0
0 0 0 662 214148 -7444 0
0 0 0 692 214840 -6752 0
0 0 0 701 215541 -6051 0
0 0 0 729 216270 -5322 0
0 0 0 727 216997 -4595 0
0 0 0 666 217663 -3929 0
0 0 0 639 218302 -3290 0
0 0 0 654 218956 -2636 0
13 1 S112 689 219645 -1947 0
13 1 S112 723 220368 -1224 0
13 1 S112 771 221139 -453 0
13 2 S112 714 221853 261 0
13 2 S112 731 222584 992 0
13 2 S112 782 223366 1774 0
13 2 S112 826 224192 2600 0
13 2 S112 810 225002 3410 0
13 2 S112 784 225786 4194 0
13 2 S112 707 226493 4901 0
13 2 S112 669 227162 5570 0
13 2 S112 674 227836 6244 0
13 2 S112 683 228519 6927 0
0 0 0 709 229228 -10783 0
0 0 0 736 229964 -10047 0
0 0 0 698 230662 -9349 0
0 0 0 683 231345 -8666 0
0 0 0 724 232069 -7942 0
0 0 0 815 232884 -7127 0
0 0 0 814 233698 -6313 0
0 0 0 795 234493 -5518 0
0 0 0 732 235225 -4786 0
0 0 0 740 235965 -4046 0
0 0 0 766 236731 -3280 0
0 0 0 777 237508 -2503 0
14 1 S106 766 238274 -1737 0
14 1 S106 709 238983 -1028 0
14 1 S106 669 239652 -359 0
14 2 S106 682 240334 323 0
14 2 S106 709 241043 1032 0
14 2 S106 731 241774 1763 0
14 2 S106 764 242538 2527 0
14 2 S106 742 243280 3269 0
14 2 S106 685 243965 3954 0
14 2 S106 646 244611 4600 0
14 2 S106 685 245296 5285 0
14 2 S106 704 246000 5989 0
14 2 S106 745 246745 6734 0
0 0 0 776 247521 -11455 0
0 0 0 772 248293 -10683 0
0 0 0 721 249014 -9962 0
0 0 0 685 249699 -9277 0
0 0 0 691 250390 -8586 0
0 0 0 679 251069 -7907 0
0 0 0 678 251747 -7229 0
0 0 0 697 252444 -6532 0
0 0 0 694 253138 -5838 0
0 0 0 696 253834 -5142 0
0 0 0 719 254553 -4423 0
0 0 0 751 255304 -3672 0
0 0 0 779 256083 -2893 0
0 0 0 785 256868 -2108 0
15 1 S116 778 257646 -1330 0
15 1 S116 738 258384 -592 0
15 2 S116 698 259082 106 0
15 2 S116 680 259762 786 0
15 2 S116 707 260469 1493 0
15 2 S116 733 261202 2226 0
15 2 S116 775 261977 3001 0
15 2 S116 745 262722 3746 0
15 2 S116 709 263431 4455 0
15 2 S116 716 264147 5171 0
15 2 S116 729 264876 5900 0
15 2 S116 775 265651 6675 0
0 0 0 766 266417 -9387 0
0 0 0 730 267147 -8657 0
0 0 0 660 267807 -7997 0
0 0 0 645 268452 -7352 0
0 0 0 631 269083 -6721 0
0 0 0 606 269689 -6115 0
0 0 0 620 270309 -5495 0
0 0 0 655 270964 -4840 0
0 0 0 738 271702 -4102 0
0 0 0 779 272481 -3323 0
0 0 0 819 273300 -2504 0
16 1 S116 766 274066 -1738 0
16 1 S116 711 274777 -1027 0
16 1 S116 676 275453 -351 0
16 2 S116 682 276135 331 0
16 2 S116 709 276844 1040 0
16 2 S116 716 277560 1756 0
16 2 S116 681 278241 2437 0
16 2 S116 661 278902 3098 0
16 2 S116 638 279540 3736 0
16 2 S116 612 280152 4348 0
16 2 S116 610 280762 4958 0
16 2 S116 612 281374 5570 0
16 2 S116 651 282025 6221 0
16 2 S116 700 282725 6921 0
0 0 0 706 283431 -9399 0
0 0 0 655 284086 -8744 0
0 0 0 643 284729 -8101 0
0 0 0 667 285396 -7434 0
0 0 0 683 286079 -6751 0
0 0 0 667 286746 -6084 0
0 0 0 664 287410 -5420 0
0 0 0 629 288039 -4791 0
0 0 0 598 288637 -4193 0
0 0 0 597 289234 -3596 0
0 0 0 613 289847 -2983 0
0 0 0 631 290478 -2352 0
17 1 S106 632 291110 -1720 0
17 1 S106 608 291718 -1112 0
17 1 S106 624 292342 -488 0
17 2 S106 651 292993 163 0
17 2 S106 731 293724 894 0
17 2 S106 748 294472 1642 0
17 2 S106 733 295205 2375 0
17 2 S106 668 295873 3043 0
17 2 S106 669 296542 3712 0
17 2 S106 702 297244 4414 0
17 2 S106 724 297968 5138 0
17 2 S106 727 298695 5865 0
17 2 S106 687 299382 6552 0
0 0 0 641 300023 -11275 0
0 0 0 656 300679 -10619 0
0 0 0 663 301342 -9956 0
0 0 0 678 302020 -9278 0
0 0 0 654 302674 -8624 0
0 0 0 622 303296 -8002 0
0 0 0 634 303930 -7368 0
0 0 0 652 304582 -6716 0
0 0 0 707 305289 -6009 0
0 0 0 720 306009 -5289 0
0 0 0 676 306685 -4613 0
0 0 0 650 307335 -3963 0
0 0 0 658 307993 -3305 0
0 0 0 684 308677 -2621 0
18 1 S102 685 309362 -1936 0
18 1 S102 674 310036 -1262 0
18 1 S102 655 310691 -607 0
18 2 S102 627 311318 20 0
18 2 S102 644 311962 664 0
18 2 S102 641 312603 1305 0
18 2 S102 632 313235 1937 0
18 2 S102 651 313886 2588 0
18 2 S102 630 314516 3218 0
18 2 S102 612 315128 3830 0
18 2 S102 607 315735 4437 0
18 2 S102 616 316351 5053 0
18 2 S102 650 317001 5703 0
18 2 S102 670 317671 6373 0
18 2 S102 652 318323 7025 0
0 0 0 625 318948 -6939 0
0 0 0 598 319546 -6341 0
0 0 0 581 320127 -5760 0
0 0 0 570 320697 -5190 0
0 0 0 587 321284 -4603 0
0 0 0 608 321892 -3995 0
0 0 0 609 322501 -3386 0
0 0 0 580 323081 -2806 0
0 0 0 573 323654 -2233 0
19 1 S106 566 324220 -1667 0
19 1 S106 568 324788 -1099 0
19 1 S106 586 325374 -513 0
19 2 S106 650 326024 137 0
19 2 S106 661 326685 798 0
19 2 S106 669 327354 1467 0
19 2 S106 616 327970 2083 0
19 2 S106 594 328564 2677 0
19 2 S106 587 329151 3264 0
19 2 S106 598 329749 3862 0
19 2 S106 621 330370 4483 0
19 2 S106 653 331023 5136 0
19 2 S106 684 331707 5820 0
19 2 S106 675 332382 6495 0
0 0 0 623 333005 -11798 0
0 0 0 598 333603 -11200 0
0 0 0 588 334191 -10612 0
0 0 0 596 334787 -10016 0
0 0 0 641 335428 -9375 0
0 0 0 682 336110 -8693 0
0 0 0 631 336741 -8062 0
0 0 0 619 337360 -7443 0
0 0 0 647 338007 -6796 0
0 0 0 715 338722 -6081 0
0 0 0 752 339474 -5329 0
0 0 0 739 340213 -4590 0
0 0 0 685 340898 -3905 0
0 0 0 697 341595 -3208 0
0 0 0 748 342343 -2460 0
20 1 S112 760 343103 -1700 0
20 1 S112 732 343835 -968 0
20 1 S112 675 344510 -293 0
20 2 S112 645 345155 352 0
20 2 S112 663 345818 1015 0
20 2 S112 668 346486 1683 0
20 2 S112 712 347198 2395 0
20 2 S112 767 347965 3162 0
20 2 S112 723 348688 3885 0
20 2 S112 660 349348 4545 0
20 2 S112 699 350047 5244 0
20 2 S112 750 350797 5994 0
20 2 S112 788 351585 6782 0
0 0 0 743 352328 -8705 0
0 0 0 676 353004 -8029 0
0 0 0 690 353694 -7339 0
0 0 0 699 354393 -6640 0
0 0 0 677 355070 -5963 0
0 0 0 636 355706 -5327 0
0 0 0 620 356326 -4707 0
0 0 0 619 356945 -4088 0
0 0 0 629 357574 -3459 0
0 0 0 664 358238 -2795 0
0 0 0 714 358952 -2081 0
21 1 S106 677 359629 -1404 0
21 1 S106 651 360280 -753 0
21 1 S106 680 360960 -73 0
21 2 S106 721 361681 648 0
21 2 S106 773 362454 1421 0
21 2 S106 745 363199 2166 0
21 2 S106 695 363894 2861 0
21 2 S106 683 364577 3544 0
21 2 S106 697 365274 4241 0
21 2 S106 729 366003 4970 0
21 2 S106 737 366740 5707 0
21 2 S106 762 367502 6469 0
0 0 0 681 368183 -11385 0
0 0 0 650 368833 -10735 0
0 0 0 653 369486 -10082 0
0 0 0 653 370139 -9429 0
0 0 0 694 370833 -8735 0
0 0 0 693 371526 -8042 0
0 0 0 668 372194 -7374 0
0 0 0 669 372863 -6705 0
0 0 0 720 373583 -5985 0
0 0 0 767 374350 -5218 0
0 0 0 823 375173 -4395 0
0 0 0 822 375995 -3573 0
0 0 0 717 376712 -2856 0
0 0 0 684 377396 -2172 0
22 1 S116 676 378072 -1496 0
22 1 S116 693 378765 -803 0
22 1 S116 712 379477 -91 0
22 2 S116 740 380217 649 0
22 2 S116 705 380922 1354 0
22 2 S116 675 381597 2029 0
22 2 S116 715 382312 2744 0
22 2 S116 773 383085 3517 0
22 2 S116 772 383857 4289 0
22 2 S116 727 384584 5016 0
22 2 S116 673 385257 5689 0
22 2 S116 709 385966 6398 0
0 0 0 732 386698 -9647 0
0 0 0 758 387456 -8889 0
0 0 0 680 388136 -8209 0
0 0 0 642 388778 -7567 0
0 0 0 646 389424 -6921 0
0 0 0 638 390062 -6283 0
0 0 0 635 390697 -5648 0
0 0 0 633 391330 -5015 0
0 0 0 612 391942 -4403 0
0 0 0 599 392541 -3804 0
0 0 0 624 393165 -3180 0
0 0 0 703 393868 -2477 0
23 1 S112 821 394689 -1656 0
23 1 S112 778 395467 -878 0
23 1 S112 713 396180 -165 0
23 2 S112 721 396901 556 0
23 2 S112 757 397658 1313 0
23 2 S112 769 398427 2082 0
23 2 S112 786 399213 2868 0
23 2 S112 690 399903 3558 0
23 2 S112 646 400549 4204 0
23 2 S112 651 401200 4855 0
23 2 S112 666 401866 5521 0
23 2 S112 703 402569 6224 0
23 2 S112 692 403261 6916 0
0 0 0 646 403907 -8917 0
0 0 0 629 404536 -8288 0
0 0 0 647 405183 -7641 0
0 0 0 660 405843 -6981 0
0 0 0 679 406522 -6302 0
0 0 0 636 407158 -5666 0
0 0 0 637 407795 -5029 0
0 0 0 657 408452 -4372 0
0 0 0 706 409158 -3666 0
0 0 0 721 409879 -2945 0
0 0 0 709 410588 -2236 0
24 1 S106 672 411260 -1564 0
24 1 S106 648 411908 -916 0
24 1 S106 644 412552 -272 0
24 2 S106 661 413213 389 0
24 2 S106 689 413902 1078 0
24 2 S106 693 414595 1771 0
24 2 S106 650 415245 2421 0
24 2 S106 614 415859 3035 0
24 2 S106 597 416456 3632 0
24 2 S106 627 417083 4259 0
24 2 S106 695 417778 4954 0
24 2 S106 773 418551 5727 0
24 2 S106 799 419350 6526 0
0 0 0 761 420111 -10137 0
0 0 0 731 420842 -9406 0
0 0 0 715 421557 -8691 0
0 0 0 705 422262 -7986 0
0 0 0 693 422955 -7293 0
0 0 0 673 423628 -6620 0
0 0 0 614 424242 -6006 0
0 0 0 621 424863 -5385 0
0 0 0 629 425492 -4756 0
0 0 0 648 426140 -4108 0
0 0 0 696 426836 -3412 0
0 0 0 701 427537 -2711 0
0 0 0 665 428202 -2046 0
25 1 S102 647 428849 -1399 0
25 1 S102 702 429551 -697 0
25 2 S102 741 430292 44 0
25 2 S102 772 431064 816 0
25 2 S102 738 431802 1554 0
25 2 S102 670 432472 2224 0
25 2 S102 628 433100 2852 0
25 2 S102 654 433754 3506 0
25 2 S102 667 434421 4173 0
25 2 S102 672 435093 4845 0
25 2 S102 678 435771 5523 0
25 2 S102 639 436410 6162 0
25 2 S102 628 437038 6790 0
0 0 0 636 437674 -6400 0
0 0 0 651 438325 -5749 0
0 0 0 691 439016 -5058 0
0 0 0 705 439721 -4353 0
0 0 0 642 440363 -3711 0
0 0 0 636 440999 -3075 0
0 0 0 639 441638 -2436 0
26 1 S116 689 442327 -1747 0
26 1 S116 696 443023 -1051 0
26 1 S116 673 443696 -378 0
26 2 S116 641 444337 263 0
26 2 S116 647 444984 910 0
26 2 S116 674 445658 1584 0
26 2 S116 693 446351 2277 0
26 2 S116 732 447083 3009 0
26 2 S116 681 447764 3690 0
26 2 S116 651 448415 4341 0
26 2 S116 666 449081 5007 0
26 2 S116 693 449774 5700 0
26 2 S116 713 450487 6413 0
0 0 0 731 451218 -7097 0
0 0 0 710 451928 -6387 0
0 0 0 639 452567 -5748 0
0 0 0 625 453192 -5123 0
0 0 0 626 453818 -4497 0
0 0 0 599 454417 -3898 0
0 0 0 594 455011 -3304 0
0 0 0 578 455589 -2726 0
0 0 0 582 456171 -2144 0
27 1 S106 604 456775 -1540 0
27 1 S106 637 457412 -903 0
27 1 S106 676 458088 -227 0
27 2 S106 674 458762 447 0
27 2 S106 654 459416 1101 0
27 2 S106 670 460086 1771 0
27 2 S106 718 460804 2489 0
27 2 S106 709 461513 3198 0
27 2 S106 735 462248 3933 0
27 2 S106 680 462928 4613 0
27 2 S106 638 463566 5251 0
27 2 S106 646 464212 5897 0
27 2 S106 670 464882 6567 0
0 0 0 666 465548 -7306 0
0 0 0 662 466210 -6644 0
0 0 0 634 466844 -6010 0
0 0 0 633 467477 -5377 0
0 0 0 679 468156 -4698 0
0 0 0 667 468823 -4031 0
0 0 0 707 469530 -3324 0
0 0 0 671 470201 -2653 0
28 1 S102 659 470860 -1994 0
28 1 S102 701 471561 -1293 0
28 1 S102 727 472288 -566 0
28 2 S102 757 473045 191 0
28 2 S102 681 473726 872 0
28 2 S102 658 474384 1530 0
28 2 S102 670 475054 2200 0
28 2 S102 683 475737 2883 0
28 2 S102 701 476438 3584 0
28 2 S102 694 477132 4278 0
28 2 S102 667 477799 4945 0
28 2 S102 652 478451 5597 0
28 2 S102 653 479104 6250 0
28 2 S102 689 479793 6939 0
0 0 0 706 480499 -10260 0
0 0 0 678 481177 -9582 0
0 0 0 630 481807 -8952 0
0 0 0 623 482430 -8329 0
0 0 0 607 483037 -7722 0
0 0 0 597 483634 -7125 0
0 0 0 610 484244 -6515 0
0 0 0 623 484867 -5892 0
0 0 0 629 485496 -5263 0
0 0 0 641 486137 -4622 0
0 0 0 717 486854 -3905 0
0 0 0 796 487650 -3109 0
0 0 0 790 488440 -2319 0
29 1 S112 744 489184 -1575 0
29 1 S112 686 489870 -889 0
29 1 S112 718 490588 -171 0
29 2 S112 766 491354 595 0
29 2 S112 789 492143 1384 0
29 2 S112 734 492877 2118 0
29 2 S112 674 493551 2792 0
29 2 S112 672 494223 3464 0
29 2 S112 674 494897 4138 0
29 2 S112 664 495561 4802 0
29 2 S112 633 496194 5435 0
29 2 S112 616 496810 6051 0
29 2 S112 626 497436 6677 0
0 0 0 649 498085 -6617 0
0 0 0 709 498794 -5908 0
0 0 0 673 499467 -5235 0
0 0 0 650 500117 -4585 0
0 0 0 666 500783 -3919 0
0 0 0 667 501450 -3252 0
0 0 0 702 502152 -2550 0
30 1 S112 672 502824 -1878 0
30 1 S112 621 503445 -1257 0
30 1 S112 627 504072 -630 0
30 2 S112 648 504720 18 0
30 2 S112 670 505390 688 0
30 2 S112 689 506079 1377 0
30 2 S112 648 506727 2025 0
30 2 S112 619 507346 2644 0
30 2 S112 636 507982 3280 0
30 2 S112 653 508635 3933 0
30 2 S112 658 509293 4591 0
30 2 S112 667 509960 5258 0
30 2 S112 626 510586 5884 0
30 2 S112 603 511189 6487 0
0 0 0 592 511781 -10444 0
0 0 0 579 512360 -9865 0
0 0 0 551 512911 -9314 0
0 0 0 542 513453 -8772 0
0 0 0 572 514025 -8200 0
0 0 0 611 514636 -7589 0
0 0 0 606 515242 -6983 0
0 0 0 615 515857 -6368 0
0 0 0 636 516493 -5732 0
0 0 0 721 517214 -5011 0
0 0 0 710 517924 -4301 0
0 0 0 642 518566 -3659 0
0 0 0 636 519202 -3023 0
0 0 0 638 519840 -2385 0
31 1 S106 673 520513 -1712 0
31 1 S106 665 521178 -1047 0
31 1 S106 618 521796 -429 0
31 2 S106 595 522391 166 0
31 2 S106 589 522980 755 0
31 2 S106 614 523594 1369 0
31 2 S106 644 524238 2013 0
31 2 S106 671 524909 2684 0
31 2 S106 664 525573 3348 0
31 2 S106 644 526217 3992 0
31 2 S106 677 526894 4669 0
31 2 S106 754 527648 5423 0
31 2 S106 818 528466 6241 0
0 0 0 791 529257 -10458 0
0 0 0 700 529957 -9758 0
0 0 0 686 530643 -9072 0
0 0 0 706 531349 -8366 0
0 0 0 698 532047 -7668 0
0 0 0 653 532700 -7015 0
0 0 0 632 533332 -6383 0
0 0 0 614 533946 -5769 0
0 0 0 624 534570 -5145 0
0 0 0 648 535218 -4497 0
0 0 0 694 535912 -3803 0
0 0 0 715 536627 -3088 0
0 0 0 679 537306 -2409 0
32 1 S102 679 537985 -1730 0
32 1 S102 714 538699 -1016 0
32 1 S102 788 539487 -228 0
32 2 S102 806 540293 578 0
32 2 S102 767 541060 1345 0
32 2 S102 691 541751 2036 0
32 2 S102 662 542413 2698 0
32 2 S102 682 543095 3380 0
32 2 S102 705 543800 4085 0
32 2 S102 705 544505 4790 0
32 2 S102 705 545210 5495 0
32 2 S102 659 545869 6154 0
32 2 S102 639 546508 6793 0
0 0 0 661 547169 -10534 0
0 0 0 684 547853 -9850 0
0 0 0 696 548549 -9154 0
0 0 0 664 549213 -8490 0
0 0 0 617 549830 -7873 0
0 0 0 613 550443 -7260 0
0 0 0 641 551084 -6619 0
0 0 0 662 551746 -5957 0
0 0 0 667 552413 -5290 0
0 0 0 685 553098 -4605 0
0 0 0 644 553742 -3961 0
0 0 0 641 554383 -3320 0
0 0 0 656 555039 -2664 0
0 0 0 660 555699 -2004 0
33 1 S112 684 556383 -1320 0
33 1 S112 652 557035 -668 0
33 1 S112 624 557659 -44 0
33 2 S112 621 558280 577 0
33 2 S112 658 558938 1235 0
33 2 S112 683 559621 1918 0
33 2 S112 726 560347 2644 0
33 2 S112 711 561058 3355 0
33 2 S112 654 561712 4009 0
33 2 S112 657 562369 4666 0
33 2 S112 661 563030 5327 0
33 2 S112 684 563714 6011 0
33 2 S112 695 564409 6706 0
0 0 0 674 565083 -11486 0
0 0 0 644 565727 -10842 0
0 0 0 652 566379 -10190 0
0 0 0 667 567046 -9523 0
0 0 0 700 567746 -8823 0
0 0 0 670 568416 -8153 0
0 0 0 644 569060 -7509 0
0 0 0 687 569747 -6822 0
0 0 0 678 570425 -6144 0
0 0 0 712 571137 -5432 0
0 0 0 691 571828 -4741 0
0 0 0 652 572480 -4089 0
0 0 0 660 573140 -3429 0
0 0 0 695 573835 -2734 0
0 0 0 709 574544 -2025 0
34 1 S106 697 575241 -1328 0
34 1 S106 662 575903 -666 0
34 1 S106 651 576554 -15 0
34 2 S106 654 577208 639 0
34 2 S106 688 577896 1327 0
34 2 S106 699 578595 2026 0
34 2 S106 693 579288 2719 0
34 2 S106 663 579951 3382 0
34 2 S106 663 580614 4045 0
34 2 S106 677 581291 4722 0
34 2 S106 703 581994 5425 0
34 2 S106 730 582724 6155 0
34 2 S106 666 583390 6821 0
0 0 0 648 584038 -8662 0
0 0 0 663 584701 -7999 0
0 0 0 666 585367 -7333 0
0 0 0 669 586036 -6664 0
0 0 0 631 586667 -6033 0
0 0 0 605 587272 -5428 0
0 0 0 608 587880 -4820 0
0 0 0 634 588514 -4186 0
0 0 0 709 589223 -3477 0
0 0 0 762 589985 -2715 0
0 0 0 700 590685 -2015 0
35 1 S102 681 591366 -1334 0
35 1 S102 693 592059 -641 0
35 2 S102 697 592756 56 0
35 2 S102 729 593485 785 0
35 2 S102 735 594220 1520 0
35 2 S102 663 594883 2183 0
35 2 S102 629 595512 2812 0
35 2 S102 616 596128 3428 0
35 2 S102 619 596747 4047 0
35 2 S102 622 597369 4669 0
35 2 S102 652 598021 5321 0
35 2 S102 659 598680 5980 0
35 2 S102 630 599310 6610 0
0 0 0 617 599927 -7610 0
0 0 0 634 600561 -6976 0
0 0 0 643 601204 -6333 0
0 0 0 652 601856 -5681 0
0 0 0 640 602496 -5041 0
0 0 0 601 603097 -4440 0
0 0 0 587 603684 -3853 0
0 0 0 603 604287 -3250 0
0 0 0 629 604916 -2621 0
36 1 S106 669 605585 -1952 0
36 1 S106 654 606239 -1298 0
36 1 S106 609 606848 -689 0
36 1 S106 602 607450 -87 0
36 2 S106 616 608066 529 0
36 2 S106 644 608710 1173 0
36 2 S106 675 609385 1848 0
36 2 S106 673 610058 2521 0
36 2 S106 633 610691 3154 0
36 2 S106 604 611295 3758 0
36 2 S106 588 611883 4346 0
36 2 S106 587 612470 4933 0
36 2 S106 610 613080 5543 0
36 2 S106 638 613718 6181 0
36 2 S106 664 614382 6845 0
0 0 0 630 615012 -8673 0
0 0 0 615 615627 -8058 0
0 0 0 592 616219 -7466 0
0 0 0 605 616824 -6861 0
0 0 0 591 617415 -6270 0
0 0 0 590 618005 -5680 0
0 0 0 597 618602 -5083 0
0 0 0 587 619189 -4496 0
0 0 0 583 619772 -3913 0
0 0 0 648 620420 -3265 0
0 0 0 773 621193 -2492 0
37 1 S116 788 621981 -1704 0
37 1 S116 760 622741 -944 0
37 1 S116 721 623462 -223 0
37 2 S116 732 624194 509 0
37 2 S116 775 624969 1284 0
37 2 S116 802 625771 2086 0
37 2 S116 749 626520 2835 0
37 2 S116 677 627197 3512 0
37 2 S116 653 627850 4165 0
37 2 S116 678 628528 4843 0
37 2 S116 698 629226 5541 0
37 2 S116 720 629946 6261 0
37 2 S116 687 630633 6948 0
0 0 0 639 631272 -11279 0
0 0 0 627 631899 -10652 0
0 0 0 631 632530 -10021 0
0 0 0 631 633161 -9390 0
0 0 0 638 633799 -8752 0
0 0 0 590 634389 -8162 0
0 0 0 582 634971 -7580 0
0 0 0 590 635561 -6990 0
0 0 0 622 636183 -6368 0
0 0 0 662 636845 -5706 0
0 0 0 649 637494 -5057 0
0 0 0 619 638113 -4438 0
0 0 0 628 638741 -3810 0
0 0 0 658 639399 -3152 0
0 0 0 708 640107 -2444 0
38 1 S102 740 640847 -1704 0
38 1 S102 691 641538 -1013 0
38 1 S102 656 642194 -357 0
38 2 S102 673 642867 316 0
38 2 S102 688 643555 1004 0
38 2 S102 706 644261 1710 0
38 2 S102 688 644949 2398 0
38 2 S102 630 645579 3028 0
38 2 S102 604 646183 3632 0
38 2 S102 591 646774 4223 0
38 2 S102 595 647369 4818 0
38 2 S102 696 648065 5514 0
38 2 S102 804 648869 6318 0
0 0 0 837 649706 -9059 0
0 0 0 831 650537 -8228 0
0 0 0 787 651324 -7441 0
0 0 0 713 652037 -6728 0
0 0 0 735 652772 -5993 0
0 0 0 753 653525 -5240 0
0 0 0 748 654273 -4492 0
0 0 0 686 654959 -3806 0
0 0 0 662 655621 -3144 0
0 0 0 655 656276 -2489 0
39 1 S116 661 656937 -1828 0
39 1 S116 683 657620 -1145 0
39 1 S116 682 658302 -463 0
39 2 S116 666 658968 203 0
39 2 S116 700 659668 903 0
39 2 S116 661 660329 1564 0
39 2 S116 673 661002 2237 0
39 2 S116 677 661679 2914 0
39 2 S116 631 662310 3545 0
39 2 S116 639 662949 4184 0
39 2 S116 685 663634 4869 0
39 2 S116 737 664371 5606 0
39 2 S116 721 665092 6327 0
39 2 S116 648 665740 6975 0
0 0 0 653 666393 -6579 0
0 0 0 665 667058 -5914 0
0 0 0 682 667740 -5232 0
0 0 0 650 668390 -4582 0
0 0 0 596 668986 -3986 0
0 0 0 588 669574 -3398 0
0 0 0 591 670165 -2807 0
0 0 0 622 670787 -2185 0
40 1 S112 653 671440 -1532 0
40 1 S112 660 672100 -872 0
40 1 S112 624 672724 -248 0
40 2 S112 604 673328 356 0
40 2 S112 632 673960 988 0
40 2 S112 634 674594 1622 0
40 2 S112 643 675237 2265 0
40 2 S112 637 675874 2902 0
40 2 S112 590 676464 3492 0
40 2 S112 575 677039 4067 0
40 2 S112 573 677612 4640 0
40 2 S112 599 678211 5239 0
40 2 S112 636 678847 5875 0
40 2 S112 666 679513 6541 0
0 0 0 626 680139 -188674 0
0 0 0 587 680726 -188087 0
0 0 0 567 681293 -187520 0
0 0 0 572 681865 -186948 0
0 0 0 581 682446 -186367 0
0 0 0 586 683032 -185781 0
0 0 0 557 683589 -185224 0
0 0 0 541 684130 -184683 0
0 0 0 531 684661 -184152 0
0 0 0 518 685179 -183634 0
0 0 0 507 685686 -183127 0
0 0 0 505 686191 -182622 0
0 0 0 492 686683 -182130 0
0 0 0 502 687185 -181628 0
0 0 0 1829 689014 -179799 1
0 0 0 696 689710 -179103 0
0 0 0 2358 692068 -176745 1
0 0 0 1014 693082 -175731 0
0 0 0 513 693595 -175218 0
0 0 0 512 694107 -174706 0
0 0 0 2117 696224 -172589 1
0 0 0 511 696735 -172078 0
0 0 0 525 697260 -171553 0
0 0 0 529 697789 -171024 0
0 0 0 529 698318 -170495 0
0 0 0 537 698855 -169958 0
0 0 0 549 699404 -169409 0
0 0 0 563 699967 -168846 0
0 0 0 570 700537 -168276 0
0 0 0 3344 703881 -164932 1
0 0 0 542 704423 -164390 0
0 0 0 561 704984 -163829 0
0 0 0 617 705601 -163212 0
0 0 0 581 706182 -162631 0
0 0 0 596 706778 -162035 0
0 0 0 584 707362 -161451 0
0 0 0 580 707942 -160871 0
0 0 0 601 708543 -160270 0
0 0 0 599 709142 -159671 0
0 0 0 597 709739 -159074 0
0 0 0 1024 710763 -158050 0
0 0 0 657 711420 -157393 0
0 0 0 7712 719132 -149681 1
0 0 0 603 719735 -149078 0
0 0 0 570 720305 -148508 0
0 0 0 565 720870 -147943 0
0 0 0 575 721445 -147368 0
0 0 0 593 722038 -146775 0
0 0 0 625 722663 -146150 0
0 0 0 608 723271 -145542 0
0 0 0 589 723860 -144953 0
0 0 0 611 724471 -144342 0
0 0 0 661 725132 -143681 0
0 0 0 659 725791 -143022 0
0 0 0 614 726405 -142408 0
0 0 0 625 727030 -141783 0
0 0 0 615 727645 -141168 0
0 0 0 591 728236 -140577 0
0 0 0 601 728837 -139976 0
0 0 0 569 729406 -139407 0
0 0 0 563 729969 -138844 0
0 0 0 555 730524 -138289 0
0 0 0 559 731083 -137730 0
0 0 0 614 731697 -137116 0
0 0 0 657 732354 -136459 0
0 0 0 604 732958 -135855 0
0 0 0 560 733518 -135295 0
0 0 0 546 734064 -134749 0
0 0 0 552 734616 -134197 0
0 0 0 580 735196 -133617 0
0 0 0 613 735809 -133004 0
0 0 0 612 736421 -132392 0
0 0 0 603 737024 -131789 0
0 0 0 583 737607 -131206 0
0 0 0 558 738165 -130648 0
0 0 0 547 738712 -130101 0
0 0 0 554 739266 -129547 0
0 0 0 566 739832 -128981 0
0 0 0 570 740402 -128411 0
0 0 0 549 740951 -127862 0
0 0 0 543 741494 -127319 0
0 0 0 540 742034 -126779 0
0 0 0 568 742602 -126211 0
0 0 0 687 743289 -125524 0
0 0 0 781 744070 -124743 0
0 0 0 773 744843 -123970 0
0 0 0 759 745602 -123211 0
0 0 0 696 746298 -122515 0
0 0 0 631 746929 -121884 0
0 0 0 633 747562 -121251 0
0 0 0 651 748213 -120600 0
0 0 0 698 748911 -119902 0
0 0 0 700 749611 -119202 0
0 0 0 696 750307 -118506 0
0 0 0 652 750959 -117854 0
0 0 0 645 751604 -117209 0
0 0 0 685 752289 -116524 0
0 0 0 710 752999 -115814 0
0 0 0 758 753757 -115056 0
0 0 0 759 754516 -114297 0
0 0 0 704 755220 -113593 0
0 0 0 724 755944 -112869 0
0 0 0 717 756661 -112152 0
0 0 0 730 757391 -111422 0
0 0 0 737 758128 -110685 0
0 0 0 688 758816 -109997 0
0 0 0 709 759525 -109288 0
0 0 0 745 760270 -108543 0
0 0 0 754 761024 -107789 0
0 0 0 772 761796 -107017 0
0 0 0 719 762515 -106298 0
0 0 0 707 763222 -105591 0
0 0 0 742 763964 -104849 0
0 0 0 776 764740 -104073 0
0 0 0 781 765521 -103292 0
0 0 0 721 766242 -102571 0
0 0 0 670 766912 -101901 0
0 0 0 691 767603 -101210 0
0 0 0 724 768327 -100486 0
0 0 0 747 769074 -99739 0
0 0 0 745 769819 -98994 0
0 0 0 724 770543 -98270 0
0 0 0 797 771340 -97473 0
0 0 0 781 772121 -96692 0
0 0 0 782 772903 -95910 0
0 0 0 748 773651 -95162 0
0 0 0 737 774388 -94425 0
0 0 0 758 775146 -93667 0
0 0 0 754 775900 -92913 0
0 0 0 736 776636 -92177 0
0 0 0 684 777320 -91493 0
0 0 0 717 778037 -90776 0
0 0 0 735 778772 -90041 0
0 0 0 690 779462 -89351 0
0 0 0 627 780089 -88724 0
0 0 0 610 780699 -88114 0
0 0 0 610 781309 -87504 0
0 0 0 584 781893 -86920 0
0 0 0 574 782467 -86346 0
0 0 0 589 783056 -85757 0
0 0 0 613 783669 -85144 0
0 0 0 621 784290 -84523 0
0 0 0 617 784907 -83906 0
0 0 0 605 785512 -83301 0
0 0 0 565 786077 -82736 0
0 0 0 563 786640 -82173 0
0 0 0 546 787186 -81627 0
0 0 0 540 787726 -81087 0
0 0 0 541 788267 -80546 0
0 0 0 531 788798 -80015 0
0 0 0 564 789362 -79451 0
0 0 0 716 790078 -78735 0
0 0 0 822 790900 -77913 0
0 0 0 784 791684 -77129 0
0 0 0 709 792393 -76420 0
0 0 0 665 793058 -75755 0
0 0 0 719 793777 -75036 0
0 0 0 752 794529 -74284 0
0 0 0 760 795289 -73524 0
0 0 0 664 795953 -72860 0
0 0 0 673 796626 -72187 0
0 0 0 699 797325 -71488 0
0 0 0 723 798048 -70765 0
0 0 0 769 798817 -69996 0
0 0 0 803 799620 -69193 0
0 0 0 830 800450 -68363 0
0 0 0 795 801245 -67568 0
0 0 0 795 802040 -66773 0
0 0 0 794 802834 -65979 0
0 0 0 811 803645 -65168 0
0 0 0 799 804444 -64369 0
0 0 0 730 805174 -63639 0
0 0 0 706 805880 -62933 0
0 0 0 688 806568 -62245 0
0 0 0 698 807266 -61547 0
0 0 0 686 807952 -60861 0
0 0 0 650 808602 -60211 0
0 0 0 667 809269 -59544 0
0 0 0 703 809972 -58841 0
0 0 0 767 810739 -58074 0
0 0 0 795 811534 -57279 0
0 0 0 733 812267 -56546 0
0 0 0 750 813017 -55796 0
0 0 0 753 813770 -55043 0
0 0 0 748 814518 -54295 0
0 0 0 695 815213 -53600 0
0 0 0 658 815871 -52942 0
0 0 0 681 816552 -52261 0
0 0 0 703 817255 -51558 0
0 0 0 725 817980 -50833 0
0 0 0 755 818735 -50078 0
0 0 0 738 819473 -49340 0
0 0 0 689 820162 -48651 0
0 0 0 717 820879 -47934 0
0 0 0 749 821628 -47185 0
0 0 0 807 822435 -46378 0
0 0 0 802 823237 -45576 0
0 0 0 746 823983 -44830 0
0 0 0 677 824660 -44153 0
0 0 0 684 825344 -43469 0
0 0 0 681 826025 -42788 0
0 0 0 678 826703 -42110 0
0 0 0 708 827411 -41402 0
0 0 0 708 828119 -40694 0
0 0 0 687 828806 -40007 0
0 0 0 767 829573 -39240 0
0 0 0 847 830420 -38393 0
0 0 0 833 831253 -37560 0
0 0 0 828 832081 -36732 0
0 0 0 755 832836 -35977 0
0 0 0 755 833591 -35222 0
0 0 0 759 834350 -34463 0
0 0 0 750 835100 -33713 0
0 0 0 745 835845 -32968 0
0 0 0 689 836534 -32279 0
0 0 0 678 837212 -31601 0
0 0 0 720 837932 -30881 0
0 0 0 754 838686 -30127 0
0 0 0 846 839532 -29281 0
0 0 0 815 840347 -28466 0
0 0 0 785 841132 -27681 0
0 0 0 865 841997 -26816 0
0 0 0 886 842883 -25930 0
0 0 0 867 843750 -25063 0
0 0 0 772 844522 -24291 0
0 0 0 733 845255 -23558 0
0 0 0 747 846002 -22811 0
0 0 0 741 846743 -22070 0
0 0 0 710 847453 -21360 0
0 0 0 694 848147 -20666 0
0 0 0 772 848919 -19894 0
0 0 0 808 849727 -19086 0
0 0 0 801 850528 -18285 0
0 0 0 748 851276 -17537 0
0 0 0 811 852087 -16726 0
0 0 0 878 852965 -15848 0
0 0 0 794 853759 -15054 0
0 0 0 720 854479 -14334 0
0 0 0 699 855178 -13635 0
0 0 0 708 855886 -12927 0
0 0 0 697 856583 -12230 0
0 0 0 697 857280 -11533 0
0 0 0 654 857934 -10879 0
0 0 0 667 858601 -10212 0
0 0 0 705 859306 -9507 0
0 0 0 775 860081 -8732 0
0 0 0 763 860844 -7969 0
0 0 0 730 861574 -7239 0
0 0 0 759 862333 -6480 0
0 0 0 744 863077 -5736 0
0 0 0 747 863824 -4989 0
0 0 0 688 864512 -4301 0
0 0 0 639 865151 -3662 0
0 0 0 615 865766 -3047 0
0 0 0 607 866373 -2440 0
41 1 S102 620 866993 -1820 0
41 1 S102 675 867668 -1145 0
41 1 S102 686 868354 -459 0
41 2 S102 718 869072 259 0
41 2 S102 682 869754 941 0
41 2 S102 669 870423 1610 0
41 2 S102 714 871137 2324 0
41 2 S102 712 871849 3036 0
41 2 S102 704 872553 3740 0
41 2 S102 709 873262 4449 0
41 2 S102 674 873936 5123 0
41 2 S102 659 874595 5782 0
41 2 S102 678 875273 6460 0
0 0 0 692 875965 -8415 0
0 0 0 771 876736 -7644 0
0 0 0 756 877492 -6888 0
0 0 0 710 878202 -6178 0
0 0 0 698 878900 -5480 0
0 0 0 732 879632 -4748 0
0 0 0 695 880327 -4053 0
0 0 0 660 880987 -3393 0
0 0 0 651 881638 -2742 0
0 0 0 670 882308 -2072 0
42 1 S112 713 883021 -1359 0
42 1 S112 753 883774 -606 0
42 2 S112 778 884552 172 0
42 2 S112 710 885262 882 0
42 2 S112 657 885919 1539 0
42 2 S112 694 886613 2233 0
42 2 S112 707 887320 2940 0
42 2 S112 711 888031 3651 0
42 2 S112 702 888733 4353 0
42 2 S112 675 889408 5028 0
42 2 S112 675 890083 5703 0
42 2 S112 692 890775 6395 0
0 0 0 685 891460 -8869 0
0 0 0 680 892140 -8189 0
0 0 0 617 892757 -7572 0
0 0 0 609 893366 -6963 0
0 0 0 592 893958 -6371 0
0 0 0 597 894555 -5774 0
0 0 0 622 895177 -5152 0
0 0 0 603 895780 -4549 0
0 0 0 604 896384 -3945 0
0 0 0 641 897025 -3304 0
0 0 0 715 897740 -2589 0
43 1 S116 775 898515 -1814 0
43 1 S116 762 899277 -1052 0
43 1 S116 704 899981 -348 0
43 2 S116 698 900679 350 0
43 2 S116 737 901416 1087 0
43 2 S116 734 902150 1821 0
43 2 S116 722 902872 2543 0
43 2 S116 682 903554 3225 0
43 2 S116 659 904213 3884 0
43 2 S116 665 904878 4549 0
43 2 S116 653 905531 5202 0
43 2 S116 677 906208 5879 0
43 2 S116 649 906857 6528 0
0 0 0 647 907504 -7563 0
0 0 0 712 908216 -6851 0
0 0 0 710 908926 -6141 0
0 0 0 737 909663 -5404 0
0 0 0 690 910353 -4714 0
0 0 0 653 911006 -4061 0
0 0 0 668 911674 -3393 0
0 0 0 723 912397 -2670 0
44 1 S102 753 913150 -1917 0
44 1 S102 698 913848 -1219 0
44 1 S102 662 914510 -557 0
44 2 S102 684 915194 127 0
44 2 S102 709 915903 836 0
44 2 S102 718 916621 1554 0
44 2 S102 721 917342 2275 0
44 2 S102 682 918024 2957 0
44 2 S102 653 918677 3610 0
44 2 S102 680 919357 4290 0
44 2 S102 692 920049 4982 0
44 2 S102 732 920781 5714 0
44 2 S102 728 921509 6442 0
0 0 0 680 922189 -8263 0
0 0 0 703 922892 -7560 0
0 0 0 702 923594 -6858 0
0 0 0 687 924281 -6171 0
0 0 0 681 924962 -5490 0
0 0 0 659 925621 -4831 0
0 0 0 668 926289 -4163 0
0 0 0 699 926988 -3464 0
0 0 0 764 927752 -2700 0
45 1 S116 789 928541 -1911 0
45 1 S116 741 929282 -1170 0
45 1 S116 719 930001 -451 0
45 2 S116 734 930735 283 0
45 2 S116 770 931505 1053 0
45 2 S116 766 932271 1819 0
45 2 S116 737 933008 2556 0
45 2 S116 690 933698 3246 0
45 2 S116 688 934386 3934 0
45 2 S116 699 935085 4633 0
45 2 S116 710 935795 5343 0
45 2 S116 710 936505 6053 0
45 2 S116 709 937214 6762 0
0 0 0 684 937898 -10989 0
0 0 0 649 938547 -10340 0
0 0 0 657 939204 -9683 0
0 0 0 671 939875 -9012 0
0 0 0 666 940541 -8346 0
0 0 0 633 941174 -7713 0
0 0 0 625 941799 -7088 0
0 0 0 665 942464 -6423 0
0 0 0 705 943169 -5718 0
0 0 0 741 943910 -4977 0
0 0 0 700 944610 -4277 0
0 0 0 661 945271 -3616 0
0 0 0 689 945960 -2927 0
0 0 0 729 946689 -2198 0
46 1 S102 736 947425 -1462 0
46 1 S102 708 948133 -754 0
46 1 S102 657 948790 -97 0
46 2 S102 662 949452 565 0
46 2 S102 697 950149 1262 0
46 2 S102 696 950845 1958 0
46 2 S102 716 951561 2674 0
46 2 S102 691 952252 3365 0
46 2 S102 695 952947 4060 0
46 2 S102 749 953696 4809 0
46 2 S102 775 954471 5584 0
46 2 S102 769 955240 6353 0
0 0 0 711 955951 -8967 0
0 0 0 676 956627 -8291 0
0 0 0 688 957315 -7603 0
0 0 0 703 958018 -6900 0
0 0 0 669 958687 -6231 0
0 0 0 623 959310 -5608 0
0 0 0 615 959925 -4993 0
0 0 0 621 960546 -4372 0
0 0 0 650 961196 -3722 0
0 0 0 743 961939 -2979 0
0 0 0 820 962759 -2159 0
47 1 S112 750 963509 -1409 0
47 1 S112 723 964232 -686 0
47 2 S112 783 965015 97 0
47 2 S112 829 965844 926 0
47 2 S112 872 966716 1798 0
47 2 S112 836 967552 2634 0
47 2 S112 742 968294 3376 0
47 2 S112 755 969049 4131 0
47 2 S112 744 969793 4875 0
47 2 S112 705 970498 5580 0
47 2 S112 681 971179 6261 0
47 2 S112 639 971818 6900 0
0 0 0 629 972447 -11619 0
0 0 0 650 973097 -10969 0
0 0 0 733 973830 -10236 0
0 0 0 754 974584 -9482 0
0 0 0 721 975305 -8761 0
0 0 0 754 976059 -8007 0
0 0 0 849 976908 -7158 0
0 0 0 805 977713 -6353 0
0 0 0 725 978438 -5628 0
0 0 0 754 979192 -4874 0
0 0 0 800 979992 -4074 0
0 0 0 807 980799 -3267 0
0 0 0 752 981551 -2515 0
48 1 S116 693 982244 -1822 0
48 1 S116 708 982952 -1114 0
48 1 S116 725 983677 -389 0
48 2 S116 732 984409 343 0
48 2 S116 767 985176 1110 0
48 2 S116 740 985916 1850 0
48 2 S116 698 986614 2548 0
48 2 S116 717 987331 3265 0
48 2 S116 763 988094 4028 0
48 2 S116 778 988872 4806 0
48 2 S116 786 989658 5592 0
48 2 S116 721 990379 6313 0
48 2 S116 682 991061 6995 0
0 0 0 687 991748 -6476 0
0 0 0 673 992421 -5803 0
0 0 0 679 993100 -5124 0
0 0 0 642 993742 -4482 0
0 0 0 607 994349 -3875 0
0 0 0 618 994967 -3257 0
0 0 0 627 995594 -2630 0
49 1 S112 698 996292 -1932 0
49 1 S112 764 997056 -1168 0
49 1 S112 714 997770 -454 0
49 2 S112 683 998453 229 0
49 2 S112 743 999196 972 0
49 2 S112 805 1000001 1777 0
49 2 S112 792 1000793 2569 0
49 2 S112 723 1001516 3292 0
49 2 S112 710 1002226 4002 0
49 2 S112 751 1002977 4753 0
49 2 S112 741 1003718 5494 0
49 2 S112 686 1004404 6180 0
49 2 S112 651 1005055 6831 0
0 0 0 655 1005710 -12010 0
0 0 0 683 1006393 -11327 0
0 0 0 681 1007074 -10646 0
0 0 0 659 1007733 -9987 0
0 0 0 651 1008384 -9336 0
0 0 0 676 1009060 -8660 0
0 0 0 688 1009748 -7972 0
0 0 0 710 1010458 -7262 0
0 0 0 667 1011125 -6595 0
0 0 0 678 1011803 -5917 0
0 0 0 730 1012533 -5187 0
0 0 0 714 1013247 -4473 0
0 0 0 719 1013966 -3754 0
0 0 0 663 1014629 -3091 0
0 0 0 664 1015293 -2427 0
50 1 S106 698 1015991 -1729 0
50 1 S106 720 1016711 -1009 0
50 1 S106 730 1017441 -279 0
50 2 S106 743 1018184 464 0
50 2 S106 716 1018900 1180 0
50 2 S106 697 1019597 1877 0
50 2 S106 741 1020338 2618 0
50 2 S106 752 1021090 3370 0
50 2 S106 739 1021829 4109 0
50 2 S106 697 1022526 4806 0
50 2 S106 661 1023187 5467 0
50 2 S106 682 1023869 6149 0
50 2 S106 689 1024558 6838 0
0 0 0 718 1025276 -6453 0
0 0 0 711 1025987 -5742 0
0 0 0 668 1026655 -5074 0
0 0 0 635 1027290 -4439 0
0 0 0 645 1027935 -3794 0
0 0 0 652 1028587 -3142 0
0 0 0 668 1029255 -2474 0
51 1 S112 677 1029932 -1797 0
51 1 S112 664 1030596 -1133 0
51 1 S112 678 1031274 -455 0
51 2 S112 725 1031999 270 0
51 2 S112 808 1032807 1078 0
51 2 S112 818 1033625 1896 0
51 2 S112 751 1034376 2647 0
51 2 S112 705 1035081 3352 0
51 2 S112 746 1035827 4098 0
51 2 S112 736 1036563 4834 0
51 2 S112 722 1037285 5556 0
51 2 S112 670 1037955 6226 0
51 2 S112 635 1038590 6861 0
0 0 0 658 1039248 -7219 0
0 0 0 675 1039923 -6544 0
0 0 0 716 1040639 -5828 0
0 0 0 687 1041326 -5141 0
0 0 0 655 1041981 -4486 0
0 0 0 676 1042657 -3810 0
0 0 0 716 1043373 -3094 0
0 0 0 746 1044119 -2348 0
52 1 S116 720 1044839 -1628 0
52 1 S116 675 1045514 -953 0
52 1 S116 696 1046210 -257 0
52 2 S116 735 1046945 478 0
52 2 S116 778 1047723 1256 0
52 2 S116 785 1048508 2041 0
52 2 S116 737 1049245 2778 0
52 2 S116 676 1049921 3454 0
52 2 S116 689 1050610 4143 0
52 2 S116 697 1051307 4840 0
52 2 S116 678 1051985 5518 0
52 2 S116 645 1052630 6163 0
52 2 S116 622 1053252 6785 0
0 0 0 618 1053870 -9109 0
0 0 0 652 1054522 -8457 0
0 0 0 681 1055203 -7776 0
0 0 0 728 1055931 -7048 0
0 0 0 665 1056596 -6383 0
0 0 0 667 1057263 -5716 0
0 0 0 726 1057989 -4990 0
0 0 0 767 1058756 -4223 0
0 0 0 770 1059526 -3453 0
0 0 0 712 1060238 -2741 0
0 0 0 710 1060948 -2031 0
53 1 S106 764 1061712 -1267 0
53 1 S106 771 1062483 -496 0
53 2 S106 755 1063238 259 0
53 2 S106 711 1063949 970 0
53 2 S106 677 1064626 1647 0
53 2 S106 706 1065332 2353 0
53 2 S106 750 1066082 3103 0
53 2 S106 817 1066899 3920 0
53 2 S106 788 1067687 4708 0
53 2 S106 719 1068406 5427 0
53 2 S106 687 1069093 6114 0
53 2 S106 697 1069790 6811 0
0 0 0 728 1070518 -6155 0
0 0 0 720 1071238 -5435 0
0 0 0 713 1071951 -4722 0
0 0 0 665 1072616 -4057 0
0 0 0 642 1073258 -3415 0
0 0 0 652 1073910 -2763 0
0 0 0 671 1074581 -2092 0
54 1 S102 705 1075286 -1387 0
54 1 S102 749 1076035 -638 0
54 2 S102 678 1076713 40 0
54 2 S102 671 1077384 711 0
54 2 S102 696 1078080 1407 0
54 2 S102 747 1078827 2154 0
54 2 S102 769 1079596 2923 0
54 2 S102 739 1080335 3662 0
54 2 S102 677 1081012 4339 0
54 2 S102 641 1081653 4980 0
54 2 S102 639 1082292 5619 0
54 2 S102 661 1082953 6280 0
54 2 S102 684 1083637 6964 0
0 0 0 716 1084353 -10076 0
0 0 0 639 1084992 -9437 0
0 0 0 640 1085632 -8797 0
0 0 0 648 1086280 -8149 0
0 0 0 667 1086947 -7482 0
0 0 0 706 1087653 -6776 0
0 0 0 725 1088378 -6051 0
0 0 0 671 1089049 -5380 0
0 0 0 659 1089708 -4721 0
0 0 0 663 1090371 -4058 0
0 0 0 694 1091065 -3364 0
0 0 0 705 1091770 -2659 0
55 1 S106 703 1092473 -1956 0
55 1 S106 658 1093131 -1298 0
55 1 S106 647 1093778 -651 0
55 2 S106 673 1094451 22 0
55 2 S106 721 1095172 743 0
55 2 S106 742 1095914 1485 0
55 2 S106 708 1096622 2193 0
55 2 S106 660 1097282 2853 0
55 2 S106 653 1097935 3506 0
55 2 S106 672 1098607 4178 0
55 2 S106 705 1099312 4883 0
55 2 S106 738 1100050 5621 0
55 2 S106 791 1100841 6412 0
0 0 0 728 1101569 -6421 0
0 0 0 693 1102262 -5728 0
0 0 0 681 1102943 -5047 0
0 0 0 692 1103635 -4355 0
0 0 0 749 1104384 -3606 0
0 0 0 755 1105139 -2851 0
0 0 0 749 1105888 -2102 0
56 1 S116 692 1106580 -1410 0
56 1 S116 687 1107267 -723 0
56 1 S116 713 1107980 -10 0
56 2 S116 734 1108714 724 0
56 2 S116 758 1109472 1482 0
56 2 S116 733 1110205 2215 0
56 2 S116 676 1110881 2891 0
56 2 S116 659 1111540 3550 0
56 2 S116 690 1112230 4240 0
56 2 S116 768 1112998 5008 0
56 2 S116 751 1113749 5759 0
56 2 S116 707 1114456 6466 0
0 0 0 673 1115129 -7483 0
0 0 0 719 1115848 -6764 0
0 0 0 750 1116598 -6014 0
0 0 0 723 1117321 -5291 0
0 0 0 653 1117974 -4638 0
0 0 0 635 1118609 -4003 0
0 0 0 664 1119273 -3339 0
0 0 0 693 1119966 -2646 0
57 1 S106 700 1120666 -1946 0
57 1 S106 671 1121337 -1275 0
57 1 S106 654 1121991 -621 0
57 2 S106 696 1122687 75 0
57 2 S106 737 1123424 812 0
57 2 S106 734 1124158 1546 0
57 2 S106 711 1124869 2257 0
57 2 S106 665 1125534 2922 0
57 2 S106 660 1126194 3582 0
57 2 S106 673 1126867 4255 0
57 2 S106 680 1127547 4935 0
57 2 S106 687 1128234 5622 0
57 2 S106 698 1128932 6320 0
57 2 S106 683 1129615 7003 0
0 0 0 677 1130292 -7837 0
0 0 0 704 1130996 -7133 0
0 0 0 699 1131695 -6434 0
0 0 0 696 1132391 -5738 0
0 0 0 681 1133072 -5057 0
0 0 0 643 1133715 -4414 0
0 0 0 639 1134354 -3775 0
0 0 0 678 1135032 -3097 0
0 0 0 733 1135765 -2364 0
58 1 S102 778 1136543 -1586 0
58 1 S102 692 1137235 -894 0
58 1 S102 666 1137901 -228 0
58 2 S102 688 1138589 460 0
58 2 S102 729 1139318 1189 0
58 2 S102 748 1140066 1937 0
58 2 S102 731 1140797 2668 0
58 2 S102 670 1141467 3338 0
58 2 S102 655 1142122 3993 0
58 2 S102 657 1142779 4650 0
58 2 S102 708 1143487 5358 0
58 2 S102 790 1144277 6148 0
58 2 S102 771 1145048 6919 0
0 0 0 731 1145779 -6873 0
0 0 0 719 1146498 -6154 0
0 0 0 739 1147237 -5415 0
0 0 0 738 1147975 -4677 0
0 0 0 658 1148633 -4019 0
0 0 0 644 1149277 -3375 0
0 0 0 652 1149929 -2723 0
0 0 0 690 1150619 -2033 0
59 1 S112 758 1151377 -1275 0
59 1 S112 688 1152065 -587 0
59 2 S112 669 1152734 82 0
59 2 S112 673 1153407 755 0
59 2 S112 716 1154123 1471 0
59 2 S112 675 1154798 2146 0
59 2 S112 664 1155462 2810 0
59 2 S112 634 1156096 3444 0
59 2 S112 631 1156727 4075 0
59 2 S112 654 1157381 4729 0
59 2 S112 691 1158072 5420 0
59 2 S112 725 1158797 6145 0
59 2 S112 654 1159451 6799 0
0 0 0 662 1160113 -8835 0
0 0 0 690 1160803 -8145 0
0 0 0 680 1161483 -7465 0
0 0 0 633 1162116 -6832 0
0 0 0 606 1162722 -6226 0
0 0 0 612 1163334 -5614 0
0 0 0 619 1163953 -4995 0
0 0 0 644 1164597 -4351 0
0 0 0 660 1165257 -3691 0
0 0 0 633 1165890 -3058 0
0 0 0 625 1166515 -2433 0
60 1 S102 647 1167162 -1786 0
60 1 S102 658 1167820 -1128 0
60 1 S102 678 1168498 -450 0
60 2 S102 642 1169140 192 0
60 2 S102 641 1169781 833 0
60 2 S102 645 1170426 1478 0
60 2 S102 640 1171066 2118 0
60 2 S102 660 1171726 2778 0
60 2 S102 669 1172395 3447 0
60 2 S102 621 1173016 4068 0
60 2 S102 599 1173615 4667 0
60 2 S102 611 1174226 5278 0
60 2 S102 639 1174865 5917 0
60 2 S102 673 1175538 6590 0
0 0 0 694 1176232 -10273 0
0 0 0 710 1176942 -9563 0
0 0 0 635 1177577 -8928 0
0 0 0 607 1178184 -8321 0
0 0 0 623 1178807 -7698 0
0 0 0 622 1179429 -7076 0
0 0 0 627 1180056 -6449 0
0 0 0 597 1180653 -5852 0
0 0 0 570 1181223 -5282 0
0 0 0 565 1181788 -4717 0
0 0 0 555 1182343 -4162 0
0 0 0 561 1182904 -3601 0
0 0 0 571 1183475 -3030 0
0 0 0 586 1184061 -2444 0
61 1 S106 583 1184644 -1861 0
61 1 S106 579 1185223 -1282 0
61 1 S106 608 1185831 -674 0
61 2 S106 700 1186531 26 0
61 2 S106 811 1187342 837 0
61 2 S106 781 1188123 1618 0
61 2 S106 710 1188833 2328 0
61 2 S106 702 1189535 3030 0
61 2 S106 761 1190296 3791 0
61 2 S106 817 1191113 4608 0
61 2 S106 819 1191932 5427 0
61 2 S106 710 1192642 6137 0
61 2 S106 646 1193288 6783 0
0 0 0 646 1193934 -5701 0
0 0 0 648 1194582 -5053 0
0 0 0 626 1195208 -4427 0
0 0 0 608 1195816 -3819 0
0 0 0 607 1196423 -3212 0
0 0 0 603 1197026 -2609 0
62 1 S112 643 1197669 -1966 0
62 1 S112 702 1198371 -1264 0
62 1 S112 746 1199117 -518 0
62 2 S112 649 1199766 131 0
62 2 S112 661 1200427 792 0
62 2 S112 688 1201115 1480 0
62 2 S112 704 1201819 2184 0
62 2 S112 695 1202514 2879 0
62 2 S112 650 1203164 3529 0
62 2 S112 658 1203822 4187 0
62 2 S112 686 1204508 4873 0
62 2 S112 675 1205183 5548 0
62 2 S112 639 1205822 6187 0
62 2 S112 649 1206471 6836 0
0 0 0 672 1207143 -10944 0
0 0 0 670 1207813 -10274 0
0 0 0 612 1208425 -9662 0
0 0 0 613 1209038 -9049 0
0 0 0 619 1209657 -8430 0
0 0 0 602 1210259 -7828 0
0 0 0 600 1210859 -7228 0
0 0 0 574 1211433 -6654 0
0 0 0 573 1212006 -6081 0
0 0 0 600 1212606 -5481 0
0 0 0 639 1213245 -4842 0
0 0 0 672 1213917 -4170 0
0 0 0 716 1214633 -3454 0
0 0 0 656 1215289 -2798 0
0 0 0 632 1215921 -2166 0
63 1 S102 642 1216563 -1524 0
63 1 S102 650 1217213 -874 0
63 1 S102 672 1217885 -202 0
63 2 S102 665 1218550 463 0
63 2 S102 634 1219184 1097 0
63 2 S102 622 1219806 1719 0
63 2 S102 653 1220459 2372 0
63 2 S102 714 1221173 3086 0
63 2 S102 767 1221940 3853 0
63 2 S102 753 1222693 4606 0
63 2 S102 686 1223379 5292 0
63 2 S102 668 1224047 5960 0
63 2 S102 668 1224715 6628 0
0 0 0 691 1225406 -7718 0
0 0 0 694 1226100 -7024 0
0 0 0 664 1226764 -6360 0
0 0 0 618 1227382 -5742 0
0 0 0 599 1227981 -5143 0
0 0 0 611 1228592 -4532 0
0 0 0 669 1229261 -3863 0
0 0 0 787 1230048 -3076 0
0 0 0 786 1230834 -2290 0
64 1 S112 750 1231584 -1540 0
64 1 S112 708 1232292 -832 0
64 1 S112 757 1233049 -75 0
64 2 S112 799 1233848 724 0
64 2 S112 674 1234522 1398 0
64 2 S112 596 1235118 1994 0
64 2 S112 569 1235687 2563 0
64 2 S112 565 1236252 3128 0
64 2 S112 594 1236846 3722 0
64 2 S112 669 1237515 4391 0
64 2 S112 684 1238199 5075 0
64 2 S112 603 1238802 5678 0
64 2 S112 601 1239403 6279 0
64 2 S112 614 1240017 6893 0
0 0 0 665 1240682 -6351 0
0 0 0 691 1241373 -5660 0
0 0 0 613 1241986 -5047 0
0 0 0 603 1242589 -4444 0
0 0 0 630 1243219 -3814 0
0 0 0 661 1243880 -3153 0
0 0 0 709 1244589 -2444 0
65 1 S106 649 1245238 -1795 0
65 1 S106 623 1245861 -1172 0
65 1 S106 619 1246480 -553 0
65 2 S106 637 1247117 84 0
65 2 S106 662 1247779 746 0
65 2 S106 614 1248393 1360 0
65 2 S106 583 1248976 1943 0
65 2 S106 566 1249542 2509 0
65 2 S106 559 1250101 3068 0
65 2 S106 554 1250655 3622 0
65 2 S106 579 1251234 4201 0
65 2 S106 592 1251826 4793 0
65 2 S106 584 1252410 5377 0
65 2 S106 551 1252961 5928 0
65 2 S106 530 1253491 6458 0
65 2 S106 520 1254011 6978 0
0 0 0 514 1254525 -5837 0
0 0 0 514 1255039 -5323 0
0 0 0 512 1255551 -4811 0
0 0 0 508 1256059 -4303 0
0 0 0 503 1256562 -3800 0
0 0 0 999 1257561 -2801 0
0 0 0 500 1258061 -2301 0
66 1 S116 502 1258563 -1799 0
66 1 S116 505 1259068 -1294 0
66 1 S116 990 1260058 -304 0
66 2 S116 978 1261036 674 0
66 2 S116 974 1262010 1648 0
66 2 S116 950 1262960 2598 0
66 2 S116 939 1263899 3537 0
66 2 S116 945 1264844 4482 0
66 2 S116 500 1265344 4982 0
66 2 S116 528 1265872 5510 0
66 2 S116 520 1266392 6030 0
66 2 S116 508 1266900 6538 0
0 0 0 505 1267405 -11508 0
0 0 0 500 1267905 -11008 0
0 0 0 510 1268415 -10498 0
0 0 0 529 1268944 -9969 0
0 0 0 547 1269491 -9422 0
0 0 0 537 1270028 -8885 0
0 0 0 519 1270547 -8366 0
0 0 0 506 1271053 -7860 0
0 0 0 510 1271563 -7350 0
0 0 0 527 1272090 -6823 0
0 0 0 557 1272647 -6266 0
0 0 0 579 1273226 -5687 0
0 0 0 583 1273809 -5104 0
0 0 0 541 1274350 -4563 0
0 0 0 531 1274881 -4032 0
0 0 0 528 1275409 -3504 0
0 0 0 539 1275948 -2965 0
0 0 0 557 1276505 -2408 0
67 1 S102 599 1277104 -1809 0
67 1 S102 604 1277708 -1205 0
67 1 S102 558 1278266 -647 0
67 1 S102 541 1278807 -106 0
67 2 S102 543 1279350 437 0
67 2 S102 565 1279915 1002 0
67 2 S102 593 1280508 1595 0
67 2 S102 589 1281097 2184 0
67 2 S102 561 1281658 2745 0
67 2 S102 539 1282197 3284 0
67 2 S102 523 1282720 3807 0
67 2 S102 517 1283237 4324 0
67 2 S102 514 1283751 4838 0
67 2 S102 545 1284296 5383 0
67 2 S102 615 1284911 5998 0
67 2 S102 647 1285558 6645 0
0 0 0 659 1286217 -6788 0
0 0 0 674 1286891 -6114 0
0 0 0 631 1287522 -5483 0
0 0 0 602 1288124 -4881 0
0 0 0 553 1288677 -4328 0
0 0 0 533 1289210 -3795 0
0 0 0 524 1289734 -3271 0
0 0 0 522 1290256 -2749 0
0 0 0 542 1290798 -2207 0
68 1 S106 608 1291406 -1599 0
68 1 S106 663 1292069 -936 0
68 1 S106 640 1292709 -296 0
68 2 S106 614 1293323 318 0
68 2 S106 638 1293961 956 0
68 2 S106 670 1294631 1626 0
68 2 S106 641 1295272 2267 0
68 2 S106 571 1295843 2838 0
68 2 S106 581 1296424 3419 0
68 2 S106 628 1297052 4047 0
68 2 S106 626 1297678 4673 0
68 2 S106 604 1298282 5277 0
68 2 S106 578 1298860 5855 0
68 2 S106 562 1299422 6417 0
68 2 S106 574 1299996 6991 0
0 0 0 610 1300606 -11514 0
0 0 0 672 1301278 -10842 0
0 0 0 629 1301907 -10213 0
0 0 0 590 1302497 -9623 0
0 0 0 577 1303074 -9046 0
0 0 0 561 1303635 -8485 0
0 0 0 567 1304202 -7918 0
0 0 0 592 1304794 -7326 0
0 0 0 614 1305408 -6712 0
0 0 0 593 1306001 -6119 0
0 0 0 572 1306573 -5547 0
0 0 0 590 1307163 -4957 0
0 0 0 621 1307784 -4336 0
0 0 0 694 1308478 -3642 0
0 0 0 699 1309177 -2943 0
0 0 0 640 1309817 -2303 0
69 1 S102 606 1310423 -1697 0
69 1 S102 606 1311029 -1091 0
69 1 S102 626 1311655 -465 0
69 2 S102 671 1312326 206 0
69 2 S102 697 1313023 903 0
69 2 S102 665 1313688 1568 0
69 2 S102 615 1314303 2183 0
69 2 S102 583 1314886 2766 0
69 2 S102 570 1315456 3336 0
69 2 S102 585 1316041 3921 0
69 2 S102 616 1316657 4537 0
69 2 S102 641 1317298 5178 0
69 2 S102 689 1317987 5867 0
69 2 S102 627 1318614 6494 0
0 0 0 599 1319213 -8457 0
0 0 0 606 1319819 -7851 0
0 0 0 598 1320417 -7253 0
0 0 0 601 1321018 -6652 0
0 0 0 589 1321607 -6063 0
0 0 0 598 1322205 -5465 0
0 0 0 580 1322785 -4885 0
0 0 0 564 1323349 -4321 0
0 0 0 576 1323925 -3745 0
0 0 0 615 1324540 -3130 0
0 0 0 700 1325240 -2430 0
70 1 S112 742 1325982 -1688 0
70 1 S112 659 1326641 -1029 0
70 1 S112 612 1327253 -417 0
70 2 S112 610 1327863 193 0
70 2 S112 634 1328497 827 0
70 2 S112 645 1329142 1472 0
70 2 S112 691 1329833 2163 0
70 2 S112 661 1330494 2824 0
70 2 S112 638 1331132 3462 0
70 2 S112 651 1331783 4113 0
70 2 S112 659 1332442 4772 0
70 2 S112 690 1333132 5462 0
70 2 S112 692 1333824 6154 0
70 2 S112 619 1334443 6773 0
0 0 0 598 1335041 -11180 0
0 0 0 600 1335641 -10580 0
0 0 0 598 1336239 -9982 0
0 0 0 611 1336850 -9371 0
0 0 0 604 1337454 -8767 0
0 0 0 575 1338029 -8192 0
0 0 0 582 1338611 -7610 0
0 0 0 601 1339212 -7009 0
0 0 0 632 1339844 -6377 0
0 0 0 699 1340543 -5678 0
0 0 0 665 1341208 -5013 0
0 0 0 635 1341843 -4378 0
0 0 0 647 1342490 -3731 0
0 0 0 674 1343164 -3057 0
0 0 0 688 1343852 -2369 0
71 1 S116 675 1344527 -1694 0
71 1 S116 628 1345155 -1066 0
71 1 S116 615 1345770 -451 0
71 2 S116 607 1346377 156 0
71 2 S116 636 1347013 792 0
71 2 S116 638 1347651 1430 0
71 2 S116 682 1348333 2112 0
71 2 S116 704 1349037 2816 0
71 2 S116 667 1349704 3483 0
71 2 S116 682 1350386 4165 0
71 2 S116 741 1351127 4906 0
71 2 S116 784 1351911 5690 0
71 2 S116 719 1352630 6409 0
0 0 0 685 1353315 -9733 0
0 0 0 680 1353995 -9053 0
0 0 0 668 1354663 -8385 0
0 0 0 661 1355324 -7724 0
0 0 0 657 1355981 -7067 0
0 0 0 602 1356583 -6465 0
0 0 0 594 1357177 -5871 0
0 0 0 601 1357778 -5270 0
0 0 0 610 1358388 -4660 0
0 0 0 652 1359040 -4008 0
0 0 0 681 1359721 -3327 0
0 0 0 669 1360390 -2658 0
72 1 S102 708 1361098 -1950 0
72 1 S102 745 1361843 -1205 0
72 1 S102 804 1362647 -401 0
72 2 S102 729 1363376 328 0
72 2 S102 680 1364056 1008 0
72 2 S102 662 1364718 1670 0
72 2 S102 678 1365396 2348 0
72 2 S102 694 1366090 3042 0
72 2 S102 702 1366792 3744 0
72 2 S102 667 1367459 4411 0
72 2 S102 615 1368074 5026 0
72 2 S102 605 1368679 5631 0
72 2 S102 622 1369301 6253 0
72 2 S102 642 1369943 6895 0
0 0 0 688 1370631 -6774 0
0 0 0 679 1371310 -6095 0
0 0 0 633 1371943 -5462 0
0 0 0 615 1372558 -4847 0
0 0 0 585 1373143 -4262 0
0 0 0 592 1373735 -3670 0
0 0 0 613 1374348 -3057 0
0 0 0 678 1375026 -2379 0
73 1 S116 725 1375751 -1654 0
73 1 S116 661 1376412 -993 0
73 1 S116 668 1377080 -325 0
73 2 S116 706 1377786 381 0
73 2 S116 734 1378520 1115 0
73 2 S116 682 1379202 1797 0
73 2 S116 684 1379886 2481 0
73 2 S116 650 1380536 3131 0
73 2 S116 648 1381184 3779 0
73 2 S116 682 1381866 4461 0
73 2 S116 687 1382553 5148 0
73 2 S116 740 1383293 5888 0
73 2 S116 696 1383989 6584 0
0 0 0 641 1384630 -9718 0
0 0 0 654 1385284 -9064 0
0 0 0 643 1385927 -8421 0
0 0 0 626 1386553 -7795 0
0 0 0 590 1387143 -7205 0
0 0 0 582 1387725 -6623 0
0 0 0 584 1388309 -6039 0
0 0 0 593 1388902 -5446 0
0 0 0 632 1389534 -4814 0
0 0 0 665 1390199 -4149 0
0 0 0 650 1390849 -3499 0
0 0 0 653 1391502 -2846 0
0 0 0 715 1392217 -2131 0
74 1 S106 774 1392991 -1357 0
74 1 S106 735 1393726 -622 0
74 2 S106 676 1394402 54 0
74 2 S106 623 1395025 677 0
74 2 S106 637 1395662 1314 0
74 2 S106 665 1396327 1979 0
74 2 S106 744 1397071 2723 0
74 2 S106 796 1397867 3519 0
74 2 S106 702 1398569 4221 0
74 2 S106 689 1399258 4910 0
74 2 S106 739 1399997 5649 0
74 2 S106 811 1400808 6460 0
0 0 0 833 1401641 -7429 0
0 0 0 788 1402429 -6641 0
0 0 0 693 1403122 -5948 0
0 0 0 629 1403751 -5319 0
0 0 0 617 1404368 -4702 0
0 0 0 601 1404969 -4101 0
0 0 0 617 1405586 -3484 0
0 0 0 652 1406238 -2832 0
0 0 0 650 1406888 -2182 0
75 1 S112 627 1407515 -1555 0
75 1 S112 644 1408159 -911 0
75 1 S112 702 1408861 -209 0
75 2 S112 760 1409621 551 0
75 2 S112 787 1410408 1338 0
75 2 S112 719 1411127 2057 0
75 2 S112 678 1411805 2735 0
75 2 S112 662 1412467 3397 0
75 2 S112 666 1413133 4063 0
75 2 S112 686 1413819 4749 0
75 2 S112 674 1414493 5423 0
75 2 S112 639 1415132 6062 0
75 2 S112 669 1415801 6731 0
0 0 0 714 1416515 -7874 0
0 0 0 696 1417211 -7178 0
0 0 0 643 1417854 -6535 0
0 0 0 608 1418462 -5927 0
0 0 0 610 1419072 -5317 0
0 0 0 607 1419679 -4710 0
0 0 0 613 1420292 -4097 0
0 0 0 644 1420936 -3453 0
0 0 0 618 1421554 -2835 0
0 0 0 635 1422189 -2200 0
76 1 S116 680 1422869 -1520 0
76 1 S116 762 1423631 -758 0
76 2 S116 770 1424401 12 0
76 2 S116 695 1425096 707 0
76 2 S116 692 1425788 1399 0
76 2 S116 718 1426506 2117 0
76 2 S116 736 1427242 2853 0
76 2 S116 745 1427987 3598 0
76 2 S116 751 1428738 4349 0
76 2 S116 675 1429413 5024 0
76 2 S116 640 1430053 5664 0
76 2 S116 632 1430685 6296 0
76 2 S116 638 1431323 6934 0
0 0 0 674 1431997 -6367 0
0 0 0 700 1432697 -5667 0
0 0 0 696 1433393 -4971 0
0 0 0 643 1434036 -4328 0
0 0 0 639 1434675 -3689 0
0 0 0 686 1435361 -3003 0
0 0 0 733 1436094 -2270 0
77 1 S106 718 1436812 -1552 0
77 1 S106 666 1437478 -886 0
77 1 S106 642 1438120 -244 0
77 2 S106 648 1438768 404 0
77 2 S106 691 1439459 1095 0
77 2 S106 715 1440174 1810 0
77 2 S106 738 1440912 2548 0
77 2 S106 675 1441587 3223 0
77 2 S106 654 1442241 3877 0
77 2 S106 632 1442873 4509 0
77 2 S106 641 1443514 5150 0
77 2 S106 658 1444172 5808 0
77 2 S106 652 1444824 6460 0
0 0 0 639 1445463 -8750 0
0 0 0 620 1446083 -8130 0
0 0 0 599 1446682 -7531 0
0 0 0 597 1447279 -6934 0
0 0 0 583 1447862 -6351 0
0 0 0 584 1448446 -5767 0
0 0 0 601 1449047 -5166 0
0 0 0 622 1449669 -4544 0
0 0 0 636 1450305 -3908 0
0 0 0 663 1450968 -3245 0
0 0 0 707 1451675 -2538 0
78 1 S112 768 1452443 -1770 0
78 1 S112 685 1453128 -1085 0
78 1 S112 647 1453775 -438 0
78 2 S112 614 1454389 176 0
78 2 S112 633 1455022 809 0
78 2 S112 646 1455668 1455 0
78 2 S112 686 1456354 2141 0
78 2 S112 689 1457043 2830 0
78 2 S112 641 1457684 3471 0
78 2 S112 608 1458292 4079 0
78 2 S112 632 1458924 4711 0
78 2 S112 647 1459571 5358 0
78 2 S112 674 1460245 6032 0
78 2 S112 660 1460905 6692 0
0 0 0 618 1461523 -11473 0
0 0 0 591 1462114 -10882 0
0 0 0 578 1462692 -10304 0
0 0 0 579 1463271 -9725 0
0 0 0 583 1463854 -9142 0
0 0 0 564 1464418 -8578 0
0 0 0 549 1464967 -8029 0
0 0 0 551 1465518 -7478 0
0 0 0 568 1466086 -6910 0
0 0 0 617 1466703 -6293 0
0 0 0 693 1467396 -5600 0
0 0 0 716 1468112 -4884 0
0 0 0 663 1468775 -4221 0
0 0 0 645 1469420 -3576 0
0 0 0 670 1470090 -2906 0
0 0 0 697 1470787 -2209 0
79 1 S102 699 1471486 -1510 0
79 1 S102 657 1472143 -853 0
79 1 S102 610 1472753 -243 0
79 2 S102 609 1473362 366 0
79 2 S102 632 1473994 998 0
79 2 S102 653 1474647 1651 0
79 2 S102 688 1475335 2339 0
79 2 S102 688 1476023 3027 0
79 2 S102 660 1476683 3687 0
79 2 S102 646 1477329 4333 0
79 2 S102 680 1478009 5013 0
79 2 S102 722 1478731 5735 0
79 2 S102 741 1479472 6476 0
0 0 0 731 1480203 -8659 0
0 0 0 682 1480885 -7977 0
0 0 0 615 1481500 -7362 0
0 0 0 595 1482095 -6767 0
0 0 0 575 1482670 -6192 0
0 0 0 576 1483246 -5616 0
0 0 0 635 1483881 -4981 0
0 0 0 703 1484584 -4278 0
0 0 0 675 1485259 -3603 0
0 0 0 647 1485906 -2956 0
0 0 0 689 1486595 -2267 0
80 1 S116 739 1487334 -1528 0
80 1 S116 795 1488129 -733 0
80 2 S116 786 1488915 53 0
80 2 S116 707 1489622 760 0
80 2 S116 694 1490316 1454 0
80 2 S116 696 1491012 2150 0
80 2 S116 712 1491724 2862 0
80 2 S116 703 1492427 3565 0
80 2 S116 647 1493074 4212 0
80 2 S116 623 1493697 4835 0
80 2 S116 638 1494335 5473 0
80 2 S116 655 1494990 6128 0
80 2 S116 666 1495656 6794 0
