T_0003
BeatCount Mean SD BeatCountNoOutliers MeanNoOutliers SDNoOutliers
2008 762,367529880478 91,2131457009011 2002 763,093906093906 90,3804791276819

Trial TrialStatus Trialtype IBI AbsPosition RelPosition Outlier
0 0 0 704 908 -14790 0
0 0 0 806 1714 -13984 0
0 0 0 883 2597 -13101 0
0 0 0 918 3515 -12183 0
0 0 0 865 4380 -11318 0
0 0 0 842 5222 -10476 0
0 0 0 897 6119 -9579 0
0 0 0 902 7021 -8677 0
0 0 0 914 7935 -7763 0
0 0 0 858 8793 -6905 0
0 0 0 852 9645 -6053 0
0 0 0 882 10527 -5171 0
0 0 0 856 11383 -4315 0
0 0 0 824 12207 -3491 0
0 0 0 758 12965 -2733 0
1 1 S112 812 13777 -1921 0
1 1 S112 784 14561 -1137 0
1 1 S112 769 15330 -368 0
1 2 S112 750 16080 382 0
1 2 S112 761 16841 1143 0
1 2 S112 794 17635 1937 0
1 2 S112 854 18489 2791 0
1 2 S112 894 19383 3685 0
1 2 S112 882 20265 4567 0
1 2 S112 829 21094 5396 0
1 2 S112 862 21956 6258 0
0 0 0 872 22828 -12830 0
0 0 0 863 23691 -11967 0
0 0 0 837 24528 -11130 0
0 0 0 764 25292 -10366 0
0 0 0 761 26053 -9605 0
0 0 0 794 26847 -8811 0
0 0 0 803 27650 -8008 0
0 0 0 788 28438 -7220 0
0 0 0 745 29183 -6475 0
0 0 0 783 29966 -5692 0
0 0 0 806 30772 -4886 0
0 0 0 809 31581 -4077 0
0 0 0 775 32356 -3302 0
0 0 0 723 33079 -2579 0
2 1 S102 752 33831 -1827 0
2 1 S102 777 34608 -1050 0
2 1 S102 809 35417 -241 0
2 2 S102 847 36264 606 0
2 2 S102 807 37071 1413 0
2 2 S102 806 37877 2219 0
2 2 S102 835 38712 3054 0
2 2 S102 854 39566 3908 0
2 2 S102 864 40430 4772 0
2 2 S102 818 41248 5590 0
2 2 S102 798 42046 6388 0
0 0 0 808 42854 -9217 0
0 0 0 809 43663 -8408 0
0 0 0 811 44474 -7597 0
0 0 0 789 45263 -6808 0
0 0 0 731 45994 -6077 0
0 0 0 723 46717 -5354 0
0 0 0 759 47476 -4595 0
0 0 0 781 48257 -3814 0
0 0 0 801 49058 -3013 0
0 0 0 787 49845 -2226 0
3 1 S116 857 50702 -1369 0
3 1 S116 907 51609 -462 0
3 2 S116 919 52528 457 0
3 2 S116 878 53406 1335 0
3 2 S116 848 54254 2183 0
3 2 S116 858 55112 3041 0
3 2 S116 881 55993 3922 0
3 2 S116 887 56880 4809 0
3 2 S116 897 57777 5706 0
3 2 S116 883 58660 6589 0
0 0 0 819 59479 -12602 0
0 0 0 793 60272 -11809 0
0 0 0 800 61072 -11009 0
0 0 0 801 61873 -10208 0
0 0 0 826 62699 -9382 0
0 0 0 780 63479 -8602 0
0 0 0 759 64238 -7843 0
0 0 0 793 65031 -7050 0
0 0 0 843 65874 -6207 0
0 0 0 879 66753 -5328 0
0 0 0 861 67614 -4467 0
0 0 0 778 68392 -3689 0
0 0 0 813 69205 -2876 0
0 0 0 845 70050 -2031 0
4 1 S106 881 70931 -1150 0
4 1 S106 836 71767 -314 0
4 2 S106 843 72610 529 0
4 2 S106 868 73478 1397 0
4 2 S106 873 74351 2270 0
4 2 S106 862 75213 3132 0
4 2 S106 806 76019 3938 0
4 2 S106 837 76856 4775 0
4 2 S106 886 77742 5661 0
4 2 S106 914 78656 6575 0
0 0 0 933 79589 -9087 0
0 0 0 866 80455 -8221 0
0 0 0 852 81307 -7369 0
0 0 0 861 82168 -6508 0
0 0 0 863 83031 -5645 0
0 0 0 855 83886 -4790 0
0 0 0 780 84666 -4010 0
0 0 0 805 85471 -3205 0
0 0 0 813 86284 -2392 0
5 1 S116 828 87112 -1564 0
5 1 S116 787 87899 -777 0
5 2 S116 779 88678 2 0
5 2 S116 808 89486 810 0
5 2 S116 835 90321 1645 0
5 2 S116 847 91168 2492 0
5 2 S116 817 91985 3309 0
5 2 S116 770 92755 4079 0
5 2 S116 779 93534 4858 0
5 2 S116 779 94313 5637 0
5 2 S116 789 95102 6426 0
0 0 0 855 95957 -10574 0
0 0 0 846 96803 -9728 0
0 0 0 848 97651 -8880 0
0 0 0 941 98592 -7939 0
0 0 0 957 99549 -6982 0
0 0 0 900 100449 -6082 0
0 0 0 811 101260 -5271 0
0 0 0 787 102047 -4484 0
0 0 0 788 102835 -3696 0
0 0 0 788 103623 -2908 0
0 0 0 792 104415 -2116 0
6 1 S106 741 105156 -1375 0
6 1 S106 735 105891 -640 0
6 2 S106 753 106644 113 0
6 2 S106 754 107398 867 0
6 2 S106 775 108173 1642 0
6 2 S106 782 108955 2424 0
6 2 S106 737 109692 3161 0
6 2 S106 715 110407 3876 0
6 2 S106 765 111172 4641 0
6 2 S106 823 111995 5464 0
6 2 S106 902 112897 6366 0
0 0 0 913 113810 -10625 0
0 0 0 861 114671 -9764 0
0 0 0 856 115527 -8908 0
0 0 0 854 116381 -8054 0
0 0 0 820 117201 -7234 0
0 0 0 777 117978 -6457 0
0 0 0 725 118703 -5732 0
0 0 0 749 119452 -4983 0
0 0 0 762 120214 -4221 0
0 0 0 773 120987 -3448 0
0 0 0 747 121734 -2701 0
7 1 S102 718 122452 -1983 0
7 1 S102 785 123237 -1198 0
7 1 S102 847 124084 -351 0
7 2 S102 897 124981 546 0
7 2 S102 872 125853 1418 0
7 2 S102 827 126680 2245 0
7 2 S102 870 127550 3115 0
7 2 S102 882 128432 3997 0
7 2 S102 880 129312 4877 0
7 2 S102 855 130167 5732 0
7 2 S102 783 130950 6515 0
0 0 0 733 131683 -8717 0
0 0 0 758 132441 -7959 0
0 0 0 804 133245 -7155 0
0 0 0 836 134081 -6319 0
0 0 0 802 134883 -5517 0
0 0 0 776 135659 -4741 0
0 0 0 821 136480 -3920 0
0 0 0 870 137350 -3050 0
0 0 0 904 138254 -2146 0
8 1 S112 872 139126 -1274 0
8 1 S112 813 139939 -461 0
8 2 S112 832 140771 371 0
8 2 S112 825 141596 1196 0
8 2 S112 826 142422 2022 0
8 2 S112 824 143246 2846 0
8 2 S112 785 144031 3631 0
8 2 S112 785 144816 4416 0
8 2 S112 813 145629 5229 0
8 2 S112 833 146462 6062 0
8 2 S112 854 147316 6916 0
0 0 0 800 148116 -6857 0
0 0 0 792 148908 -6065 0
0 0 0 824 149732 -5241 0
0 0 0 811 150543 -4430 0
0 0 0 782 151325 -3648 0
0 0 0 727 152052 -2921 0
0 0 0 706 152758 -2215 0
9 1 S116 712 153470 -1503 0
9 1 S116 716 154186 -787 0
9 1 S116 715 154901 -72 0
9 2 S116 714 155615 642 0
9 2 S116 704 156319 1346 0
9 2 S116 688 157007 2034 0
9 2 S116 738 157745 2772 0
9 2 S116 837 158582 3609 0
9 2 S116 931 159513 4540 0
9 2 S116 957 160470 5497 0
9 2 S116 946 161416 6443 0
0 0 0 890 162306 -11666 0
0 0 0 868 163174 -10798 0
0 0 0 875 164049 -9923 0
0 0 0 861 164910 -9062 0
0 0 0 823 165733 -8239 0
0 0 0 749 166482 -7490 0
0 0 0 724 167206 -6766 0
0 0 0 740 167946 -6026 0
0 0 0 796 168742 -5230 0
0 0 0 822 169564 -4408 0
0 0 0 812 170376 -3596 0
0 0 0 746 171122 -2850 0
0 0 0 732 171854 -2118 0
10 1 S102 711 172565 -1407 0
10 1 S102 713 173278 -694 0
10 2 S102 706 173984 12 0
10 2 S102 687 174671 699 0
10 2 S102 740 175411 1439 0
10 2 S102 838 176249 2277 0
10 2 S102 965 177214 3242 0
10 2 S102 933 178147 4175 0
10 2 S102 863 179010 5038 0
10 2 S102 910 179920 5948 0
10 2 S102 940 180860 6888 0
0 0 0 933 181793 -11691 0
0 0 0 894 182687 -10797 0
0 0 0 810 183497 -9987 0
0 0 0 829 184326 -9158 0
0 0 0 797 185123 -8361 0
0 0 0 756 185879 -7605 0
0 0 0 709 186588 -6896 0
0 0 0 692 187280 -6204 0
0 0 0 703 187983 -5501 0
0 0 0 710 188693 -4791 0
0 0 0 733 189426 -4058 0
0 0 0 693 190119 -3365 0
0 0 0 668 190787 -2697 0
0 0 0 665 191452 -2032 0
11 1 S112 701 192153 -1331 0
11 1 S112 742 192895 -589 0
11 2 S112 779 193674 190 0
11 2 S112 762 194436 952 0
11 2 S112 741 195177 1693 0
11 2 S112 776 195953 2469 0
11 2 S112 833 196786 3302 0
11 2 S112 862 197648 4164 0
11 2 S112 854 198502 5018 0
11 2 S112 782 199284 5800 0
11 2 S112 764 200048 6564 0
0 0 0 771 200819 -7006 0
0 0 0 780 201599 -6226 0
0 0 0 799 202398 -5427 0
0 0 0 757 203155 -4670 0
0 0 0 708 203863 -3962 0
0 0 0 712 204575 -3250 0
0 0 0 744 205319 -2506 0
12 1 S116 788 206107 -1718 0
12 1 S116 865 206972 -853 0
12 1 S116 810 207782 -43 0
12 2 S116 768 208550 725 0
12 2 S116 826 209376 1551 0
12 2 S116 859 210235 2410 0
12 2 S116 884 211119 3294 0
12 2 S116 886 212005 4180 0
12 2 S116 836 212841 5016 0
12 2 S116 791 213632 5807 0
12 2 S116 794 214426 6601 0
0 0 0 805 215231 -11294 0
0 0 0 819 216050 -10475 0
0 0 0 820 216870 -9655 0
0 0 0 763 217633 -8892 0
0 0 0 722 218355 -8170 0
0 0 0 723 219078 -7447 0
0 0 0 769 219847 -6678 0
0 0 0 832 220679 -5846 0
0 0 0 823 221502 -5023 0
0 0 0 766 222268 -4257 0
0 0 0 779 223047 -3478 0
0 0 0 797 223844 -2681 0
13 1 S112 811 224655 -1870 0
13 1 S112 803 225458 -1067 0
13 1 S112 741 226199 -326 0
13 2 S112 741 226940 415 0
13 2 S112 754 227694 1169 0
13 2 S112 793 228487 1962 0
13 2 S112 842 229329 2804 0
13 2 S112 814 230143 3618 0
13 2 S112 835 230978 4453 0
13 2 S112 882 231860 5335 0
13 2 S112 888 232748 6223 0
0 0 0 861 233609 -11268 0
0 0 0 820 234429 -10448 0
0 0 0 848 235277 -9600 0
0 0 0 857 236134 -8743 0
0 0 0 819 236953 -7924 0
0 0 0 740 237693 -7184 0
0 0 0 716 238409 -6468 0
0 0 0 739 239148 -5729 0
0 0 0 749 239897 -4980 0
0 0 0 795 240692 -4185 0
0 0 0 778 241470 -3407 0
0 0 0 763 242233 -2644 0
14 1 S106 831 243064 -1813 0
14 1 S106 872 243936 -941 0
14 1 S106 889 244825 -52 0
14 2 S106 809 245634 757 0
14 2 S106 788 246422 1545 0
14 2 S106 772 247194 2317 0
14 2 S106 792 247986 3109 0
14 2 S106 759 248745 3868 0
14 2 S106 687 249432 4555 0
14 2 S106 664 250096 5219 0
14 2 S106 653 250749 5872 0
14 2 S106 660 251409 6532 0
0 0 0 727 252136 -10762 0
0 0 0 899 253035 -9863 0
0 0 0 956 253991 -8907 0
0 0 0 904 254895 -8003 0
0 0 0 899 255794 -7104 0
0 0 0 844 256638 -6260 0
0 0 0 747 257385 -5513 0
0 0 0 718 258103 -4795 0
0 0 0 711 258814 -4084 0
0 0 0 715 259529 -3369 0
0 0 0 702 260231 -2667 0
15 1 S116 676 260907 -1991 0
15 1 S116 672 261579 -1319 0
15 1 S116 673 262252 -646 0
15 2 S116 666 262918 20 0
15 2 S116 652 263570 672 0
15 2 S116 659 264229 1331 0
15 2 S116 719 264948 2050 0
15 2 S116 862 265810 2912 0
15 2 S116 970 266780 3882 0
15 2 S116 939 267719 4821 0
15 2 S116 891 268610 5712 0
15 2 S116 878 269488 6590 0
0 0 0 925 270413 -9909 0
0 0 0 941 271354 -8968 0
0 0 0 926 272280 -8042 0
0 0 0 846 273126 -7196 0
0 0 0 801 273927 -6395 0
0 0 0 798 274725 -5597 0
0 0 0 818 275543 -4779 0
0 0 0 795 276338 -3984 0
0 0 0 738 277076 -3246 0
0 0 0 748 277824 -2498 0
16 1 S116 748 278572 -1750 0
16 1 S116 762 279334 -988 0
16 1 S116 743 280077 -245 0
16 2 S116 720 280797 475 0
16 2 S116 789 281586 1264 0
16 2 S116 841 282427 2105 0
16 2 S116 880 283307 2985 0
16 2 S116 851 284158 3836 0
16 2 S116 814 284972 4650 0
16 2 S116 883 285855 5533 0
16 2 S116 893 286748 6426 0
0 0 0 887 287635 -8901 0
0 0 0 822 288457 -8079 0
0 0 0 753 289210 -7326 0
0 0 0 750 289960 -6576 0
0 0 0 741 290701 -5835 0
0 0 0 741 291442 -5094 0
0 0 0 679 292121 -4415 0
0 0 0 664 292785 -3751 0
0 0 0 668 293453 -3083 0
0 0 0 724 294177 -2359 0
17 1 S106 760 294937 -1599 0
17 1 S106 806 295743 -793 0
17 2 S106 866 296609 73 0
17 2 S106 810 297419 883 0
17 2 S106 761 298180 1644 0
17 2 S106 796 298976 2440 0
17 2 S106 819 299795 3259 0
17 2 S106 852 300647 4111 0
17 2 S106 847 301494 4958 0
17 2 S106 811 302305 5769 0
17 2 S106 769 303074 6538 0
0 0 0 775 303849 -11636 0
0 0 0 781 304630 -10855 0
0 0 0 788 305418 -10067 0
0 0 0 757 306175 -9310 0
0 0 0 718 306893 -8592 0
0 0 0 706 307599 -7886 0
0 0 0 708 308307 -7178 0
0 0 0 702 309009 -6476 0
0 0 0 691 309700 -5785 0
0 0 0 654 310354 -5131 0
0 0 0 639 310993 -4492 0
0 0 0 636 311629 -3856 0
0 0 0 650 312279 -3206 0
0 0 0 787 313066 -2419 0
18 1 S102 926 313992 -1493 0
18 1 S102 879 314871 -614 0
18 2 S102 821 315692 207 0
18 2 S102 859 316551 1066 0
18 2 S102 886 317437 1952 0
18 2 S102 902 318339 2854 0
18 2 S102 869 319208 3723 0
18 2 S102 813 320021 4536 0
18 2 S102 849 320870 5385 0
18 2 S102 846 321716 6231 0
0 0 0 848 322564 -7758 0
0 0 0 805 323369 -6953 0
0 0 0 760 324129 -6193 0
0 0 0 804 324933 -5389 0
0 0 0 812 325745 -4577 0
0 0 0 795 326540 -3782 0
0 0 0 749 327289 -3033 0
0 0 0 703 327992 -2330 0
19 1 S106 680 328672 -1650 0
19 1 S106 661 329333 -989 0
19 1 S106 645 329978 -344 0
19 2 S106 634 330612 290 0
19 2 S106 631 331243 921 0
19 2 S106 683 331926 1604 0
19 2 S106 827 332753 2431 0
19 2 S106 941 333694 3372 0
19 2 S106 946 334640 4318 0
19 2 S106 877 335517 5195 0
19 2 S106 816 336333 6011 0
19 2 S106 854 337187 6865 0
0 0 0 870 338057 -10933 0
0 0 0 856 338913 -10077 0
0 0 0 792 339705 -9285 0
0 0 0 726 340431 -8559 0
0 0 0 714 341145 -7845 0
0 0 0 713 341858 -7132 0
0 0 0 722 342580 -6410 0
0 0 0 702 343282 -5708 0
0 0 0 683 343965 -5025 0
0 0 0 702 344667 -4323 0
0 0 0 725 345392 -3598 0
0 0 0 773 346165 -2825 0
20 1 S112 852 347017 -1973 0
20 1 S112 793 347810 -1180 0
20 1 S112 811 348621 -369 0
20 2 S112 869 349490 500 0
20 2 S112 882 350372 1382 0
20 2 S112 851 351223 2233 0
20 2 S112 800 352023 3033 0
20 2 S112 796 352819 3829 0
20 2 S112 819 353638 4648 0
20 2 S112 836 354474 5484 0
20 2 S112 817 355291 6301 0
0 0 0 765 356056 -10158 0
0 0 0 741 356797 -9417 0
0 0 0 750 357547 -8667 0
0 0 0 772 358319 -7895 0
0 0 0 830 359149 -7065 0
0 0 0 775 359924 -6290 0
0 0 0 715 360639 -5575 0
0 0 0 701 361340 -4874 0
0 0 0 725 362065 -4149 0
0 0 0 741 362806 -3408 0
0 0 0 769 363575 -2639 0
21 1 S106 745 364320 -1894 0
21 1 S106 730 365050 -1164 0
21 1 S106 781 365831 -383 0
21 2 S106 801 366632 418 0
21 2 S106 819 367451 1237 0
21 2 S106 781 368232 2018 0
21 2 S106 733 368965 2751 0
21 2 S106 747 369712 3498 0
21 2 S106 779 370491 4277 0
21 2 S106 838 371329 5115 0
21 2 S106 860 372189 5975 0
21 2 S106 837 373026 6812 0
0 0 0 797 373823 -12103 0
0 0 0 855 374678 -11248 0
0 0 0 889 375567 -10359 0
0 0 0 891 376458 -9468 0
0 0 0 809 377267 -8659 0
0 0 0 785 378052 -7874 0
0 0 0 760 378812 -7114 0
0 0 0 740 379552 -6374 0
0 0 0 713 380265 -5661 0
0 0 0 679 380944 -4982 0
0 0 0 646 381590 -4336 0
0 0 0 620 382210 -3716 0
0 0 0 616 382826 -3100 0
0 0 0 641 383467 -2459 0
22 1 S116 678 384145 -1781 0
22 1 S116 718 384863 -1063 0
22 1 S116 743 385606 -320 0
22 2 S116 711 386317 391 0
22 2 S116 739 387056 1130 0
22 2 S116 796 387852 1926 0
22 2 S116 859 388711 2785 0
22 2 S116 882 389593 3667 0
22 2 S116 857 390450 4524 0
22 2 S116 789 391239 5313 0
22 2 S116 787 392026 6100 0
22 2 S116 794 392820 6894 0
0 0 0 813 393633 -8938 0
0 0 0 824 394457 -8114 0
0 0 0 822 395279 -7292 0
0 0 0 797 396076 -6495 0
0 0 0 736 396812 -5759 0
0 0 0 701 397513 -5058 0
0 0 0 724 398237 -4334 0
0 0 0 777 399014 -3557 0
0 0 0 823 399837 -2734 0
23 1 S112 844 400681 -1890 0
23 1 S112 780 401461 -1110 0
23 1 S112 799 402260 -311 0
23 2 S112 804 403064 493 0
23 2 S112 836 403900 1329 0
23 2 S112 843 404743 2172 0
23 2 S112 795 405538 2967 0
23 2 S112 805 406343 3772 0
23 2 S112 880 407223 4652 0
23 2 S112 933 408156 5585 0
23 2 S112 931 409087 6516 0
0 0 0 865 409952 -8998 0
0 0 0 845 410797 -8153 0
0 0 0 859 411656 -7294 0
0 0 0 842 412498 -6452 0
0 0 0 799 413297 -5653 0
0 0 0 743 414040 -4910 0
0 0 0 765 414805 -4145 0
0 0 0 820 415625 -3325 0
0 0 0 845 416470 -2480 0
24 1 S106 825 417295 -1655 0
24 1 S106 765 418060 -890 0
24 1 S106 791 418851 -99 0
24 2 S106 819 419670 720 0
24 2 S106 820 420490 1540 0
24 2 S106 797 421287 2337 0
24 2 S106 773 422060 3110 0
24 2 S106 827 422887 3937 0
24 2 S106 897 423784 4834 0
24 2 S106 963 424747 5797 0
24 2 S106 922 425669 6719 0
0 0 0 879 426548 -9213 0
0 0 0 925 427473 -8288 0
0 0 0 937 428410 -7351 0
0 0 0 908 429318 -6443 0
0 0 0 829 430147 -5614 0
0 0 0 767 430914 -4847 0
0 0 0 799 431713 -4048 0
0 0 0 854 432567 -3194 0
0 0 0 860 433427 -2334 0
25 1 S102 821 434248 -1513 0
25 1 S102 790 435038 -723 0
25 2 S102 770 435808 47 0
25 2 S102 728 436536 775 0
25 2 S102 717 437253 1492 0
25 2 S102 667 437920 2159 0
25 2 S102 649 438569 2808 0
25 2 S102 661 439230 3469 0
25 2 S102 684 439914 4153 0
25 2 S102 735 440649 4888 0
25 2 S102 718 441367 5606 0
25 2 S102 693 442060 6299 0
0 0 0 734 442794 -7606 0
0 0 0 750 443544 -6856 0
0 0 0 759 444303 -6097 0
0 0 0 759 445062 -5338 0
0 0 0 705 445767 -4633 0
0 0 0 701 446468 -3932 0
0 0 0 723 447191 -3209 0
0 0 0 779 447970 -2430 0
26 1 S116 753 448723 -1677 0
26 1 S116 736 449459 -941 0
26 1 S116 792 450251 -149 0
26 2 S116 837 451088 688 0
26 2 S116 878 451966 1566 0
26 2 S116 853 452819 2419 0
26 2 S116 827 453646 3246 0
26 2 S116 887 454533 4133 0
26 2 S116 889 455422 5022 0
26 2 S116 888 456310 5910 0
26 2 S116 829 457139 6739 0
0 0 0 815 457954 -6637 0
0 0 0 848 458802 -5789 0
0 0 0 831 459633 -4958 0
0 0 0 761 460394 -4197 0
0 0 0 676 461070 -3521 0
0 0 0 650 461720 -2871 0
0 0 0 642 462362 -2229 0
27 1 S106 645 463007 -1584 0
27 1 S106 668 463675 -916 0
27 1 S106 643 464318 -273 0
27 2 S106 627 464945 354 0
27 2 S106 628 465573 982 0
27 2 S106 679 466252 1661 0
27 2 S106 735 466987 2396 0
27 2 S106 716 467703 3112 0
27 2 S106 663 468366 3775 0
27 2 S106 641 469007 4416 0
27 2 S106 655 469662 5071 0
27 2 S106 744 470406 5815 0
27 2 S106 880 471286 6695 0
0 0 0 893 472179 -6172 0
0 0 0 876 473055 -5296 0
0 0 0 853 473908 -4443 0
0 0 0 803 474711 -3640 0
0 0 0 742 475453 -2898 0
0 0 0 687 476140 -2211 0
28 1 S102 677 476817 -1534 0
28 1 S102 667 477484 -867 0
28 1 S102 664 478148 -203 0
28 2 S102 661 478809 458 0
28 2 S102 657 479466 1115 0
28 2 S102 649 480115 1764 0
28 2 S102 675 480790 2439 0
28 2 S102 737 481527 3176 0
28 2 S102 793 482320 3969 0
28 2 S102 846 483166 4815 0
28 2 S102 856 484022 5671 0
28 2 S102 821 484843 6492 0
0 0 0 864 485707 -10001 0
0 0 0 853 486560 -9148 0
0 0 0 801 487361 -8347 0
0 0 0 735 488096 -7612 0
0 0 0 683 488779 -6929 0
0 0 0 662 489441 -6267 0
0 0 0 668 490109 -5599 0
0 0 0 698 490807 -4901 0
0 0 0 765 491572 -4136 0
0 0 0 817 492389 -3319 0
0 0 0 812 493201 -2507 0
29 1 S112 846 494047 -1661 0
29 1 S112 865 494912 -796 0
29 2 S112 858 495770 62 0
29 2 S112 795 496565 857 0
29 2 S112 785 497350 1642 0
29 2 S112 813 498163 2455 0
29 2 S112 835 498998 3290 0
29 2 S112 831 499829 4121 0
29 2 S112 801 500630 4922 0
29 2 S112 762 501392 5684 0
29 2 S112 792 502184 6476 0
0 0 0 816 503000 -7712 0
0 0 0 833 503833 -6879 0
0 0 0 836 504669 -6043 0
0 0 0 796 505465 -5247 0
0 0 0 782 506247 -4465 0
0 0 0 784 507031 -3681 0
0 0 0 773 507804 -2908 0
0 0 0 753 508557 -2155 0
30 1 S112 721 509278 -1434 0
30 1 S112 704 509982 -730 0
30 2 S112 734 510716 4 0
30 2 S112 729 511445 733 0
30 2 S112 737 512182 1470 0
30 2 S112 763 512945 2233 0
30 2 S112 774 513719 3007 0
30 2 S112 794 514513 3801 0
30 2 S112 816 515329 4617 0
30 2 S112 813 516142 5430 0
30 2 S112 786 516928 6216 0
30 2 S112 754 517682 6970 0
0 0 0 778 518460 -8382 0
0 0 0 782 519242 -7600 0
0 0 0 767 520009 -6833 0
0 0 0 730 520739 -6103 0
0 0 0 693 521432 -5410 0
0 0 0 694 522126 -4716 0
0 0 0 694 522820 -4022 0
0 0 0 715 523535 -3307 0
0 0 0 737 524272 -2570 0
31 1 S106 715 524987 -1855 0
31 1 S106 746 525733 -1109 0
31 1 S106 783 526516 -326 0
31 2 S106 813 527329 487 0
31 2 S106 812 528141 1299 0
31 2 S106 781 528922 2080 0
31 2 S106 790 529712 2870 0
31 2 S106 812 530524 3682 0
31 2 S106 810 531334 4492 0
31 2 S106 786 532120 5278 0
31 2 S106 732 532852 6010 0
31 2 S106 708 533560 6718 0
0 0 0 722 534282 -9338 0
0 0 0 724 535006 -8614 0
0 0 0 740 535746 -7874 0
0 0 0 746 536492 -7128 0
0 0 0 730 537222 -6398 0
0 0 0 692 537914 -5706 0
0 0 0 679 538593 -5027 0
0 0 0 651 539244 -4376 0
0 0 0 632 539876 -3744 0
0 0 0 613 540489 -3131 0
0 0 0 602 541091 -2529 0
32 1 S102 601 541692 -1928 0
32 1 S102 619 542311 -1309 0
32 1 S102 645 542956 -664 0
32 2 S102 672 543628 8 0
32 2 S102 671 544299 679 0
32 2 S102 650 544949 1329 0
32 2 S102 639 545588 1968 0
32 2 S102 623 546211 2591 0
32 2 S102 609 546820 3200 0
32 2 S102 600 547420 3800 0
32 2 S102 597 548017 4397 0
32 2 S102 594 548611 4991 0
32 2 S102 589 549200 5580 0
32 2 S102 592 549792 6172 0
32 2 S102 586 550378 6758 0
0 0 0 589 550967 -11967 0
0 0 0 637 551604 -11330 0
0 0 0 775 552379 -10555 0
0 0 0 847 553226 -9708 0
0 0 0 853 554079 -8855 0
0 0 0 779 554858 -8076 0
0 0 0 723 555581 -7353 0
0 0 0 690 556271 -6663 0
0 0 0 655 556926 -6008 0
0 0 0 620 557546 -5388 0
0 0 0 604 558150 -4784 0
0 0 0 593 558743 -4191 0
0 0 0 592 559335 -3599 0
0 0 0 599 559934 -3000 0
0 0 0 617 560551 -2383 0
33 1 S112 634 561185 -1749 0
33 1 S112 687 561872 -1062 0
33 1 S112 782 562654 -280 0
33 2 S112 829 563483 549 0
33 2 S112 867 564350 1416 0
33 2 S112 843 565193 2259 0
33 2 S112 836 566029 3095 0
33 2 S112 884 566913 3979 0
33 2 S112 910 567823 4889 0
33 2 S112 940 568763 5829 0
33 2 S112 949 569712 6778 0
0 0 0 938 570650 -11166 0
0 0 0 912 571562 -10254 0
0 0 0 900 572462 -9354 0
0 0 0 871 573333 -8483 0
0 0 0 745 574078 -7738 0
0 0 0 693 574771 -7045 0
0 0 0 699 575470 -6346 0
0 0 0 741 576211 -5605 0
0 0 0 749 576960 -4856 0
0 0 0 730 577690 -4126 0
0 0 0 746 578436 -3380 0
0 0 0 721 579157 -2659 0
34 1 S106 737 579894 -1922 0
34 1 S106 788 580682 -1134 0
34 1 S106 805 581487 -329 0
34 2 S106 804 582291 475 0
34 2 S106 828 583119 1303 0
34 2 S106 825 583944 2128 0
34 2 S106 775 584719 2903 0
34 2 S106 739 585458 3642 0
34 2 S106 693 586151 4335 0
34 2 S106 684 586835 5019 0
34 2 S106 697 587532 5716 0
34 2 S106 713 588245 6429 0
0 0 0 776 589021 -9805 0
0 0 0 805 589826 -9000 0
0 0 0 785 590611 -8215 0
0 0 0 839 591450 -7376 0
0 0 0 830 592280 -6546 0
0 0 0 778 593058 -5768 0
0 0 0 721 593779 -5047 0
0 0 0 690 594469 -4357 0
0 0 0 714 595183 -3643 0
0 0 0 765 595948 -2878 0
0 0 0 786 596734 -2092 0
35 1 S102 800 597534 -1292 0
35 1 S102 751 598285 -541 0
35 2 S102 776 599061 235 0
35 2 S102 809 599870 1044 0
35 2 S102 816 600686 1860 0
35 2 S102 779 601465 2639 0
35 2 S102 743 602208 3382 0
35 2 S102 782 602990 4164 0
35 2 S102 774 603764 4938 0
35 2 S102 758 604522 5696 0
35 2 S102 725 605247 6421 0
0 0 0 743 605990 -8884 0
0 0 0 786 606776 -8098 0
0 0 0 859 607635 -7239 0
0 0 0 868 608503 -6371 0
0 0 0 822 609325 -5549 0
0 0 0 800 610125 -4749 0
0 0 0 775 610900 -3974 0
0 0 0 741 611641 -3233 0
0 0 0 710 612351 -2523 0
36 1 S106 671 613022 -1852 0
36 1 S106 667 613689 -1185 0
36 1 S106 695 614384 -490 0
36 2 S106 754 615138 264 0
36 2 S106 876 616014 1140 0
36 2 S106 853 616867 1993 0
36 2 S106 869 617736 2862 0
36 2 S106 924 618660 3786 0
36 2 S106 931 619591 4717 0
36 2 S106 921 620512 5638 0
36 2 S106 886 621398 6524 0
0 0 0 848 622246 -10814 0
0 0 0 865 623111 -9949 0
0 0 0 778 623889 -9171 0
0 0 0 703 624592 -8468 0
0 0 0 671 625263 -7797 0
0 0 0 688 625951 -7109 0
0 0 0 714 626665 -6395 0
0 0 0 721 627386 -5674 0
0 0 0 736 628122 -4938 0
0 0 0 703 628825 -4235 0
0 0 0 682 629507 -3553 0
0 0 0 680 630187 -2873 0
0 0 0 669 630856 -2204 0
37 1 S116 645 631501 -1559 0
37 1 S116 620 632121 -939 0
37 1 S116 615 632736 -324 0
37 2 S116 603 633339 279 0
37 2 S116 600 633939 879 0
37 2 S116 585 634524 1464 0
37 2 S116 584 635108 2048 0
37 2 S116 576 635684 2624 0
37 2 S116 584 636268 3208 0
37 2 S116 585 636853 3793 0
37 2 S116 590 637443 4383 0
37 2 S116 591 638034 4974 0
37 2 S116 589 638623 5563 0
37 2 S116 589 639212 6152 0
37 2 S116 590 639802 6742 0
0 0 0 637 640439 -10957 0
0 0 0 819 641258 -10138 0
0 0 0 904 642162 -9234 0
0 0 0 827 642989 -8407 0
0 0 0 767 643756 -7640 0
0 0 0 716 644472 -6924 0
0 0 0 675 645147 -6249 0
0 0 0 644 645791 -5605 0
0 0 0 619 646410 -4986 0
0 0 0 604 647014 -4382 0
0 0 0 602 647616 -3780 0
0 0 0 605 648221 -3175 0
0 0 0 635 648856 -2540 0
38 1 S102 670 649526 -1870 0
38 1 S102 704 650230 -1166 0
38 1 S102 694 650924 -472 0
38 2 S102 755 651679 283 0
38 2 S102 799 652478 1082 0
38 2 S102 837 653315 1919 0
38 2 S102 811 654126 2730 0
38 2 S102 799 654925 3529 0
38 2 S102 851 655776 4380 0
38 2 S102 870 656646 5250 0
38 2 S102 848 657494 6098 0
38 2 S102 813 658307 6911 0
0 0 0 805 659112 -9326 0
0 0 0 807 659919 -8519 0
0 0 0 793 660712 -7726 0
0 0 0 792 661504 -6934 0
0 0 0 742 662246 -6192 0
0 0 0 784 663030 -5408 0
0 0 0 814 663844 -4594 0
0 0 0 860 664704 -3734 0
0 0 0 853 665557 -2881 0
0 0 0 795 666352 -2086 0
39 1 S116 856 667208 -1230 0
39 1 S116 872 668080 -358 0
39 2 S116 825 668905 467 0
39 2 S116 805 669710 1272 0
39 2 S116 761 670471 2033 0
39 2 S116 794 671265 2827 0
39 2 S116 822 672087 3649 0
39 2 S116 859 672946 4508 0
39 2 S116 838 673784 5346 0
39 2 S116 797 674581 6143 0
39 2 S116 814 675395 6957 0
0 0 0 826 676221 -7470 0
0 0 0 825 677046 -6645 0
0 0 0 809 677855 -5836 0
0 0 0 771 678626 -5065 0
0 0 0 776 679402 -4289 0
0 0 0 774 680176 -3515 0
0 0 0 770 680946 -2745 0
0 0 0 727 681673 -2018 0
40 1 S112 711 682384 -1307 0
40 1 S112 737 683121 -570 0
40 2 S112 732 683853 162 0
40 2 S112 733 684586 895 0
40 2 S112 711 685297 1606 0
40 2 S112 721 686018 2327 0
40 2 S112 750 686768 3077 0
40 2 S112 779 687547 3856 0
40 2 S112 785 688332 4641 0
40 2 S112 750 689082 5391 0
40 2 S112 729 689811 6120 0
40 2 S112 741 690552 6861 0
0 0 0 748 691300 -186755 0
0 0 0 755 692055 -186000 0
0 0 0 731 692786 -185269 0
0 0 0 705 693491 -184564 0
0 0 0 695 694186 -183869 0
0 0 0 674 694860 -183195 0
0 0 0 662 695522 -182533 0
0 0 0 645 696167 -181888 0
0 0 0 635 696802 -181253 0
0 0 0 633 697435 -180620 0
0 0 0 678 698113 -179942 0
0 0 0 710 698823 -179232 0
0 0 0 702 699525 -178530 0
0 0 0 672 700197 -177858 0
0 0 0 651 700848 -177207 0
0 0 0 633 701481 -176574 0
0 0 0 615 702096 -175959 0
0 0 0 600 702696 -175359 0
0 0 0 582 703278 -174777 0
0 0 0 572 703850 -174205 0
0 0 0 566 704416 -173639 0
0 0 0 557 704973 -173082 0
0 0 0 557 705530 -172525 0
0 0 0 582 706112 -171943 0
0 0 0 615 706727 -171328 0
0 0 0 583 707310 -170745 0
0 0 0 573 707883 -170172 0
0 0 0 577 708460 -169595 0
0 0 0 566 709026 -169029 0
0 0 0 561 709587 -168468 0
0 0 0 552 710139 -167916 0
0 0 0 560 710699 -167356 0
0 0 0 590 711289 -166766 0
0 0 0 607 711896 -166159 0
0 0 0 602 712498 -165557 0
0 0 0 603 713101 -164954 0
0 0 0 601 713702 -164353 0
0 0 0 598 714300 -163755 0
0 0 0 588 714888 -163167 0
0 0 0 573 715461 -162594 0
0 0 0 549 716010 -162045 0
0 0 0 537 716547 -161508 0
0 0 0 533 717080 -160975 0
0 0 0 529 717609 -160446 0
0 0 0 522 718131 -159924 1
0 0 0 520 718651 -159404 1
0 0 0 517 719168 -158887 1
0 0 0 517 719685 -158370 1
0 0 0 521 720206 -157849 1
0 0 0 523 720729 -157326 1
0 0 0 530 721259 -156796 0
0 0 0 537 721796 -156259 0
0 0 0 536 722332 -155723 0
0 0 0 552 722884 -155171 0
0 0 0 565 723449 -154606 0
0 0 0 571 724020 -154035 0
0 0 0 578 724598 -153457 0
0 0 0 616 725214 -152841 0
0 0 0 618 725832 -152223 0
0 0 0 613 726445 -151610 0
0 0 0 601 727046 -151009 0
0 0 0 615 727661 -150394 0
0 0 0 632 728293 -149762 0
0 0 0 664 728957 -149098 0
0 0 0 732 729689 -148366 0
0 0 0 777 730466 -147589 0
0 0 0 746 731212 -146843 0
0 0 0 703 731915 -146140 0
0 0 0 663 732578 -145477 0
0 0 0 632 733210 -144845 0
0 0 0 610 733820 -144235 0
0 0 0 600 734420 -143635 0
0 0 0 597 735017 -143038 0
0 0 0 597 735614 -142441 0
0 0 0 602 736216 -141839 0
0 0 0 609 736825 -141230 0
0 0 0 598 737423 -140632 0
0 0 0 589 738012 -140043 0
0 0 0 579 738591 -139464 0
0 0 0 571 739162 -138893 0
0 0 0 565 739727 -138328 0
0 0 0 566 740293 -137762 0
0 0 0 576 740869 -137186 0
0 0 0 598 741467 -136588 0
0 0 0 634 742101 -135954 0
0 0 0 630 742731 -135324 0
0 0 0 629 743360 -134695 0
0 0 0 639 743999 -134056 0
0 0 0 659 744658 -133397 0
0 0 0 650 745308 -132747 0
0 0 0 632 745940 -132115 0
0 0 0 613 746553 -131502 0
0 0 0 600 747153 -130902 0
0 0 0 583 747736 -130319 0
0 0 0 569 748305 -129750 0
0 0 0 560 748865 -129190 0
0 0 0 552 749417 -128638 0
0 0 0 550 749967 -128088 0
0 0 0 550 750517 -127538 0
0 0 0 547 751064 -126991 0
0 0 0 567 751631 -126424 0
0 0 0 606 752237 -125818 0
0 0 0 612 752849 -125206 0
0 0 0 591 753440 -124615 0
0 0 0 607 754047 -124008 0
0 0 0 607 754654 -123401 0
0 0 0 599 755253 -122802 0
0 0 0 592 755845 -122210 0
0 0 0 582 756427 -121628 0
0 0 0 578 757005 -121050 0
0 0 0 612 757617 -120438 0
0 0 0 657 758274 -119781 0
0 0 0 681 758955 -119100 0
0 0 0 669 759624 -118431 0
0 0 0 651 760275 -117780 0
0 0 0 641 760916 -117139 0
0 0 0 646 761562 -116493 0
0 0 0 641 762203 -115852 0
0 0 0 634 762837 -115218 0
0 0 0 606 763443 -114612 0
0 0 0 612 764055 -114000 0
0 0 0 604 764659 -113396 0
0 0 0 607 765266 -112789 0
0 0 0 603 765869 -112186 0
0 0 0 587 766456 -111599 0
0 0 0 587 767043 -111012 0
0 0 0 584 767627 -110428 0
0 0 0 575 768202 -109853 0
0 0 0 570 768772 -109283 0
0 0 0 573 769345 -108710 0
0 0 0 575 769920 -108135 0
0 0 0 575 770495 -107560 0
0 0 0 584 771079 -106976 0
0 0 0 600 771679 -106376 0
0 0 0 651 772330 -105725 0
0 0 0 724 773054 -105001 0
0 0 0 766 773820 -104235 0
0 0 0 800 774620 -103435 0
0 0 0 770 775390 -102665 0
0 0 0 846 776236 -101819 0
0 0 0 879 777115 -100940 0
0 0 0 871 777986 -100069 0
0 0 0 869 778855 -99200 0
0 0 0 815 779670 -98385 0
0 0 0 729 780399 -97656 0
0 0 0 667 781066 -96989 0
0 0 0 631 781697 -96358 0
0 0 0 624 782321 -95734 0
0 0 0 615 782936 -95119 0
0 0 0 627 783563 -94492 0
0 0 0 643 784206 -93849 0
0 0 0 633 784839 -93216 0
0 0 0 640 785479 -92576 0
0 0 0 640 786119 -91936 0
0 0 0 637 786756 -91299 0
0 0 0 630 787386 -90669 0
0 0 0 644 788030 -90025 0
0 0 0 656 788686 -89369 0
0 0 0 652 789338 -88717 0
0 0 0 663 790001 -88054 0
0 0 0 671 790672 -87383 0
0 0 0 692 791364 -86691 0
0 0 0 744 792108 -85947 0
0 0 0 759 792867 -85188 0
0 0 0 755 793622 -84433 0
0 0 0 726 794348 -83707 0
0 0 0 690 795038 -83017 0
0 0 0 665 795703 -82352 0
0 0 0 639 796342 -81713 0
0 0 0 615 796957 -81098 0
0 0 0 596 797553 -80502 0
0 0 0 585 798138 -79917 0
0 0 0 575 798713 -79342 0
0 0 0 566 799279 -78776 0
0 0 0 563 799842 -78213 0
0 0 0 573 800415 -77640 0
0 0 0 555 800970 -77085 0
0 0 0 552 801522 -76533 0
0 0 0 550 802072 -75983 0
0 0 0 552 802624 -75431 0
0 0 0 550 803174 -74881 0
0 0 0 551 803725 -74330 0
0 0 0 565 804290 -73765 0
0 0 0 580 804870 -73185 0
0 0 0 591 805461 -72594 0
0 0 0 604 806065 -71990 0
0 0 0 601 806666 -71389 0
0 0 0 611 807277 -70778 0
0 0 0 617 807894 -70161 0
0 0 0 618 808512 -69543 0
0 0 0 640 809152 -68903 0
0 0 0 657 809809 -68246 0
0 0 0 668 810477 -67578 0
0 0 0 663 811140 -66915 0
0 0 0 652 811792 -66263 0
0 0 0 643 812435 -65620 0
0 0 0 648 813083 -64972 0
0 0 0 641 813724 -64331 0
0 0 0 629 814353 -63702 0
0 0 0 627 814980 -63075 0
0 0 0 612 815592 -62463 0
0 0 0 653 816245 -61810 0
0 0 0 710 816955 -61100 0
0 0 0 849 817804 -60251 0
0 0 0 803 818607 -59448 0
0 0 0 794 819401 -58654 0
0 0 0 873 820274 -57781 0
0 0 0 828 821102 -56953 0
0 0 0 829 821931 -56124 0
0 0 0 732 822663 -55392 0
0 0 0 715 823378 -54677 0
0 0 0 721 824099 -53956 0
0 0 0 737 824836 -53219 0
0 0 0 721 825557 -52498 0
0 0 0 680 826237 -51818 0
0 0 0 664 826901 -51154 0
0 0 0 684 827585 -50470 0
0 0 0 670 828255 -49800 0
0 0 0 683 828938 -49117 0
0 0 0 730 829668 -48387 0
0 0 0 817 830485 -47570 0
0 0 0 893 831378 -46677 0
0 0 0 811 832189 -45866 0
0 0 0 752 832941 -45114 0
0 0 0 770 833711 -44344 0
0 0 0 767 834478 -43577 0
0 0 0 731 835209 -42846 0
0 0 0 712 835921 -42134 0
0 0 0 769 836690 -41365 0
0 0 0 827 837517 -40538 0
0 0 0 831 838348 -39707 0
0 0 0 759 839107 -38948 0
0 0 0 743 839850 -38205 0
0 0 0 770 840620 -37435 0
0 0 0 800 841420 -36635 0
0 0 0 842 842262 -35793 0
0 0 0 826 843088 -34967 0
0 0 0 821 843909 -34146 0
0 0 0 836 844745 -33310 0
0 0 0 858 845603 -32452 0
0 0 0 847 846450 -31605 0
0 0 0 802 847252 -30803 0
0 0 0 756 848008 -30047 0
0 0 0 782 848790 -29265 0
0 0 0 794 849584 -28471 0
0 0 0 770 850354 -27701 0
0 0 0 749 851103 -26952 0
0 0 0 709 851812 -26243 0
0 0 0 728 852540 -25515 0
0 0 0 737 853277 -24778 0
0 0 0 791 854068 -23987 0
0 0 0 800 854868 -23187 0
0 0 0 765 855633 -22422 0
0 0 0 724 856357 -21698 0
0 0 0 715 857072 -20983 0
0 0 0 712 857784 -20271 0
0 0 0 748 858532 -19523 0
0 0 0 728 859260 -18795 0
0 0 0 717 859977 -18078 0
0 0 0 701 860678 -17377 0
0 0 0 698 861376 -16679 0
0 0 0 685 862061 -15994 0
0 0 0 674 862735 -15320 0
0 0 0 644 863379 -14676 0
0 0 0 650 864029 -14026 0
0 0 0 659 864688 -13367 0
0 0 0 686 865374 -12681 0
0 0 0 790 866164 -11891 0
0 0 0 870 867034 -11021 0
0 0 0 890 867924 -10131 0
0 0 0 917 868841 -9214 0
0 0 0 917 869758 -8297 0
0 0 0 888 870646 -7409 0
0 0 0 829 871475 -6580 0
0 0 0 772 872247 -5808 0
0 0 0 779 873026 -5029 0
0 0 0 757 873783 -4272 0
0 0 0 711 874494 -3561 0
0 0 0 690 875184 -2871 0
0 0 0 662 875846 -2209 0
41 1 S102 679 876525 -1530 0
41 1 S102 737 877262 -793 0
41 1 S102 764 878026 -29 0
41 2 S102 765 878791 736 0
41 2 S102 780 879571 1516 0
41 2 S102 816 880387 2332 0
41 2 S102 815 881202 3147 0
41 2 S102 783 881985 3930 0
41 2 S102 734 882719 4664 0
41 2 S102 775 883494 5439 0
41 2 S102 787 884281 6226 0
0 0 0 811 885092 -8398 0
0 0 0 800 885892 -7598 0
0 0 0 744 886636 -6854 0
0 0 0 750 887386 -6104 0
0 0 0 759 888145 -5345 0
0 0 0 727 888872 -4618 0
0 0 0 671 889543 -3947 0
0 0 0 679 890222 -3268 0
0 0 0 696 890918 -2572 0
42 1 S112 751 891669 -1821 0
42 1 S112 798 892467 -1023 0
42 1 S112 739 893206 -284 0
42 2 S112 723 893929 439 0
42 2 S112 740 894669 1179 0
42 2 S112 768 895437 1947 0
42 2 S112 833 896270 2780 0
42 2 S112 849 897119 3629 0
42 2 S112 830 897949 4459 0
42 2 S112 787 898736 5246 0
42 2 S112 832 899568 6078 0
42 2 S112 835 900403 6913 0
0 0 0 842 901245 -9636 0
0 0 0 774 902019 -8862 0
0 0 0 724 902743 -8138 0
0 0 0 737 903480 -7401 0
0 0 0 720 904200 -6681 0
0 0 0 748 904948 -5933 0
0 0 0 760 905708 -5173 0
0 0 0 708 906416 -4465 0
0 0 0 711 907127 -3754 0
0 0 0 804 907931 -2950 0
0 0 0 861 908792 -2089 0
43 1 S116 844 909636 -1245 0
43 1 S116 809 910445 -436 0
43 2 S116 760 911205 324 0
43 2 S116 801 912006 1125 0
43 2 S116 831 912837 1956 0
43 2 S116 878 913715 2834 0
43 2 S116 855 914570 3689 0
43 2 S116 794 915364 4483 0
43 2 S116 725 916089 5208 0
43 2 S116 691 916780 5899 0
43 2 S116 709 917489 6608 0
0 0 0 830 918319 -8178 0
0 0 0 952 919271 -7226 0
0 0 0 955 920226 -6271 0
0 0 0 968 921194 -5303 0
0 0 0 917 922111 -4386 0
0 0 0 851 922962 -3535 0
0 0 0 864 923826 -2671 0
44 1 S102 854 924680 -1817 0
44 1 S102 857 925537 -960 0
44 1 S102 832 926369 -128 0
44 2 S102 771 927140 643 0
44 2 S102 798 927938 1441 0
44 2 S102 807 928745 2248 0
44 2 S102 823 929568 3071 0
44 2 S102 788 930356 3859 0
44 2 S102 818 931174 4677 0
44 2 S102 865 932039 5542 0
44 2 S102 910 932949 6452 0
0 0 0 888 933837 -9587 0
0 0 0 837 934674 -8750 0
0 0 0 889 935563 -7861 0
0 0 0 887 936450 -6974 0
0 0 0 820 937270 -6154 0
0 0 0 732 938002 -5422 0
0 0 0 689 938691 -4733 0
0 0 0 657 939348 -4076 0
0 0 0 637 939985 -3439 0
0 0 0 631 940616 -2808 0
0 0 0 621 941237 -2187 0
45 1 S116 613 941850 -1574 0
45 1 S116 619 942469 -955 0
45 1 S116 648 943117 -307 0
45 2 S116 701 943818 394 0
45 2 S116 769 944587 1163 0
45 2 S116 817 945404 1980 0
45 2 S116 794 946198 2774 0
45 2 S116 771 946969 3545 0
45 2 S116 798 947767 4343 0
45 2 S116 835 948602 5178 0
45 2 S116 846 949448 6024 0
45 2 S116 804 950252 6828 0
0 0 0 751 951003 -13045 0
0 0 0 778 951781 -12267 0
0 0 0 782 952563 -11485 0
0 0 0 782 953345 -10703 0
0 0 0 745 954090 -9958 0
0 0 0 719 954809 -9239 0
0 0 0 800 955609 -8439 0
0 0 0 788 956397 -7651 0
0 0 0 739 957136 -6912 0
0 0 0 690 957826 -6222 0
0 0 0 668 958494 -5554 0
0 0 0 671 959165 -4883 0
0 0 0 696 959861 -4187 0
0 0 0 708 960569 -3479 0
0 0 0 744 961313 -2735 0
0 0 0 711 962024 -2024 0
46 1 S102 695 962719 -1329 0
46 1 S102 723 963442 -606 0
46 2 S102 730 964172 124 0
46 2 S102 732 964904 856 0
46 2 S102 712 965616 1568 0
46 2 S102 727 966343 2295 0
46 2 S102 803 967146 3098 0
46 2 S102 873 968019 3971 0
46 2 S102 854 968873 4825 0
46 2 S102 815 969688 5640 0
46 2 S102 827 970515 6467 0
0 0 0 830 971345 -8452 0
0 0 0 771 972116 -7681 0
0 0 0 725 972841 -6956 0
0 0 0 683 973524 -6273 0
0 0 0 651 974175 -5622 0
0 0 0 635 974810 -4987 0
0 0 0 634 975444 -4353 0
0 0 0 651 976095 -3702 0
0 0 0 681 976776 -3021 0
0 0 0 768 977544 -2253 0
47 1 S112 772 978316 -1481 0
47 1 S112 815 979131 -666 0
47 2 S112 876 980007 210 0
47 2 S112 899 980906 1109 0
47 2 S112 892 981798 2001 0
47 2 S112 884 982682 2885 0
47 2 S112 838 983520 3723 0
47 2 S112 794 984314 4517 0
47 2 S112 832 985146 5349 0
47 2 S112 836 985982 6185 0
0 0 0 860 986842 -12600 0
0 0 0 886 987728 -11714 0
0 0 0 844 988572 -10870 0
0 0 0 759 989331 -10111 0
0 0 0 745 990076 -9366 0
0 0 0 719 990795 -8647 0
0 0 0 698 991493 -7949 0
0 0 0 714 992207 -7235 0
0 0 0 720 992927 -6515 0
0 0 0 766 993693 -5749 0
0 0 0 846 994539 -4903 0
0 0 0 911 995450 -3992 0
0 0 0 926 996376 -3066 0
0 0 0 881 997257 -2185 0
48 1 S116 854 998111 -1331 0
48 1 S116 907 999018 -424 0
48 2 S116 915 999933 491 0
48 2 S116 905 1000838 1396 0
48 2 S116 853 1001691 2249 0
48 2 S116 832 1002523 3081 0
48 2 S116 846 1003369 3927 0
48 2 S116 840 1004209 4767 0
48 2 S116 836 1005045 5603 0
48 2 S116 790 1005835 6393 0
0 0 0 772 1006607 -7540 0
0 0 0 822 1007429 -6718 0
0 0 0 840 1008269 -5878 0
0 0 0 832 1009101 -5046 0
0 0 0 772 1009873 -4274 0
0 0 0 735 1010608 -3539 0
0 0 0 745 1011353 -2794 0
0 0 0 778 1012131 -2016 0
49 1 S112 811 1012942 -1205 0
49 1 S112 813 1013755 -392 0
49 2 S112 783 1014538 391 0
49 2 S112 790 1015328 1181 0
49 2 S112 824 1016152 2005 0
49 2 S112 841 1016993 2846 0
49 2 S112 841 1017834 3687 0
49 2 S112 800 1018634 4487 0
49 2 S112 756 1019390 5243 0
49 2 S112 765 1020155 6008 0
49 2 S112 729 1020884 6737 0
0 0 0 709 1021593 -11023 0
0 0 0 702 1022295 -10321 0
0 0 0 777 1023072 -9544 0
0 0 0 840 1023912 -8704 0
0 0 0 879 1024791 -7825 0
0 0 0 858 1025649 -6967 0
0 0 0 882 1026531 -6085 0
0 0 0 895 1027426 -5190 0
0 0 0 916 1028342 -4274 0
0 0 0 856 1029198 -3418 0
0 0 0 813 1030011 -2605 0
50 1 S106 839 1030850 -1766 0
50 1 S106 844 1031694 -922 0
50 1 S106 818 1032512 -104 0
50 2 S106 751 1033263 647 0
50 2 S106 748 1034011 1395 0
50 2 S106 718 1034729 2113 0
50 2 S106 692 1035421 2805 0
50 2 S106 672 1036093 3477 0
50 2 S106 666 1036759 4143 0
50 2 S106 715 1037474 4858 0
50 2 S106 896 1038370 5754 0
50 2 S106 982 1039352 6736 0
0 0 0 919 1040271 -6851 0
0 0 0 892 1041163 -5959 0
0 0 0 954 1042117 -5005 0
0 0 0 947 1043064 -4058 0
0 0 0 924 1043988 -3134 0
0 0 0 899 1044887 -2235 0
51 1 S112 846 1045733 -1389 0
51 1 S112 786 1046519 -603 0
51 2 S112 690 1047209 87 0
51 2 S112 659 1047868 746 0
51 2 S112 648 1048516 1394 0
51 2 S112 632 1049148 2026 0
51 2 S112 641 1049789 2667 0
51 2 S112 679 1050468 3346 0
51 2 S112 745 1051213 4091 0
51 2 S112 848 1052061 4939 0
51 2 S112 862 1052923 5801 0
51 2 S112 839 1053762 6640 0
0 0 0 873 1054635 -6346 0
0 0 0 892 1055527 -5454 0
0 0 0 836 1056363 -4618 0
0 0 0 776 1057139 -3842 0
0 0 0 732 1057871 -3110 0
0 0 0 724 1058595 -2386 0
52 1 S116 691 1059286 -1695 0
52 1 S116 674 1059960 -1021 0
52 1 S116 685 1060645 -336 0
52 2 S116 750 1061395 414 0
52 2 S116 882 1062277 1296 0
52 2 S116 922 1063199 2218 0
52 2 S116 916 1064115 3134 0
52 2 S116 887 1065002 4021 0
52 2 S116 918 1065920 4939 0
52 2 S116 935 1066855 5874 0
52 2 S116 933 1067788 6807 0
0 0 0 889 1068677 -8783 0
0 0 0 893 1069570 -7890 0
0 0 0 900 1070470 -6990 0
0 0 0 866 1071336 -6124 0
0 0 0 774 1072110 -5350 0
0 0 0 791 1072901 -4559 0
0 0 0 807 1073708 -3752 0
0 0 0 797 1074505 -2955 0
0 0 0 767 1075272 -2188 0
53 1 S106 724 1075996 -1464 0
53 1 S106 757 1076753 -707 0
53 2 S106 780 1077533 73 0
53 2 S106 800 1078333 873 0
53 2 S106 794 1079127 1667 0
53 2 S106 764 1079891 2431 0
53 2 S106 768 1080659 3199 0
53 2 S106 756 1081415 3955 0
53 2 S106 752 1082167 4707 0
53 2 S106 717 1082884 5424 0
53 2 S106 735 1083619 6159 0
53 2 S106 824 1084443 6983 0
0 0 0 873 1085316 -6485 0
0 0 0 912 1086228 -5573 0
0 0 0 872 1087100 -4701 0
0 0 0 788 1087888 -3913 0
0 0 0 805 1088693 -3108 0
0 0 0 818 1089511 -2290 0
54 1 S102 824 1090335 -1466 0
54 1 S102 811 1091146 -655 0
54 2 S102 768 1091914 113 0
54 2 S102 742 1092656 855 0
54 2 S102 746 1093402 1601 0
54 2 S102 774 1094176 2375 0
54 2 S102 805 1094981 3180 0
54 2 S102 784 1095765 3964 0
54 2 S102 759 1096524 4723 0
54 2 S102 795 1097319 5518 0
54 2 S102 800 1098119 6318 0
0 0 0 795 1098914 -10791 0
0 0 0 774 1099688 -10017 0
0 0 0 741 1100429 -9276 0
0 0 0 761 1101190 -8515 0
0 0 0 769 1101959 -7746 0
0 0 0 769 1102728 -6977 0
0 0 0 731 1103459 -6246 0
0 0 0 732 1104191 -5514 0
0 0 0 730 1104921 -4784 0
0 0 0 718 1105639 -4066 0
0 0 0 677 1106316 -3389 0
0 0 0 641 1106957 -2748 0
0 0 0 621 1107578 -2127 0
55 1 S106 622 1108200 -1505 0
55 1 S106 669 1108869 -836 0
55 1 S106 757 1109626 -79 0
55 2 S106 891 1110517 812 0
55 2 S106 894 1111411 1706 0
55 2 S106 826 1112237 2532 0
55 2 S106 889 1113126 3421 0
55 2 S106 899 1114025 4320 0
55 2 S106 896 1114921 5216 0
55 2 S106 853 1115774 6069 0
55 2 S106 870 1116644 6939 0
0 0 0 871 1117515 -6448 0
0 0 0 834 1118349 -5614 0
0 0 0 771 1119120 -4843 0
0 0 0 711 1119831 -4132 0
0 0 0 700 1120531 -3432 0
0 0 0 697 1121228 -2735 0
0 0 0 708 1121936 -2027 0
56 1 S116 712 1122648 -1315 0
56 1 S116 698 1123346 -617 0
56 2 S116 706 1124052 89 0
56 2 S116 781 1124833 870 0
56 2 S116 846 1125679 1716 0
56 2 S116 874 1126553 2590 0
56 2 S116 835 1127388 3425 0
56 2 S116 816 1128204 4241 0
56 2 S116 854 1129058 5095 0
56 2 S116 852 1129910 5947 0
56 2 S116 823 1130733 6770 0
0 0 0 737 1131470 -8574 0
0 0 0 773 1132243 -7801 0
0 0 0 771 1133014 -7030 0
0 0 0 806 1133820 -6224 0
0 0 0 879 1134699 -5345 0
0 0 0 805 1135504 -4540 0
0 0 0 861 1136365 -3679 0
0 0 0 928 1137293 -2751 0
57 1 S106 939 1138232 -1812 0
57 1 S106 891 1139123 -921 0
57 1 S106 911 1140034 -10 0
57 2 S106 951 1140985 941 0
57 2 S106 938 1141923 1879 0
57 2 S106 875 1142798 2754 0
57 2 S106 875 1143673 3629 0
57 2 S106 878 1144551 4507 0
57 2 S106 821 1145372 5328 0
57 2 S106 760 1146132 6088 0
57 2 S106 760 1146892 6848 0
0 0 0 798 1147690 -9595 0
0 0 0 826 1148516 -8769 0
0 0 0 814 1149330 -7955 0
0 0 0 773 1150103 -7182 0
0 0 0 728 1150831 -6454 0
0 0 0 742 1151573 -5712 0
0 0 0 748 1152321 -4964 0
0 0 0 752 1153073 -4212 0
0 0 0 724 1153797 -3488 0
0 0 0 693 1154490 -2795 0
0 0 0 750 1155240 -2045 0
58 1 S102 792 1156032 -1253 0
58 1 S102 802 1156834 -451 0
58 2 S102 788 1157622 337 0
58 2 S102 730 1158352 1067 0
58 2 S102 707 1159059 1774 0
58 2 S102 730 1159789 2504 0
58 2 S102 767 1160556 3271 0
58 2 S102 804 1161360 4075 0
58 2 S102 780 1162140 4855 0
58 2 S102 742 1162882 5597 0
58 2 S102 761 1163643 6358 0
0 0 0 821 1164464 -8421 0
0 0 0 846 1165310 -7575 0
0 0 0 852 1166162 -6723 0
0 0 0 773 1166935 -5950 0
0 0 0 763 1167698 -5187 0
0 0 0 779 1168477 -4408 0
0 0 0 775 1169252 -3633 0
0 0 0 799 1170051 -2834 0
0 0 0 768 1170819 -2066 0
59 1 S112 738 1171557 -1328 0
59 1 S112 753 1172310 -575 0
59 2 S112 772 1173082 197 0
59 2 S112 750 1173832 947 0
59 2 S112 722 1174554 1669 0
59 2 S112 673 1175227 2342 0
59 2 S112 666 1175893 3008 0
59 2 S112 701 1176594 3709 0
59 2 S112 797 1177391 4506 0
59 2 S112 846 1178237 5352 0
59 2 S112 808 1179045 6160 0
59 2 S112 754 1179799 6914 0
0 0 0 789 1180588 -8826 0
0 0 0 803 1181391 -8023 0
0 0 0 818 1182209 -7205 0
0 0 0 758 1182967 -6447 0
0 0 0 704 1183671 -5743 0
0 0 0 700 1184371 -5043 0
0 0 0 725 1185096 -4318 0
0 0 0 782 1185878 -3536 0
0 0 0 803 1186681 -2733 0
60 1 S102 761 1187442 -1972 0
60 1 S102 758 1188200 -1214 0
60 1 S102 786 1188986 -428 0
60 2 S102 781 1189767 353 0
60 2 S102 777 1190544 1130 0
60 2 S102 743 1191287 1873 0
60 2 S102 724 1192011 2597 0
60 2 S102 758 1192769 3355 0
60 2 S102 804 1193573 4159 0
60 2 S102 852 1194425 5011 0
60 2 S102 852 1195277 5863 0
60 2 S102 803 1196080 6666 0
0 0 0 845 1196925 -11206 0
0 0 0 881 1197806 -10325 0
0 0 0 858 1198664 -9467 0
0 0 0 814 1199478 -8653 0
0 0 0 727 1200205 -7926 0
0 0 0 684 1200889 -7242 0
0 0 0 672 1201561 -6570 0
0 0 0 654 1202215 -5916 0
0 0 0 672 1202887 -5244 0
0 0 0 710 1203597 -4534 0
0 0 0 683 1204280 -3851 0
0 0 0 717 1204997 -3134 0
0 0 0 814 1205811 -2320 0
61 1 S106 895 1206706 -1425 0
61 1 S106 941 1207647 -484 0
61 2 S106 863 1208510 379 0
61 2 S106 905 1209415 1284 0
61 2 S106 923 1210338 2207 0
61 2 S106 933 1211271 3140 0
61 2 S106 900 1212171 4040 0
61 2 S106 846 1213017 4886 0
61 2 S106 889 1213906 5775 0
61 2 S106 879 1214785 6654 0
0 0 0 836 1215621 -6088 0
0 0 0 766 1216387 -5322 0
0 0 0 753 1217140 -4569 0
0 0 0 746 1217886 -3823 0
0 0 0 712 1218598 -3111 0
0 0 0 691 1219289 -2420 0
62 1 S112 664 1219953 -1756 0
62 1 S112 652 1220605 -1104 0
62 1 S112 679 1221284 -425 0
62 2 S112 721 1222005 296 0
62 2 S112 823 1222828 1119 0
62 2 S112 829 1223657 1948 0
62 2 S112 785 1224442 2733 0
62 2 S112 830 1225272 3563 0
62 2 S112 881 1226153 4444 0
62 2 S112 892 1227045 5336 0
62 2 S112 881 1227926 6217 0
0 0 0 831 1228757 -11851 0
0 0 0 868 1229625 -10983 0
0 0 0 843 1230468 -10140 0
0 0 0 781 1231249 -9359 0
0 0 0 730 1231979 -8629 0
0 0 0 671 1232650 -7958 0
0 0 0 653 1233303 -7305 0
0 0 0 650 1233953 -6655 0
0 0 0 669 1234622 -5986 0
0 0 0 702 1235324 -5284 0
0 0 0 708 1236032 -4576 0
0 0 0 690 1236722 -3886 0
0 0 0 708 1237430 -3178 0
0 0 0 749 1238179 -2429 0
63 1 S102 798 1238977 -1631 0
63 1 S102 777 1239754 -854 0
63 1 S102 746 1240500 -108 0
63 2 S102 779 1241279 671 0
63 2 S102 820 1242099 1491 0
63 2 S102 842 1242941 2333 0
63 2 S102 808 1243749 3141 0
63 2 S102 785 1244534 3926 0
63 2 S102 847 1245381 4773 0
63 2 S102 874 1246255 5647 0
63 2 S102 857 1247112 6504 0
0 0 0 839 1247951 -8639 0
0 0 0 774 1248725 -7865 0
0 0 0 741 1249466 -7124 0
0 0 0 714 1250180 -6410 0
0 0 0 664 1250844 -5746 0
0 0 0 640 1251484 -5106 0
0 0 0 615 1252099 -4491 0
0 0 0 595 1252694 -3896 0
0 0 0 588 1253282 -3308 0
0 0 0 588 1253870 -2720 0
0 0 0 611 1254481 -2109 0
64 1 S112 696 1255177 -1413 0
64 1 S112 769 1255946 -644 0
64 2 S112 796 1256742 152 0
64 2 S112 794 1257536 946 0
64 2 S112 792 1258328 1738 0
64 2 S112 786 1259114 2524 0
64 2 S112 751 1259865 3275 0
64 2 S112 739 1260604 4014 0
64 2 S112 692 1261296 4706 0
64 2 S112 655 1261951 5361 0
64 2 S112 651 1262602 6012 0
64 2 S112 669 1263271 6681 0
0 0 0 701 1263972 -6742 0
0 0 0 748 1264720 -5994 0
0 0 0 783 1265503 -5211 0
0 0 0 762 1266265 -4449 0
0 0 0 717 1266982 -3732 0
0 0 0 697 1267679 -3035 0
0 0 0 710 1268389 -2325 0
65 1 S106 716 1269105 -1609 0
65 1 S106 715 1269820 -894 0
65 1 S106 711 1270531 -183 0
65 2 S106 689 1271220 506 0
65 2 S106 701 1271921 1207 0
65 2 S106 742 1272663 1949 0
65 2 S106 758 1273421 2707 0
65 2 S106 777 1274198 3484 0
65 2 S106 748 1274946 4232 0
65 2 S106 739 1275685 4971 0
65 2 S106 723 1276408 5694 0
65 2 S106 721 1277129 6415 0
0 0 0 728 1277857 -8126 0
0 0 0 699 1278556 -7427 0
0 0 0 692 1279248 -6735 0
0 0 0 729 1279977 -6006 0
0 0 0 766 1280743 -5240 0
0 0 0 773 1281516 -4467 0
0 0 0 730 1282246 -3737 0
0 0 0 687 1282933 -3050 0
0 0 0 703 1283636 -2347 0
66 1 S116 704 1284340 -1643 0
66 1 S116 697 1285037 -946 0
66 1 S116 698 1285735 -248 0
66 2 S116 672 1286407 424 0
66 2 S116 670 1287077 1094 0
66 2 S116 709 1287786 1803 0
66 2 S116 824 1288610 2627 0
66 2 S116 909 1289519 3536 0
66 2 S116 875 1290394 4411 0
66 2 S116 895 1291289 5306 0
66 2 S116 853 1292142 6159 0
66 2 S116 836 1292978 6995 0
0 0 0 881 1293859 -11803 0
0 0 0 901 1294760 -10902 0
0 0 0 847 1295607 -10055 0
0 0 0 749 1296356 -9306 0
0 0 0 662 1297018 -8644 0
0 0 0 643 1297661 -8001 0
0 0 0 675 1298336 -7326 0
0 0 0 848 1299184 -6478 0
0 0 0 891 1300075 -5587 0
0 0 0 868 1300943 -4719 0
0 0 0 839 1301782 -3880 0
0 0 0 876 1302658 -3004 0
0 0 0 875 1303533 -2129 0
67 1 S102 907 1304440 -1222 0
67 1 S102 862 1305302 -360 0
67 2 S102 800 1306102 440 0
67 2 S102 836 1306938 1276 0
67 2 S102 850 1307788 2126 0
67 2 S102 863 1308651 2989 0
67 2 S102 861 1309512 3850 0
67 2 S102 826 1310338 4676 0
67 2 S102 836 1311174 5512 0
67 2 S102 844 1312018 6356 0
0 0 0 834 1312852 -8493 0
0 0 0 817 1313669 -7676 0
0 0 0 748 1314417 -6928 0
0 0 0 775 1315192 -6153 0
0 0 0 752 1315944 -5401 0
0 0 0 736 1316680 -4665 0
0 0 0 677 1317357 -3988 0
0 0 0 646 1318003 -3342 0
0 0 0 632 1318635 -2710 0
0 0 0 647 1319282 -2063 0
68 1 S106 694 1319976 -1369 0
68 1 S106 735 1320711 -634 0
68 2 S106 736 1321447 102 0
68 2 S106 754 1322201 856 0
68 2 S106 775 1322976 1631 0
68 2 S106 753 1323729 2384 0
68 2 S106 774 1324503 3158 0
68 2 S106 744 1325247 3902 0
68 2 S106 685 1325932 4587 0
68 2 S106 684 1326616 5271 0
68 2 S106 664 1327280 5935 0
68 2 S106 662 1327942 6597 0
0 0 0 685 1328627 -11103 0
0 0 0 679 1329306 -10424 0
0 0 0 718 1330024 -9706 0
0 0 0 764 1330788 -8942 0
0 0 0 762 1331550 -8180 0
0 0 0 748 1332298 -7432 0
0 0 0 715 1333013 -6717 0
0 0 0 784 1333797 -5933 0
0 0 0 844 1334641 -5089 0
0 0 0 840 1335481 -4249 0
0 0 0 817 1336298 -3432 0
0 0 0 796 1337094 -2636 0
69 1 S102 826 1337920 -1810 0
69 1 S102 859 1338779 -951 0
69 1 S102 872 1339651 -79 0
69 2 S102 864 1340515 785 0
69 2 S102 817 1341332 1602 0
69 2 S102 794 1342126 2396 0
69 2 S102 786 1342912 3182 0
69 2 S102 751 1343663 3933 0
69 2 S102 747 1344410 4680 0
69 2 S102 704 1345114 5384 0
69 2 S102 668 1345782 6052 0
69 2 S102 706 1346488 6758 0
0 0 0 821 1347309 -8303 0
0 0 0 911 1348220 -7392 0
0 0 0 867 1349087 -6525 0
0 0 0 833 1349920 -5692 0
0 0 0 811 1350731 -4881 0
0 0 0 882 1351613 -3999 0
0 0 0 845 1352458 -3154 0
0 0 0 807 1353265 -2347 0
70 1 S112 733 1353998 -1614 0
70 1 S112 778 1354776 -836 0
70 2 S112 854 1355630 18 0
70 2 S112 883 1356513 901 0
70 2 S112 870 1357383 1771 0
70 2 S112 843 1358226 2614 0
70 2 S112 832 1359058 3446 0
70 2 S112 873 1359931 4319 0
70 2 S112 880 1360811 5199 0
70 2 S112 871 1361682 6070 0
70 2 S112 825 1362507 6895 0
0 0 0 854 1363361 -10836 0
0 0 0 857 1364218 -9979 0
0 0 0 782 1365000 -9197 0
0 0 0 711 1365711 -8486 0
0 0 0 664 1366375 -7822 0
0 0 0 638 1367013 -7184 0
0 0 0 636 1367649 -6548 0
0 0 0 620 1368269 -5928 0
0 0 0 622 1368891 -5306 0
0 0 0 604 1369495 -4702 0
0 0 0 604 1370099 -4098 0
0 0 0 614 1370713 -3484 0
0 0 0 653 1371366 -2831 0
0 0 0 763 1372129 -2068 0
71 1 S116 778 1372907 -1290 0
71 1 S116 805 1373712 -485 0
71 2 S116 820 1374532 335 0
71 2 S116 843 1375375 1178 0
71 2 S116 834 1376209 2012 0
71 2 S116 841 1377050 2853 0
71 2 S116 784 1377834 3637 0
71 2 S116 725 1378559 4362 0
71 2 S116 759 1379318 5121 0
71 2 S116 836 1380154 5957 0
71 2 S116 902 1381056 6859 0
0 0 0 913 1381969 -7795 0
0 0 0 877 1382846 -6918 0
0 0 0 797 1383643 -6121 0
0 0 0 829 1384472 -5292 0
0 0 0 815 1385287 -4477 0
0 0 0 816 1386103 -3661 0
0 0 0 782 1386885 -2879 0
0 0 0 803 1387688 -2076 0
72 1 S102 847 1388535 -1229 0
72 1 S102 869 1389404 -360 0
72 2 S102 839 1390243 479 0
72 2 S102 779 1391022 1258 0
72 2 S102 766 1391788 2024 0
72 2 S102 777 1392565 2801 0
72 2 S102 790 1393355 3591 0
72 2 S102 768 1394123 4359 0
72 2 S102 744 1394867 5103 0
72 2 S102 848 1395715 5951 0
72 2 S102 897 1396612 6848 0
0 0 0 905 1397517 -5725 0
0 0 0 810 1398327 -4915 0
0 0 0 794 1399121 -4121 0
0 0 0 767 1399888 -3354 0
0 0 0 741 1400629 -2613 0
73 1 S116 732 1401361 -1881 0
73 1 S116 724 1402085 -1157 0
73 1 S116 706 1402791 -451 0
73 2 S116 732 1403523 281 0
73 2 S116 754 1404277 1035 0
73 2 S116 823 1405100 1858 0
73 2 S116 836 1405936 2694 0
73 2 S116 781 1406717 3475 0
73 2 S116 839 1407556 4314 0
73 2 S116 864 1408420 5178 0
73 2 S116 876 1409296 6054 0
73 2 S116 872 1410168 6926 0
0 0 0 861 1411029 -8758 0
0 0 0 808 1411837 -7950 0
0 0 0 790 1412627 -7160 0
0 0 0 722 1413349 -6438 0
0 0 0 699 1414048 -5739 0
0 0 0 734 1414782 -5005 0
0 0 0 699 1415481 -4306 0
0 0 0 736 1416217 -3570 0
0 0 0 790 1417007 -2780 0
74 1 S106 860 1417867 -1920 0
74 1 S106 823 1418690 -1097 0
74 1 S106 804 1419494 -293 0
74 2 S106 872 1420366 579 0
74 2 S106 891 1421257 1470 0
74 2 S106 863 1422120 2333 0
74 2 S106 841 1422961 3174 0
74 2 S106 886 1423847 4060 0
74 2 S106 917 1424764 4977 0
74 2 S106 912 1425676 5889 0
74 2 S106 873 1426549 6762 0
0 0 0 840 1427389 -5412 0
0 0 0 859 1428248 -4553 0
0 0 0 801 1429049 -3752 0
0 0 0 705 1429754 -3047 0
0 0 0 650 1430404 -2397 0
75 1 S112 642 1431046 -1755 0
75 1 S112 622 1431668 -1133 0
75 1 S112 608 1432276 -525 0
75 2 S112 613 1432889 88 0
75 2 S112 610 1433499 698 0
75 2 S112 612 1434111 1310 0
75 2 S112 638 1434749 1948 0
75 2 S112 665 1435414 2613 0
75 2 S112 696 1436110 3309 0
75 2 S112 691 1436801 4000 0
75 2 S112 669 1437470 4669 0
75 2 S112 647 1438117 5316 0
75 2 S112 639 1438756 5955 0
75 2 S112 637 1439393 6592 0
0 0 0 639 1440032 -6695 0
0 0 0 664 1440696 -6031 0
0 0 0 697 1441393 -5334 0
0 0 0 699 1442092 -4635 0
0 0 0 674 1442766 -3961 0
0 0 0 680 1443446 -3281 0
0 0 0 720 1444166 -2561 0
76 1 S116 781 1444947 -1780 0
76 1 S116 845 1445792 -935 0
76 1 S116 834 1446626 -101 0
76 2 S116 795 1447421 694 0
76 2 S116 844 1448265 1538 0
76 2 S116 834 1449099 2372 0
76 2 S116 777 1449876 3149 0
76 2 S116 689 1450565 3838 0
76 2 S116 682 1451247 4520 0
76 2 S116 701 1451948 5221 0
76 2 S116 680 1452628 5901 0
76 2 S116 674 1453302 6575 0
0 0 0 721 1454023 -8387 0
0 0 0 790 1454813 -7597 0
0 0 0 797 1455610 -6800 0
0 0 0 756 1456366 -6044 0
0 0 0 719 1457085 -5325 0
0 0 0 676 1457761 -4649 0
0 0 0 668 1458429 -3981 0
0 0 0 705 1459134 -3276 0
0 0 0 736 1459870 -2540 0
77 1 S106 795 1460665 -1745 0
77 1 S106 804 1461469 -941 0
77 1 S106 779 1462248 -162 0
77 2 S106 827 1463075 665 0
77 2 S106 870 1463945 1535 0
77 2 S106 738 1464683 2273 0
77 2 S106 666 1465349 2939 0
77 2 S106 651 1466000 3590 0
77 2 S106 653 1466653 4243 0
77 2 S106 685 1467338 4928 0
77 2 S106 758 1468096 5686 0
77 2 S106 824 1468920 6510 0
0 0 0 830 1469750 -8642 0
0 0 0 829 1470579 -7813 0
0 0 0 772 1471351 -7041 0
0 0 0 712 1472063 -6329 0
0 0 0 719 1472782 -5610 0
0 0 0 709 1473491 -4901 0
0 0 0 727 1474218 -4174 0
0 0 0 743 1474961 -3431 0
0 0 0 734 1475695 -2697 0
78 1 S112 714 1476409 -1983 0
78 1 S112 759 1477168 -1224 0
78 1 S112 821 1477989 -403 0
78 2 S112 831 1478820 428 0
78 2 S112 789 1479609 1217 0
78 2 S112 771 1480380 1988 0
78 2 S112 794 1481174 2782 0
78 2 S112 806 1481980 3588 0
78 2 S112 814 1482794 4402 0
78 2 S112 783 1483577 5185 0
78 2 S112 773 1484350 5958 0
78 2 S112 810 1485160 6768 0
0 0 0 829 1485989 -10092 0
0 0 0 820 1486809 -9272 0
0 0 0 799 1487608 -8473 0
0 0 0 740 1488348 -7733 0
0 0 0 733 1489081 -7000 0
0 0 0 742 1489823 -6258 0
0 0 0 749 1490572 -5509 0
0 0 0 769 1491341 -4740 0
0 0 0 739 1492080 -4001 0
0 0 0 729 1492809 -3272 0
0 0 0 753 1493562 -2519 0
79 1 S102 762 1494324 -1757 0
79 1 S102 788 1495112 -969 0
79 1 S102 781 1495893 -188 0
79 2 S102 778 1496671 590 0
79 2 S102 786 1497457 1376 0
79 2 S102 787 1498244 2163 0
79 2 S102 770 1499014 2933 0
79 2 S102 744 1499758 3677 0
79 2 S102 714 1500472 4391 0
79 2 S102 738 1501210 5129 0
79 2 S102 809 1502019 5938 0
79 2 S102 866 1502885 6804 0
0 0 0 863 1503748 -8149 0
0 0 0 856 1504604 -7293 0
0 0 0 803 1505407 -6490 0
0 0 0 833 1506240 -5657 0
0 0 0 865 1507105 -4792 0
0 0 0 850 1507955 -3942 0
0 0 0 804 1508759 -3138 0
0 0 0 720 1509479 -2418 0
80 1 S116 674 1510153 -1744 0
80 1 S116 677 1510830 -1067 0
80 1 S116 742 1511572 -325 0
80 2 S116 832 1512404 507 0
80 2 S116 824 1513228 1331 0
80 2 S116 833 1514061 2164 0
80 2 S116 868 1514929 3032 0
80 2 S116 880 1515809 3912 0
80 2 S116 863 1516672 4775 0
80 2 S116 856 1517528 5631 0
80 2 S116 890 1518418 6521 0
