T_0081
BeatCount Mean SD BeatCountNoOutliers MeanNoOutliers SDNoOutliers
2172 719,77532228361 54,8700754153133 2160 718,79212962963 53,350396287121

Trial TrialStatus Trialtype IBI AbsPosition RelPosition Outlier
0 0 0 705 907 -15433 0
0 0 0 725 1632 -14708 0
0 0 0 747 2379 -13961 0
0 0 0 742 3121 -13219 0
0 0 0 708 3829 -12511 0
0 0 0 686 4515 -11825 0
0 0 0 665 5180 -11160 0
0 0 0 635 5815 -10525 0
0 0 0 616 6431 -9909 0
0 0 0 612 7043 -9297 0
0 0 0 619 7662 -8678 0
0 0 0 635 8297 -8043 0
0 0 0 649 8946 -7394 0
0 0 0 712 9658 -6682 0
0 0 0 774 10432 -5908 0
0 0 0 772 11204 -5136 0
0 0 0 736 11940 -4400 0
0 0 0 701 12641 -3699 0
0 0 0 677 13318 -3022 0
0 0 0 676 13994 -2346 0
1 1 S112 679 14673 -1667 0
1 1 S112 689 15362 -978 0
1 1 S112 704 16066 -274 0
1 2 S112 737 16803 463 0
1 2 S112 738 17541 1201 0
1 2 S112 700 18241 1901 0
1 2 S112 684 18925 2585 0
1 2 S112 703 19628 3288 0
1 2 S112 706 20334 3994 0
1 2 S112 738 21072 4732 0
1 2 S112 764 21836 5496 0
1 2 S112 751 22587 6247 0
1 2 S112 718 23305 6965 0
0 0 0 728 24033 -11505 0
0 0 0 733 24766 -10772 0
0 0 0 748 25514 -10024 0
0 0 0 764 26278 -9260 0
0 0 0 738 27016 -8522 0
0 0 0 702 27718 -7820 0
0 0 0 673 28391 -7147 0
0 0 0 643 29034 -6504 0
0 0 0 618 29652 -5886 0
0 0 0 606 30258 -5280 0
0 0 0 601 30859 -4679 0
0 0 0 606 31465 -4073 0
0 0 0 625 32090 -3448 0
0 0 0 693 32783 -2755 0
0 0 0 753 33536 -2002 0
2 1 S102 806 34342 -1196 0
2 1 S102 818 35160 -378 0
2 2 S102 797 35957 419 0
2 2 S102 751 36708 1170 0
2 2 S102 720 37428 1890 0
2 2 S102 715 38143 2605 0
2 2 S102 716 38859 3321 0
2 2 S102 725 39584 4046 0
2 2 S102 743 40327 4789 0
2 2 S102 746 41073 5535 0
2 2 S102 724 41797 6259 0
2 2 S102 711 42508 6970 0
0 0 0 723 43231 -9731 0
0 0 0 739 43970 -8992 0
0 0 0 783 44753 -8209 0
0 0 0 823 45576 -7386 0
0 0 0 814 46390 -6572 0
0 0 0 751 47141 -5821 0
0 0 0 709 47850 -5112 0
0 0 0 701 48551 -4411 0
0 0 0 687 49238 -3724 0
0 0 0 678 49916 -3046 0
0 0 0 687 50603 -2359 0
3 1 S116 701 51304 -1658 0
3 1 S116 698 52002 -960 0
3 1 S116 701 52703 -259 0
3 2 S116 726 53429 467 0
3 2 S116 755 54184 1222 0
3 2 S116 794 54978 2016 0
3 2 S116 785 55763 2801 0
3 2 S116 752 56515 3553 0
3 2 S116 750 57265 4303 0
3 2 S116 742 58007 5045 0
3 2 S116 728 58735 5773 0
3 2 S116 717 59452 6490 0
0 0 0 700 60152 -11726 0
0 0 0 680 60832 -11046 0
0 0 0 669 61501 -10377 0
0 0 0 696 62197 -9681 0
0 0 0 721 62918 -8960 0
0 0 0 757 63675 -8203 0
0 0 0 776 64451 -7427 0
0 0 0 775 65226 -6652 0
0 0 0 733 65959 -5919 0
0 0 0 731 66690 -5188 0
0 0 0 759 67449 -4429 0
0 0 0 765 68214 -3664 0
0 0 0 746 68960 -2918 0
0 0 0 706 69666 -2212 0
4 1 S106 670 70336 -1542 0
4 1 S106 643 70979 -899 0
4 1 S106 615 71594 -284 0
4 2 S106 608 72202 324 0
4 2 S106 627 72829 951 0
4 2 S106 669 73498 1620 0
4 2 S106 730 74228 2350 0
4 2 S106 783 75011 3133 0
4 2 S106 785 75796 3918 0
4 2 S106 738 76534 4656 0
4 2 S106 720 77254 5376 0
4 2 S106 725 77979 6101 0
4 2 S106 727 78706 6828 0
0 0 0 748 79454 -8919 0
0 0 0 754 80208 -8165 0
0 0 0 730 80938 -7435 0
0 0 0 731 81669 -6704 0
0 0 0 760 82429 -5944 0
0 0 0 783 83212 -5161 0
0 0 0 779 83991 -4382 0
0 0 0 742 84733 -3640 0
0 0 0 707 85440 -2933 0
0 0 0 716 86156 -2217 0
5 1 S116 722 86878 -1495 0
5 1 S116 742 87620 -753 0
5 1 S116 749 88369 -4 0
5 2 S116 741 89110 737 0
5 2 S116 719 89829 1456 0
5 2 S116 697 90526 2153 0
5 2 S116 698 91224 2851 0
5 2 S116 694 91918 3545 0
5 2 S116 719 92637 4264 0
5 2 S116 746 93383 5010 0
5 2 S116 741 94124 5751 0
5 2 S116 718 94842 6469 0
0 0 0 744 95586 -10509 0
0 0 0 760 96346 -9749 0
0 0 0 768 97114 -8981 0
0 0 0 778 97892 -8203 0
0 0 0 760 98652 -7443 0
0 0 0 741 99393 -6702 0
0 0 0 721 100114 -5981 0
0 0 0 716 100830 -5265 0
0 0 0 705 101535 -4560 0
0 0 0 672 102207 -3888 0
0 0 0 650 102857 -3238 0
0 0 0 660 103517 -2578 0
6 1 S106 681 104198 -1897 0
6 1 S106 735 104933 -1162 0
6 1 S106 791 105724 -371 0
6 2 S106 772 106496 401 0
6 2 S106 729 107225 1130 0
6 2 S106 687 107912 1817 0
6 2 S106 669 108581 2486 0
6 2 S106 655 109236 3141 0
6 2 S106 632 109868 3773 0
6 2 S106 617 110485 4390 0
6 2 S106 620 111105 5010 0
6 2 S106 635 111740 5645 0
6 2 S106 681 112421 6326 0
0 0 0 747 113168 -11412 0
0 0 0 772 113940 -10640 0
0 0 0 749 114689 -9891 0
0 0 0 727 115416 -9164 0
0 0 0 730 116146 -8434 0
0 0 0 732 116878 -7702 0
0 0 0 732 117610 -6970 0
0 0 0 729 118339 -6241 0
0 0 0 701 119040 -5540 0
0 0 0 699 119739 -4841 0
0 0 0 698 120437 -4143 0
0 0 0 708 121145 -3435 0
0 0 0 711 121856 -2724 0
0 0 0 704 122560 -2020 0
7 1 S102 691 123251 -1329 0
7 1 S102 704 123955 -625 0
7 2 S102 724 124679 99 0
7 2 S102 752 125431 851 0
7 2 S102 775 126206 1626 0
7 2 S102 778 126984 2404 0
7 2 S102 739 127723 3143 0
7 2 S102 702 128425 3845 0
7 2 S102 702 129127 4547 0
7 2 S102 696 129823 5243 0
7 2 S102 698 130521 5941 0
7 2 S102 709 131230 6650 0
0 0 0 718 131948 -10123 0
0 0 0 703 132651 -9420 0
0 0 0 712 133363 -8708 0
0 0 0 729 134092 -7979 0
0 0 0 756 134848 -7223 0
0 0 0 771 135619 -6452 0
0 0 0 717 136336 -5735 0
0 0 0 698 137034 -5037 0
0 0 0 702 137736 -4335 0
0 0 0 713 138449 -3622 0
0 0 0 724 139173 -2898 0
0 0 0 728 139901 -2170 0
8 1 S112 700 140601 -1470 0
8 1 S112 684 141285 -786 0
8 1 S112 707 141992 -79 0
8 2 S112 723 142715 644 0
8 2 S112 756 143471 1400 0
8 2 S112 743 144214 2143 0
8 2 S112 732 144946 2875 0
8 2 S112 706 145652 3581 0
8 2 S112 679 146331 4260 0
8 2 S112 650 146981 4910 0
8 2 S112 639 147620 5549 0
8 2 S112 637 148257 6186 0
8 2 S112 656 148913 6842 0
0 0 0 713 149626 -7299 0
0 0 0 733 150359 -6566 0
0 0 0 732 151091 -5834 0
0 0 0 778 151869 -5056 0
0 0 0 782 152651 -4274 0
0 0 0 791 153442 -3483 0
0 0 0 762 154204 -2721 0
9 1 S116 721 154925 -2000 0
9 1 S116 721 155646 -1279 0
9 1 S116 723 156369 -556 0
9 2 S116 734 157103 178 0
9 2 S116 748 157851 926 0
9 2 S116 743 158594 1669 0
9 2 S116 713 159307 2382 0
9 2 S116 729 160036 3111 0
9 2 S116 739 160775 3850 0
9 2 S116 765 161540 4615 0
9 2 S116 777 162317 5392 0
9 2 S116 747 163064 6139 0
9 2 S116 734 163798 6873 0
0 0 0 756 164554 -11784 0
0 0 0 785 165339 -10999 0
0 0 0 808 166147 -10191 0
0 0 0 791 166938 -9400 0
0 0 0 745 167683 -8655 0
0 0 0 734 168417 -7921 0
0 0 0 717 169134 -7204 0
0 0 0 718 169852 -6486 0
0 0 0 694 170546 -5792 0
0 0 0 685 171231 -5107 0
0 0 0 702 171933 -4405 0
0 0 0 736 172669 -3669 0
0 0 0 772 173441 -2897 0
0 0 0 798 174239 -2099 0
10 1 S102 806 175045 -1293 0
10 1 S102 769 175814 -524 0
10 2 S102 724 176538 200 0
10 2 S102 704 177242 904 0
10 2 S102 682 177924 1586 0
10 2 S102 685 178609 2271 0
10 2 S102 709 179318 2980 0
10 2 S102 723 180041 3703 0
10 2 S102 711 180752 4414 0
10 2 S102 694 181446 5108 0
10 2 S102 669 182115 5777 0
10 2 S102 670 182785 6447 0
0 0 0 739 183524 -11879 0
0 0 0 783 184307 -11096 0
0 0 0 731 185038 -10365 0
0 0 0 743 185781 -9622 0
0 0 0 765 186546 -8857 0
0 0 0 739 187285 -8118 0
0 0 0 705 187990 -7413 0
0 0 0 674 188664 -6739 0
0 0 0 654 189318 -6085 0
0 0 0 654 189972 -5431 0
0 0 0 663 190635 -4768 0
0 0 0 691 191326 -4077 0
0 0 0 701 192027 -3376 0
0 0 0 696 192723 -2680 0
0 0 0 678 193401 -2002 0
11 1 S112 659 194060 -1343 0
11 1 S112 662 194722 -681 0
11 2 S112 682 195404 1 0
11 2 S112 715 196119 716 0
11 2 S112 762 196881 1478 0
11 2 S112 798 197679 2276 0
11 2 S112 784 198463 3060 0
11 2 S112 755 199218 3815 0
11 2 S112 755 199973 4570 0
11 2 S112 752 200725 5322 0
11 2 S112 746 201471 6068 0
11 2 S112 712 202183 6780 0
0 0 0 694 202877 -6734 0
0 0 0 703 203580 -6031 0
0 0 0 729 204309 -5302 0
0 0 0 754 205063 -4548 0
0 0 0 729 205792 -3819 0
0 0 0 704 206496 -3115 0
0 0 0 709 207205 -2406 0
12 1 S116 725 207930 -1681 0
12 1 S116 767 208697 -914 0
12 1 S116 796 209493 -118 0
12 2 S116 796 210289 678 0
12 2 S116 750 211039 1428 0
12 2 S116 731 211770 2159 0
12 2 S116 735 212505 2894 0
12 2 S116 738 213243 3632 0
12 2 S116 764 214007 4396 0
12 2 S116 747 214754 5143 0
12 2 S116 737 215491 5880 0
12 2 S116 760 216251 6640 0
0 0 0 767 217018 -11691 0
0 0 0 788 217806 -10903 0
0 0 0 751 218557 -10152 0
0 0 0 740 219297 -9412 0
0 0 0 758 220055 -8654 0
0 0 0 754 220809 -7900 0
0 0 0 769 221578 -7131 0
0 0 0 729 222307 -6402 0
0 0 0 726 223033 -5676 0
0 0 0 719 223752 -4957 0
0 0 0 720 224472 -4237 0
0 0 0 718 225190 -3519 0
0 0 0 695 225885 -2824 0
0 0 0 678 226563 -2146 0
13 1 S112 685 227248 -1461 0
13 1 S112 711 227959 -750 0
13 2 S112 761 228720 11 0
13 2 S112 785 229505 796 0
13 2 S112 797 230302 1593 0
13 2 S112 769 231071 2362 0
13 2 S112 720 231791 3082 0
13 2 S112 727 232518 3809 0
13 2 S112 717 233235 4526 0
13 2 S112 727 233962 5253 0
13 2 S112 730 234692 5983 0
13 2 S112 733 235425 6716 0
0 0 0 703 236128 -10403 0
0 0 0 722 236850 -9681 0
0 0 0 760 237610 -8921 0
0 0 0 789 238399 -8132 0
0 0 0 770 239169 -7362 0
0 0 0 726 239895 -6636 0
0 0 0 699 240594 -5937 0
0 0 0 697 241291 -5240 0
0 0 0 694 241985 -4546 0
0 0 0 713 242698 -3833 0
0 0 0 752 243450 -3081 0
0 0 0 769 244219 -2312 0
14 1 S106 744 244963 -1568 0
14 1 S106 753 245716 -815 0
14 1 S106 758 246474 -57 0
14 2 S106 774 247248 717 0
14 2 S106 785 248033 1502 0
14 2 S106 758 248791 2260 0
14 2 S106 719 249510 2979 0
14 2 S106 719 250229 3698 0
14 2 S106 730 250959 4428 0
14 2 S106 756 251715 5184 0
14 2 S106 791 252506 5975 0
14 2 S106 784 253290 6759 0
0 0 0 748 254038 -10878 0
0 0 0 767 254805 -10111 0
0 0 0 774 255579 -9337 0
0 0 0 765 256344 -8572 0
0 0 0 739 257083 -7833 0
0 0 0 704 257787 -7129 0
0 0 0 692 258479 -6437 0
0 0 0 695 259174 -5742 0
0 0 0 705 259879 -5037 0
0 0 0 719 260598 -4318 0
0 0 0 728 261326 -3590 0
0 0 0 720 262046 -2870 0
0 0 0 697 262743 -2173 0
15 1 S116 677 263420 -1496 0
15 1 S116 648 264068 -848 0
15 1 S116 639 264707 -209 0
15 2 S116 675 265382 466 0
15 2 S116 719 266101 1185 0
15 2 S116 756 266857 1941 0
15 2 S116 781 267638 2722 0
15 2 S116 797 268435 3519 0
15 2 S116 787 269222 4306 0
15 2 S116 737 269959 5043 0
15 2 S116 726 270685 5769 0
15 2 S116 701 271386 6470 0
0 0 0 667 272053 -9740 0
0 0 0 636 272689 -9104 0
0 0 0 622 273311 -8482 0
0 0 0 632 273943 -7850 0
0 0 0 638 274581 -7212 0
0 0 0 668 275249 -6544 0
0 0 0 694 275943 -5850 0
0 0 0 718 276661 -5132 0
0 0 0 745 277406 -4387 0
0 0 0 718 278124 -3669 0
0 0 0 686 278810 -2983 0
0 0 0 685 279495 -2298 0
16 1 S116 667 280162 -1631 0
16 1 S116 642 280804 -989 0
16 1 S116 630 281434 -359 0
16 2 S116 640 282074 281 0
16 2 S116 647 282721 928 0
16 2 S116 650 283371 1578 0
16 2 S116 658 284029 2236 0
16 2 S116 702 284731 2938 0
16 2 S116 755 285486 3693 0
16 2 S116 820 286306 4513 0
16 2 S116 840 287146 5353 0
16 2 S116 820 287966 6173 0
16 2 S116 770 288736 6943 0
0 0 0 721 289457 -9495 0
0 0 0 723 290180 -8772 0
0 0 0 736 290916 -8036 0
0 0 0 786 291702 -7250 0
0 0 0 792 292494 -6458 0
0 0 0 739 293233 -5719 0
0 0 0 751 293984 -4968 0
0 0 0 781 294765 -4187 0
0 0 0 831 295596 -3356 0
0 0 0 818 296414 -2538 0
17 1 S106 786 297200 -1752 0
17 1 S106 783 297983 -969 0
17 1 S106 784 298767 -185 0
17 2 S106 779 299546 594 0
17 2 S106 784 300330 1378 0
17 2 S106 749 301079 2127 0
17 2 S106 745 301824 2872 0
17 2 S106 783 302607 3655 0
17 2 S106 809 303416 4464 0
17 2 S106 810 304226 5274 0
17 2 S106 763 304989 6037 0
17 2 S106 754 305743 6791 0
0 0 0 758 306501 -11848 0
0 0 0 773 307274 -11075 0
0 0 0 798 308072 -10277 0
0 0 0 776 308848 -9501 0
0 0 0 782 309630 -8719 0
0 0 0 764 310394 -7955 0
0 0 0 786 311180 -7169 0
0 0 0 764 311944 -6405 0
0 0 0 760 312704 -5645 0
0 0 0 770 313474 -4875 0
0 0 0 774 314248 -4101 0
0 0 0 773 315021 -3328 0
0 0 0 742 315763 -2586 0
18 1 S102 737 316500 -1849 0
18 1 S102 748 317248 -1101 0
18 1 S102 757 318005 -344 0
18 2 S102 740 318745 396 0
18 2 S102 710 319455 1106 0
18 2 S102 694 320149 1800 0
18 2 S102 717 320866 2517 0
18 2 S102 749 321615 3266 0
18 2 S102 785 322400 4051 0
18 2 S102 769 323169 4820 0
18 2 S102 724 323893 5544 0
18 2 S102 688 324581 6232 0
18 2 S102 677 325258 6909 0
0 0 0 677 325935 -7964 0
0 0 0 670 326605 -7294 0
0 0 0 654 327259 -6640 0
0 0 0 651 327910 -5989 0
0 0 0 695 328605 -5294 0
0 0 0 701 329306 -4593 0
0 0 0 671 329977 -3922 0
0 0 0 663 330640 -3259 0
0 0 0 684 331324 -2575 0
19 1 S106 686 332010 -1889 0
19 1 S106 712 332722 -1177 0
19 1 S106 766 333488 -411 0
19 2 S106 793 334281 382 0
19 2 S106 764 335045 1146 0
19 2 S106 744 335789 1890 0
19 2 S106 759 336548 2649 0
19 2 S106 777 337325 3426 0
19 2 S106 799 338124 4225 0
19 2 S106 771 338895 4996 0
19 2 S106 744 339639 5740 0
19 2 S106 760 340399 6500 0
0 0 0 752 341151 -12377 0
0 0 0 762 341913 -11615 0
0 0 0 730 342643 -10885 0
0 0 0 686 343329 -10199 0
0 0 0 665 343994 -9534 0
0 0 0 678 344672 -8856 0
0 0 0 694 345366 -8162 0
0 0 0 715 346081 -7447 0
0 0 0 729 346810 -6718 0
0 0 0 714 347524 -6004 0
0 0 0 685 348209 -5319 0
0 0 0 693 348902 -4626 0
0 0 0 696 349598 -3930 0
0 0 0 716 350314 -3214 0
0 0 0 743 351057 -2471 0
20 1 S112 764 351821 -1707 0
20 1 S112 771 352592 -936 0
20 1 S112 740 353332 -196 0
20 2 S112 710 354042 514 0
20 2 S112 709 354751 1223 0
20 2 S112 720 355471 1943 0
20 2 S112 751 356222 2694 0
20 2 S112 777 356999 3471 0
20 2 S112 755 357754 4226 0
20 2 S112 723 358477 4949 0
20 2 S112 755 359232 5704 0
20 2 S112 767 359999 6471 0
0 0 0 788 360787 -9203 0
0 0 0 774 361561 -8429 0
0 0 0 722 362283 -7707 0
0 0 0 708 362991 -6999 0
0 0 0 704 363695 -6295 0
0 0 0 713 364408 -5582 0
0 0 0 717 365125 -4865 0
0 0 0 703 365828 -4162 0
0 0 0 671 366499 -3491 0
0 0 0 658 367157 -2833 0
0 0 0 644 367801 -2189 0
21 1 S106 632 368433 -1557 0
21 1 S106 661 369094 -896 0
21 1 S106 702 369796 -194 0
21 2 S106 758 370554 564 0
21 2 S106 814 371368 1378 0
21 2 S106 837 372205 2215 0
21 2 S106 790 372995 3005 0
21 2 S106 759 373754 3764 0
21 2 S106 754 374508 4518 0
21 2 S106 750 375258 5268 0
21 2 S106 748 376006 6016 0
21 2 S106 733 376739 6749 0
0 0 0 714 377453 -12249 0
0 0 0 741 378194 -11508 0
0 0 0 776 378970 -10732 0
0 0 0 833 379803 -9899 0
0 0 0 834 380637 -9065 0
0 0 0 771 381408 -8294 0
0 0 0 768 382176 -7526 0
0 0 0 761 382937 -6765 0
0 0 0 761 383698 -6004 0
0 0 0 724 384422 -5280 0
0 0 0 699 385121 -4581 0
0 0 0 713 385834 -3868 0
0 0 0 732 386566 -3136 0
0 0 0 788 387354 -2348 0
22 1 S116 810 388164 -1538 0
22 1 S116 787 388951 -751 0
22 2 S116 820 389771 69 0
22 2 S116 815 390586 884 0
22 2 S116 812 391398 1696 0
22 2 S116 792 392190 2488 0
22 2 S116 747 392937 3235 0
22 2 S116 754 393691 3989 0
22 2 S116 759 394450 4748 0
22 2 S116 779 395229 5527 0
22 2 S116 794 396023 6321 0
0 0 0 765 396788 -10603 0
0 0 0 753 397541 -9850 0
0 0 0 776 398317 -9074 0
0 0 0 799 399116 -8275 0
0 0 0 811 399927 -7464 0
0 0 0 775 400702 -6689 0
0 0 0 754 401456 -5935 0
0 0 0 741 402197 -5194 0
0 0 0 726 402923 -4468 0
0 0 0 694 403617 -3774 0
0 0 0 684 404301 -3090 0
0 0 0 701 405002 -2389 0
23 1 S112 727 405729 -1662 0
23 1 S112 757 406486 -905 0
23 1 S112 700 407186 -205 0
23 2 S112 685 407871 480 0
23 2 S112 688 408559 1168 0
23 2 S112 675 409234 1843 0
23 2 S112 693 409927 2536 0
23 2 S112 703 410630 3239 0
23 2 S112 718 411348 3957 0
23 2 S112 701 412049 4658 0
23 2 S112 665 412714 5323 0
23 2 S112 659 413373 5982 0
23 2 S112 674 414047 6656 0
0 0 0 709 414756 -9114 0
0 0 0 755 415511 -8359 0
0 0 0 757 416268 -7602 0
0 0 0 739 417007 -6863 0
0 0 0 769 417776 -6094 0
0 0 0 802 418578 -5292 0
0 0 0 805 419383 -4487 0
0 0 0 778 420161 -3709 0
0 0 0 731 420892 -2978 0
0 0 0 704 421596 -2274 0
24 1 S106 689 422285 -1585 0
24 1 S106 703 422988 -882 0
24 1 S106 734 423722 -148 0
24 2 S106 808 424530 660 0
24 2 S106 823 425353 1483 0
24 2 S106 813 426166 2296 0
24 2 S106 761 426927 3057 0
24 2 S106 730 427657 3787 0
24 2 S106 717 428374 4504 0
24 2 S106 690 429064 5194 0
24 2 S106 666 429730 5860 0
24 2 S106 656 430386 6516 0
0 0 0 648 431034 -9464 0
0 0 0 678 431712 -8786 0
0 0 0 717 432429 -8069 0
0 0 0 774 433203 -7295 0
0 0 0 794 433997 -6501 0
0 0 0 744 434741 -5757 0
0 0 0 708 435449 -5049 0
0 0 0 702 436151 -4347 0
0 0 0 697 436848 -3650 0
0 0 0 681 437529 -2969 0
0 0 0 671 438200 -2298 0
25 1 S102 672 438872 -1626 0
25 1 S102 669 439541 -957 0
25 1 S102 675 440216 -282 0
25 2 S102 707 440923 425 0
25 2 S102 719 441642 1144 0
25 2 S102 778 442420 1922 0
25 2 S102 790 443210 2712 0
25 2 S102 724 443934 3436 0
25 2 S102 686 444620 4122 0
25 2 S102 665 445285 4787 0
25 2 S102 673 445958 5460 0
25 2 S102 671 446629 6131 0
25 2 S102 665 447294 6796 0
0 0 0 680 447974 -7909 0
0 0 0 721 448695 -7188 0
0 0 0 785 449480 -6403 0
0 0 0 865 450345 -5538 1
0 0 0 840 451185 -4698 0
0 0 0 773 451958 -3925 0
0 0 0 774 452732 -3151 0
0 0 0 765 453497 -2386 0
26 1 S116 755 454252 -1631 0
26 1 S116 728 454980 -903 0
26 1 S116 699 455679 -204 0
26 2 S116 673 456352 469 0
26 2 S116 664 457016 1133 0
26 2 S116 683 457699 1816 0
26 2 S116 746 458445 2562 0
26 2 S116 836 459281 3398 0
26 2 S116 839 460120 4237 0
26 2 S116 823 460943 5060 0
26 2 S116 847 461790 5907 0
26 2 S116 850 462640 6757 0
0 0 0 839 463479 -7242 0
0 0 0 779 464258 -6463 0
0 0 0 770 465028 -5693 0
0 0 0 760 465788 -4933 0
0 0 0 751 466539 -4182 0
0 0 0 750 467289 -3432 0
0 0 0 743 468032 -2689 0
27 1 S106 727 468759 -1962 0
27 1 S106 746 469505 -1216 0
27 1 S106 797 470302 -419 0
27 2 S106 836 471138 417 0
27 2 S106 820 471958 1237 0
27 2 S106 780 472738 2017 0
27 2 S106 779 473517 2796 0
27 2 S106 776 474293 3572 0
27 2 S106 782 475075 4354 0
27 2 S106 792 475867 5146 0
27 2 S106 752 476619 5898 0
27 2 S106 749 477368 6647 0
0 0 0 765 478133 -7806 0
0 0 0 767 478900 -7039 0
0 0 0 778 479678 -6261 0
0 0 0 775 480453 -5486 0
0 0 0 810 481263 -4676 0
0 0 0 789 482052 -3887 0
0 0 0 747 482799 -3140 0
0 0 0 721 483520 -2419 0
28 1 S102 687 484207 -1732 0
28 1 S102 666 484873 -1066 0
28 1 S102 643 485516 -423 0
28 2 S102 632 486148 209 0
28 2 S102 673 486821 882 0
28 2 S102 720 487541 1602 0
28 2 S102 802 488343 2404 0
28 2 S102 847 489190 3251 0
28 2 S102 825 490015 4076 0
28 2 S102 780 490795 4856 0
28 2 S102 767 491562 5623 0
28 2 S102 742 492304 6365 0
0 0 0 738 493042 -12377 0
0 0 0 739 493781 -11638 0
0 0 0 724 494505 -10914 0
0 0 0 763 495268 -10151 0
0 0 0 817 496085 -9334 0
0 0 0 847 496932 -8487 0
0 0 0 782 497714 -7705 0
0 0 0 771 498485 -6934 0
0 0 0 776 499261 -6158 0
0 0 0 795 500056 -5363 0
0 0 0 801 500857 -4562 0
0 0 0 774 501631 -3788 0
0 0 0 773 502404 -3015 0
0 0 0 758 503162 -2257 0
29 1 S112 756 503918 -1501 0
29 1 S112 739 504657 -762 0
29 1 S112 712 505369 -50 0
29 2 S112 733 506102 683 0
29 2 S112 752 506854 1435 0
29 2 S112 792 507646 2227 0
29 2 S112 793 508439 3020 0
29 2 S112 735 509174 3755 0
29 2 S112 703 509877 4458 0
29 2 S112 697 510574 5155 0
29 2 S112 704 511278 5859 0
29 2 S112 735 512013 6594 0
0 0 0 750 512763 -7875 0
0 0 0 731 513494 -7144 0
0 0 0 728 514222 -6416 0
0 0 0 758 514980 -5658 0
0 0 0 787 515767 -4871 0
0 0 0 783 516550 -4088 0
0 0 0 740 517290 -3348 0
0 0 0 733 518023 -2615 0
30 1 S112 738 518761 -1877 0
30 1 S112 742 519503 -1135 0
30 1 S112 749 520252 -386 0
30 2 S112 737 520989 351 0
30 2 S112 758 521747 1109 0
30 2 S112 777 522524 1886 0
30 2 S112 812 523336 2698 0
30 2 S112 779 524115 3477 0
30 2 S112 755 524870 4232 0
30 2 S112 774 525644 5006 0
30 2 S112 787 526431 5793 0
30 2 S112 813 527244 6606 0
0 0 0 799 528043 -9704 0
0 0 0 778 528821 -8926 0
0 0 0 773 529594 -8153 0
0 0 0 775 530369 -7378 0
0 0 0 748 531117 -6630 0
0 0 0 719 531836 -5911 0
0 0 0 724 532560 -5187 0
0 0 0 721 533281 -4466 0
0 0 0 750 534031 -3716 0
0 0 0 734 534765 -2982 0
0 0 0 721 535486 -2261 0
31 1 S106 742 536228 -1519 0
31 1 S106 754 536982 -765 0
31 2 S106 770 537752 5 0
31 2 S106 775 538527 780 0
31 2 S106 734 539261 1514 0
31 2 S106 725 539986 2239 0
31 2 S106 725 540711 2964 0
31 2 S106 732 541443 3696 0
31 2 S106 732 542175 4428 0
31 2 S106 716 542891 5144 0
31 2 S106 717 543608 5861 0
31 2 S106 744 544352 6605 0
0 0 0 757 545109 -10327 0
0 0 0 775 545884 -9552 0
0 0 0 770 546654 -8782 0
0 0 0 743 547397 -8039 0
0 0 0 778 548175 -7261 0
0 0 0 767 548942 -6494 0
0 0 0 735 549677 -5759 0
0 0 0 737 550414 -5022 0
0 0 0 746 551160 -4276 0
0 0 0 747 551907 -3529 0
0 0 0 736 552643 -2793 0
0 0 0 750 553393 -2043 0
32 1 S102 761 554154 -1282 0
32 1 S102 738 554892 -544 0
32 2 S102 730 555622 186 0
32 2 S102 713 556335 899 0
32 2 S102 684 557019 1583 0
32 2 S102 662 557681 2245 0
32 2 S102 653 558334 2898 0
32 2 S102 633 558967 3531 0
32 2 S102 638 559605 4169 0
32 2 S102 661 560266 4830 0
32 2 S102 650 560916 5480 0
32 2 S102 674 561590 6154 0
32 2 S102 721 562311 6875 0
0 0 0 748 563059 -11890 0
0 0 0 797 563856 -11093 0
0 0 0 792 564648 -10301 0
0 0 0 779 565427 -9522 0
0 0 0 794 566221 -8728 0
0 0 0 744 566965 -7984 0
0 0 0 700 567665 -7284 0
0 0 0 669 568334 -6615 0
0 0 0 664 568998 -5951 0
0 0 0 646 569644 -5305 0
0 0 0 625 570269 -4680 0
0 0 0 611 570880 -4069 0
0 0 0 608 571488 -3461 0
0 0 0 601 572089 -2860 0
0 0 0 603 572692 -2257 0
33 1 S112 633 573325 -1624 0
33 1 S112 646 573971 -978 0
33 1 S112 636 574607 -342 0
33 2 S112 632 575239 290 0
33 2 S112 633 575872 923 0
33 2 S112 669 576541 1592 0
33 2 S112 708 577249 2300 0
33 2 S112 757 578006 3057 0
33 2 S112 854 578860 3911 0
33 2 S112 896 579756 4807 1
33 2 S112 951 580707 5758 1
33 2 S112 932 581639 6690 1
0 0 0 857 582496 -10789 0
0 0 0 755 583251 -10034 0
0 0 0 718 583969 -9316 0
0 0 0 720 584689 -8596 0
0 0 0 741 585430 -7855 0
0 0 0 776 586206 -7079 0
0 0 0 798 587004 -6281 0
0 0 0 759 587763 -5522 0
0 0 0 747 588510 -4775 0
0 0 0 779 589289 -3996 0
0 0 0 827 590116 -3169 0
0 0 0 860 590976 -2309 0
34 1 S106 820 591796 -1489 0
34 1 S106 787 592583 -702 0
34 2 S106 783 593366 81 0
34 2 S106 784 594150 865 0
34 2 S106 785 594935 1650 0
34 2 S106 764 595699 2414 0
34 2 S106 754 596453 3168 0
34 2 S106 780 597233 3948 0
34 2 S106 795 598028 4743 0
34 2 S106 811 598839 5554 0
34 2 S106 775 599614 6329 0
0 0 0 750 600364 -10510 0
0 0 0 772 601136 -9738 0
0 0 0 792 601928 -8946 0
0 0 0 781 602709 -8165 0
0 0 0 821 603530 -7344 0
0 0 0 820 604350 -6524 0
0 0 0 782 605132 -5742 0
0 0 0 736 605868 -5006 0
0 0 0 725 606593 -4281 0
0 0 0 724 607317 -3557 0
0 0 0 716 608033 -2841 0
0 0 0 714 608747 -2127 0
35 1 S102 713 609460 -1414 0
35 1 S102 698 610158 -716 0
35 1 S102 676 610834 -40 0
35 2 S102 686 611520 646 0
35 2 S102 698 612218 1344 0
35 2 S102 699 612917 2043 0
35 2 S102 708 613625 2751 0
35 2 S102 686 614311 3437 0
35 2 S102 651 614962 4088 0
35 2 S102 632 615594 4720 0
35 2 S102 646 616240 5366 0
35 2 S102 660 616900 6026 0
35 2 S102 699 617599 6725 0
0 0 0 750 618349 -7711 0
0 0 0 778 619127 -6933 0
0 0 0 746 619873 -6187 0
0 0 0 736 620609 -5451 0
0 0 0 747 621356 -4704 0
0 0 0 733 622089 -3971 0
0 0 0 728 622817 -3243 0
0 0 0 699 623516 -2544 0
36 1 S106 681 624197 -1863 0
36 1 S106 691 624888 -1172 0
36 1 S106 709 625597 -463 0
36 2 S106 766 626363 303 0
36 2 S106 835 627198 1138 0
36 2 S106 812 628010 1950 0
36 2 S106 832 628842 2782 0
36 2 S106 852 629694 3634 0
36 2 S106 850 630544 4484 0
36 2 S106 789 631333 5273 0
36 2 S106 754 632087 6027 0
36 2 S106 748 632835 6775 0
0 0 0 752 633587 -10411 0
0 0 0 779 634366 -9632 0
0 0 0 757 635123 -8875 0
0 0 0 751 635874 -8124 0
0 0 0 813 636687 -7311 0
0 0 0 851 637538 -6460 0
0 0 0 817 638355 -5643 0
0 0 0 749 639104 -4894 0
0 0 0 708 639812 -4186 0
0 0 0 708 640520 -3478 0
0 0 0 723 641243 -2755 0
0 0 0 735 641978 -2020 0
37 1 S116 767 642745 -1253 0
37 1 S116 768 643513 -485 0
37 2 S116 755 644268 270 0
37 2 S116 738 645006 1008 0
37 2 S116 770 645776 1778 0
37 2 S116 792 646568 2570 0
37 2 S116 812 647380 3382 0
37 2 S116 784 648164 4166 0
37 2 S116 756 648920 4922 0
37 2 S116 774 649694 5696 0
37 2 S116 791 650485 6487 0
0 0 0 809 651294 -12581 0
0 0 0 812 652106 -11769 0
0 0 0 773 652879 -10996 0
0 0 0 760 653639 -10236 0
0 0 0 782 654421 -9454 0
0 0 0 806 655227 -8648 0
0 0 0 789 656016 -7859 0
0 0 0 749 656765 -7110 0
0 0 0 758 657523 -6352 0
0 0 0 765 658288 -5587 0
0 0 0 765 659053 -4822 0
0 0 0 761 659814 -4061 0
0 0 0 727 660541 -3334 0
0 0 0 724 661265 -2610 0
38 1 S102 734 661999 -1876 0
38 1 S102 754 662753 -1122 0
38 1 S102 763 663516 -359 0
38 2 S102 734 664250 375 0
38 2 S102 700 664950 1075 0
38 2 S102 702 665652 1777 0
38 2 S102 709 666361 2486 0
38 2 S102 723 667084 3209 0
38 2 S102 752 667836 3961 0
38 2 S102 767 668603 4728 0
38 2 S102 740 669343 5468 0
38 2 S102 735 670078 6203 0
38 2 S102 742 670820 6945 0
0 0 0 758 671578 -9705 0
0 0 0 778 672356 -8927 0
0 0 0 770 673126 -8157 0
0 0 0 740 673866 -7417 0
0 0 0 755 674621 -6662 0
0 0 0 731 675352 -5931 0
0 0 0 745 676097 -5186 0
0 0 0 722 676819 -4464 0
0 0 0 686 677505 -3778 0
0 0 0 674 678179 -3104 0
0 0 0 646 678825 -2458 0
39 1 S116 636 679461 -1822 0
39 1 S116 637 680098 -1185 0
39 1 S116 657 680755 -528 0
39 2 S116 704 681459 176 0
39 2 S116 758 682217 934 0
39 2 S116 821 683038 1755 0
39 2 S116 832 683870 2587 0
39 2 S116 778 684648 3365 0
39 2 S116 748 685396 4113 0
39 2 S116 751 686147 4864 0
39 2 S116 753 686900 5617 0
39 2 S116 755 687655 6372 0
0 0 0 768 688423 -7531 0
0 0 0 745 689168 -6786 0
0 0 0 747 689915 -6039 0
0 0 0 794 690709 -5245 0
0 0 0 819 691528 -4426 0
0 0 0 808 692336 -3618 0
0 0 0 768 693104 -2850 0
0 0 0 721 693825 -2129 0
40 1 S112 711 694536 -1418 0
40 1 S112 710 695246 -708 0
40 2 S112 718 695964 10 0
40 2 S112 733 696697 743 0
40 2 S112 726 697423 1469 0
40 2 S112 731 698154 2200 0
40 2 S112 783 698937 2983 0
40 2 S112 806 699743 3789 0
40 2 S112 791 700534 4580 0
40 2 S112 736 701270 5316 0
40 2 S112 696 701966 6012 0
40 2 S112 675 702641 6687 0
0 0 0 643 703284 -188461 0
0 0 0 625 703909 -187836 0
0 0 0 628 704537 -187208 0
0 0 0 657 705194 -186551 0
0 0 0 724 705918 -185827 0
0 0 0 802 706720 -185025 0
0 0 0 849 707569 -184176 0
0 0 0 800 708369 -183376 0
0 0 0 754 709123 -182622 0
0 0 0 733 709856 -181889 0
0 0 0 698 710554 -181191 0
0 0 0 668 711222 -180523 0
0 0 0 756 711978 -179767 0
0 0 0 743 712721 -179024 0
0 0 0 729 713450 -178295 0
0 0 0 697 714147 -177598 0
0 0 0 678 714825 -176920 0
0 0 0 655 715480 -176265 0
0 0 0 634 716114 -175631 0
0 0 0 613 716727 -175018 0
0 0 0 595 717322 -174423 0
0 0 0 593 717915 -173830 0
0 0 0 589 718504 -173241 0
0 0 0 604 719108 -172637 0
0 0 0 623 719731 -172014 0
0 0 0 667 720398 -171347 0
0 0 0 673 721071 -170674 0
0 0 0 644 721715 -170030 0
0 0 0 635 722350 -169395 0
0 0 0 624 722974 -168771 0
0 0 0 631 723605 -168140 0
0 0 0 790 724395 -167350 0
0 0 0 971 725366 -166379 1
0 0 0 919 726285 -165460 1
0 0 0 868 727153 -164592 1
0 0 0 790 727943 -163802 0
0 0 0 726 728669 -163076 0
0 0 0 686 729355 -162390 0
0 0 0 645 730000 -161745 0
0 0 0 617 730617 -161128 0
0 0 0 614 731231 -160514 0
0 0 0 606 731837 -159908 0
0 0 0 594 732431 -159314 0
0 0 0 622 733053 -158692 0
0 0 0 680 733733 -158012 0
0 0 0 680 734413 -157332 0
0 0 0 673 735086 -156659 0
0 0 0 650 735736 -156009 0
0 0 0 625 736361 -155384 0
0 0 0 620 736981 -154764 0
0 0 0 654 737635 -154110 0
0 0 0 650 738285 -153460 0
0 0 0 686 738971 -152774 0
0 0 0 761 739732 -152013 0
0 0 0 804 740536 -151209 0
0 0 0 812 741348 -150397 0
0 0 0 802 742150 -149595 0
0 0 0 760 742910 -148835 0
0 0 0 717 743627 -148118 0
0 0 0 696 744323 -147422 0
0 0 0 669 744992 -146753 0
0 0 0 648 745640 -146105 0
0 0 0 637 746277 -145468 0
0 0 0 629 746906 -144839 0
0 0 0 613 747519 -144226 0
0 0 0 610 748129 -143616 0
0 0 0 648 748777 -142968 0
0 0 0 723 749500 -142245 0
0 0 0 710 750210 -141535 0
0 0 0 698 750908 -140837 0
0 0 0 704 751612 -140133 0
0 0 0 749 752361 -139384 0
0 0 0 804 753165 -138580 0
0 0 0 849 754014 -137731 0
0 0 0 806 754820 -136925 0
0 0 0 740 755560 -136185 0
0 0 0 691 756251 -135494 0
0 0 0 684 756935 -134810 0
0 0 0 692 757627 -134118 0
0 0 0 647 758274 -133471 0
0 0 0 623 758897 -132848 0
0 0 0 659 759556 -132189 0
0 0 0 648 760204 -131541 0
0 0 0 641 760845 -130900 0
0 0 0 635 761480 -130265 0
0 0 0 637 762117 -129628 0
0 0 0 630 762747 -128998 0
0 0 0 624 763371 -128374 0
0 0 0 618 763989 -127756 0
0 0 0 601 764590 -127155 0
0 0 0 608 765198 -126547 0
0 0 0 639 765837 -125908 0
0 0 0 703 766540 -125205 0
0 0 0 760 767300 -124445 0
0 0 0 742 768042 -123703 0
0 0 0 713 768755 -122990 0
0 0 0 687 769442 -122303 0
0 0 0 695 770137 -121608 0
0 0 0 692 770829 -120916 0
0 0 0 691 771520 -120225 0
0 0 0 716 772236 -119509 0
0 0 0 744 772980 -118765 0
0 0 0 767 773747 -117998 0
0 0 0 799 774546 -117199 0
0 0 0 799 775345 -116400 0
0 0 0 769 776114 -115631 0
0 0 0 764 776878 -114867 0
0 0 0 758 777636 -114109 0
0 0 0 767 778403 -113342 0
0 0 0 765 779168 -112577 0
0 0 0 737 779905 -111840 0
0 0 0 732 780637 -111108 0
0 0 0 749 781386 -110359 0
0 0 0 758 782144 -109601 0
0 0 0 767 782911 -108834 0
0 0 0 735 783646 -108099 0
0 0 0 697 784343 -107402 0
0 0 0 667 785010 -106735 0
0 0 0 656 785666 -106079 0
0 0 0 628 786294 -105451 0
0 0 0 639 786933 -104812 0
0 0 0 642 787575 -104170 0
0 0 0 647 788222 -103523 0
0 0 0 647 788869 -102876 0
0 0 0 635 789504 -102241 0
0 0 0 613 790117 -101628 0
0 0 0 619 790736 -101009 0
0 0 0 654 791390 -100355 0
0 0 0 706 792096 -99649 0
0 0 0 773 792869 -98876 0
0 0 0 823 793692 -98053 0
0 0 0 834 794526 -97219 0
0 0 0 824 795350 -96395 0
0 0 0 799 796149 -95596 0
0 0 0 788 796937 -94808 0
0 0 0 762 797699 -94046 0
0 0 0 734 798433 -93312 0
0 0 0 716 799149 -92596 0
0 0 0 721 799870 -91875 0
0 0 0 733 800603 -91142 0
0 0 0 762 801365 -90380 0
0 0 0 782 802147 -89598 0
0 0 0 782 802929 -88816 0
0 0 0 791 803720 -88025 0
0 0 0 837 804557 -87188 0
0 0 0 866 805423 -86322 1
0 0 0 872 806295 -85450 1
0 0 0 833 807128 -84617 0
0 0 0 759 807887 -83858 0
0 0 0 705 808592 -83153 0
0 0 0 694 809286 -82459 0
0 0 0 676 809962 -81783 0
0 0 0 670 810632 -81113 0
0 0 0 675 811307 -80438 0
0 0 0 644 811951 -79794 0
0 0 0 638 812589 -79156 0
0 0 0 654 813243 -78502 0
0 0 0 659 813902 -77843 0
0 0 0 692 814594 -77151 0
0 0 0 712 815306 -76439 0
0 0 0 747 816053 -75692 0
0 0 0 789 816842 -74903 0
0 0 0 777 817619 -74126 0
0 0 0 710 818329 -73416 0
0 0 0 676 819005 -72740 0
0 0 0 641 819646 -72099 0
0 0 0 693 820339 -71406 0
0 0 0 720 821059 -70686 0
0 0 0 686 821745 -70000 0
0 0 0 675 822420 -69325 0
0 0 0 667 823087 -68658 0
0 0 0 663 823750 -67995 0
0 0 0 661 824411 -67334 0
0 0 0 663 825074 -66671 0
0 0 0 670 825744 -66001 0
0 0 0 677 826421 -65324 0
0 0 0 659 827080 -64665 0
0 0 0 700 827780 -63965 0
0 0 0 737 828517 -63228 0
0 0 0 803 829320 -62425 0
0 0 0 816 830136 -61609 0
0 0 0 836 830972 -60773 0
0 0 0 813 831785 -59960 0
0 0 0 765 832550 -59195 0
0 0 0 706 833256 -58489 0
0 0 0 699 833955 -57790 0
0 0 0 664 834619 -57126 0
0 0 0 632 835251 -56494 0
0 0 0 615 835866 -55879 0
0 0 0 616 836482 -55263 0
0 0 0 608 837090 -54655 0
0 0 0 630 837720 -54025 0
0 0 0 635 838355 -53390 0
0 0 0 734 839089 -52656 0
0 0 0 836 839925 -51820 0
0 0 0 871 840796 -50949 1
0 0 0 884 841680 -50065 1
0 0 0 847 842527 -49218 0
0 0 0 797 843324 -48421 0
0 0 0 777 844101 -47644 0
0 0 0 754 844855 -46890 0
0 0 0 737 845592 -46153 0
0 0 0 710 846302 -45443 0
0 0 0 705 847007 -44738 0
0 0 0 699 847706 -44039 0
0 0 0 724 848430 -43315 0
0 0 0 746 849176 -42569 0
0 0 0 723 849899 -41846 0
0 0 0 741 850640 -41105 0
0 0 0 743 851383 -40362 0
0 0 0 747 852130 -39615 0
0 0 0 721 852851 -38894 0
0 0 0 689 853540 -38205 0
0 0 0 667 854207 -37538 0
0 0 0 676 854883 -36862 0
0 0 0 653 855536 -36209 0
0 0 0 630 856166 -35579 0
0 0 0 617 856783 -34962 0
0 0 0 609 857392 -34353 0
0 0 0 599 857991 -33754 0
0 0 0 614 858605 -33140 0
0 0 0 642 859247 -32498 0
0 0 0 672 859919 -31826 0
0 0 0 706 860625 -31120 0
0 0 0 706 861331 -30414 0
0 0 0 663 861994 -29751 0
0 0 0 638 862632 -29113 0
0 0 0 628 863260 -28485 0
0 0 0 636 863896 -27849 0
0 0 0 648 864544 -27201 0
0 0 0 689 865233 -26512 0
0 0 0 740 865973 -25772 0
0 0 0 770 866743 -25002 0
0 0 0 775 867518 -24227 0
0 0 0 752 868270 -23475 0
0 0 0 719 868989 -22756 0
0 0 0 721 869710 -22035 0
0 0 0 700 870410 -21335 0
0 0 0 701 871111 -20634 0
0 0 0 734 871845 -19900 0
0 0 0 726 872571 -19174 0
0 0 0 719 873290 -18455 0
0 0 0 757 874047 -17698 0
0 0 0 795 874842 -16903 0
0 0 0 816 875658 -16087 0
0 0 0 815 876473 -15272 0
0 0 0 773 877246 -14499 0
0 0 0 731 877977 -13768 0
0 0 0 733 878710 -13035 0
0 0 0 741 879451 -12294 0
0 0 0 740 880191 -11554 0
0 0 0 749 880940 -10805 0
0 0 0 735 881675 -10070 0
0 0 0 753 882428 -9317 0
0 0 0 776 883204 -8541 0
0 0 0 777 883981 -7764 0
0 0 0 753 884734 -7011 0
0 0 0 734 885468 -6277 0
0 0 0 760 886228 -5517 0
0 0 0 753 886981 -4764 0
0 0 0 750 887731 -4014 0
0 0 0 724 888455 -3290 0
0 0 0 699 889154 -2591 0
41 1 S102 673 889827 -1918 0
41 1 S102 646 890473 -1272 0
41 1 S102 638 891111 -634 0
41 2 S102 643 891754 9 0
41 2 S102 677 892431 686 0
41 2 S102 729 893160 1415 0
41 2 S102 807 893967 2222 0
41 2 S102 815 894782 3037 0
41 2 S102 756 895538 3793 0
41 2 S102 733 896271 4526 0
41 2 S102 723 896994 5249 0
41 2 S102 725 897719 5974 0
41 2 S102 724 898443 6698 0
0 0 0 711 899154 -8258 0
0 0 0 694 899848 -7564 0
0 0 0 706 900554 -6858 0
0 0 0 734 901288 -6124 0
0 0 0 789 902077 -5335 0
0 0 0 802 902879 -4533 0
0 0 0 738 903617 -3795 0
0 0 0 708 904325 -3087 0
0 0 0 701 905026 -2386 0
42 1 S112 681 905707 -1705 0
42 1 S112 658 906365 -1047 0
42 1 S112 640 907005 -407 0
42 2 S112 644 907649 237 0
42 2 S112 664 908313 901 0
42 2 S112 645 908958 1546 0
42 2 S112 662 909620 2208 0
42 2 S112 681 910301 2889 0
42 2 S112 692 910993 3581 0
42 2 S112 703 911696 4284 0
42 2 S112 690 912386 4974 0
42 2 S112 658 913044 5632 0
42 2 S112 669 913713 6301 0
42 2 S112 673 914386 6974 0
0 0 0 712 915098 -10915 0
0 0 0 766 915864 -10149 0
0 0 0 730 916594 -9419 0
0 0 0 706 917300 -8713 0
0 0 0 733 918033 -7980 0
0 0 0 765 918798 -7215 0
0 0 0 802 919600 -6413 0
0 0 0 778 920378 -5635 0
0 0 0 728 921106 -4907 0
0 0 0 736 921842 -4171 0
0 0 0 716 922558 -3455 0
0 0 0 672 923230 -2783 0
0 0 0 657 923887 -2126 0
43 1 S116 637 924524 -1489 0
43 1 S116 635 925159 -854 0
43 1 S116 652 925811 -202 0
43 2 S116 692 926503 490 0
43 2 S116 676 927179 1166 0
43 2 S116 659 927838 1825 0
43 2 S116 632 928470 2457 0
43 2 S116 614 929084 3071 0
43 2 S116 613 929697 3684 0
43 2 S116 612 930309 4296 0
43 2 S116 625 930934 4921 0
43 2 S116 628 931562 5549 0
43 2 S116 621 932183 6170 0
43 2 S116 604 932787 6774 0
0 0 0 606 933393 -8087 0
0 0 0 612 934005 -7475 0
0 0 0 630 934635 -6845 0
0 0 0 672 935307 -6173 0
0 0 0 723 936030 -5450 0
0 0 0 726 936756 -4724 0
0 0 0 678 937434 -4046 0
0 0 0 726 938160 -3320 0
0 0 0 722 938882 -2598 0
44 1 S102 743 939625 -1855 0
44 1 S102 709 940334 -1146 0
44 1 S102 679 941013 -467 0
44 2 S102 678 941691 211 0
44 2 S102 699 942390 910 0
44 2 S102 727 943117 1637 0
44 2 S102 745 943862 2382 0
44 2 S102 747 944609 3129 0
44 2 S102 729 945338 3858 0
44 2 S102 698 946036 4556 0
44 2 S102 693 946729 5249 0
44 2 S102 682 947411 5931 0
44 2 S102 673 948084 6604 0
0 0 0 674 948758 -9002 0
0 0 0 672 949430 -8330 0
0 0 0 721 950151 -7609 0
0 0 0 763 950914 -6846 0
0 0 0 787 951701 -6059 0
0 0 0 785 952486 -5274 0
0 0 0 762 953248 -4512 0
0 0 0 718 953966 -3794 0
0 0 0 698 954664 -3096 0
0 0 0 696 955360 -2400 0
45 1 S116 688 956048 -1712 0
45 1 S116 703 956751 -1009 0
45 1 S116 717 957468 -292 0
45 2 S116 707 958175 415 0
45 2 S116 707 958882 1122 0
45 2 S116 746 959628 1868 0
45 2 S116 757 960385 2625 0
45 2 S116 753 961138 3378 0
45 2 S116 717 961855 4095 0
45 2 S116 737 962592 4832 0
45 2 S116 768 963360 5600 0
45 2 S116 782 964142 6382 0
0 0 0 780 964922 -11472 0
0 0 0 748 965670 -10724 0
0 0 0 746 966416 -9978 0
0 0 0 738 967154 -9240 0
0 0 0 722 967876 -8518 0
0 0 0 692 968568 -7826 0
0 0 0 661 969229 -7165 0
0 0 0 640 969869 -6525 0
0 0 0 637 970506 -5888 0
0 0 0 653 971159 -5235 0
0 0 0 700 971859 -4535 0
0 0 0 761 972620 -3774 0
0 0 0 781 973401 -2993 0
0 0 0 781 974182 -2212 0
46 1 S102 735 974917 -1477 0
46 1 S102 712 975629 -765 0
46 1 S102 706 976335 -59 0
46 2 S102 704 977039 645 0
46 2 S102 719 977758 1364 0
46 2 S102 739 978497 2103 0
46 2 S102 724 979221 2827 0
46 2 S102 746 979967 3573 0
46 2 S102 765 980732 4338 0
46 2 S102 802 981534 5140 0
46 2 S102 792 982326 5932 0
46 2 S102 759 983085 6691 0
0 0 0 768 983853 -9584 0
0 0 0 764 984617 -8820 0
0 0 0 776 985393 -8044 0
0 0 0 737 986130 -7307 0
0 0 0 700 986830 -6607 0
0 0 0 697 987527 -5910 0
0 0 0 688 988215 -5222 0
0 0 0 704 988919 -4518 0
0 0 0 708 989627 -3810 0
0 0 0 698 990325 -3112 0
0 0 0 721 991046 -2391 0
47 1 S112 733 991779 -1658 0
47 1 S112 733 992512 -925 0
47 1 S112 714 993226 -211 0
47 2 S112 691 993917 480 0
47 2 S112 701 994618 1181 0
47 2 S112 715 995333 1896 0
47 2 S112 722 996055 2618 0
47 2 S112 705 996760 3323 0
47 2 S112 685 997445 4008 0
47 2 S112 701 998146 4709 0
47 2 S112 707 998853 5416 0
47 2 S112 718 999571 6134 0
47 2 S112 731 1000302 6865 0
0 0 0 703 1001005 -10751 0
0 0 0 699 1001704 -10052 0
0 0 0 721 1002425 -9331 0
0 0 0 750 1003175 -8581 0
0 0 0 754 1003929 -7827 0
0 0 0 712 1004641 -7115 0
0 0 0 712 1005353 -6403 0
0 0 0 700 1006053 -5703 0
0 0 0 689 1006742 -5014 0
0 0 0 679 1007421 -4335 0
0 0 0 660 1008081 -3675 0
0 0 0 651 1008732 -3024 0
0 0 0 653 1009385 -2371 0
48 1 S116 667 1010052 -1704 0
48 1 S116 684 1010736 -1020 0
48 1 S116 720 1011456 -300 0
48 2 S116 751 1012207 451 0
48 2 S116 750 1012957 1201 0
48 2 S116 764 1013721 1965 0
48 2 S116 784 1014505 2749 0
48 2 S116 793 1015298 3542 0
48 2 S116 777 1016075 4319 0
48 2 S116 738 1016813 5057 0
48 2 S116 723 1017536 5780 0
48 2 S116 713 1018249 6493 0
0 0 0 707 1018956 -8185 0
0 0 0 711 1019667 -7474 0
0 0 0 696 1020363 -6778 0
0 0 0 674 1021037 -6104 0
0 0 0 686 1021723 -5418 0
0 0 0 700 1022423 -4718 0
0 0 0 717 1023140 -4001 0
0 0 0 721 1023861 -3280 0
0 0 0 715 1024576 -2565 0
49 1 S112 696 1025272 -1869 0
49 1 S112 711 1025983 -1158 0
49 1 S112 720 1026703 -438 0
49 2 S112 725 1027428 287 0
49 2 S112 721 1028149 1008 0
49 2 S112 694 1028843 1702 0
49 2 S112 675 1029518 2377 0
49 2 S112 681 1030199 3058 0
49 2 S112 674 1030873 3732 0
49 2 S112 696 1031569 4428 0
49 2 S112 723 1032292 5151 0
49 2 S112 705 1032997 5856 0
49 2 S112 680 1033677 6536 0
0 0 0 686 1034363 -11279 0
0 0 0 680 1035043 -10599 0
0 0 0 668 1035711 -9931 0
0 0 0 646 1036357 -9285 0
0 0 0 623 1036980 -8662 0
0 0 0 610 1037590 -8052 0
0 0 0 613 1038203 -7439 0
0 0 0 624 1038827 -6815 0
0 0 0 678 1039505 -6137 0
0 0 0 704 1040209 -5433 0
0 0 0 704 1040913 -4729 0
0 0 0 732 1041645 -3997 0
0 0 0 751 1042396 -3246 0
0 0 0 736 1043132 -2510 0
50 1 S106 728 1043860 -1782 0
50 1 S106 748 1044608 -1034 0
50 1 S106 755 1045363 -279 0
50 2 S106 767 1046130 488 0
50 2 S106 756 1046886 1244 0
50 2 S106 767 1047653 2011 0
50 2 S106 726 1048379 2737 0
50 2 S106 706 1049085 3443 0
50 2 S106 711 1049796 4154 0
50 2 S106 728 1050524 4882 0
50 2 S106 775 1051299 5657 0
50 2 S106 817 1052116 6474 0
0 0 0 797 1052913 -8528 0
0 0 0 799 1053712 -7729 0
0 0 0 795 1054507 -6934 0
0 0 0 787 1055294 -6147 0
0 0 0 770 1056064 -5377 0
0 0 0 724 1056788 -4653 0
0 0 0 714 1057502 -3939 0
0 0 0 694 1058196 -3245 0
0 0 0 662 1058858 -2583 0
51 1 S112 636 1059494 -1947 0
51 1 S112 616 1060110 -1331 0
51 1 S112 623 1060733 -708 0
51 1 S112 659 1061392 -49 0
51 2 S112 719 1062111 670 0
51 2 S112 781 1062892 1451 0
51 2 S112 844 1063736 2295 0
51 2 S112 821 1064557 3116 0
51 2 S112 805 1065362 3921 0
51 2 S112 812 1066174 4733 0
51 2 S112 782 1066956 5515 0
51 2 S112 751 1067707 6266 0
51 2 S112 710 1068417 6976 0
0 0 0 668 1069085 -7294 0
0 0 0 662 1069747 -6632 0
0 0 0 650 1070397 -5982 0
0 0 0 670 1071067 -5312 0
0 0 0 699 1071766 -4613 0
0 0 0 710 1072476 -3903 0
0 0 0 715 1073191 -3188 0
0 0 0 719 1073910 -2469 0
52 1 S116 734 1074644 -1735 0
52 1 S116 736 1075380 -999 0
52 1 S116 733 1076113 -266 0
52 2 S116 724 1076837 458 0
52 2 S116 698 1077535 1156 0
52 2 S116 669 1078204 1825 0
52 2 S116 635 1078839 2460 0
52 2 S116 615 1079454 3075 0
52 2 S116 618 1080072 3693 0
52 2 S116 646 1080718 4339 0
52 2 S116 688 1081406 5027 0
52 2 S116 742 1082148 5769 0
52 2 S116 775 1082923 6544 0
0 0 0 773 1083696 -10272 0
0 0 0 744 1084440 -9528 0
0 0 0 739 1085179 -8789 0
0 0 0 740 1085919 -8049 0
0 0 0 748 1086667 -7301 0
0 0 0 756 1087423 -6545 0
0 0 0 714 1088137 -5831 0
0 0 0 696 1088833 -5135 0
0 0 0 706 1089539 -4429 0
0 0 0 724 1090263 -3705 0
0 0 0 765 1091028 -2940 0
0 0 0 775 1091803 -2165 0
53 1 S106 752 1092555 -1413 0
53 1 S106 753 1093308 -660 0
53 2 S106 767 1094075 107 0
53 2 S106 738 1094813 845 0
53 2 S106 733 1095546 1578 0
53 2 S106 712 1096258 2290 0
53 2 S106 676 1096934 2966 0
53 2 S106 654 1097588 3620 0
53 2 S106 640 1098228 4260 0
53 2 S106 642 1098870 4902 0
53 2 S106 662 1099532 5564 0
53 2 S106 695 1100227 6259 0
53 2 S106 741 1100968 7000 0
0 0 0 766 1101734 -8547 0
0 0 0 765 1102499 -7782 0
0 0 0 721 1103220 -7061 0
0 0 0 748 1103968 -6313 0
0 0 0 771 1104739 -5542 0
0 0 0 788 1105527 -4754 0
0 0 0 751 1106278 -4003 0
0 0 0 721 1106999 -3282 0
0 0 0 735 1107734 -2547 0
54 1 S102 743 1108477 -1804 0
54 1 S102 747 1109224 -1057 0
54 1 S102 750 1109974 -307 0
54 2 S102 729 1110703 422 0
54 2 S102 728 1111431 1150 0
54 2 S102 733 1112164 1883 0
54 2 S102 733 1112897 2616 0
54 2 S102 734 1113631 3350 0
54 2 S102 710 1114341 4060 0
54 2 S102 702 1115043 4762 0
54 2 S102 688 1115731 5450 0
54 2 S102 666 1116397 6116 0
54 2 S102 646 1117043 6762 0
0 0 0 656 1117699 -10935 0
0 0 0 674 1118373 -10261 0
0 0 0 703 1119076 -9558 0
0 0 0 748 1119824 -8810 0
0 0 0 715 1120539 -8095 0
0 0 0 681 1121220 -7414 0
0 0 0 663 1121883 -6751 0
0 0 0 643 1122526 -6108 0
0 0 0 623 1123149 -5485 0
0 0 0 608 1123757 -4877 0
0 0 0 594 1124351 -4283 0
0 0 0 589 1124940 -3694 0
0 0 0 598 1125538 -3096 0
0 0 0 635 1126173 -2461 0
55 1 S106 686 1126859 -1775 0
55 1 S106 718 1127577 -1057 0
55 1 S106 728 1128305 -329 0
55 2 S106 709 1129014 380 0
55 2 S106 757 1129771 1137 0
55 2 S106 738 1130509 1875 0
55 2 S106 723 1131232 2598 0
55 2 S106 704 1131936 3302 0
55 2 S106 677 1132613 3979 0
55 2 S106 658 1133271 4637 0
55 2 S106 664 1133935 5301 0
55 2 S106 671 1134606 5972 0
55 2 S106 702 1135308 6674 0
0 0 0 759 1136067 -7156 0
0 0 0 768 1136835 -6388 0
0 0 0 743 1137578 -5645 0
0 0 0 738 1138316 -4907 0
0 0 0 732 1139048 -4175 0
0 0 0 734 1139782 -3441 0
0 0 0 718 1140500 -2723 0
0 0 0 684 1141184 -2039 0
56 1 S116 668 1141852 -1371 0
56 1 S116 664 1142516 -707 0
56 1 S116 647 1143163 -60 0
56 2 S116 651 1143814 591 0
56 2 S116 658 1144472 1249 0
56 2 S116 636 1145108 1885 0
56 2 S116 628 1145736 2513 0
56 2 S116 670 1146406 3183 0
56 2 S116 722 1147128 3905 0
56 2 S116 768 1147896 4673 0
56 2 S116 799 1148695 5472 0
56 2 S116 785 1149480 6257 0
56 2 S116 730 1150210 6987 0
0 0 0 729 1150939 -8066 0
0 0 0 713 1151652 -7353 0
0 0 0 698 1152350 -6655 0
0 0 0 688 1153038 -5967 0
0 0 0 667 1153705 -5300 0
0 0 0 679 1154384 -4621 0
0 0 0 682 1155066 -3939 0
0 0 0 713 1155779 -3226 0
0 0 0 725 1156504 -2501 0
57 1 S106 726 1157230 -1775 0
57 1 S106 699 1157929 -1076 0
57 1 S106 690 1158619 -386 0
57 2 S106 701 1159320 315 0
57 2 S106 727 1160047 1042 0
57 2 S106 760 1160807 1802 0
57 2 S106 772 1161579 2574 0
57 2 S106 745 1162324 3319 0
57 2 S106 743 1163067 4062 0
57 2 S106 733 1163800 4795 0
57 2 S106 732 1164532 5527 0
57 2 S106 724 1165256 6251 0
57 2 S106 708 1165964 6959 0
0 0 0 715 1166679 -8921 0
0 0 0 718 1167397 -8203 0
0 0 0 730 1168127 -7473 0
0 0 0 725 1168852 -6748 0
0 0 0 683 1169535 -6065 0
0 0 0 652 1170187 -5413 0
0 0 0 632 1170819 -4781 0
0 0 0 633 1171452 -4148 0
0 0 0 655 1172107 -3493 0
0 0 0 687 1172794 -2806 0
0 0 0 716 1173510 -2090 0
58 1 S102 703 1174213 -1387 0
58 1 S102 717 1174930 -670 0
58 2 S102 729 1175659 59 0
58 2 S102 743 1176402 802 0
58 2 S102 734 1177136 1536 0
58 2 S102 701 1177837 2237 0
58 2 S102 705 1178542 2942 0
58 2 S102 723 1179265 3665 0
58 2 S102 761 1180026 4426 0
58 2 S102 761 1180787 5187 0
58 2 S102 734 1181521 5921 0
58 2 S102 725 1182246 6646 0
0 0 0 743 1182989 -7582 0
0 0 0 764 1183753 -6818 0
0 0 0 765 1184518 -6053 0
0 0 0 734 1185252 -5319 0
0 0 0 737 1185989 -4582 0
0 0 0 714 1186703 -3868 0
0 0 0 705 1187408 -3163 0
0 0 0 679 1188087 -2484 0
59 1 S112 667 1188754 -1817 0
59 1 S112 681 1189435 -1136 0
59 1 S112 698 1190133 -438 0
59 2 S112 745 1190878 307 0
59 2 S112 746 1191624 1053 0
59 2 S112 736 1192360 1789 0
59 2 S112 760 1193120 2549 0
59 2 S112 727 1193847 3276 0
59 2 S112 724 1194571 4000 0
59 2 S112 697 1195268 4697 0
59 2 S112 678 1195946 5375 0
59 2 S112 646 1196592 6021 0
59 2 S112 624 1197216 6645 0
0 0 0 613 1197829 -10000 0
0 0 0 610 1198439 -9390 0
0 0 0 643 1199082 -8747 0
0 0 0 751 1199833 -7996 0
0 0 0 799 1200632 -7197 0
0 0 0 741 1201373 -6456 0
0 0 0 725 1202098 -5731 0
0 0 0 741 1202839 -4990 0
0 0 0 784 1203623 -4206 0
0 0 0 866 1204489 -3340 1
0 0 0 826 1205315 -2514 0
60 1 S102 782 1206097 -1732 0
60 1 S102 764 1206861 -968 0
60 1 S102 718 1207579 -250 0
60 2 S102 690 1208269 440 0
60 2 S102 668 1208937 1108 0
60 2 S102 643 1209580 1751 0
60 2 S102 615 1210195 2366 0
60 2 S102 609 1210804 2975 0
60 2 S102 600 1211404 3575 0
60 2 S102 591 1211995 4166 0
60 2 S102 617 1212612 4783 0
60 2 S102 739 1213351 5522 0
60 2 S102 825 1214176 6347 0
0 0 0 805 1214981 -11780 0
0 0 0 800 1215781 -10980 0
0 0 0 800 1216581 -10180 0
0 0 0 796 1217377 -9384 0
0 0 0 748 1218125 -8636 0
0 0 0 712 1218837 -7924 0
0 0 0 697 1219534 -7227 0
0 0 0 710 1220244 -6517 0
0 0 0 715 1220959 -5802 0
0 0 0 687 1221646 -5115 0
0 0 0 694 1222340 -4421 0
0 0 0 706 1223046 -3715 0
0 0 0 727 1223773 -2988 0
0 0 0 754 1224527 -2234 0
61 1 S106 770 1225297 -1464 0
61 1 S106 733 1226030 -731 0
61 1 S106 706 1226736 -25 0
61 2 S106 709 1227445 684 0
61 2 S106 712 1228157 1396 0
61 2 S106 715 1228872 2111 0
61 2 S106 686 1229558 2797 0
61 2 S106 659 1230217 3456 0
61 2 S106 632 1230849 4088 0
61 2 S106 613 1231462 4701 0
61 2 S106 596 1232058 5297 0
61 2 S106 590 1232648 5887 0
61 2 S106 600 1233248 6487 0
0 0 0 664 1233912 -8880 0
0 0 0 749 1234661 -8131 0
0 0 0 803 1235464 -7328 0
0 0 0 848 1236312 -6480 0
0 0 0 794 1237106 -5686 0
0 0 0 778 1237884 -4908 0
0 0 0 746 1238630 -4162 0
0 0 0 726 1239356 -3436 0
0 0 0 696 1240052 -2740 0
0 0 0 672 1240724 -2068 0
62 1 S112 675 1241399 -1393 0
62 1 S112 687 1242086 -706 0
62 2 S112 736 1242822 30 0
62 2 S112 799 1243621 829 0
62 2 S112 814 1244435 1643 0
62 2 S112 783 1245218 2426 0
62 2 S112 792 1246010 3218 0
62 2 S112 761 1246771 3979 0
62 2 S112 744 1247515 4723 0
62 2 S112 711 1248226 5434 0
62 2 S112 670 1248896 6104 0
62 2 S112 649 1249545 6753 0
0 0 0 646 1250191 -11468 0
0 0 0 652 1250843 -10816 0
0 0 0 669 1251512 -10147 0
0 0 0 696 1252208 -9451 0
0 0 0 711 1252919 -8740 0
0 0 0 675 1253594 -8065 0
0 0 0 668 1254262 -7397 0
0 0 0 676 1254938 -6721 0
0 0 0 693 1255631 -6028 0
0 0 0 741 1256372 -5287 0
0 0 0 737 1257109 -4550 0
0 0 0 709 1257818 -3841 0
0 0 0 677 1258495 -3164 0
0 0 0 658 1259153 -2506 0
63 1 S102 637 1259790 -1869 0
63 1 S102 617 1260407 -1252 0
63 1 S102 604 1261011 -648 0
63 1 S102 610 1261621 -38 0
63 2 S102 638 1262259 600 0
63 2 S102 661 1262920 1261 0
63 2 S102 716 1263636 1977 0
63 2 S102 792 1264428 2769 0
63 2 S102 848 1265276 3617 0
63 2 S102 831 1266107 4448 0
63 2 S102 771 1266878 5219 0
63 2 S102 723 1267601 5942 0
63 2 S102 713 1268314 6655 0
0 0 0 707 1269021 -9199 0
0 0 0 722 1269743 -8477 0
0 0 0 733 1270476 -7744 0
0 0 0 730 1271206 -7014 0
0 0 0 709 1271915 -6305 0
0 0 0 705 1272620 -5600 0
0 0 0 712 1273332 -4888 0
0 0 0 742 1274074 -4146 0
0 0 0 725 1274799 -3421 0
0 0 0 729 1275528 -2692 0
64 1 S112 741 1276269 -1951 0
64 1 S112 751 1277020 -1200 0
64 1 S112 766 1277786 -434 0
64 2 S112 760 1278546 326 0
64 2 S112 731 1279277 1057 0
64 2 S112 734 1280011 1791 0
64 2 S112 720 1280731 2511 0
64 2 S112 700 1281431 3211 0
64 2 S112 682 1282113 3893 0
64 2 S112 652 1282765 4545 0
64 2 S112 627 1283392 5172 0
64 2 S112 618 1284010 5790 0
64 2 S112 615 1284625 6405 0
64 2 S112 614 1285239 7019 0
0 0 0 609 1285848 -7326 0
0 0 0 629 1286477 -6697 0
0 0 0 695 1287172 -6002 0
0 0 0 794 1287966 -5208 0
0 0 0 830 1288796 -4378 0
0 0 0 789 1289585 -3589 0
0 0 0 726 1290311 -2863 0
0 0 0 698 1291009 -2165 0
65 1 S106 693 1291702 -1472 0
65 1 S106 688 1292390 -784 0
65 1 S106 693 1293083 -91 0
65 2 S106 704 1293787 613 0
65 2 S106 696 1294483 1309 0
65 2 S106 685 1295168 1994 0
65 2 S106 730 1295898 2724 0
65 2 S106 755 1296653 3479 0
65 2 S106 774 1297427 4253 0
65 2 S106 761 1298188 5014 0
65 2 S106 738 1298926 5752 0
65 2 S106 740 1299666 6492 0
0 0 0 741 1300407 -8417 0
0 0 0 741 1301148 -7676 0
0 0 0 727 1301875 -6949 0
0 0 0 706 1302581 -6243 0
0 0 0 726 1303307 -5517 0
0 0 0 746 1304053 -4771 0
0 0 0 741 1304794 -4030 0
0 0 0 724 1305518 -3306 0
0 0 0 687 1306205 -2619 0
66 1 S116 701 1306906 -1918 0
66 1 S116 678 1307584 -1240 0
66 1 S116 656 1308240 -584 0
66 2 S116 637 1308877 53 0
66 2 S116 627 1309504 680 0
66 2 S116 642 1310146 1322 0
66 2 S116 650 1310796 1972 0
66 2 S116 637 1311433 2609 0
66 2 S116 626 1312059 3235 0
66 2 S116 652 1312711 3887 0
66 2 S116 673 1313384 4560 0
66 2 S116 687 1314071 5247 0
66 2 S116 686 1314757 5933 0
66 2 S116 718 1315475 6651 0
0 0 0 739 1316214 -11858 0
0 0 0 766 1316980 -11092 0
0 0 0 758 1317738 -10334 0
0 0 0 720 1318458 -9614 0
0 0 0 733 1319191 -8881 0
0 0 0 719 1319910 -8162 0
0 0 0 727 1320637 -7435 0
0 0 0 708 1321345 -6727 0
0 0 0 684 1322029 -6043 0
0 0 0 695 1322724 -5348 0
0 0 0 696 1323420 -4652 0
0 0 0 724 1324144 -3928 0
0 0 0 741 1324885 -3187 0
0 0 0 733 1325618 -2454 0
67 1 S102 715 1326333 -1739 0
67 1 S102 715 1327048 -1024 0
67 1 S102 730 1327778 -294 0
67 2 S102 735 1328513 441 0
67 2 S102 741 1329254 1182 0
67 2 S102 746 1330000 1928 0
67 2 S102 716 1330716 2644 0
67 2 S102 692 1331408 3336 0
67 2 S102 697 1332105 4033 0
67 2 S102 687 1332792 4720 0
67 2 S102 693 1333485 5413 0
67 2 S102 693 1334178 6106 0
67 2 S102 685 1334863 6791 0
0 0 0 699 1335562 -9121 0
0 0 0 726 1336288 -8395 0
0 0 0 769 1337057 -7626 0
0 0 0 804 1337861 -6822 0
0 0 0 791 1338652 -6031 0
0 0 0 758 1339410 -5273 0
0 0 0 766 1340176 -4507 0
0 0 0 737 1340913 -3770 0
0 0 0 712 1341625 -3058 0
0 0 0 686 1342311 -2372 0
68 1 S106 681 1342992 -1691 0
68 1 S106 694 1343686 -997 0
68 1 S106 704 1344390 -293 0
68 2 S106 711 1345101 418 0
68 2 S106 710 1345811 1128 0
68 2 S106 744 1346555 1872 0
68 2 S106 770 1347325 2642 0
68 2 S106 780 1348105 3422 0
68 2 S106 742 1348847 4164 0
68 2 S106 717 1349564 4881 0
68 2 S106 727 1350291 5608 0
68 2 S106 729 1351020 6337 0
0 0 0 734 1351754 -12757 0
0 0 0 740 1352494 -12017 0
0 0 0 720 1353214 -11297 0
0 0 0 697 1353911 -10600 0
0 0 0 711 1354622 -9889 0
0 0 0 728 1355350 -9161 0
0 0 0 729 1356079 -8432 0
0 0 0 717 1356796 -7715 0
0 0 0 692 1357488 -7023 0
0 0 0 690 1358178 -6333 0
0 0 0 694 1358872 -5639 0
0 0 0 696 1359568 -4943 0
0 0 0 692 1360260 -4251 0
0 0 0 675 1360935 -3576 0
0 0 0 650 1361585 -2926 0
0 0 0 628 1362213 -2298 0
69 1 S102 608 1362821 -1690 0
69 1 S102 591 1363412 -1099 0
69 1 S102 582 1363994 -517 0
69 2 S102 599 1364593 82 0
69 2 S102 639 1365232 721 0
69 2 S102 694 1365926 1415 0
69 2 S102 732 1366658 2147 0
69 2 S102 749 1367407 2896 0
69 2 S102 783 1368190 3679 0
69 2 S102 790 1368980 4469 0
69 2 S102 789 1369769 5258 0
69 2 S102 753 1370522 6011 0
69 2 S102 709 1371231 6720 0
0 0 0 685 1371916 -9339 0
0 0 0 656 1372572 -8683 0
0 0 0 654 1373226 -8029 0
0 0 0 654 1373880 -7375 0
0 0 0 671 1374551 -6704 0
0 0 0 636 1375187 -6068 0
0 0 0 621 1375808 -5447 0
0 0 0 630 1376438 -4817 0
0 0 0 654 1377092 -4163 0
0 0 0 713 1377805 -3450 0
0 0 0 752 1378557 -2698 0
70 1 S112 767 1379324 -1931 0
70 1 S112 748 1380072 -1183 0
70 1 S112 720 1380792 -463 0
70 2 S112 704 1381496 241 0
70 2 S112 679 1382175 920 0
70 2 S112 675 1382850 1595 0
70 2 S112 657 1383507 2252 0
70 2 S112 653 1384160 2905 0
70 2 S112 688 1384848 3593 0
70 2 S112 731 1385579 4324 0
70 2 S112 801 1386380 5125 0
70 2 S112 811 1387191 5936 0
70 2 S112 760 1387951 6696 0
0 0 0 758 1388709 -11230 0
0 0 0 750 1389459 -10480 0
0 0 0 757 1390216 -9723 0
0 0 0 727 1390943 -8996 0
0 0 0 692 1391635 -8304 0
0 0 0 676 1392311 -7628 0
0 0 0 655 1392966 -6973 0
0 0 0 635 1393601 -6338 0
0 0 0 618 1394219 -5720 0
0 0 0 619 1394838 -5101 0
0 0 0 660 1395498 -4441 0
0 0 0 737 1396235 -3704 0
0 0 0 822 1397057 -2882 0
0 0 0 826 1397883 -2056 0
71 1 S116 800 1398683 -1256 0
71 1 S116 798 1399481 -458 0
71 2 S116 783 1400264 325 0
71 2 S116 776 1401040 1101 0
71 2 S116 749 1401789 1850 0
71 2 S116 705 1402494 2555 0
71 2 S116 680 1403174 3235 0
71 2 S116 688 1403862 3923 0
71 2 S116 709 1404571 4632 0
71 2 S116 765 1405336 5397 0
71 2 S116 798 1406134 6195 0
71 2 S116 786 1406920 6981 0
0 0 0 757 1407677 -9818 0
0 0 0 751 1408428 -9067 0
0 0 0 716 1409144 -8351 0
0 0 0 701 1409845 -7650 0
0 0 0 673 1410518 -6977 0
0 0 0 644 1411162 -6333 0
0 0 0 625 1411787 -5708 0
0 0 0 610 1412397 -5098 0
0 0 0 597 1412994 -4501 0
0 0 0 599 1413593 -3902 0
0 0 0 612 1414205 -3290 0
0 0 0 656 1414861 -2634 0
72 1 S102 712 1415573 -1922 0
72 1 S102 765 1416338 -1157 0
72 1 S102 783 1417121 -374 0
72 2 S102 761 1417882 387 0
72 2 S102 749 1418631 1136 0
72 2 S102 741 1419372 1877 0
72 2 S102 725 1420097 2602 0
72 2 S102 710 1420807 3312 0
72 2 S102 690 1421497 4002 0
72 2 S102 664 1422161 4666 0
72 2 S102 662 1422823 5328 0
72 2 S102 674 1423497 6002 0
72 2 S102 705 1424202 6707 0
0 0 0 754 1424956 -6963 0
0 0 0 759 1425715 -6204 0
0 0 0 765 1426480 -5439 0
0 0 0 794 1427274 -4645 0
0 0 0 800 1428074 -3845 0
0 0 0 785 1428859 -3060 0
0 0 0 749 1429608 -2311 0
73 1 S116 730 1430338 -1581 0
73 1 S116 699 1431037 -882 0
73 1 S116 682 1431719 -200 0
73 2 S116 652 1432371 452 0
73 2 S116 638 1433009 1090 0
73 2 S116 676 1433685 1766 0
73 2 S116 722 1434407 2488 0
73 2 S116 803 1435210 3291 0
73 2 S116 839 1436049 4130 0
73 2 S116 835 1436884 4965 0
73 2 S116 829 1437713 5794 0
73 2 S116 815 1438528 6609 0
0 0 0 778 1439306 -10153 0
0 0 0 727 1440033 -9426 0
0 0 0 714 1440747 -8712 0
0 0 0 687 1441434 -8025 0
0 0 0 694 1442128 -7331 0
0 0 0 687 1442815 -6644 0
0 0 0 657 1443472 -5987 0
0 0 0 656 1444128 -5331 0
0 0 0 675 1444803 -4656 0
0 0 0 706 1445509 -3950 0
0 0 0 718 1446227 -3232 0
0 0 0 682 1446909 -2550 0
74 1 S106 678 1447587 -1872 0
74 1 S106 691 1448278 -1181 0
74 1 S106 699 1448977 -482 0
74 2 S106 677 1449654 195 0
74 2 S106 647 1450301 842 0
74 2 S106 643 1450944 1485 0
74 2 S106 654 1451598 2139 0
74 2 S106 676 1452274 2815 0
74 2 S106 718 1452992 3533 0
74 2 S106 726 1453718 4259 0
74 2 S106 717 1454435 4976 0
74 2 S106 742 1455177 5718 0
74 2 S106 761 1455938 6479 0
0 0 0 791 1456729 -7385 0
0 0 0 802 1457531 -6583 0
0 0 0 762 1458293 -5821 0
0 0 0 747 1459040 -5074 0
0 0 0 727 1459767 -4347 0
0 0 0 708 1460475 -3639 0
0 0 0 702 1461177 -2937 0
0 0 0 670 1461847 -2267 0
75 1 S112 647 1462494 -1620 0
75 1 S112 639 1463133 -981 0
75 1 S112 661 1463794 -320 0
75 2 S112 738 1464532 418 0
75 2 S112 846 1465378 1264 0
75 2 S112 858 1466236 2122 0
75 2 S112 835 1467071 2957 0
75 2 S112 769 1467840 3726 0
75 2 S112 755 1468595 4481 0
75 2 S112 727 1469322 5208 0
75 2 S112 702 1470024 5910 0
75 2 S112 663 1470687 6573 0
0 0 0 665 1471352 -7384 0
0 0 0 658 1472010 -6726 0
0 0 0 673 1472683 -6053 0
0 0 0 699 1473382 -5354 0
0 0 0 687 1474069 -4667 0
0 0 0 668 1474737 -3999 0
0 0 0 671 1475408 -3328 0
0 0 0 691 1476099 -2637 0
76 1 S116 736 1476835 -1901 0
76 1 S116 781 1477616 -1120 0
76 1 S116 803 1478419 -317 0
76 2 S116 743 1479162 426 0
76 2 S116 734 1479896 1160 0
76 2 S116 721 1480617 1881 0
76 2 S116 714 1481331 2595 0
76 2 S116 708 1482039 3303 0
76 2 S116 690 1482729 3993 0
76 2 S116 679 1483408 4672 0
76 2 S116 680 1484088 5352 0
76 2 S116 692 1484780 6044 0
76 2 S116 673 1485453 6717 0
0 0 0 644 1486097 -7659 0
0 0 0 634 1486731 -7025 0
0 0 0 638 1487369 -6387 0
0 0 0 631 1488000 -5756 0
0 0 0 637 1488637 -5119 0
0 0 0 652 1489289 -4467 0
0 0 0 664 1489953 -3803 0
0 0 0 701 1490654 -3102 0
0 0 0 691 1491345 -2411 0
77 1 S106 678 1492023 -1733 0
77 1 S106 688 1492711 -1045 0
77 1 S106 679 1493390 -366 0
77 2 S106 691 1494081 325 0
77 2 S106 698 1494779 1023 0
77 2 S106 699 1495478 1722 0
77 2 S106 687 1496165 2409 0
77 2 S106 699 1496864 3108 0
77 2 S106 706 1497570 3814 0
77 2 S106 736 1498306 4550 0
77 2 S106 748 1499054 5298 0
77 2 S106 740 1499794 6038 0
77 2 S106 702 1500496 6740 0
0 0 0 700 1501196 -9835 0
0 0 0 683 1501879 -9152 0
0 0 0 674 1502553 -8478 0
0 0 0 673 1503226 -7805 0
0 0 0 673 1503899 -7132 0
0 0 0 666 1504565 -6466 0
0 0 0 669 1505234 -5797 0
0 0 0 660 1505894 -5137 0
0 0 0 655 1506549 -4482 0
0 0 0 655 1507204 -3827 0
0 0 0 638 1507842 -3189 0
0 0 0 620 1508462 -2569 0
78 1 S112 608 1509070 -1961 0
78 1 S112 615 1509685 -1346 0
78 1 S112 630 1510315 -716 0
78 1 S112 652 1510967 -64 0
78 2 S112 683 1511650 619 0
78 2 S112 703 1512353 1322 0
78 2 S112 674 1513027 1996 0
78 2 S112 657 1513684 2653 0
78 2 S112 678 1514362 3331 0
78 2 S112 670 1515032 4001 0
78 2 S112 688 1515720 4689 0
78 2 S112 703 1516423 5392 0
78 2 S112 680 1517103 6072 0
78 2 S112 653 1517756 6725 0
0 0 0 628 1518384 -11364 0
0 0 0 621 1519005 -10743 0
0 0 0 628 1519633 -10115 0
0 0 0 672 1520305 -9443 0
0 0 0 721 1521026 -8722 0
0 0 0 710 1521736 -8012 0
0 0 0 691 1522427 -7321 0
0 0 0 712 1523139 -6609 0
0 0 0 738 1523877 -5871 0
0 0 0 755 1524632 -5116 0
0 0 0 751 1525383 -4365 0
0 0 0 716 1526099 -3649 0
0 0 0 706 1526805 -2943 0
0 0 0 704 1527509 -2239 0
79 1 S102 711 1528220 -1528 0
79 1 S102 718 1528938 -810 0
79 1 S102 715 1529653 -95 0
79 2 S102 703 1530356 608 0
79 2 S102 715 1531071 1323 0
79 2 S102 730 1531801 2053 0
79 2 S102 748 1532549 2801 0
79 2 S102 734 1533283 3535 0
79 2 S102 712 1533995 4247 0
79 2 S102 730 1534725 4977 0
79 2 S102 723 1535448 5700 0
79 2 S102 738 1536186 6438 0
0 0 0 715 1536901 -10138 0
0 0 0 701 1537602 -9437 0
0 0 0 702 1538304 -8735 0
0 0 0 694 1538998 -8041 0
0 0 0 698 1539696 -7343 0
0 0 0 687 1540383 -6656 0
0 0 0 663 1541046 -5993 0
0 0 0 676 1541722 -5317 0
0 0 0 685 1542407 -4632 0
0 0 0 694 1543101 -3938 0
0 0 0 679 1543780 -3259 0
0 0 0 666 1544446 -2593 0
80 1 S116 674 1545120 -1919 0
80 1 S116 660 1545780 -1259 0
80 1 S116 648 1546428 -611 0
80 2 S116 632 1547060 21 0
80 2 S116 610 1547670 631 0
80 2 S116 597 1548267 1228 0
80 2 S116 601 1548868 1829 0
80 2 S116 617 1549485 2446 0
80 2 S116 656 1550141 3102 0
80 2 S116 658 1550799 3760 0
80 2 S116 677 1551476 4437 0
80 2 S116 716 1552192 5153 0
80 2 S116 720 1552912 5873 0
80 2 S116 743 1553655 6616 0
