T_0092
BeatCount Mean SD BeatCountNoOutliers MeanNoOutliers SDNoOutliers
2049 774,484138604197 85,2900374918641 2023 776,537320810677 81,5088697498196

Trial TrialStatus Trialtype IBI AbsPosition RelPosition Outlier
0 0 0 666 1314 -14322 0
0 0 0 632 1946 -13690 0
0 0 0 607 2553 -13083 0
0 0 0 588 3141 -12495 0
0 0 0 594 3735 -11901 0
0 0 0 594 4329 -11307 0
0 0 0 581 4910 -10726 0
0 0 0 569 5479 -10157 0
0 0 0 565 6044 -9592 0
0 0 0 562 6606 -9030 0
0 0 0 560 7166 -8470 0
0 0 0 636 7802 -7834 0
0 0 0 747 8549 -7087 0
0 0 0 730 9279 -6357 0
0 0 0 786 10065 -5571 0
0 0 0 842 10907 -4729 0
0 0 0 868 11775 -3861 0
0 0 0 872 12647 -2989 0
0 0 0 813 13460 -2176 0
1 1 S112 857 14317 -1319 0
1 1 S112 810 15127 -509 0
1 2 S112 793 15920 284 0
1 2 S112 810 16730 1094 0
1 2 S112 829 17559 1923 0
1 2 S112 862 18421 2785 0
1 2 S112 1074 19495 3859 1
1 2 S112 500 19995 4359 1
1 2 S112 787 20782 5146 0
1 2 S112 897 21679 6043 0
1 2 S112 937 22616 6980 0
0 0 0 801 23417 -10803 0
0 0 0 821 24238 -9982 0
0 0 0 762 25000 -9220 0
0 0 0 732 25732 -8488 0
0 0 0 695 26427 -7793 0
0 0 0 689 27116 -7104 0
0 0 0 638 27754 -6466 0
0 0 0 619 28373 -5847 0
0 0 0 650 29023 -5197 0
0 0 0 736 29759 -4461 0
0 0 0 760 30519 -3701 0
0 0 0 789 31308 -2912 0
0 0 0 802 32110 -2110 0
2 1 S102 783 32893 -1327 0
2 1 S102 820 33713 -507 0
2 2 S102 846 34559 339 0
2 2 S102 870 35429 1209 0
2 2 S102 831 36260 2040 0
2 2 S102 769 37029 2809 0
2 2 S102 841 37870 3650 0
2 2 S102 929 38799 4579 0
2 2 S102 920 39719 5499 0
2 2 S102 883 40602 6382 0
0 0 0 783 41385 -10474 0
0 0 0 788 42173 -9686 0
0 0 0 801 42974 -8885 0
0 0 0 846 43820 -8039 0
0 0 0 854 44674 -7185 0
0 0 0 813 45487 -6372 0
0 0 0 814 46301 -5558 0
0 0 0 771 47072 -4787 0
0 0 0 712 47784 -4075 0
0 0 0 720 48504 -3355 0
0 0 0 784 49288 -2571 0
3 1 S116 858 50146 -1713 0
3 1 S116 891 51037 -822 0
3 2 S116 835 51872 13 0
3 2 S116 854 52726 867 0
3 2 S116 878 53604 1745 0
3 2 S116 893 54497 2638 0
3 2 S116 867 55364 3505 0
3 2 S116 881 56245 4386 0
3 2 S116 879 57124 5265 0
3 2 S116 903 58027 6168 0
0 0 0 887 58914 -12458 0
0 0 0 851 59765 -11607 0
0 0 0 822 60587 -10785 0
0 0 0 853 61440 -9932 0
0 0 0 952 62392 -8980 0
0 0 0 795 63187 -8185 0
0 0 0 768 63955 -7417 0
0 0 0 792 64747 -6625 0
0 0 0 851 65598 -5774 0
0 0 0 878 66476 -4896 0
0 0 0 819 67295 -4077 0
0 0 0 874 68169 -3203 0
0 0 0 946 69115 -2257 0
4 1 S106 914 70029 -1343 0
4 1 S106 852 70881 -491 0
4 2 S106 784 71665 293 0
4 2 S106 808 72473 1101 0
4 2 S106 920 73393 2021 0
4 2 S106 900 74293 2921 0
4 2 S106 846 75139 3767 0
4 2 S106 789 75928 4556 0
4 2 S106 857 76785 5413 0
4 2 S106 888 77673 6301 0
0 0 0 897 78570 -9215 0
0 0 0 853 79423 -8362 0
0 0 0 750 80173 -7612 0
0 0 0 816 80989 -6796 0
0 0 0 915 81904 -5881 0
0 0 0 892 82796 -4989 0
0 0 0 822 83618 -4167 0
0 0 0 825 84443 -3342 0
0 0 0 874 85317 -2468 0
5 1 S116 917 86234 -1551 0
5 1 S116 826 87060 -725 0
5 2 S116 806 87866 81 0
5 2 S116 825 88691 906 0
5 2 S116 897 89588 1803 0
5 2 S116 822 90410 2625 0
5 2 S116 857 91267 3482 0
5 2 S116 885 92152 4367 0
5 2 S116 882 93034 5249 0
5 2 S116 826 93860 6075 0
5 2 S116 793 94653 6868 0
0 0 0 827 95480 -10906 0
0 0 0 827 96307 -10079 0
0 0 0 812 97119 -9267 0
0 0 0 758 97877 -8509 0
0 0 0 812 98689 -7697 0
0 0 0 878 99567 -6819 0
0 0 0 909 100476 -5910 0
0 0 0 777 101253 -5133 0
0 0 0 831 102084 -4302 0
0 0 0 876 102960 -3426 0
0 0 0 864 103824 -2562 0
6 1 S106 829 104653 -1733 0
6 1 S106 866 105519 -867 0
6 2 S106 901 106420 34 0
6 2 S106 893 107313 927 0
6 2 S106 909 108222 1836 0
6 2 S106 807 109029 2643 0
6 2 S106 855 109884 3498 0
6 2 S106 881 110765 4379 0
6 2 S106 925 111690 5304 0
6 2 S106 831 112521 6135 0
6 2 S106 797 113318 6932 0
0 0 0 858 114176 -10048 0
0 0 0 875 115051 -9173 0
0 0 0 840 115891 -8333 0
0 0 0 741 116632 -7592 0
0 0 0 752 117384 -6840 0
0 0 0 825 118209 -6015 0
0 0 0 886 119095 -5129 0
0 0 0 822 119917 -4307 0
0 0 0 819 120736 -3488 0
0 0 0 845 121581 -2643 0
7 1 S102 864 122445 -1779 0
7 1 S102 869 123314 -910 0
7 1 S102 774 124088 -136 0
7 2 S102 802 124890 666 0
7 2 S102 820 125710 1486 0
7 2 S102 806 126516 2292 0
7 2 S102 880 127396 3172 0
7 2 S102 892 128288 4064 0
7 2 S102 858 129146 4922 0
7 2 S102 794 129940 5716 0
7 2 S102 716 130656 6432 0
0 0 0 751 131407 -9064 0
0 0 0 826 132233 -8238 0
0 0 0 886 133119 -7352 0
0 0 0 863 133982 -6489 0
0 0 0 756 134738 -5733 0
0 0 0 780 135518 -4953 0
0 0 0 793 136311 -4160 0
0 0 0 858 137169 -3302 0
0 0 0 790 137959 -2512 0
8 1 S112 749 138708 -1763 0
8 1 S112 800 139508 -963 0
8 1 S112 836 140344 -127 0
8 2 S112 841 141185 714 0
8 2 S112 822 142007 1536 0
8 2 S112 781 142788 2317 0
8 2 S112 821 143609 3138 0
8 2 S112 819 144428 3957 0
8 2 S112 814 145242 4771 0
8 2 S112 755 145997 5526 0
8 2 S112 767 146764 6293 0
0 0 0 869 147633 -7957 0
0 0 0 895 148528 -7062 0
0 0 0 875 149403 -6187 0
0 0 0 796 150199 -5391 0
0 0 0 781 150980 -4610 0
0 0 0 784 151764 -3826 0
0 0 0 821 152585 -3005 0
0 0 0 769 153354 -2236 0
9 1 S116 764 154118 -1472 0
9 1 S116 865 154983 -607 0
9 2 S116 883 155866 276 0
9 2 S116 827 156693 1103 0
9 2 S116 787 157480 1890 0
9 2 S116 794 158274 2684 0
9 2 S116 880 159154 3564 0
9 2 S116 897 160051 4461 0
9 2 S116 900 160951 5361 0
9 2 S116 799 161750 6160 0
9 2 S116 811 162561 6971 0
0 0 0 847 163408 -11645 0
0 0 0 807 164215 -10838 0
0 0 0 773 164988 -10065 0
0 0 0 732 165720 -9333 0
0 0 0 785 166505 -8548 0
0 0 0 791 167296 -7757 0
0 0 0 766 168062 -6991 0
0 0 0 727 168789 -6264 0
0 0 0 782 169571 -5482 0
0 0 0 807 170378 -4675 0
0 0 0 799 171177 -3876 0
0 0 0 740 171917 -3136 0
0 0 0 706 172623 -2430 0
10 1 S102 720 173343 -1710 0
10 1 S102 728 174071 -982 0
10 1 S102 742 174813 -240 0
10 2 S102 722 175535 482 0
10 2 S102 706 176241 1188 0
10 2 S102 755 176996 1943 0
10 2 S102 800 177796 2743 0
10 2 S102 797 178593 3540 0
10 2 S102 780 179373 4320 0
10 2 S102 726 180099 5046 0
10 2 S102 762 180861 5808 0
10 2 S102 814 181675 6622 0
0 0 0 837 182512 -12038 0
0 0 0 793 183305 -11245 0
0 0 0 732 184037 -10513 0
0 0 0 754 184791 -9759 0
0 0 0 819 185610 -8940 0
0 0 0 788 186398 -8152 0
0 0 0 719 187117 -7433 0
0 0 0 732 187849 -6701 0
0 0 0 761 188610 -5940 0
0 0 0 757 189367 -5183 0
0 0 0 761 190128 -4422 0
0 0 0 717 190845 -3705 0
0 0 0 739 191584 -2966 0
0 0 0 776 192360 -2190 0
11 1 S112 838 193198 -1352 0
11 1 S112 809 194007 -543 0
11 2 S112 747 194754 204 0
11 2 S112 789 195543 993 0
11 2 S112 860 196403 1853 0
11 2 S112 880 197283 2733 0
11 2 S112 889 198172 3622 0
11 2 S112 765 198937 4387 0
11 2 S112 767 199704 5154 0
11 2 S112 779 200483 5933 0
11 2 S112 757 201240 6690 0
0 0 0 804 202044 -8371 0
0 0 0 755 202799 -7616 0
0 0 0 732 203531 -6884 0
0 0 0 819 204350 -6065 0
0 0 0 833 205183 -5232 0
0 0 0 771 205954 -4461 0
0 0 0 720 206674 -3741 0
0 0 0 734 207408 -3007 0
0 0 0 749 208157 -2258 0
12 1 S116 793 208950 -1465 0
12 1 S116 741 209691 -724 0
12 2 S116 751 210442 27 0
12 2 S116 799 211241 826 0
12 2 S116 860 212101 1686 0
12 2 S116 847 212948 2533 0
12 2 S116 790 213738 3323 0
12 2 S116 785 214523 4108 0
12 2 S116 835 215358 4943 0
12 2 S116 808 216166 5751 0
12 2 S116 822 216988 6573 0
0 0 0 744 217732 -11798 0
0 0 0 794 218526 -11004 0
0 0 0 785 219311 -10219 0
0 0 0 792 220103 -9427 0
0 0 0 731 220834 -8696 0
0 0 0 693 221527 -8003 0
0 0 0 714 222241 -7289 0
0 0 0 793 223034 -6496 0
0 0 0 788 223822 -5708 0
0 0 0 739 224561 -4969 0
0 0 0 788 225349 -4181 0
0 0 0 795 226144 -3386 0
0 0 0 807 226951 -2579 0
13 1 S112 748 227699 -1831 0
13 1 S112 772 228471 -1059 0
13 1 S112 785 229256 -274 0
13 2 S112 796 230052 522 0
13 2 S112 778 230830 1300 0
13 2 S112 749 231579 2049 0
13 2 S112 777 232356 2826 0
13 2 S112 785 233141 3611 0
13 2 S112 766 233907 4377 0
13 2 S112 704 234611 5081 0
13 2 S112 710 235321 5791 0
13 2 S112 718 236039 6509 0
0 0 0 803 236842 -12549 0
0 0 0 806 237648 -11743 0
0 0 0 731 238379 -11012 0
0 0 0 774 239153 -10238 0
0 0 0 809 239962 -9429 0
0 0 0 817 240779 -8612 0
0 0 0 735 241514 -7877 0
0 0 0 735 242249 -7142 0
0 0 0 772 243021 -6370 0
0 0 0 806 243827 -5564 0
0 0 0 776 244603 -4788 0
0 0 0 763 245366 -4025 0
0 0 0 816 246182 -3209 0
0 0 0 798 246980 -2411 0
14 1 S106 790 247770 -1621 0
14 1 S106 741 248511 -880 0
14 1 S106 759 249270 -121 0
14 2 S106 782 250052 661 0
14 2 S106 861 250913 1522 0
14 2 S106 865 251778 2387 0
14 2 S106 826 252604 3213 0
14 2 S106 777 253381 3990 0
14 2 S106 809 254190 4799 0
14 2 S106 865 255055 5664 0
14 2 S106 880 255935 6544 0
0 0 0 817 256752 -13246 0
0 0 0 783 257535 -12463 0
0 0 0 804 258339 -11659 0
0 0 0 822 259161 -10837 0
0 0 0 790 259951 -10047 0
0 0 0 740 260691 -9307 0
0 0 0 847 261538 -8460 0
0 0 0 873 262411 -7587 0
0 0 0 796 263207 -6791 0
0 0 0 742 263949 -6049 0
0 0 0 789 264738 -5260 0
0 0 0 814 265552 -4446 0
0 0 0 857 266409 -3589 0
0 0 0 804 267213 -2785 0
0 0 0 755 267968 -2030 0
15 1 S116 782 268750 -1248 0
15 1 S116 847 269597 -401 0
15 2 S116 814 270411 413 0
15 2 S116 747 271158 1160 0
15 2 S116 811 271969 1971 0
15 2 S116 834 272803 2805 0
15 2 S116 829 273632 3634 0
15 2 S116 805 274437 4439 0
15 2 S116 803 275240 5242 0
15 2 S116 917 276157 6159 0
0 0 0 1011 277168 -11431 1
0 0 0 925 278093 -10506 0
0 0 0 771 278864 -9735 0
0 0 0 760 279624 -8975 0
0 0 0 796 280420 -8179 0
0 0 0 910 281330 -7269 0
0 0 0 812 282142 -6457 0
0 0 0 764 282906 -5693 0
0 0 0 768 283674 -4925 0
0 0 0 738 284412 -4187 0
0 0 0 679 285091 -3508 0
0 0 0 648 285739 -2860 0
0 0 0 646 286385 -2214 0
16 1 S116 672 287057 -1542 0
16 1 S116 725 287782 -817 0
16 1 S116 713 288495 -104 0
16 2 S116 673 289168 569 0
16 2 S116 641 289809 1210 0
16 2 S116 638 290447 1848 0
16 2 S116 659 291106 2507 0
16 2 S116 691 291797 3198 0
16 2 S116 710 292507 3908 0
16 2 S116 736 293243 4644 0
16 2 S116 765 294008 5409 0
16 2 S116 781 294789 6190 0
16 2 S116 784 295573 6974 0
0 0 0 776 296349 -10138 0
0 0 0 741 297090 -9397 0
0 0 0 742 297832 -8655 0
0 0 0 718 298550 -7937 0
0 0 0 774 299324 -7163 0
0 0 0 837 300161 -6326 0
0 0 0 777 300938 -5549 0
0 0 0 707 301645 -4842 0
0 0 0 736 302381 -4106 0
0 0 0 896 303277 -3210 0
0 0 0 883 304160 -2327 0
17 1 S106 824 304984 -1503 0
17 1 S106 889 305873 -614 0
17 2 S106 890 306763 276 0
17 2 S106 810 307573 1086 0
17 2 S106 776 308349 1862 0
17 2 S106 774 309123 2636 0
17 2 S106 832 309955 3468 0
17 2 S106 831 310786 4299 0
17 2 S106 872 311658 5171 0
17 2 S106 775 312433 5946 0
17 2 S106 744 313177 6690 0
0 0 0 758 313935 -12479 0
0 0 0 781 314716 -11698 0
0 0 0 736 315452 -10962 0
0 0 0 704 316156 -10258 0
0 0 0 764 316920 -9494 0
0 0 0 845 317765 -8649 0
0 0 0 796 318561 -7853 0
0 0 0 743 319304 -7110 0
0 0 0 724 320028 -6386 0
0 0 0 761 320789 -5625 0
0 0 0 848 321637 -4777 0
0 0 0 874 322511 -3903 0
0 0 0 798 323309 -3105 0
0 0 0 853 324162 -2252 0
18 1 S102 852 325014 -1400 0
18 1 S102 850 325864 -550 0
18 2 S102 765 326629 215 0
18 2 S102 784 327413 999 0
18 2 S102 822 328235 1821 0
18 2 S102 825 329060 2646 0
18 2 S102 775 329835 3421 0
18 2 S102 718 330553 4139 0
18 2 S102 745 331298 4884 0
18 2 S102 792 332090 5676 0
18 2 S102 858 332948 6534 0
0 0 0 868 333816 -8348 0
0 0 0 801 334617 -7547 0
0 0 0 775 335392 -6772 0
0 0 0 786 336178 -5986 0
0 0 0 846 337024 -5140 0
0 0 0 741 337765 -4399 0
0 0 0 717 338482 -3682 0
0 0 0 723 339205 -2959 0
0 0 0 785 339990 -2174 0
19 1 S106 800 340790 -1374 0
19 1 S106 738 341528 -636 0
19 2 S106 733 342261 97 0
19 2 S106 759 343020 856 0
19 2 S106 815 343835 1671 0
19 2 S106 838 344673 2509 0
19 2 S106 760 345433 3269 0
19 2 S106 791 346224 4060 0
19 2 S106 798 347022 4858 0
19 2 S106 806 347828 5664 0
19 2 S106 805 348633 6469 0
0 0 0 754 349387 -10880 0
0 0 0 812 350199 -10068 0
0 0 0 824 351023 -9244 0
0 0 0 794 351817 -8450 0
0 0 0 706 352523 -7744 0
0 0 0 720 353243 -7024 0
0 0 0 726 353969 -6298 0
0 0 0 791 354760 -5507 0
0 0 0 785 355545 -4722 0
0 0 0 757 356302 -3965 0
0 0 0 762 357064 -3203 0
0 0 0 790 357854 -2413 0
20 1 S112 795 358649 -1618 0
20 1 S112 727 359376 -891 0
20 1 S112 722 360098 -169 0
20 2 S112 748 360846 579 0
20 2 S112 774 361620 1353 0
20 2 S112 785 362405 2138 0
20 2 S112 780 363185 2918 0
20 2 S112 796 363981 3714 0
20 2 S112 870 364851 4584 0
20 2 S112 824 365675 5408 0
20 2 S112 868 366543 6276 0
0 0 0 893 367436 -10620 0
0 0 0 892 368328 -9728 0
0 0 0 776 369104 -8952 0
0 0 0 753 369857 -8199 0
0 0 0 773 370630 -7426 0
0 0 0 804 371434 -6622 0
0 0 0 723 372157 -5899 0
0 0 0 691 372848 -5208 0
0 0 0 698 373546 -4510 0
0 0 0 700 374246 -3810 0
0 0 0 765 375011 -3045 0
0 0 0 732 375743 -2313 0
21 1 S106 709 376452 -1604 0
21 1 S106 755 377207 -849 0
21 1 S106 785 377992 -64 0
21 2 S106 807 378799 743 0
21 2 S106 765 379564 1508 0
21 2 S106 802 380366 2310 0
21 2 S106 806 381172 3116 0
21 2 S106 797 381969 3913 0
21 2 S106 746 382715 4659 0
21 2 S106 702 383417 5361 0
21 2 S106 707 384124 6068 0
21 2 S106 739 384863 6807 0
0 0 0 783 385646 -12768 0
0 0 0 735 386381 -12033 0
0 0 0 706 387087 -11327 0
0 0 0 784 387871 -10543 0
0 0 0 834 388705 -9709 0
0 0 0 777 389482 -8932 0
0 0 0 733 390215 -8199 0
0 0 0 732 390947 -7467 0
0 0 0 747 391694 -6720 0
0 0 0 697 392391 -6023 0
0 0 0 682 393073 -5341 0
0 0 0 682 393755 -4659 0
0 0 0 695 394450 -3964 0
0 0 0 702 395152 -3262 0
0 0 0 680 395832 -2582 0
22 1 S116 705 396537 -1877 0
22 1 S116 747 397284 -1130 0
22 1 S116 720 398004 -410 0
22 2 S116 692 398696 282 0
22 2 S116 671 399367 953 0
22 2 S116 676 400043 1629 0
22 2 S116 704 400747 2333 0
22 2 S116 717 401464 3050 0
22 2 S116 804 402268 3854 0
22 2 S116 805 403073 4659 0
22 2 S116 754 403827 5413 0
22 2 S116 706 404533 6119 0
22 2 S116 725 405258 6844 0
0 0 0 763 406021 -10994 0
0 0 0 765 406786 -10229 0
0 0 0 753 407539 -9476 0
0 0 0 687 408226 -8789 0
0 0 0 689 408915 -8100 0
0 0 0 732 409647 -7368 0
0 0 0 815 410462 -6553 0
0 0 0 759 411221 -5794 0
0 0 0 684 411905 -5110 0
0 0 0 707 412612 -4403 0
0 0 0 725 413337 -3678 0
0 0 0 815 414152 -2863 0
0 0 0 766 414918 -2097 0
23 1 S112 757 415675 -1340 0
23 1 S112 787 416462 -553 0
23 2 S112 837 417299 284 0
23 2 S112 832 418131 1116 0
23 2 S112 762 418893 1878 0
23 2 S112 778 419671 2656 0
23 2 S112 802 420473 3458 0
23 2 S112 829 421302 4287 0
23 2 S112 763 422065 5050 0
23 2 S112 700 422765 5750 0
23 2 S112 721 423486 6471 0
0 0 0 789 424275 -10048 0
0 0 0 855 425130 -9193 0
0 0 0 837 425967 -8356 0
0 0 0 786 426753 -7570 0
0 0 0 824 427577 -6746 0
0 0 0 774 428351 -5972 0
0 0 0 691 429042 -5281 0
0 0 0 660 429702 -4621 0
0 0 0 673 430375 -3948 0
0 0 0 726 431101 -3222 0
0 0 0 768 431869 -2454 0
24 1 S106 721 432590 -1733 0
24 1 S106 761 433351 -972 0
24 1 S106 816 434167 -156 0
24 2 S106 795 434962 639 0
24 2 S106 795 435757 1434 0
24 2 S106 854 436611 2288 0
24 2 S106 838 437449 3126 0
24 2 S106 824 438273 3950 0
24 2 S106 883 439156 4833 0
24 2 S106 912 440068 5745 0
24 2 S106 901 440969 6646 0
0 0 0 831 441800 -9234 0
0 0 0 795 442595 -8439 0
0 0 0 800 443395 -7639 0
0 0 0 875 444270 -6764 0
0 0 0 841 445111 -5923 0
0 0 0 768 445879 -5155 0
0 0 0 729 446608 -4426 0
0 0 0 773 447381 -3653 0
0 0 0 825 448206 -2828 0
25 1 S102 862 449068 -1966 0
25 1 S102 808 449876 -1158 0
25 1 S102 767 450643 -391 0
25 2 S102 836 451479 445 0
25 2 S102 894 452373 1339 0
25 2 S102 907 453280 2246 0
25 2 S102 796 454076 3042 0
25 2 S102 812 454888 3854 0
25 2 S102 864 455752 4718 0
25 2 S102 879 456631 5597 0
25 2 S102 822 457453 6419 0
0 0 0 734 458187 -8597 0
0 0 0 703 458890 -7894 0
0 0 0 716 459606 -7178 0
0 0 0 829 460435 -6349 0
0 0 0 922 461357 -5427 0
0 0 0 831 462188 -4596 0
0 0 0 803 462991 -3793 0
0 0 0 799 463790 -2994 0
0 0 0 886 464676 -2108 0
26 1 S116 828 465504 -1280 0
26 1 S116 764 466268 -516 0
26 2 S116 775 467043 259 0
26 2 S116 749 467792 1008 0
26 2 S116 794 468586 1802 0
26 2 S116 743 469329 2545 0
26 2 S116 721 470050 3266 0
26 2 S116 750 470800 4016 0
26 2 S116 795 471595 4811 0
26 2 S116 810 472405 5621 0
26 2 S116 775 473180 6396 0
0 0 0 739 473919 -8913 0
0 0 0 774 474693 -8139 0
0 0 0 800 475493 -7339 0
0 0 0 799 476292 -6540 0
0 0 0 803 477095 -5737 0
0 0 0 765 477860 -4972 0
0 0 0 745 478605 -4227 0
0 0 0 692 479297 -3535 0
0 0 0 681 479978 -2854 0
0 0 0 644 480622 -2210 0
27 1 S106 633 481255 -1577 0
27 1 S106 619 481874 -958 0
27 1 S106 612 482486 -346 0
27 2 S106 606 483092 260 0
27 2 S106 608 483700 868 0
27 2 S106 625 484325 1493 0
27 2 S106 644 484969 2137 0
27 2 S106 664 485633 2801 0
27 2 S106 647 486280 3448 0
27 2 S106 667 486947 4115 0
27 2 S106 674 487621 4789 0
27 2 S106 656 488277 5445 0
27 2 S106 633 488910 6078 0
27 2 S106 616 489526 6694 0
0 0 0 627 490153 -7997 0
0 0 0 623 490776 -7374 0
0 0 0 641 491417 -6733 0
0 0 0 653 492070 -6080 0
0 0 0 724 492794 -5356 0
0 0 0 722 493516 -4634 0
0 0 0 671 494187 -3963 0
0 0 0 675 494862 -3288 0
0 0 0 692 495554 -2596 0
28 1 S102 707 496261 -1889 0
28 1 S102 765 497026 -1124 0
28 1 S102 714 497740 -410 0
28 2 S102 734 498474 324 0
28 2 S102 826 499300 1150 0
28 2 S102 902 500202 2052 0
28 2 S102 858 501060 2910 0
28 2 S102 739 501799 3649 0
28 2 S102 712 502511 4361 0
28 2 S102 720 503231 5081 0
28 2 S102 688 503919 5769 0
28 2 S102 648 504567 6417 0
0 0 0 641 505208 -13549 0
0 0 0 619 505827 -12930 0
0 0 0 608 506435 -12322 0
0 0 0 647 507082 -11675 0
0 0 0 796 507878 -10879 0
0 0 0 799 508677 -10080 0
0 0 0 791 509468 -9289 0
0 0 0 878 510346 -8411 0
0 0 0 855 511201 -7556 0
0 0 0 775 511976 -6781 0
0 0 0 714 512690 -6067 0
0 0 0 661 513351 -5406 0
0 0 0 659 514010 -4747 0
0 0 0 841 514851 -3906 0
0 0 0 892 515743 -3014 0
0 0 0 901 516644 -2113 0
29 1 S112 892 517536 -1221 0
29 1 S112 827 518363 -394 0
29 2 S112 837 519200 443 0
29 2 S112 805 520005 1248 0
29 2 S112 859 520864 2107 0
29 2 S112 821 521685 2928 0
29 2 S112 821 522506 3749 0
29 2 S112 840 523346 4589 0
29 2 S112 872 524218 5461 0
29 2 S112 835 525053 6296 0
29 2 S112 718 525771 7014 0
0 0 0 756 526527 -7018 0
0 0 0 783 527310 -6235 0
0 0 0 794 528104 -5441 0
0 0 0 778 528882 -4663 0
0 0 0 713 529595 -3950 0
0 0 0 685 530280 -3265 0
0 0 0 657 530937 -2608 0
30 1 S112 662 531599 -1946 0
30 1 S112 779 532378 -1167 0
30 1 S112 744 533122 -423 0
30 2 S112 725 533847 302 0
30 2 S112 785 534632 1087 0
30 2 S112 867 535499 1954 0
30 2 S112 868 536367 2822 0
30 2 S112 825 537192 3647 0
30 2 S112 829 538021 4476 0
30 2 S112 882 538903 5358 0
30 2 S112 917 539820 6275 0
0 0 0 850 540670 -10780 0
0 0 0 745 541415 -10035 0
0 0 0 762 542177 -9273 0
0 0 0 843 543020 -8430 0
0 0 0 958 543978 -7472 0
0 0 0 876 544854 -6596 0
0 0 0 797 545651 -5799 0
0 0 0 843 546494 -4956 0
0 0 0 918 547412 -4038 0
0 0 0 886 548298 -3152 0
0 0 0 760 549058 -2392 0
31 1 S106 788 549846 -1604 0
31 1 S106 811 550657 -793 0
31 2 S106 834 551491 41 0
31 2 S106 826 552317 867 0
31 2 S106 808 553125 1675 0
31 2 S106 871 553996 2546 0
31 2 S106 893 554889 3439 0
31 2 S106 923 555812 4362 0
31 2 S106 816 556628 5178 0
31 2 S106 831 557459 6009 0
31 2 S106 854 558313 6863 0
0 0 0 879 559192 -10378 0
0 0 0 786 559978 -9592 0
0 0 0 745 560723 -8847 0
0 0 0 853 561576 -7994 0
0 0 0 905 562481 -7089 0
0 0 0 833 563314 -6256 0
0 0 0 753 564067 -5503 0
0 0 0 792 564859 -4711 0
0 0 0 856 565715 -3855 0
0 0 0 872 566587 -2983 0
0 0 0 797 567384 -2186 0
32 1 S102 833 568217 -1353 0
32 1 S102 856 569073 -497 0
32 2 S102 863 569936 366 0
32 2 S102 787 570723 1153 0
32 2 S102 823 571546 1976 0
32 2 S102 874 572420 2850 0
32 2 S102 856 573276 3706 0
32 2 S102 766 574042 4472 0
32 2 S102 834 574876 5306 0
32 2 S102 919 575795 6225 0
0 0 0 919 576714 -12916 0
0 0 0 853 577567 -12063 0
0 0 0 761 578328 -11302 0
0 0 0 816 579144 -10486 0
0 0 0 883 580027 -9603 0
0 0 0 892 580919 -8711 0
0 0 0 786 581705 -7925 0
0 0 0 796 582501 -7129 0
0 0 0 819 583320 -6310 0
0 0 0 878 584198 -5432 0
0 0 0 822 585020 -4610 0
0 0 0 883 585903 -3727 0
0 0 0 1008 586911 -2719 1
33 1 S112 971 587882 -1748 0
33 1 S112 865 588747 -883 0
33 1 S112 881 589628 -2 0
33 2 S112 903 590531 901 0
33 2 S112 933 591464 1834 0
33 2 S112 848 592312 2682 0
33 2 S112 857 593169 3539 0
33 2 S112 930 594099 4469 0
33 2 S112 969 595068 5438 0
33 2 S112 843 595911 6281 0
0 0 0 813 596724 -13015 0
0 0 0 956 597680 -12059 0
0 0 0 923 598603 -11136 0
0 0 0 797 599400 -10339 0
0 0 0 754 600154 -9585 0
0 0 0 815 600969 -8770 0
0 0 0 808 601777 -7962 0
0 0 0 778 602555 -7184 0
0 0 0 736 603291 -6448 0
0 0 0 762 604053 -5686 0
0 0 0 868 604921 -4818 0
0 0 0 885 605806 -3933 0
0 0 0 815 606621 -3118 0
0 0 0 820 607441 -2298 0
34 1 S106 841 608282 -1457 0
34 1 S106 846 609128 -611 0
34 2 S106 796 609924 185 0
34 2 S106 808 610732 993 0
34 2 S106 852 611584 1845 0
34 2 S106 889 612473 2734 0
34 2 S106 808 613281 3542 0
34 2 S106 736 614017 4278 0
34 2 S106 763 614780 5041 0
34 2 S106 816 615596 5857 0
34 2 S106 897 616493 6754 0
0 0 0 848 617341 -9689 0
0 0 0 766 618107 -8923 0
0 0 0 754 618861 -8169 0
0 0 0 834 619695 -7335 0
0 0 0 845 620540 -6490 0
0 0 0 742 621282 -5748 0
0 0 0 735 622017 -5013 0
0 0 0 780 622797 -4233 0
0 0 0 837 623634 -3396 0
0 0 0 864 624498 -2532 0
35 1 S102 752 625250 -1780 0
35 1 S102 752 626002 -1028 0
35 1 S102 720 626722 -308 0
35 2 S102 695 627417 387 0
35 2 S102 669 628086 1056 0
35 2 S102 650 628736 1706 0
35 2 S102 659 629395 2365 0
35 2 S102 732 630127 3097 0
35 2 S102 804 630931 3901 0
35 2 S102 838 631769 4739 0
35 2 S102 758 632527 5497 0
35 2 S102 767 633294 6264 0
0 0 0 814 634108 -7594 0
0 0 0 839 634947 -6755 0
0 0 0 833 635780 -5922 0
0 0 0 778 636558 -5144 0
0 0 0 762 637320 -4382 0
0 0 0 729 638049 -3653 0
0 0 0 763 638812 -2890 0
0 0 0 761 639573 -2129 0
36 1 S106 703 640276 -1426 0
36 1 S106 702 640978 -724 0
36 2 S106 751 641729 27 0
36 2 S106 769 642498 796 0
36 2 S106 845 643343 1641 0
36 2 S106 753 644096 2394 0
36 2 S106 764 644860 3158 0
36 2 S106 885 645745 4043 0
36 2 S106 889 646634 4932 0
36 2 S106 864 647498 5796 0
36 2 S106 798 648296 6594 0
0 0 0 779 649075 -10035 0
0 0 0 828 649903 -9207 0
0 0 0 841 650744 -8366 0
0 0 0 840 651584 -7526 0
0 0 0 768 652352 -6758 0
0 0 0 804 653156 -5954 0
0 0 0 907 654063 -5047 0
0 0 0 901 654964 -4146 0
0 0 0 803 655767 -3343 0
0 0 0 820 656587 -2523 0
37 1 S116 853 657440 -1670 0
37 1 S116 830 658270 -840 0
37 1 S116 762 659032 -78 0
37 2 S116 829 659861 751 0
37 2 S116 931 660792 1682 0
37 2 S116 941 661733 2623 0
37 2 S116 855 662588 3478 0
37 2 S116 760 663348 4238 0
37 2 S116 793 664141 5031 0
37 2 S116 885 665026 5916 0
37 2 S116 910 665936 6826 0
0 0 0 849 666785 -12733 0
0 0 0 780 667565 -11953 0
0 0 0 848 668413 -11105 0
0 0 0 911 669324 -10194 0
0 0 0 898 670222 -9296 0
0 0 0 776 670998 -8520 0
0 0 0 805 671803 -7715 0
0 0 0 870 672673 -6845 0
0 0 0 936 673609 -5909 0
0 0 0 801 674410 -5108 0
0 0 0 795 675205 -4313 0
0 0 0 844 676049 -3469 0
0 0 0 887 676936 -2582 0
38 1 S102 915 677851 -1667 0
38 1 S102 844 678695 -823 0
38 2 S102 826 679521 3 0
38 2 S102 892 680413 895 0
38 2 S102 953 681366 1848 0
38 2 S102 903 682269 2751 0
38 2 S102 784 683053 3535 0
38 2 S102 745 683798 4280 0
38 2 S102 796 684594 5076 0
38 2 S102 858 685452 5934 0
38 2 S102 890 686342 6824 0
0 0 0 792 687134 -9592 0
0 0 0 798 687932 -8794 0
0 0 0 880 688812 -7914 0
0 0 0 928 689740 -6986 0
0 0 0 839 690579 -6147 0
0 0 0 759 691338 -5388 0
0 0 0 824 692162 -4564 0
0 0 0 905 693067 -3659 0
0 0 0 910 693977 -2749 0
39 1 S116 807 694784 -1942 0
39 1 S116 800 695584 -1142 0
39 1 S116 812 696396 -330 0
39 2 S116 832 697228 502 0
39 2 S116 834 698062 1336 0
39 2 S116 797 698859 2133 0
39 2 S116 818 699677 2951 0
39 2 S116 889 700566 3840 0
39 2 S116 927 701493 4767 0
39 2 S116 927 702420 5694 0
39 2 S116 822 703242 6516 0
0 0 0 847 704089 -8668 0
0 0 0 869 704958 -7799 0
0 0 0 856 705814 -6943 0
0 0 0 832 706646 -6111 0
0 0 0 769 707415 -5342 0
0 0 0 820 708235 -4522 0
0 0 0 807 709042 -3715 0
0 0 0 827 709869 -2888 0
0 0 0 789 710658 -2099 0
40 1 S112 765 711423 -1334 0
40 1 S112 796 712219 -538 0
40 2 S112 849 713068 311 0
40 2 S112 918 713986 1229 0
40 2 S112 866 714852 2095 0
40 2 S112 778 715630 2873 0
40 2 S112 793 716423 3666 0
40 2 S112 885 717308 4551 0
40 2 S112 898 718206 5449 0
40 2 S112 868 719074 6317 0
0 0 0 776 719850 -187670 0
0 0 0 789 720639 -186881 0
0 0 0 812 721451 -186069 0
0 0 0 865 722316 -185204 0
0 0 0 837 723153 -184367 0
0 0 0 743 723896 -183624 0
0 0 0 692 724588 -182932 0
0 0 0 729 725317 -182203 0
0 0 0 763 726080 -181440 0
0 0 0 713 726793 -180727 0
0 0 0 672 727465 -180055 0
0 0 0 658 728123 -179397 0
0 0 0 641 728764 -178756 0
0 0 0 630 729394 -178126 0
0 0 0 616 730010 -177510 0
0 0 0 607 730617 -176903 0
0 0 0 618 731235 -176285 0
0 0 0 596 731831 -175689 0
0 0 0 584 732415 -175105 0
0 0 0 586 733001 -174519 0
0 0 0 580 733581 -173939 0
0 0 0 572 734153 -173367 0
0 0 0 567 734720 -172800 0
0 0 0 560 735280 -172240 0
0 0 0 556 735836 -171684 0
0 0 0 551 736387 -171133 1
0 0 0 551 736938 -170582 1
0 0 0 554 737492 -170028 1
0 0 0 548 738040 -169480 1
0 0 0 540 738580 -168940 1
0 0 0 544 739124 -168396 1
0 0 0 532 739656 -167864 1
0 0 0 532 740188 -167332 1
0 0 0 536 740724 -166796 1
0 0 0 540 741264 -166256 1
0 0 0 548 741812 -165708 1
0 0 0 558 742370 -165150 0
0 0 0 555 742925 -164595 0
0 0 0 546 743471 -164049 1
0 0 0 580 744051 -163469 0
0 0 0 688 744739 -162781 0
0 0 0 817 745556 -161964 0
0 0 0 910 746466 -161054 0
0 0 0 978 747444 -160076 0
0 0 0 967 748411 -159109 0
0 0 0 947 749358 -158162 0
0 0 0 954 750312 -157208 0
0 0 0 962 751274 -156246 0
0 0 0 965 752239 -155281 0
0 0 0 964 753203 -154317 0
0 0 0 822 754025 -153495 0
0 0 0 688 754713 -152807 0
0 0 0 672 755385 -152135 0
0 0 0 713 756098 -151422 0
0 0 0 828 756926 -150594 0
0 0 0 758 757684 -149836 0
0 0 0 726 758410 -149110 0
0 0 0 784 759194 -148326 0
0 0 0 836 760030 -147490 0
0 0 0 841 760871 -146649 0
0 0 0 830 761701 -145819 0
0 0 0 858 762559 -144961 0
0 0 0 867 763426 -144094 0
0 0 0 805 764231 -143289 0
0 0 0 739 764970 -142550 0
0 0 0 686 765656 -141864 0
0 0 0 640 766296 -141224 0
0 0 0 623 766919 -140601 0
0 0 0 632 767551 -139969 0
0 0 0 627 768178 -139342 0
0 0 0 605 768783 -138737 0
0 0 0 605 769388 -138132 0
0 0 0 609 769997 -137523 0
0 0 0 589 770586 -136934 0
0 0 0 581 771167 -136353 0
0 0 0 568 771735 -135785 0
0 0 0 549 772284 -135236 1
0 0 0 548 772832 -134688 1
0 0 0 548 773380 -134140 1
0 0 0 540 773920 -133600 1
0 0 0 539 774459 -133061 1
0 0 0 534 774993 -132527 1
0 0 0 535 775528 -131992 1
0 0 0 544 776072 -131448 1
0 0 0 563 776635 -130885 0
0 0 0 579 777214 -130306 0
0 0 0 614 777828 -129692 0
0 0 0 626 778454 -129066 0
0 0 0 650 779104 -128416 0
0 0 0 689 779793 -127727 0
0 0 0 781 780574 -126946 0
0 0 0 745 781319 -126201 0
0 0 0 709 782028 -125492 0
0 0 0 726 782754 -124766 0
0 0 0 818 783572 -123948 0
0 0 0 779 784351 -123169 0
0 0 0 797 785148 -122372 0
0 0 0 763 785911 -121609 0
0 0 0 808 786719 -120801 0
0 0 0 805 787524 -119996 0
0 0 0 782 788306 -119214 0
0 0 0 702 789008 -118512 0
0 0 0 669 789677 -117843 0
0 0 0 733 790410 -117110 0
0 0 0 730 791140 -116380 0
0 0 0 686 791826 -115694 0
0 0 0 704 792530 -114990 0
0 0 0 858 793388 -114132 0
0 0 0 893 794281 -113239 0
0 0 0 893 795174 -112346 0
0 0 0 851 796025 -111495 0
0 0 0 863 796888 -110632 0
0 0 0 814 797702 -109818 0
0 0 0 782 798484 -109036 0
0 0 0 740 799224 -108296 0
0 0 0 776 800000 -107520 0
0 0 0 844 800844 -106676 0
0 0 0 834 801678 -105842 0
0 0 0 825 802503 -105017 0
0 0 0 816 803319 -104201 0
0 0 0 725 804044 -103476 0
0 0 0 693 804737 -102783 0
0 0 0 683 805420 -102100 0
0 0 0 643 806063 -101457 0
0 0 0 621 806684 -100836 0
0 0 0 606 807290 -100230 0
0 0 0 594 807884 -99636 0
0 0 0 588 808472 -99048 0
0 0 0 666 809138 -98382 0
0 0 0 773 809911 -97609 0
0 0 0 738 810649 -96871 0
0 0 0 712 811361 -96159 0
0 0 0 681 812042 -95478 0
0 0 0 714 812756 -94764 0
0 0 0 805 813561 -93959 0
0 0 0 828 814389 -93131 0
0 0 0 775 815164 -92356 0
0 0 0 788 815952 -91568 0
0 0 0 812 816764 -90756 0
0 0 0 833 817597 -89923 0
0 0 0 928 818525 -88995 0
0 0 0 945 819470 -88050 0
0 0 0 921 820391 -87129 0
0 0 0 806 821197 -86323 0
0 0 0 864 822061 -85459 0
0 0 0 978 823039 -84481 0
0 0 0 1006 824045 -83475 1
0 0 0 938 824983 -82537 0
0 0 0 811 825794 -81726 0
0 0 0 925 826719 -80801 0
0 0 0 910 827629 -79891 0
0 0 0 946 828575 -78945 0
0 0 0 847 829422 -78098 0
0 0 0 761 830183 -77337 0
0 0 0 801 830984 -76536 0
0 0 0 867 831851 -75669 0
0 0 0 906 832757 -74763 0
0 0 0 931 833688 -73832 0
0 0 0 900 834588 -72932 0
0 0 0 886 835474 -72046 0
0 0 0 928 836402 -71118 0
0 0 0 957 837359 -70161 0
0 0 0 875 838234 -69286 0
0 0 0 866 839100 -68420 0
0 0 0 921 840021 -67499 0
0 0 0 908 840929 -66591 0
0 0 0 881 841810 -65710 0
0 0 0 769 842579 -64941 0
0 0 0 781 843360 -64160 0
0 0 0 857 844217 -63303 0
0 0 0 924 845141 -62379 0
0 0 0 923 846064 -61456 0
0 0 0 948 847012 -60508 0
0 0 0 988 848000 -59520 0
0 0 0 970 848970 -58550 0
0 0 0 886 849856 -57664 0
0 0 0 913 850769 -56751 0
0 0 0 911 851680 -55840 0
0 0 0 876 852556 -54964 0
0 0 0 729 853285 -54235 0
0 0 0 681 853966 -53554 0
0 0 0 649 854615 -52905 0
0 0 0 631 855246 -52274 0
0 0 0 617 855863 -51657 0
0 0 0 703 856566 -50954 0
0 0 0 760 857326 -50194 0
0 0 0 750 858076 -49444 0
0 0 0 818 858894 -48626 0
0 0 0 897 859791 -47729 0
0 0 0 925 860716 -46804 0
0 0 0 908 861624 -45896 0
0 0 0 914 862538 -44982 0
0 0 0 905 863443 -44077 0
0 0 0 859 864302 -43218 0
0 0 0 769 865071 -42449 0
0 0 0 815 865886 -41634 0
0 0 0 883 866769 -40751 0
0 0 0 876 867645 -39875 0
0 0 0 791 868436 -39084 0
0 0 0 817 869253 -38267 0
0 0 0 827 870080 -37440 0
0 0 0 837 870917 -36603 0
0 0 0 778 871695 -35825 0
0 0 0 708 872403 -35117 0
0 0 0 677 873080 -34440 0
0 0 0 661 873741 -33779 0
0 0 0 698 874439 -33081 0
0 0 0 650 875089 -32431 0
0 0 0 627 875716 -31804 0
0 0 0 612 876328 -31192 0
0 0 0 600 876928 -30592 0
0 0 0 591 877519 -30001 0
0 0 0 618 878137 -29383 0
0 0 0 724 878861 -28659 0
0 0 0 778 879639 -27881 0
0 0 0 815 880454 -27066 0
0 0 0 730 881184 -26336 0
0 0 0 666 881850 -25670 0
0 0 0 648 882498 -25022 0
0 0 0 624 883122 -24398 0
0 0 0 609 883731 -23789 0
0 0 0 590 884321 -23199 0
0 0 0 588 884909 -22611 0
0 0 0 574 885483 -22037 0
0 0 0 582 886065 -21455 0
0 0 0 525 886590 -20930 1
0 0 0 575 887165 -20355 0
0 0 0 577 887742 -19778 0
0 0 0 590 888332 -19188 0
0 0 0 608 888940 -18580 0
0 0 0 624 889564 -17956 0
0 0 0 603 890167 -17353 0
0 0 0 616 890783 -16737 0
0 0 0 654 891437 -16083 0
0 0 0 734 892171 -15349 0
0 0 0 798 892969 -14551 0
0 0 0 819 893788 -13732 0
0 0 0 854 894642 -12878 0
0 0 0 873 895515 -12005 0
0 0 0 903 896418 -11102 0
0 0 0 907 897325 -10195 0
0 0 0 940 898265 -9255 0
0 0 0 968 899233 -8287 0
0 0 0 934 900167 -7353 0
0 0 0 903 901070 -6450 0
0 0 0 949 902019 -5501 0
0 0 0 891 902910 -4610 0
0 0 0 811 903721 -3799 0
0 0 0 693 904414 -3106 0
0 0 0 659 905073 -2447 0
41 1 S102 646 905719 -1801 0
41 1 S102 645 906364 -1156 0
41 1 S102 638 907002 -518 0
41 2 S102 610 907612 92 0
41 2 S102 625 908237 717 0
41 2 S102 680 908917 1397 0
41 2 S102 712 909629 2109 0
41 2 S102 677 910306 2786 0
41 2 S102 675 910981 3461 0
41 2 S102 715 911696 4176 0
41 2 S102 830 912526 5006 0
41 2 S102 903 913429 5909 0
41 2 S102 860 914289 6769 0
0 0 0 773 915062 -7246 0
0 0 0 738 915800 -6508 0
0 0 0 804 916604 -5704 0
0 0 0 828 917432 -4876 0
0 0 0 707 918139 -4169 0
0 0 0 680 918819 -3489 0
0 0 0 687 919506 -2802 0
0 0 0 727 920233 -2075 0
42 1 S112 744 920977 -1331 0
42 1 S112 721 921698 -610 0
42 2 S112 733 922431 123 0
42 2 S112 801 923232 924 0
42 2 S112 829 924061 1753 0
42 2 S112 894 924955 2647 0
42 2 S112 957 925912 3604 0
42 2 S112 936 926848 4540 0
42 2 S112 859 927707 5399 0
42 2 S112 885 928592 6284 0
0 0 0 916 929508 -9859 0
0 0 0 982 930490 -8877 0
0 0 0 931 931421 -7946 0
0 0 0 828 932249 -7118 0
0 0 0 798 933047 -6320 0
0 0 0 775 933822 -5545 0
0 0 0 754 934576 -4791 0
0 0 0 745 935321 -4046 0
0 0 0 824 936145 -3222 0
0 0 0 952 937097 -2270 0
43 1 S116 922 938019 -1348 0
43 1 S116 903 938922 -445 0
43 2 S116 906 939828 461 0
43 2 S116 954 940782 1415 0
43 2 S116 961 941743 2376 0
43 2 S116 942 942685 3318 0
43 2 S116 862 943547 4180 0
43 2 S116 921 944468 5101 0
43 2 S116 919 945387 6020 0
43 2 S116 943 946330 6963 0
0 0 0 881 947211 -8619 0
0 0 0 814 948025 -7805 0
0 0 0 805 948830 -7000 0
0 0 0 885 949715 -6115 0
0 0 0 897 950612 -5218 0
0 0 0 760 951372 -4458 0
0 0 0 746 952118 -3712 0
0 0 0 686 952804 -3026 0
0 0 0 676 953480 -2350 0
44 1 S102 652 954132 -1698 0
44 1 S102 700 954832 -998 0
44 1 S102 892 955724 -106 0
44 2 S102 897 956621 791 0
44 2 S102 859 957480 1650 0
44 2 S102 833 958313 2483 0
44 2 S102 895 959208 3378 0
44 2 S102 904 960112 4282 0
44 2 S102 862 960974 5144 0
44 2 S102 753 961727 5897 0
44 2 S102 699 962426 6596 0
0 0 0 673 963099 -10652 0
0 0 0 668 963767 -9984 0
0 0 0 665 964432 -9319 0
0 0 0 657 965089 -8662 0
0 0 0 629 965718 -8033 0
0 0 0 629 966347 -7404 0
0 0 0 623 966970 -6781 0
0 0 0 673 967643 -6108 0
0 0 0 751 968394 -5357 0
0 0 0 780 969174 -4577 0
0 0 0 731 969905 -3846 0
0 0 0 762 970667 -3084 0
0 0 0 770 971437 -2314 0
45 1 S116 779 972216 -1535 0
45 1 S116 736 972952 -799 0
45 1 S116 709 973661 -90 0
45 2 S116 665 974326 575 0
45 2 S116 642 974968 1217 0
45 2 S116 671 975639 1888 0
45 2 S116 844 976483 2732 0
45 2 S116 940 977423 3672 0
45 2 S116 952 978375 4624 0
45 2 S116 939 979314 5563 0
45 2 S116 905 980219 6468 0
0 0 0 888 981107 -13251 0
0 0 0 858 981965 -12393 0
0 0 0 725 982690 -11668 0
0 0 0 697 983387 -10971 0
0 0 0 761 984148 -10210 0
0 0 0 974 985122 -9236 0
0 0 0 960 986082 -8276 0
0 0 0 930 987012 -7346 0
0 0 0 792 987804 -6554 0
0 0 0 779 988583 -5775 0
0 0 0 837 989420 -4938 0
0 0 0 918 990338 -4020 0
0 0 0 901 991239 -3119 0
0 0 0 849 992088 -2270 0
46 1 S102 869 992957 -1401 0
46 1 S102 874 993831 -527 0
46 2 S102 819 994650 292 0
46 2 S102 752 995402 1044 0
46 2 S102 804 996206 1848 0
46 2 S102 822 997028 2670 0
46 2 S102 800 997828 3470 0
46 2 S102 757 998585 4227 0
46 2 S102 787 999372 5014 0
46 2 S102 836 1000208 5850 0
46 2 S102 861 1001069 6711 0
0 0 0 862 1001931 -10033 0
0 0 0 822 1002753 -9211 0
0 0 0 711 1003464 -8500 0
0 0 0 741 1004205 -7759 0
0 0 0 788 1004993 -6971 0
0 0 0 817 1005810 -6154 0
0 0 0 771 1006581 -5383 0
0 0 0 735 1007316 -4648 0
0 0 0 704 1008020 -3944 0
0 0 0 718 1008738 -3226 0
0 0 0 780 1009518 -2446 0
47 1 S112 811 1010329 -1635 0
47 1 S112 766 1011095 -869 0
47 1 S112 794 1011889 -75 0
47 2 S112 835 1012724 760 0
47 2 S112 866 1013590 1626 0
47 2 S112 922 1014512 2548 0
47 2 S112 916 1015428 3464 0
47 2 S112 941 1016369 4405 0
47 2 S112 941 1017310 5346 0
47 2 S112 887 1018197 6233 0
0 0 0 889 1019086 -12043 0
0 0 0 911 1019997 -11132 0
0 0 0 863 1020860 -10269 0
0 0 0 823 1021683 -9446 0
0 0 0 726 1022409 -8720 0
0 0 0 694 1023103 -8026 0
0 0 0 695 1023798 -7331 0
0 0 0 694 1024492 -6637 0
0 0 0 715 1025207 -5922 0
0 0 0 717 1025924 -5205 0
0 0 0 816 1026740 -4389 0
0 0 0 902 1027642 -3487 0
0 0 0 904 1028546 -2583 0
48 1 S116 883 1029429 -1700 0
48 1 S116 936 1030365 -764 0
48 2 S116 915 1031280 151 0
48 2 S116 897 1032177 1048 0
48 2 S116 813 1032990 1861 0
48 2 S116 787 1033777 2648 0
48 2 S116 780 1034557 3428 0
48 2 S116 794 1035351 4222 0
48 2 S116 811 1036162 5033 0
48 2 S116 767 1036929 5800 0
48 2 S116 746 1037675 6546 0
0 0 0 797 1038472 -7644 0
0 0 0 847 1039319 -6797 0
0 0 0 765 1040084 -6032 0
0 0 0 727 1040811 -5305 0
0 0 0 735 1041546 -4570 0
0 0 0 713 1042259 -3857 0
0 0 0 678 1042937 -3179 0
0 0 0 687 1043624 -2492 0
49 1 S112 706 1044330 -1786 0
49 1 S112 802 1045132 -984 0
49 1 S112 835 1045967 -149 0
49 2 S112 771 1046738 622 0
49 2 S112 750 1047488 1372 0
49 2 S112 770 1048258 2142 0
49 2 S112 762 1049020 2904 0
49 2 S112 753 1049773 3657 0
49 2 S112 692 1050465 4349 0
49 2 S112 711 1051176 5060 0
49 2 S112 757 1051933 5817 0
49 2 S112 802 1052735 6619 0
0 0 0 815 1053550 -11962 0
0 0 0 762 1054312 -11200 0
0 0 0 726 1055038 -10474 0
0 0 0 748 1055786 -9726 0
0 0 0 813 1056599 -8913 0
0 0 0 761 1057360 -8152 0
0 0 0 693 1058053 -7459 0
0 0 0 668 1058721 -6791 0
0 0 0 641 1059362 -6150 0
0 0 0 631 1059993 -5519 0
0 0 0 667 1060660 -4852 0
0 0 0 734 1061394 -4118 0
0 0 0 724 1062118 -3394 0
0 0 0 767 1062885 -2627 0
50 1 S106 801 1063686 -1826 0
50 1 S106 798 1064484 -1028 0
50 1 S106 743 1065227 -285 0
50 2 S106 685 1065912 400 0
50 2 S106 704 1066616 1104 0
50 2 S106 709 1067325 1813 0
50 2 S106 638 1067963 2451 0
50 2 S106 641 1068604 3092 0
50 2 S106 672 1069276 3764 0
50 2 S106 649 1069925 4413 0
50 2 S106 629 1070554 5042 0
50 2 S106 612 1071166 5654 0
50 2 S106 603 1071769 6257 0
50 2 S106 598 1072367 6855 0
0 0 0 621 1072988 -9119 0
0 0 0 703 1073691 -8416 0
0 0 0 751 1074442 -7665 0
0 0 0 805 1075247 -6860 0
0 0 0 819 1076066 -6041 0
0 0 0 843 1076909 -5198 0
0 0 0 911 1077820 -4287 0
0 0 0 832 1078652 -3455 0
0 0 0 712 1079364 -2743 0
0 0 0 677 1080041 -2066 0
51 1 S112 645 1080686 -1421 0
51 1 S112 642 1081328 -779 0
51 1 S112 691 1082019 -88 0
51 2 S112 709 1082728 621 0
51 2 S112 799 1083527 1420 0
51 2 S112 814 1084341 2234 0
51 2 S112 823 1085164 3057 0
51 2 S112 871 1086035 3928 0
51 2 S112 823 1086858 4751 0
51 2 S112 753 1087611 5504 0
51 2 S112 827 1088438 6331 0
0 0 0 840 1089278 -7883 0
0 0 0 874 1090152 -7009 0
0 0 0 753 1090905 -6256 0
0 0 0 710 1091615 -5546 0
0 0 0 710 1092325 -4836 0
0 0 0 706 1093031 -4130 0
0 0 0 717 1093748 -3413 0
0 0 0 700 1094448 -2713 0
0 0 0 693 1095141 -2020 0
52 1 S116 713 1095854 -1307 0
52 1 S116 755 1096609 -552 0
52 2 S116 768 1097377 216 0
52 2 S116 869 1098246 1085 0
52 2 S116 837 1099083 1922 0
52 2 S116 796 1099879 2718 0
52 2 S116 727 1100606 3445 0
52 2 S116 734 1101340 4179 0
52 2 S116 715 1102055 4894 0
52 2 S116 720 1102775 5614 0
52 2 S116 708 1103483 6322 0
52 2 S116 687 1104170 7009 0
0 0 0 672 1104842 -10323 0
0 0 0 693 1105535 -9630 0
0 0 0 706 1106241 -8924 0
0 0 0 797 1107038 -8127 0
0 0 0 753 1107791 -7374 0
0 0 0 719 1108510 -6655 0
0 0 0 716 1109226 -5939 0
0 0 0 699 1109925 -5240 0
0 0 0 681 1110606 -4559 0
0 0 0 654 1111260 -3905 0
0 0 0 650 1111910 -3255 0
0 0 0 633 1112543 -2622 0
0 0 0 621 1113164 -2001 0
53 1 S106 633 1113797 -1368 0
53 1 S106 677 1114474 -691 0
53 1 S106 657 1115131 -34 0
53 2 S106 671 1115802 637 0
53 2 S106 724 1116526 1361 0
53 2 S106 740 1117266 2101 0
53 2 S106 731 1117997 2832 0
53 2 S106 727 1118724 3559 0
53 2 S106 752 1119476 4311 0
53 2 S106 753 1120229 5064 0
53 2 S106 757 1120986 5821 0
53 2 S106 753 1121739 6574 0
0 0 0 704 1122443 -9317 0
0 0 0 736 1123179 -8581 0
0 0 0 727 1123906 -7854 0
0 0 0 751 1124657 -7103 0
0 0 0 713 1125370 -6390 0
0 0 0 721 1126091 -5669 0
0 0 0 842 1126933 -4827 0
0 0 0 820 1127753 -4007 0
0 0 0 742 1128495 -3265 0
0 0 0 695 1129190 -2570 0
54 1 S102 713 1129903 -1857 0
54 1 S102 723 1130626 -1134 0
54 1 S102 788 1131414 -346 0
54 2 S102 756 1132170 410 0
54 2 S102 729 1132899 1139 0
54 2 S102 786 1133685 1925 0
54 2 S102 763 1134448 2688 0
54 2 S102 728 1135176 3416 0
54 2 S102 850 1136026 4266 0
54 2 S102 852 1136878 5118 0
54 2 S102 863 1137741 5981 0
54 2 S102 806 1138547 6787 0
0 0 0 761 1139308 -10937 0
0 0 0 753 1140061 -10184 0
0 0 0 793 1140854 -9391 0
0 0 0 760 1141614 -8631 0
0 0 0 696 1142310 -7935 0
0 0 0 699 1143009 -7236 0
0 0 0 720 1143729 -6516 0
0 0 0 771 1144500 -5745 0
0 0 0 780 1145280 -4965 0
0 0 0 759 1146039 -4206 0
0 0 0 786 1146825 -3420 0
0 0 0 784 1147609 -2636 0
55 1 S106 727 1148336 -1909 0
55 1 S106 695 1149031 -1214 0
55 1 S106 689 1149720 -525 0
55 2 S106 691 1150411 166 0
55 2 S106 682 1151093 848 0
55 2 S106 678 1151771 1526 0
55 2 S106 664 1152435 2190 0
55 2 S106 710 1153145 2900 0
55 2 S106 795 1153940 3695 0
55 2 S106 830 1154770 4525 0
55 2 S106 806 1155576 5331 0
55 2 S106 758 1156334 6089 0
55 2 S106 795 1157129 6884 0
0 0 0 780 1157909 -7273 0
0 0 0 792 1158701 -6481 0
0 0 0 751 1159452 -5730 0
0 0 0 731 1160183 -4999 0
0 0 0 716 1160899 -4283 0
0 0 0 712 1161611 -3571 0
0 0 0 724 1162335 -2847 0
0 0 0 713 1163048 -2134 0
56 1 S116 708 1163756 -1426 0
56 1 S116 748 1164504 -678 0
56 2 S116 774 1165278 96 0
56 2 S116 735 1166013 831 0
56 2 S116 725 1166738 1556 0
56 2 S116 762 1167500 2318 0
56 2 S116 809 1168309 3127 0
56 2 S116 842 1169151 3969 0
56 2 S116 792 1169943 4761 0
56 2 S116 804 1170747 5565 0
56 2 S116 817 1171564 6382 0
0 0 0 826 1172390 -8127 0
0 0 0 823 1173213 -7304 0
0 0 0 733 1173946 -6571 0
0 0 0 738 1174684 -5833 0
0 0 0 820 1175504 -5013 0
0 0 0 785 1176289 -4228 0
0 0 0 712 1177001 -3516 0
0 0 0 700 1177701 -2816 0
0 0 0 738 1178439 -2078 0
57 1 S106 840 1179279 -1238 0
57 1 S106 867 1180146 -371 0
57 2 S106 847 1180993 476 0
57 2 S106 837 1181830 1313 0
57 2 S106 819 1182649 2132 0
57 2 S106 796 1183445 2928 0
57 2 S106 730 1184175 3658 0
57 2 S106 756 1184931 4414 0
57 2 S106 793 1185724 5207 0
57 2 S106 790 1186514 5997 0
57 2 S106 768 1187282 6765 0
0 0 0 731 1188013 -9298 0
0 0 0 781 1188794 -8517 0
0 0 0 771 1189565 -7746 0
0 0 0 813 1190378 -6933 0
0 0 0 723 1191101 -6210 0
0 0 0 704 1191805 -5506 0
0 0 0 708 1192513 -4798 0
0 0 0 724 1193237 -4074 0
0 0 0 722 1193959 -3352 0
0 0 0 688 1194647 -2664 0
58 1 S102 681 1195328 -1983 0
58 1 S102 716 1196044 -1267 0
58 1 S102 769 1196813 -498 0
58 2 S102 774 1197587 276 0
58 2 S102 714 1198301 990 0
58 2 S102 744 1199045 1734 0
58 2 S102 788 1199833 2522 0
58 2 S102 847 1200680 3369 0
58 2 S102 826 1201506 4195 0
58 2 S102 738 1202244 4933 0
58 2 S102 687 1202931 5620 0
58 2 S102 682 1203613 6302 0
58 2 S102 699 1204312 7001 0
0 0 0 743 1205055 -7442 0
0 0 0 738 1205793 -6704 0
0 0 0 719 1206512 -5985 0
0 0 0 712 1207224 -5273 0
0 0 0 737 1207961 -4536 0
0 0 0 708 1208669 -3828 0
0 0 0 672 1209341 -3156 0
0 0 0 673 1210014 -2483 0
59 1 S112 696 1210710 -1787 0
59 1 S112 720 1211430 -1067 0
59 1 S112 730 1212160 -337 0
59 2 S112 688 1212848 351 0
59 2 S112 712 1213560 1063 0
59 2 S112 758 1214318 1821 0
59 2 S112 783 1215101 2604 0
59 2 S112 767 1215868 3371 0
59 2 S112 776 1216644 4147 0
59 2 S112 836 1217480 4983 0
59 2 S112 815 1218295 5798 0
59 2 S112 793 1219088 6591 0
0 0 0 739 1219827 -8668 0
0 0 0 712 1220539 -7956 0
0 0 0 724 1221263 -7232 0
0 0 0 737 1222000 -6495 0
0 0 0 727 1222727 -5768 0
0 0 0 684 1223411 -5084 0
0 0 0 670 1224081 -4414 0
0 0 0 698 1224779 -3716 0
0 0 0 714 1225493 -3002 0
0 0 0 767 1226260 -2235 0
60 1 S102 733 1226993 -1502 0
60 1 S102 720 1227713 -782 0
60 1 S102 753 1228466 -29 0
60 2 S102 756 1229222 727 0
60 2 S102 790 1230012 1517 0
60 2 S102 778 1230790 2295 0
60 2 S102 779 1231569 3074 0
60 2 S102 777 1232346 3851 0
60 2 S102 792 1233138 4643 0
60 2 S102 794 1233932 5437 0
60 2 S102 725 1234657 6162 0
60 2 S102 723 1235380 6885 0
0 0 0 748 1236128 -11250 0
0 0 0 756 1236884 -10494 0
0 0 0 765 1237649 -9729 0
0 0 0 733 1238382 -8996 0
0 0 0 710 1239092 -8286 0
0 0 0 686 1239778 -7600 0
0 0 0 682 1240460 -6918 0
0 0 0 675 1241135 -6243 0
0 0 0 652 1241787 -5591 0
0 0 0 650 1242437 -4941 0
0 0 0 659 1243096 -4282 0
0 0 0 679 1243775 -3603 0
0 0 0 687 1244462 -2916 0
0 0 0 672 1245134 -2244 0
61 1 S106 682 1245816 -1562 0
61 1 S106 715 1246531 -847 0
61 1 S106 722 1247253 -125 0
61 2 S106 695 1247948 570 0
61 2 S106 676 1248624 1246 0
61 2 S106 713 1249337 1959 0
61 2 S106 742 1250079 2701 0
61 2 S106 760 1250839 3461 0
61 2 S106 736 1251575 4197 0
61 2 S106 710 1252285 4907 0
61 2 S106 737 1253022 5644 0
61 2 S106 726 1253748 6370 0
0 0 0 737 1254485 -7714 0
0 0 0 721 1255206 -6993 0
0 0 0 678 1255884 -6315 0
0 0 0 688 1256572 -5627 0
0 0 0 707 1257279 -4920 0
0 0 0 712 1257991 -4208 0
0 0 0 668 1258659 -3540 0
0 0 0 647 1259306 -2893 0
0 0 0 655 1259961 -2238 0
62 1 S112 656 1260617 -1582 0
62 1 S112 667 1261284 -915 0
62 1 S112 683 1261967 -232 0
62 2 S112 670 1262637 438 0
62 2 S112 660 1263297 1098 0
62 2 S112 710 1264007 1808 0
62 2 S112 769 1264776 2577 0
62 2 S112 763 1265539 3340 0
62 2 S112 802 1266341 4142 0
62 2 S112 818 1267159 4960 0
62 2 S112 778 1267937 5738 0
62 2 S112 736 1268673 6474 0
0 0 0 689 1269362 -11537 0
0 0 0 706 1270068 -10831 0
0 0 0 708 1270776 -10123 0
0 0 0 729 1271505 -9394 0
0 0 0 755 1272260 -8639 0
0 0 0 702 1272962 -7937 0
0 0 0 687 1273649 -7250 0
0 0 0 713 1274362 -6537 0
0 0 0 764 1275126 -5773 0
0 0 0 770 1275896 -5003 0
0 0 0 727 1276623 -4276 0
0 0 0 741 1277364 -3535 0
0 0 0 742 1278106 -2793 0
0 0 0 667 1278773 -2126 0
63 1 S102 651 1279424 -1475 0
63 1 S102 679 1280103 -796 0
63 1 S102 664 1280767 -132 0
63 2 S102 643 1281410 511 0
63 2 S102 632 1282042 1143 0
63 2 S102 622 1282664 1765 0
63 2 S102 634 1283298 2399 0
63 2 S102 681 1283979 3080 0
63 2 S102 705 1284684 3785 0
63 2 S102 672 1285356 4457 0
63 2 S102 647 1286003 5104 0
63 2 S102 652 1286655 5756 0
63 2 S102 680 1287335 6436 0
0 0 0 719 1288054 -9440 0
0 0 0 808 1288862 -8632 0
0 0 0 799 1289661 -7833 0
0 0 0 856 1290517 -6977 0
0 0 0 796 1291313 -6181 0
0 0 0 741 1292054 -5440 0
0 0 0 699 1292753 -4741 0
0 0 0 717 1293470 -4024 0
0 0 0 737 1294207 -3287 0
0 0 0 762 1294969 -2525 0
64 1 S112 735 1295704 -1790 0
64 1 S112 684 1296388 -1106 0
64 1 S112 688 1297076 -418 0
64 2 S112 723 1297799 305 0
64 2 S112 787 1298586 1092 0
64 2 S112 808 1299394 1900 0
64 2 S112 725 1300119 2625 0
64 2 S112 790 1300909 3415 0
64 2 S112 808 1301717 4223 0
64 2 S112 785 1302502 5008 0
64 2 S112 723 1303225 5731 0
64 2 S112 779 1304004 6510 0
0 0 0 802 1304806 -6945 0
0 0 0 795 1305601 -6150 0
0 0 0 735 1306336 -5415 0
0 0 0 755 1307091 -4660 0
0 0 0 727 1307818 -3933 0
0 0 0 701 1308519 -3232 0
0 0 0 673 1309192 -2559 0
65 1 S106 672 1309864 -1887 0
65 1 S106 708 1310572 -1179 0
65 1 S106 727 1311299 -452 0
65 2 S106 757 1312056 305 0
65 2 S106 726 1312782 1031 0
65 2 S106 702 1313484 1733 0
65 2 S106 726 1314210 2459 0
65 2 S106 778 1314988 3237 0
65 2 S106 781 1315769 4018 0
65 2 S106 816 1316585 4834 0
65 2 S106 855 1317440 5689 0
65 2 S106 865 1318305 6554 0
0 0 0 816 1319121 -8032 0
0 0 0 759 1319880 -7273 0
0 0 0 764 1320644 -6509 0
0 0 0 817 1321461 -5692 0
0 0 0 809 1322270 -4883 0
0 0 0 719 1322989 -4164 0
0 0 0 716 1323705 -3448 0
0 0 0 716 1324421 -2732 0
66 1 S116 765 1325186 -1967 0
66 1 S116 790 1325976 -1177 0
66 1 S116 824 1326800 -353 0
66 2 S116 856 1327656 503 0
66 2 S116 836 1328492 1339 0
66 2 S116 836 1329328 2175 0
66 2 S116 772 1330100 2947 0
66 2 S116 814 1330914 3761 0
66 2 S116 863 1331777 4624 0
66 2 S116 881 1332658 5505 0
66 2 S116 803 1333461 6308 0
0 0 0 741 1334202 -12231 0
0 0 0 774 1334976 -11457 0
0 0 0 815 1335791 -10642 0
0 0 0 800 1336591 -9842 0
0 0 0 776 1337367 -9066 0
0 0 0 702 1338069 -8364 0
0 0 0 704 1338773 -7660 0
0 0 0 758 1339531 -6902 0
0 0 0 813 1340344 -6089 0
0 0 0 794 1341138 -5295 0
0 0 0 776 1341914 -4519 0
0 0 0 794 1342708 -3725 0
0 0 0 787 1343495 -2938 0
0 0 0 768 1344263 -2170 0
67 1 S102 743 1345006 -1427 0
67 1 S102 741 1345747 -686 0
67 2 S102 751 1346498 65 0
67 2 S102 751 1347249 816 0
67 2 S102 724 1347973 1540 0
67 2 S102 698 1348671 2238 0
67 2 S102 763 1349434 3001 0
67 2 S102 926 1350360 3927 0
67 2 S102 941 1351301 4868 0
67 2 S102 883 1352184 5751 0
67 2 S102 825 1353009 6576 0
0 0 0 902 1353911 -9134 0
0 0 0 923 1354834 -8211 0
0 0 0 855 1355689 -7356 0
0 0 0 811 1356500 -6545 0
0 0 0 757 1357257 -5788 0
0 0 0 835 1358092 -4953 0
0 0 0 809 1358901 -4144 0
0 0 0 759 1359660 -3385 0
0 0 0 716 1360376 -2669 0
68 1 S106 744 1361120 -1925 0
68 1 S106 748 1361868 -1177 0
68 1 S106 801 1362669 -376 0
68 2 S106 811 1363480 435 0
68 2 S106 789 1364269 1224 0
68 2 S106 832 1365101 2056 0
68 2 S106 835 1365936 2891 0
68 2 S106 799 1366735 3690 0
68 2 S106 750 1367485 4440 0
68 2 S106 764 1368249 5204 0
68 2 S106 764 1369013 5968 0
68 2 S106 776 1369789 6744 0
0 0 0 757 1370546 -12493 0
0 0 0 709 1371255 -11784 0
0 0 0 722 1371977 -11062 0
0 0 0 740 1372717 -10322 0
0 0 0 787 1373504 -9535 0
0 0 0 752 1374256 -8783 0
0 0 0 722 1374978 -8061 0
0 0 0 742 1375720 -7319 0
0 0 0 762 1376482 -6557 0
0 0 0 759 1377241 -5798 0
0 0 0 704 1377945 -5094 0
0 0 0 716 1378661 -4378 0
0 0 0 718 1379379 -3660 0
0 0 0 723 1380102 -2937 0
0 0 0 699 1380801 -2238 0
69 1 S102 698 1381499 -1540 0
69 1 S102 725 1382224 -815 0
69 1 S102 736 1382960 -79 0
69 2 S102 738 1383698 659 0
69 2 S102 702 1384400 1361 0
69 2 S102 685 1385085 2046 0
69 2 S102 711 1385796 2757 0
69 2 S102 729 1386525 3486 0
69 2 S102 720 1387245 4206 0
69 2 S102 657 1387902 4863 0
69 2 S102 641 1388543 5504 0
69 2 S102 636 1389179 6140 0
69 2 S102 641 1389820 6781 0
0 0 0 646 1390466 -10361 0
0 0 0 649 1391115 -9712 0
0 0 0 656 1391771 -9056 0
0 0 0 743 1392514 -8313 0
0 0 0 829 1393343 -7484 0
0 0 0 854 1394197 -6630 0
0 0 0 745 1394942 -5885 0
0 0 0 734 1395676 -5151 0
0 0 0 751 1396427 -4400 0
0 0 0 750 1397177 -3650 0
0 0 0 743 1397920 -2907 0
0 0 0 729 1398649 -2178 0
70 1 S112 751 1399400 -1427 0
70 1 S112 777 1400177 -650 0
70 2 S112 788 1400965 138 0
70 2 S112 742 1401707 880 0
70 2 S112 743 1402450 1623 0
70 2 S112 788 1403238 2411 0
70 2 S112 818 1404056 3229 0
70 2 S112 773 1404829 4002 0
70 2 S112 720 1405549 4722 0
70 2 S112 744 1406293 5466 0
70 2 S112 781 1407074 6247 0
70 2 S112 771 1407845 7018 0
0 0 0 754 1408599 -12553 0
0 0 0 717 1409316 -11836 0
0 0 0 790 1410106 -11046 0
0 0 0 841 1410947 -10205 0
0 0 0 831 1411778 -9374 0
0 0 0 744 1412522 -8630 0
0 0 0 763 1413285 -7867 0
0 0 0 770 1414055 -7097 0
0 0 0 795 1414850 -6302 0
0 0 0 750 1415600 -5552 0
0 0 0 724 1416324 -4828 0
0 0 0 785 1417109 -4043 0
0 0 0 814 1417923 -3229 0
0 0 0 843 1418766 -2386 0
71 1 S116 762 1419528 -1624 0
71 1 S116 742 1420270 -882 0
71 1 S116 759 1421029 -123 0
71 2 S116 768 1421797 645 0
71 2 S116 812 1422609 1457 0
71 2 S116 775 1423384 2232 0
71 2 S116 795 1424179 3027 0
71 2 S116 847 1425026 3874 0
71 2 S116 895 1425921 4769 0
71 2 S116 885 1426806 5654 0
71 2 S116 803 1427609 6457 0
0 0 0 779 1428388 -10719 0
0 0 0 804 1429192 -9915 0
0 0 0 784 1429976 -9131 0
0 0 0 803 1430779 -8328 0
0 0 0 752 1431531 -7576 0
0 0 0 735 1432266 -6841 0
0 0 0 731 1432997 -6110 0
0 0 0 779 1433776 -5331 0
0 0 0 812 1434588 -4519 0
0 0 0 757 1435345 -3762 0
0 0 0 825 1436170 -2937 0
0 0 0 865 1437035 -2072 0
72 1 S102 889 1437924 -1183 0
72 1 S102 846 1438770 -337 0
72 2 S102 761 1439531 424 0
72 2 S102 788 1440319 1212 0
72 2 S102 845 1441164 2057 0
72 2 S102 828 1441992 2885 0
72 2 S102 784 1442776 3669 0
72 2 S102 885 1443661 4554 0
72 2 S102 917 1444578 5471 0
72 2 S102 901 1445479 6372 0
0 0 0 799 1446278 -7633 0
0 0 0 783 1447061 -6850 0
0 0 0 788 1447849 -6062 0
0 0 0 849 1448698 -5213 0
0 0 0 775 1449473 -4438 0
0 0 0 733 1450206 -3705 0
0 0 0 779 1450985 -2926 0
0 0 0 858 1451843 -2068 0
73 1 S116 869 1452712 -1199 0
73 1 S116 777 1453489 -422 0
73 2 S116 816 1454305 394 0
73 2 S116 880 1455185 1274 0
73 2 S116 935 1456120 2209 0
73 2 S116 867 1456987 3076 0
73 2 S116 806 1457793 3882 0
73 2 S116 852 1458645 4734 0
73 2 S116 927 1459572 5661 0
73 2 S116 938 1460510 6599 0
0 0 0 857 1461367 -11162 0
0 0 0 925 1462292 -10237 0
0 0 0 912 1463204 -9325 0
0 0 0 889 1464093 -8436 0
0 0 0 796 1464889 -7640 0
0 0 0 818 1465707 -6822 0
0 0 0 817 1466524 -6005 0
0 0 0 782 1467306 -5223 0
0 0 0 770 1468076 -4453 0
0 0 0 746 1468822 -3707 0
0 0 0 828 1469650 -2879 0
0 0 0 861 1470511 -2018 0
74 1 S106 835 1471346 -1183 0
74 1 S106 741 1472087 -442 0
74 2 S106 733 1472820 291 0
74 2 S106 747 1473567 1038 0
74 2 S106 861 1474428 1899 0
74 2 S106 862 1475290 2761 0
74 2 S106 825 1476115 3586 0
74 2 S106 856 1476971 4442 0
74 2 S106 844 1477815 5286 0
74 2 S106 828 1478643 6114 0
74 2 S106 834 1479477 6948 0
0 0 0 766 1480243 -7753 0
0 0 0 774 1481017 -6979 0
0 0 0 801 1481818 -6178 0
0 0 0 844 1482662 -5334 0
0 0 0 825 1483487 -4509 0
0 0 0 725 1484212 -3784 0
0 0 0 767 1484979 -3017 0
0 0 0 786 1485765 -2231 0
75 1 S112 842 1486607 -1389 0
75 1 S112 803 1487410 -586 0
75 2 S112 729 1488139 143 0
75 2 S112 768 1488907 911 0
75 2 S112 802 1489709 1713 0
75 2 S112 898 1490607 2611 0
75 2 S112 851 1491458 3462 0
75 2 S112 777 1492235 4239 0
75 2 S112 760 1492995 4999 0
75 2 S112 756 1493751 5755 0
75 2 S112 784 1494535 6539 0
0 0 0 792 1495327 -7457 0
0 0 0 849 1496176 -6608 0
0 0 0 826 1497002 -5782 0
0 0 0 763 1497765 -5019 0
0 0 0 703 1498468 -4316 0
0 0 0 686 1499154 -3630 0
0 0 0 666 1499820 -2964 0
0 0 0 640 1500460 -2324 0
76 1 S116 632 1501092 -1692 0
76 1 S116 656 1501748 -1036 0
76 1 S116 687 1502435 -349 0
76 2 S116 696 1503131 347 0
76 2 S116 695 1503826 1042 0
76 2 S116 652 1504478 1694 0
76 2 S116 669 1505147 2363 0
76 2 S116 848 1505995 3211 0
76 2 S116 863 1506858 4074 0
76 2 S116 824 1507682 4898 0
76 2 S116 740 1508422 5638 0
76 2 S116 765 1509187 6403 0
0 0 0 787 1509974 -8062 0
0 0 0 801 1510775 -7261 0
0 0 0 778 1511553 -6483 0
0 0 0 708 1512261 -5775 0
0 0 0 747 1513008 -5028 0
0 0 0 747 1513755 -4281 0
0 0 0 804 1514559 -3477 0
0 0 0 802 1515361 -2675 0
77 1 S106 722 1516083 -1953 0
77 1 S106 799 1516882 -1154 0
77 1 S106 841 1517723 -313 0
77 2 S106 887 1518610 574 0
77 2 S106 842 1519452 1416 0
77 2 S106 857 1520309 2273 0
77 2 S106 878 1521187 3151 0
77 2 S106 881 1522068 4032 0
77 2 S106 846 1522914 4878 0
77 2 S106 794 1523708 5672 0
77 2 S106 851 1524559 6523 0
0 0 0 883 1525442 -9521 0
0 0 0 878 1526320 -8643 0
0 0 0 810 1527130 -7833 0
0 0 0 761 1527891 -7072 0
0 0 0 783 1528674 -6289 0
0 0 0 764 1529438 -5525 0
0 0 0 725 1530163 -4800 0
0 0 0 702 1530865 -4098 0
0 0 0 722 1531587 -3376 0
0 0 0 759 1532346 -2617 0
78 1 S112 736 1533082 -1881 0
78 1 S112 702 1533784 -1179 0
78 1 S112 754 1534538 -425 0
78 2 S112 772 1535310 347 0
78 2 S112 793 1536103 1140 0
78 2 S112 765 1536868 1905 0
78 2 S112 730 1537598 2635 0
78 2 S112 750 1538348 3385 0
78 2 S112 743 1539091 4128 0
78 2 S112 712 1539803 4840 0
78 2 S112 675 1540478 5515 0
78 2 S112 679 1541157 6194 0
78 2 S112 693 1541850 6887 0
0 0 0 723 1542573 -11704 0
0 0 0 745 1543318 -10959 0
0 0 0 764 1544082 -10195 0
0 0 0 778 1544860 -9417 0
0 0 0 750 1545610 -8667 0
0 0 0 696 1546306 -7971 0
0 0 0 688 1546994 -7283 0
0 0 0 694 1547688 -6589 0
0 0 0 709 1548397 -5880 0
0 0 0 756 1549153 -5124 0
0 0 0 769 1549922 -4355 0
0 0 0 731 1550653 -3624 0
0 0 0 753 1551406 -2871 0
0 0 0 756 1552162 -2115 0
79 1 S102 764 1552926 -1351 0
79 1 S102 729 1553655 -622 0
79 2 S102 682 1554337 60 0
79 2 S102 681 1555018 741 0
79 2 S102 695 1555713 1436 0
79 2 S102 772 1556485 2208 0
79 2 S102 810 1557295 3018 0
79 2 S102 783 1558078 3801 0
79 2 S102 787 1558865 4588 0
79 2 S102 844 1559709 5432 0
79 2 S102 837 1560546 6269 0
0 0 0 786 1561332 -10070 0
0 0 0 715 1562047 -9355 0
0 0 0 713 1562760 -8642 0
0 0 0 716 1563476 -7926 0
0 0 0 790 1564266 -7136 0
0 0 0 732 1564998 -6404 0
0 0 0 682 1565680 -5722 0
0 0 0 685 1566365 -5037 0
0 0 0 652 1567017 -4385 0
0 0 0 627 1567644 -3758 0
0 0 0 622 1568266 -3136 0
0 0 0 610 1568876 -2526 0
80 1 S116 603 1569479 -1923 0
80 1 S116 613 1570092 -1310 0
80 1 S116 613 1570705 -697 0
80 1 S116 618 1571323 -79 0
80 2 S116 619 1571942 540 0
80 2 S116 645 1572587 1185 0
80 2 S116 681 1573268 1866 0
80 2 S116 653 1573921 2519 0
80 2 S116 684 1574605 3203 0
80 2 S116 724 1575329 3927 0
80 2 S116 753 1576082 4680 0
80 2 S116 784 1576866 5464 0
80 2 S116 743 1577609 6207 0
80 2 S116 707 1578316 6914 0
