T_0012
BeatCount Mean SD BeatCountNoOutliers MeanNoOutliers SDNoOutliers
2239 701,03707012059 60,6100057627551 2221 699,462404322377 49,9624779976066

Trial TrialStatus Trialtype IBI AbsPosition RelPosition Outlier
0 0 0 736 918 -18185 0
0 0 0 750 1668 -17435 0
0 0 0 728 2396 -16707 0
0 0 0 678 3074 -16029 0
0 0 0 666 3740 -15363 0
0 0 0 675 4415 -14688 0
0 0 0 677 5092 -14011 0
0 0 0 678 5770 -13333 0
0 0 0 670 6440 -12663 0
0 0 0 646 7086 -12017 0
0 0 0 678 7764 -11339 0
0 0 0 696 8460 -10643 0
0 0 0 730 9190 -9913 0
0 0 0 740 9930 -9173 0
0 0 0 703 10633 -8470 0
0 0 0 695 11328 -7775 0
0 0 0 651 11979 -7124 0
0 0 0 656 12635 -6468 0
0 0 0 663 13298 -5805 0
0 0 0 654 13952 -5151 0
0 0 0 635 14587 -4516 0
0 0 0 646 15233 -3870 0
0 0 0 662 15895 -3208 0
0 0 0 667 16562 -2541 0
1 1 S112 664 17226 -1877 0
1 1 S112 640 17866 -1237 0
1 1 S112 670 18536 -567 0
1 2 S112 672 19208 105 0
1 2 S112 677 19885 782 0
1 2 S112 671 20556 1453 0
1 2 S112 670 21226 2123 0
1 2 S112 653 21879 2776 0
1 2 S112 676 22555 3452 0
1 2 S112 701 23256 4153 0
1 2 S112 721 23977 4874 0
1 2 S112 678 24655 5552 0
1 2 S112 678 25333 6230 0
1 2 S112 687 26020 6917 0
0 0 0 705 26725 -10995 0
0 0 0 669 27394 -10326 0
0 0 0 704 28098 -9622 0
0 0 0 702 28800 -8920 0
0 0 0 672 29472 -8248 0
0 0 0 647 30119 -7601 0
0 0 0 651 30770 -6950 0
0 0 0 666 31436 -6284 0
0 0 0 682 32118 -5602 0
0 0 0 680 32798 -4922 0
0 0 0 669 33467 -4253 0
0 0 0 696 34163 -3557 0
0 0 0 706 34869 -2851 0
0 0 0 712 35581 -2139 0
2 1 S102 672 36253 -1467 0
2 1 S102 682 36935 -785 0
2 1 S102 672 37607 -113 0
2 2 S102 678 38285 565 0
2 2 S102 676 38961 1241 0
2 2 S102 670 39631 1911 0
2 2 S102 697 40328 2608 0
2 2 S102 702 41030 3310 0
2 2 S102 690 41720 4000 0
2 2 S102 672 42392 4672 0
2 2 S102 707 43099 5379 0
2 2 S102 713 43812 6092 0
2 2 S102 702 44514 6794 0
0 0 0 671 45185 -9777 0
0 0 0 696 45881 -9081 0
0 0 0 684 46565 -8397 0
0 0 0 693 47258 -7704 0
0 0 0 678 47936 -7026 0
0 0 0 675 48611 -6351 0
0 0 0 658 49269 -5693 0
0 0 0 635 49904 -5058 0
0 0 0 643 50547 -4415 0
0 0 0 648 51195 -3767 0
0 0 0 668 51863 -3099 0
0 0 0 667 52530 -2432 0
3 1 S116 722 53252 -1710 0
3 1 S116 740 53992 -970 0
3 1 S116 726 54718 -244 0
3 2 S116 681 55399 437 0
3 2 S116 712 56111 1149 0
3 2 S116 722 56833 1871 0
3 2 S116 712 57545 2583 0
3 2 S116 704 58249 3287 0
3 2 S116 731 58980 4018 0
3 2 S116 753 59733 4771 0
3 2 S116 730 60463 5501 0
3 2 S116 679 61142 6180 0
3 2 S116 705 61847 6885 0
0 0 0 695 62542 -11949 0
0 0 0 688 63230 -11261 0
0 0 0 650 63880 -10611 0
0 0 0 653 64533 -9958 0
0 0 0 671 65204 -9287 0
0 0 0 684 65888 -8603 0
0 0 0 658 66546 -7945 0
0 0 0 659 67205 -7286 0
0 0 0 674 67879 -6612 0
0 0 0 696 68575 -5916 0
0 0 0 689 69264 -5227 0
0 0 0 672 69936 -4555 0
0 0 0 691 70627 -3864 0
0 0 0 694 71321 -3170 0
0 0 0 672 71993 -2498 0
4 1 S106 697 72690 -1801 0
4 1 S106 710 73400 -1091 0
4 1 S106 709 74109 -382 0
4 2 S106 745 74854 363 0
4 2 S106 779 75633 1142 0
4 2 S106 796 76429 1938 0
4 2 S106 715 77144 2653 0
4 2 S106 738 77882 3391 0
4 2 S106 732 78614 4123 0
4 2 S106 728 79342 4851 0
4 2 S106 689 80031 5540 0
4 2 S106 709 80740 6249 0
4 2 S106 730 81470 6979 0
0 0 0 750 82220 -7590 0
0 0 0 685 82905 -6905 0
0 0 0 685 83590 -6220 0
0 0 0 710 84300 -5510 0
0 0 0 731 85031 -4779 0
0 0 0 662 85693 -4117 0
0 0 0 666 86359 -3451 0
0 0 0 645 87004 -2806 0
0 0 0 627 87631 -2179 0
5 1 S116 608 88239 -1571 0
5 1 S116 615 88854 -956 0
5 1 S116 629 89483 -327 0
5 2 S116 639 90122 312 0
5 2 S116 635 90757 947 0
5 2 S116 648 91405 1595 0
5 2 S116 617 92022 2212 0
5 2 S116 607 92629 2819 0
5 2 S116 604 93233 3423 0
5 2 S116 606 93839 4029 0
5 2 S116 614 94453 4643 0
5 2 S116 606 95059 5249 0
5 2 S116 604 95663 5853 0
5 2 S116 624 96287 6477 0
0 0 0 645 96932 -10417 0
0 0 0 690 97622 -9727 0
0 0 0 662 98284 -9065 0
0 0 0 609 98893 -8456 0
0 0 0 606 99499 -7850 0
0 0 0 659 100158 -7191 0
0 0 0 635 100793 -6556 0
0 0 0 634 101427 -5922 0
0 0 0 642 102069 -5280 0
0 0 0 604 102673 -4676 0
0 0 0 609 103282 -4067 0
0 0 0 604 103886 -3463 0
0 0 0 590 104476 -2873 0
0 0 0 587 105063 -2286 0
6 1 S106 616 105679 -1670 0
6 1 S106 618 106297 -1052 0
6 1 S106 646 106943 -406 0
6 2 S106 639 107582 233 0
6 2 S106 663 108245 896 0
6 2 S106 730 108975 1626 0
6 2 S106 760 109735 2386 0
6 2 S106 797 110532 3183 0
6 2 S106 790 111322 3973 0
6 2 S106 737 112059 4710 0
6 2 S106 775 112834 5485 0
6 2 S106 769 113603 6254 0
6 2 S106 755 114358 7009 0
0 0 0 714 115072 -9735 0
0 0 0 754 115826 -8981 0
0 0 0 760 116586 -8221 0
0 0 0 698 117284 -7523 0
0 0 0 694 117978 -6829 0
0 0 0 743 118721 -6086 0
0 0 0 733 119454 -5353 0
0 0 0 716 120170 -4637 0
0 0 0 704 120874 -3933 0
0 0 0 653 121527 -3280 0
0 0 0 646 122173 -2634 0
7 1 S102 640 122813 -1994 0
7 1 S102 634 123447 -1360 0
7 1 S102 655 124102 -705 0
7 1 S102 688 124790 -17 0
7 2 S102 732 125522 715 0
7 2 S102 784 126306 1499 0
7 2 S102 770 127076 2269 0
7 2 S102 723 127799 2992 0
7 2 S102 749 128548 3741 0
7 2 S102 759 129307 4500 0
7 2 S102 752 130059 5252 0
7 2 S102 704 130763 5956 0
7 2 S102 741 131504 6697 0
0 0 0 738 132242 -8215 0
0 0 0 760 133002 -7455 0
0 0 0 733 133735 -6722 0
0 0 0 747 134482 -5975 0
0 0 0 737 135219 -5238 0
0 0 0 693 135912 -4545 0
0 0 0 710 136622 -3835 0
0 0 0 706 137328 -3129 0
0 0 0 722 138050 -2407 0
8 1 S112 668 138718 -1739 0
8 1 S112 693 139411 -1046 0
8 1 S112 694 140105 -352 0
8 2 S112 720 140825 368 0
8 2 S112 725 141550 1093 0
8 2 S112 784 142334 1877 0
8 2 S112 772 143106 2649 0
8 2 S112 716 143822 3365 0
8 2 S112 724 144546 4089 0
8 2 S112 709 145255 4798 0
8 2 S112 692 145947 5490 0
8 2 S112 669 146616 6159 0
8 2 S112 707 147323 6866 0
0 0 0 727 148050 -7178 0
0 0 0 680 148730 -6498 0
0 0 0 730 149460 -5768 0
0 0 0 717 150177 -5051 0
0 0 0 665 150842 -4386 0
0 0 0 672 151514 -3714 0
0 0 0 687 152201 -3027 0
0 0 0 718 152919 -2309 0
9 1 S116 690 153609 -1619 0
9 1 S116 683 154292 -936 0
9 1 S116 722 155014 -214 0
9 2 S116 714 155728 500 0
9 2 S116 726 156454 1226 0
9 2 S116 750 157204 1976 0
9 2 S116 738 157942 2714 0
9 2 S116 683 158625 3397 0
9 2 S116 735 159360 4132 0
9 2 S116 749 160109 4881 0
9 2 S116 761 160870 5642 0
9 2 S116 712 161582 6354 0
0 0 0 754 162336 -13167 0
0 0 0 746 163082 -12421 0
0 0 0 748 163830 -11673 0
0 0 0 714 164544 -10959 0
0 0 0 778 165322 -10181 0
0 0 0 808 166130 -9373 0
0 0 0 774 166904 -8599 0
0 0 0 700 167604 -7899 0
0 0 0 719 168323 -7180 0
0 0 0 714 169037 -6466 0
0 0 0 674 169711 -5792 0
0 0 0 698 170409 -5094 0
0 0 0 702 171111 -4392 0
0 0 0 730 171841 -3662 0
0 0 0 692 172533 -2970 0
0 0 0 730 173263 -2240 0
10 1 S102 749 174012 -1491 0
10 1 S102 774 174786 -717 0
10 1 S102 705 175491 -12 0
10 2 S102 751 176242 739 0
10 2 S102 740 176982 1479 0
10 2 S102 704 177686 2183 0
10 2 S102 686 178372 2869 0
10 2 S102 695 179067 3564 0
10 2 S102 693 179760 4257 0
10 2 S102 667 180427 4924 0
10 2 S102 660 181087 5584 0
10 2 S102 671 181758 6255 0
10 2 S102 671 182429 6926 0
0 0 0 674 183103 -11764 0
0 0 0 720 183823 -11044 0
0 0 0 761 184584 -10283 0
0 0 0 774 185358 -9509 0
0 0 0 750 186108 -8759 0
0 0 0 734 186842 -8025 0
0 0 0 711 187553 -7314 0
0 0 0 669 188222 -6645 0
0 0 0 675 188897 -5970 0
0 0 0 662 189559 -5308 0
0 0 0 637 190196 -4671 0
0 0 0 622 190818 -4049 0
0 0 0 643 191461 -3406 0
0 0 0 639 192100 -2767 0
0 0 0 715 192815 -2052 0
11 1 S112 770 193585 -1282 0
11 1 S112 780 194365 -502 0
11 2 S112 738 195103 236 0
11 2 S112 794 195897 1030 0
11 2 S112 792 196689 1822 0
11 2 S112 777 197466 2599 0
11 2 S112 735 198201 3334 0
11 2 S112 763 198964 4097 0
11 2 S112 758 199722 4855 0
11 2 S112 741 200463 5596 0
11 2 S112 730 201193 6326 0
0 0 0 760 201953 -8498 0
0 0 0 773 202726 -7725 0
0 0 0 734 203460 -6991 0
0 0 0 779 204239 -6212 0
0 0 0 803 205042 -5409 0
0 0 0 769 205811 -4640 0
0 0 0 746 206557 -3894 0
0 0 0 752 207309 -3142 0
0 0 0 760 208069 -2382 0
12 1 S116 697 208766 -1685 0
12 1 S116 696 209462 -989 0
12 1 S116 681 210143 -308 0
12 2 S116 672 210815 364 0
12 2 S116 687 211502 1051 0
12 2 S116 709 212211 1760 0
12 2 S116 742 212953 2502 0
12 2 S116 700 213653 3202 0
12 2 S116 739 214392 3941 0
12 2 S116 741 215133 4682 0
12 2 S116 736 215869 5418 0
12 2 S116 689 216558 6107 0
12 2 S116 708 217266 6815 0
0 0 0 708 217974 -13084 0
0 0 0 688 218662 -12396 0
0 0 0 701 219363 -11695 0
0 0 0 705 220068 -10990 0
0 0 0 732 220800 -10258 0
0 0 0 741 221541 -9517 0
0 0 0 790 222331 -8727 0
0 0 0 758 223089 -7969 0
0 0 0 688 223777 -7281 0
0 0 0 711 224488 -6570 0
0 0 0 709 225197 -5861 0
0 0 0 676 225873 -5185 0
0 0 0 714 226587 -4471 0
0 0 0 732 227319 -3739 0
0 0 0 703 228022 -3036 0
0 0 0 721 228743 -2315 0
13 1 S112 723 229466 -1592 0
13 1 S112 729 230195 -863 0
13 1 S112 691 230886 -172 0
13 2 S112 715 231601 543 0
13 2 S112 726 232327 1269 0
13 2 S112 756 233083 2025 0
13 2 S112 720 233803 2745 0
13 2 S112 720 234523 3465 0
13 2 S112 726 235249 4191 0
13 2 S112 736 235985 4927 0
13 2 S112 678 236663 5605 0
13 2 S112 704 237367 6309 0
13 2 S112 702 238069 7011 0
0 0 0 689 238758 -12310 0
0 0 0 707 239465 -11603 0
0 0 0 704 240169 -10899 0
0 0 0 682 240851 -10217 0
0 0 0 672 241523 -9545 0
0 0 0 698 242221 -8847 0
0 0 0 715 242936 -8132 0
0 0 0 667 243603 -7465 0
0 0 0 693 244296 -6772 0
0 0 0 691 244987 -6081 0
0 0 0 698 245685 -5383 0
0 0 0 662 246347 -4721 0
0 0 0 689 247036 -4032 0
0 0 0 686 247722 -3346 0
0 0 0 703 248425 -2643 0
14 1 S106 676 249101 -1967 0
14 1 S106 723 249824 -1244 0
14 1 S106 729 250553 -515 0
14 2 S106 729 251282 214 0
14 2 S106 686 251968 900 0
14 2 S106 707 252675 1607 0
14 2 S106 701 253376 2308 0
14 2 S106 680 254056 2988 0
14 2 S106 696 254752 3684 0
14 2 S106 698 255450 4382 0
14 2 S106 662 256112 5044 0
14 2 S106 687 256799 5731 0
14 2 S106 688 257487 6419 0
0 0 0 687 258174 -11445 0
0 0 0 679 258853 -10766 0
0 0 0 717 259570 -10049 0
0 0 0 725 260295 -9324 0
0 0 0 696 260991 -8628 0
0 0 0 675 261666 -7953 0
0 0 0 673 262339 -7280 0
0 0 0 675 263014 -6605 0
0 0 0 658 263672 -5947 0
0 0 0 671 264343 -5276 0
0 0 0 669 265012 -4607 0
0 0 0 674 265686 -3933 0
0 0 0 657 266343 -3276 0
0 0 0 684 267027 -2592 0
15 1 S116 721 267748 -1871 0
15 1 S116 737 268485 -1134 0
15 1 S116 700 269185 -434 0
15 2 S116 720 269905 286 0
15 2 S116 710 270615 996 0
15 2 S116 687 271302 1683 0
15 2 S116 697 271999 2380 0
15 2 S116 703 272702 3083 0
15 2 S116 677 273379 3760 0
15 2 S116 679 274058 4439 0
15 2 S116 721 274779 5160 0
15 2 S116 736 275515 5896 0
15 2 S116 685 276200 6581 0
0 0 0 715 276915 -10277 0
0 0 0 723 277638 -9554 0
0 0 0 723 278361 -8831 0
0 0 0 678 279039 -8153 0
0 0 0 719 279758 -7434 0
0 0 0 711 280469 -6723 0
0 0 0 662 281131 -6061 0
0 0 0 661 281792 -5400 0
0 0 0 661 282453 -4739 0
0 0 0 673 283126 -4066 0
0 0 0 644 283770 -3422 0
0 0 0 658 284428 -2764 0
0 0 0 666 285094 -2098 0
16 1 S116 656 285750 -1442 0
16 1 S116 654 286404 -788 0
16 1 S116 677 287081 -111 0
16 2 S116 691 287772 580 0
16 2 S116 694 288466 1274 0
16 2 S116 740 289206 2014 0
16 2 S116 746 289952 2760 0
16 2 S116 717 290669 3477 0
16 2 S116 671 291340 4148 0
16 2 S116 687 292027 4835 0
16 2 S116 672 292699 5507 0
16 2 S116 654 293353 6161 0
16 2 S116 660 294013 6821 0
0 0 0 694 294707 -9627 0
0 0 0 709 295416 -8918 0
0 0 0 671 296087 -8247 0
0 0 0 686 296773 -7561 0
0 0 0 686 297459 -6875 0
0 0 0 647 298106 -6228 0
0 0 0 624 298730 -5604 0
0 0 0 616 299346 -4988 0
0 0 0 603 299949 -4385 0
0 0 0 606 300555 -3779 0
0 0 0 614 301169 -3165 0
0 0 0 610 301779 -2555 0
17 1 S106 639 302418 -1916 0
17 1 S106 663 303081 -1253 0
17 1 S106 690 303771 -563 0
17 2 S106 682 304453 119 0
17 2 S106 690 305143 809 0
17 2 S106 704 305847 1513 0
17 2 S106 728 306575 2241 0
17 2 S106 694 307269 2935 0
17 2 S106 640 307909 3575 0
17 2 S106 635 308544 4210 0
17 2 S106 639 309183 4849 0
17 2 S106 678 309861 5527 0
17 2 S106 745 310606 6272 0
0 0 0 762 311368 -12247 0
0 0 0 721 312089 -11526 0
0 0 0 768 312857 -10758 0
0 0 0 781 313638 -9977 0
0 0 0 792 314430 -9185 0
0 0 0 756 315186 -8429 0
0 0 0 731 315917 -7698 0
0 0 0 719 316636 -6979 0
0 0 0 719 317355 -6260 0
0 0 0 712 318067 -5548 0
0 0 0 702 318769 -4846 0
0 0 0 710 319479 -4136 0
0 0 0 733 320212 -3403 0
0 0 0 686 320898 -2717 0
18 1 S102 728 321626 -1989 0
18 1 S102 738 322364 -1251 0
18 1 S102 741 323105 -510 0
18 2 S102 715 323820 205 0
18 2 S102 746 324566 951 0
18 2 S102 757 325323 1708 0
18 2 S102 718 326041 2426 0
18 2 S102 698 326739 3124 0
18 2 S102 694 327433 3818 0
18 2 S102 687 328120 4505 0
18 2 S102 654 328774 5159 0
18 2 S102 679 329453 5838 0
18 2 S102 689 330142 6527 0
0 0 0 695 330837 -7533 0
0 0 0 718 331555 -6815 0
0 0 0 765 332320 -6050 0
0 0 0 771 333091 -5279 0
0 0 0 719 333810 -4560 0
0 0 0 714 334524 -3846 0
0 0 0 683 335207 -3163 0
0 0 0 657 335864 -2506 0
19 1 S106 658 336522 -1848 0
19 1 S106 662 337184 -1186 0
19 1 S106 639 337823 -547 0
19 2 S106 667 338490 120 0
19 2 S106 710 339200 830 0
19 2 S106 798 339998 1628 0
19 2 S106 734 340732 2362 0
19 2 S106 759 341491 3121 0
19 2 S106 776 342267 3897 0
19 2 S106 723 342990 4620 0
19 2 S106 716 343706 5336 0
19 2 S106 708 344414 6044 0
19 2 S106 694 345108 6738 0
0 0 0 658 345766 -11420 0
0 0 0 677 346443 -10743 0
0 0 0 683 347126 -10060 0
0 0 0 702 347828 -9358 0
0 0 0 697 348525 -8661 0
0 0 0 722 349247 -7939 0
0 0 0 697 349944 -7242 0
0 0 0 714 350658 -6528 0
0 0 0 705 351363 -5823 0
0 0 0 680 352043 -5143 0
0 0 0 689 352732 -4454 0
0 0 0 703 353435 -3751 0
0 0 0 716 354151 -3035 0
0 0 0 677 354828 -2358 0
20 1 S112 704 355532 -1654 0
20 1 S112 705 356237 -949 0
20 1 S112 680 356917 -269 0
20 2 S112 683 357600 414 0
20 2 S112 705 358305 1119 0
20 2 S112 713 359018 1832 0
20 2 S112 685 359703 2517 0
20 2 S112 726 360429 3243 0
20 2 S112 725 361154 3968 0
20 2 S112 709 361863 4677 0
20 2 S112 696 362559 5373 0
20 2 S112 703 363262 6076 0
20 2 S112 710 363972 6786 0
0 0 0 668 364640 -11147 0
0 0 0 704 365344 -10443 0
0 0 0 708 366052 -9735 0
0 0 0 677 366729 -9058 0
0 0 0 679 367408 -8379 0
0 0 0 707 368115 -7672 0
0 0 0 749 368864 -6923 0
0 0 0 712 369576 -6211 0
0 0 0 712 370288 -5499 0
0 0 0 705 370993 -4794 0
0 0 0 705 371698 -4089 0
0 0 0 673 372371 -3416 0
0 0 0 692 373063 -2724 0
0 0 0 693 373756 -2031 0
21 1 S106 671 374427 -1360 0
21 1 S106 686 375113 -674 0
21 2 S106 685 375798 11 0
21 2 S106 689 376487 700 0
21 2 S106 697 377184 1397 0
21 2 S106 715 377899 2112 0
21 2 S106 710 378609 2822 0
21 2 S106 690 379299 3512 0
21 2 S106 703 380002 4215 0
21 2 S106 717 380719 4932 0
21 2 S106 664 381383 5596 0
21 2 S106 685 382068 6281 0
21 2 S106 676 382744 6957 0
0 0 0 663 383407 -11976 0
0 0 0 675 384082 -11301 0
0 0 0 706 384788 -10595 0
0 0 0 766 385554 -9829 0
0 0 0 766 386320 -9063 0
0 0 0 758 387078 -8305 0
0 0 0 703 387781 -7602 0
0 0 0 694 388475 -6908 0
0 0 0 696 389171 -6212 0
0 0 0 698 389869 -5514 0
0 0 0 670 390539 -4844 0
0 0 0 685 391224 -4159 0
0 0 0 691 391915 -3468 0
0 0 0 668 392583 -2800 0
0 0 0 664 393247 -2136 0
22 1 S116 686 393933 -1450 0
22 1 S116 710 394643 -740 0
22 1 S116 722 395365 -18 0
22 2 S116 701 396066 683 0
22 2 S116 736 396802 1419 0
22 2 S116 747 397549 2166 0
22 2 S116 727 398276 2893 0
22 2 S116 717 398993 3610 0
22 2 S116 721 399714 4331 0
22 2 S116 719 400433 5050 0
22 2 S116 678 401111 5728 0
22 2 S116 693 401804 6421 0
0 0 0 695 402499 -10440 0
0 0 0 709 403208 -9731 0
0 0 0 668 403876 -9063 0
0 0 0 693 404569 -8370 0
0 0 0 694 405263 -7676 0
0 0 0 702 405965 -6974 0
0 0 0 653 406618 -6321 0
0 0 0 660 407278 -5661 0
0 0 0 668 407946 -4993 0
0 0 0 660 408606 -4333 0
0 0 0 645 409251 -3688 0
0 0 0 658 409909 -3030 0
0 0 0 664 410573 -2366 0
23 1 S112 659 411232 -1707 0
23 1 S112 676 411908 -1031 0
23 1 S112 680 412588 -351 0
23 2 S112 700 413288 349 0
23 2 S112 700 413988 1049 0
23 2 S112 741 414729 1790 0
23 2 S112 739 415468 2529 0
23 2 S112 686 416154 3215 0
23 2 S112 686 416840 3901 0
23 2 S112 688 417528 4589 0
23 2 S112 673 418201 5262 0
23 2 S112 649 418850 5911 0
23 2 S112 670 419520 6581 0
0 0 0 702 420222 -8632 0
0 0 0 701 420923 -7931 0
0 0 0 745 421668 -7186 0
0 0 0 721 422389 -6465 0
0 0 0 692 423081 -5773 0
0 0 0 713 423794 -5060 0
0 0 0 729 424523 -4331 0
0 0 0 741 425264 -3590 0
0 0 0 675 425939 -2915 0
0 0 0 696 426635 -2219 0
24 1 S106 698 427333 -1521 0
24 1 S106 688 428021 -833 0
24 1 S106 675 428696 -158 0
24 2 S106 700 429396 542 0
24 2 S106 718 430114 1260 0
24 2 S106 695 430809 1955 0
24 2 S106 663 431472 2618 0
24 2 S106 618 432090 3236 0
24 2 S106 664 432754 3900 0
24 2 S106 659 433413 4559 0
24 2 S106 682 434095 5241 0
24 2 S106 723 434818 5964 0
24 2 S106 757 435575 6721 0
0 0 0 766 436341 -8976 0
0 0 0 748 437089 -8228 0
0 0 0 766 437855 -7462 0
0 0 0 759 438614 -6703 0
0 0 0 726 439340 -5977 0
0 0 0 660 440000 -5317 0
0 0 0 718 440718 -4599 0
0 0 0 712 441430 -3887 0
0 0 0 705 442135 -3182 0
0 0 0 676 442811 -2506 0
25 1 S102 721 443532 -1785 0
25 1 S102 763 444295 -1022 0
25 1 S102 770 445065 -252 0
25 2 S102 772 445837 520 0
25 2 S102 806 446643 1326 0
25 2 S102 790 447433 2116 0
25 2 S102 702 448135 2818 0
25 2 S102 723 448858 3541 0
25 2 S102 710 449568 4251 0
25 2 S102 693 450261 4944 0
25 2 S102 671 450932 5615 0
25 2 S102 702 451634 6317 0
0 0 0 720 452354 -6872 0
0 0 0 718 453072 -6154 0
0 0 0 724 453796 -5430 0
0 0 0 724 454520 -4706 0
0 0 0 690 455210 -4016 0
0 0 0 668 455878 -3348 0
0 0 0 662 456540 -2686 0
0 0 0 662 457202 -2024 0
26 1 S116 635 457837 -1389 0
26 1 S116 664 458501 -725 0
26 1 S116 665 459166 -60 0
26 2 S116 686 459852 626 0
26 2 S116 684 460536 1310 0
26 2 S116 739 461275 2049 0
26 2 S116 735 462010 2784 0
26 2 S116 703 462713 3487 0
26 2 S116 712 463425 4199 0
26 2 S116 706 464131 4905 0
26 2 S116 698 464829 5603 0
26 2 S116 659 465488 6262 0
26 2 S116 682 466170 6944 0
0 0 0 673 466843 -7270 0
0 0 0 683 467526 -6587 0
0 0 0 681 468207 -5906 0
0 0 0 728 468935 -5178 0
0 0 0 729 469664 -4449 0
0 0 0 669 470333 -3780 0
0 0 0 696 471029 -3084 0
0 0 0 697 471726 -2387 0
27 1 S106 701 472427 -1686 0
27 1 S106 667 473094 -1019 0
27 1 S106 699 473793 -320 0
27 2 S106 697 474490 377 0
27 2 S106 704 475194 1081 0
27 2 S106 678 475872 1759 0
27 2 S106 693 476565 2452 0
27 2 S106 691 477256 3143 0
27 2 S106 665 477921 3808 0
27 2 S106 652 478573 4460 0
27 2 S106 665 479238 5125 0
27 2 S106 658 479896 5783 0
27 2 S106 647 480543 6430 0
0 0 0 646 481189 -6751 0
0 0 0 675 481864 -6076 0
0 0 0 708 482572 -5368 0
0 0 0 704 483276 -4664 0
0 0 0 691 483967 -3973 0
0 0 0 677 484644 -3296 0
0 0 0 658 485302 -2638 0
28 1 S102 646 485948 -1992 0
28 1 S102 663 486611 -1329 0
28 1 S102 677 487288 -652 0
28 2 S102 681 487969 29 0
28 2 S102 665 488634 694 0
28 2 S102 704 489338 1398 0
28 2 S102 715 490053 2113 0
28 2 S102 702 490755 2815 0
28 2 S102 680 491435 3495 0
28 2 S102 703 492138 4198 0
28 2 S102 696 492834 4894 0
28 2 S102 669 493503 5563 0
28 2 S102 668 494171 6231 0
28 2 S102 671 494842 6902 0
0 0 0 676 495518 -11354 0
0 0 0 654 496172 -10700 0
0 0 0 673 496845 -10027 0
0 0 0 696 497541 -9331 0
0 0 0 734 498275 -8597 0
0 0 0 667 498942 -7930 0
0 0 0 676 499618 -7254 0
0 0 0 680 500298 -6574 0
0 0 0 685 500983 -5889 0
0 0 0 657 501640 -5232 0
0 0 0 675 502315 -4557 0
0 0 0 674 502989 -3883 0
0 0 0 678 503667 -3205 0
0 0 0 649 504316 -2556 0
29 1 S112 684 505000 -1872 0
29 1 S112 695 505695 -1177 0
29 1 S112 717 506412 -460 0
29 2 S112 697 507109 237 0
29 2 S112 728 507837 965 0
29 2 S112 733 508570 1698 0
29 2 S112 708 509278 2406 0
29 2 S112 676 509954 3082 0
29 2 S112 694 510648 3776 0
29 2 S112 691 511339 4467 0
29 2 S112 658 511997 5125 0
29 2 S112 666 512663 5791 0
29 2 S112 706 513369 6497 0
0 0 0 716 514085 -8089 0
0 0 0 692 514777 -7397 0
0 0 0 707 515484 -6690 0
0 0 0 734 516218 -5956 0
0 0 0 756 516974 -5200 0
0 0 0 707 517681 -4493 0
0 0 0 725 518406 -3768 0
0 0 0 718 519124 -3050 0
0 0 0 669 519793 -2381 0
30 1 S112 684 520477 -1697 0
30 1 S112 686 521163 -1011 0
30 1 S112 702 521865 -309 0
30 2 S112 669 522534 360 0
30 2 S112 692 523226 1052 0
30 2 S112 709 523935 1761 0
30 2 S112 742 524677 2503 0
30 2 S112 731 525408 3234 0
30 2 S112 730 526138 3964 0
30 2 S112 736 526874 4700 0
30 2 S112 696 527570 5396 0
30 2 S112 706 528276 6102 0
30 2 S112 709 528985 6811 0
0 0 0 702 529687 -9596 0
0 0 0 673 530360 -8923 0
0 0 0 701 531061 -8222 0
0 0 0 728 531789 -7494 0
0 0 0 767 532556 -6727 0
0 0 0 703 533259 -6024 0
0 0 0 718 533977 -5306 0
0 0 0 703 534680 -4603 0
0 0 0 670 535350 -3933 0
0 0 0 690 536040 -3243 0
0 0 0 682 536722 -2561 0
31 1 S106 659 537381 -1902 0
31 1 S106 663 538044 -1239 0
31 1 S106 671 538715 -568 0
31 2 S106 671 539386 103 0
31 2 S106 652 540038 755 0
31 2 S106 680 540718 1435 0
31 2 S106 688 541406 2123 0
31 2 S106 663 542069 2786 0
31 2 S106 699 542768 3485 0
31 2 S106 698 543466 4183 0
31 2 S106 688 544154 4871 0
31 2 S106 668 544822 5539 0
31 2 S106 688 545510 6227 0
31 2 S106 678 546188 6905 0
0 0 0 655 546843 -8455 0
0 0 0 658 547501 -7797 0
0 0 0 667 548168 -7130 0
0 0 0 669 548837 -6461 0
0 0 0 628 549465 -5833 0
0 0 0 657 550122 -5176 0
0 0 0 657 550779 -4519 0
0 0 0 661 551440 -3858 0
0 0 0 696 552136 -3162 0
0 0 0 719 552855 -2443 0
32 1 S102 729 553584 -1714 0
32 1 S102 683 554267 -1031 0
32 1 S102 706 554973 -325 0
32 2 S102 695 555668 370 0
32 2 S102 695 556363 1065 0
32 2 S102 668 557031 1733 0
32 2 S102 700 557731 2433 0
32 2 S102 690 558421 3123 0
32 2 S102 670 559091 3793 0
32 2 S102 651 559742 4444 0
32 2 S102 672 560414 5116 0
32 2 S102 675 561089 5791 0
32 2 S102 658 561747 6449 0
0 0 0 647 562394 -10510 0
0 0 0 658 563052 -9852 0
0 0 0 673 563725 -9179 0
0 0 0 675 564400 -8504 0
0 0 0 650 565050 -7854 0
0 0 0 628 565678 -7226 0
0 0 0 611 566289 -6615 0
0 0 0 597 566886 -6018 0
0 0 0 606 567492 -5412 0
0 0 0 614 568106 -4798 0
0 0 0 629 568735 -4169 0
0 0 0 619 569354 -3550 0
0 0 0 641 569995 -2909 0
0 0 0 657 570652 -2252 0
33 1 S112 678 571330 -1574 0
33 1 S112 688 572018 -886 0
33 1 S112 654 572672 -232 0
33 2 S112 673 573345 441 0
33 2 S112 674 574019 1115 0
33 2 S112 683 574702 1798 0
33 2 S112 656 575358 2454 0
33 2 S112 669 576027 3123 0
33 2 S112 664 576691 3787 0
33 2 S112 687 577378 4474 0
33 2 S112 657 578035 5131 0
33 2 S112 684 578719 5815 0
33 2 S112 689 579408 6504 0
0 0 0 679 580087 -12496 0
0 0 0 686 580773 -11810 0
0 0 0 711 581484 -11099 0
0 0 0 730 582214 -10369 0
0 0 0 725 582939 -9644 0
0 0 0 724 583663 -8920 0
0 0 0 707 584370 -8213 0
0 0 0 658 585028 -7555 0
0 0 0 668 585696 -6887 0
0 0 0 668 586364 -6219 0
0 0 0 674 587038 -5545 0
0 0 0 647 587685 -4898 0
0 0 0 681 588366 -4217 0
0 0 0 703 589069 -3514 0
0 0 0 701 589770 -2813 0
0 0 0 699 590469 -2114 0
34 1 S106 733 591202 -1381 0
34 1 S106 741 591943 -640 0
34 2 S106 700 592643 60 0
34 2 S106 720 593363 780 0
34 2 S106 715 594078 1495 0
34 2 S106 706 594784 2201 0
34 2 S106 662 595446 2863 0
34 2 S106 687 596133 3550 0
34 2 S106 687 596820 4237 0
34 2 S106 678 597498 4915 0
34 2 S106 678 598176 5593 0
34 2 S106 703 598879 6296 0
34 2 S106 726 599605 7022 0
0 0 0 704 600309 -9615 0
0 0 0 754 601063 -8861 0
0 0 0 765 601828 -8096 0
0 0 0 758 602586 -7338 0
0 0 0 729 603315 -6609 0
0 0 0 717 604032 -5892 0
0 0 0 678 604710 -5214 0
0 0 0 677 605387 -4537 0
0 0 0 679 606066 -3858 0
0 0 0 694 606760 -3164 0
0 0 0 700 607460 -2464 0
35 1 S102 715 608175 -1749 0
35 1 S102 732 608907 -1017 0
35 1 S102 739 609646 -278 0
35 2 S102 708 610354 430 0
35 2 S102 723 611077 1153 0
35 2 S102 712 611789 1865 0
35 2 S102 672 612461 2537 0
35 2 S102 686 613147 3223 0
35 2 S102 678 613825 3901 0
35 2 S102 658 614483 4559 0
35 2 S102 681 615164 5240 0
35 2 S102 701 615865 5941 0
35 2 S102 745 616610 6686 0
0 0 0 702 617312 -6322 0
0 0 0 769 618081 -5553 0
0 0 0 759 618840 -4794 0
0 0 0 677 619517 -4117 0
0 0 0 688 620205 -3429 0
0 0 0 680 620885 -2749 0
0 0 0 663 621548 -2086 0
36 1 S106 656 622204 -1430 0
36 1 S106 675 622879 -755 0
36 1 S106 698 623577 -57 0
36 2 S106 678 624255 621 0
36 2 S106 728 624983 1349 0
36 2 S106 735 625718 2084 0
36 2 S106 738 626456 2822 0
36 2 S106 712 627168 3534 0
36 2 S106 749 627917 4283 0
36 2 S106 739 628656 5022 0
36 2 S106 693 629349 5715 0
36 2 S106 722 630071 6437 0
0 0 0 718 630789 -9108 0
0 0 0 690 631479 -8418 0
0 0 0 717 632196 -7701 0
0 0 0 718 632914 -6983 0
0 0 0 695 633609 -6288 0
0 0 0 675 634284 -5613 0
0 0 0 688 634972 -4925 0
0 0 0 691 635663 -4234 0
0 0 0 663 636326 -3571 0
0 0 0 705 637031 -2866 0
0 0 0 722 637753 -2144 0
37 1 S116 732 638485 -1412 0
37 1 S116 674 639159 -738 0
37 1 S116 717 639876 -21 0
37 2 S116 719 640595 698 0
37 2 S116 745 641340 1443 0
37 2 S116 715 642055 2158 0
37 2 S116 724 642779 2882 0
37 2 S116 718 643497 3600 0
37 2 S116 697 644194 4297 0
37 2 S116 672 644866 4969 0
37 2 S116 689 645555 5658 0
37 2 S116 699 646254 6357 0
0 0 0 684 646938 -12472 0
0 0 0 719 647657 -11753 0
0 0 0 726 648383 -11027 0
0 0 0 665 649048 -10362 0
0 0 0 637 649685 -9725 0
0 0 0 637 650322 -9088 0
0 0 0 642 650964 -8446 0
0 0 0 648 651612 -7798 0
0 0 0 659 652271 -7139 0
0 0 0 676 652947 -6463 0
0 0 0 693 653640 -5770 0
0 0 0 701 654341 -5069 0
0 0 0 668 655009 -4401 0
0 0 0 653 655662 -3748 0
0 0 0 638 656300 -3110 0
0 0 0 646 656946 -2464 0
38 1 S102 657 657603 -1807 0
38 1 S102 674 658277 -1133 0
38 1 S102 688 658965 -445 0
38 2 S102 702 659667 257 0
38 2 S102 731 660398 988 0
38 2 S102 742 661140 1730 0
38 2 S102 677 661817 2407 0
38 2 S102 710 662527 3117 0
38 2 S102 702 663229 3819 0
38 2 S102 695 663924 4514 0
38 2 S102 665 664589 5179 0
38 2 S102 668 665257 5847 0
38 2 S102 670 665927 6517 0
0 0 0 677 666604 -8904 0
0 0 0 684 667288 -8220 0
0 0 0 717 668005 -7503 0
0 0 0 726 668731 -6777 0
0 0 0 705 669436 -6072 0
0 0 0 708 670144 -5364 0
0 0 0 702 670846 -4662 0
0 0 0 686 671532 -3976 0
0 0 0 668 672200 -3308 0
0 0 0 680 672880 -2628 0
39 1 S116 683 673563 -1945 0
39 1 S116 660 674223 -1285 0
39 1 S116 693 674916 -592 0
39 2 S116 698 675614 106 0
39 2 S116 682 676296 788 0
39 2 S116 721 677017 1509 0
39 2 S116 740 677757 2249 0
39 2 S116 749 678506 2998 0
39 2 S116 710 679216 3708 0
39 2 S116 731 679947 4439 0
39 2 S116 719 680666 5158 0
39 2 S116 685 681351 5843 0
39 2 S116 697 682048 6540 0
0 0 0 700 682748 -8294 0
0 0 0 696 683444 -7598 0
0 0 0 692 684136 -6906 0
0 0 0 727 684863 -6179 0
0 0 0 756 685619 -5423 0
0 0 0 703 686322 -4720 0
0 0 0 705 687027 -4015 0
0 0 0 689 687716 -3326 0
0 0 0 652 688368 -2674 0
0 0 0 664 689032 -2010 0
40 1 S112 659 689691 -1351 0
40 1 S112 665 690356 -686 0
40 1 S112 667 691023 -19 0
40 2 S112 713 691736 694 0
40 2 S112 769 692505 1463 0
40 2 S112 714 693219 2177 0
40 2 S112 762 693981 2939 0
40 2 S112 765 694746 3704 0
40 2 S112 720 695466 4424 0
40 2 S112 737 696203 5161 0
40 2 S112 731 696934 5892 0
40 2 S112 697 697631 6589 0
0 0 0 666 698297 -187740 0
0 0 0 683 698980 -187057 0
0 0 0 681 699661 -186376 0
0 0 0 684 700345 -185692 0
0 0 0 691 701036 -185001 0
0 0 0 727 701763 -184274 0
0 0 0 705 702468 -183569 0
0 0 0 677 703145 -182892 0
0 0 0 666 703811 -182226 0
0 0 0 681 704492 -181545 0
0 0 0 665 705157 -180880 0
0 0 0 642 705799 -180238 0
0 0 0 633 706432 -179605 0
0 0 0 626 707058 -178979 0
0 0 0 617 707675 -178362 0
0 0 0 614 708289 -177748 0
0 0 0 606 708895 -177142 0
0 0 0 610 709505 -176532 0
0 0 0 611 710116 -175921 0
0 0 0 619 710735 -175302 0
0 0 0 618 711353 -174684 0
0 0 0 610 711963 -174074 0
0 0 0 597 712560 -173477 0
0 0 0 596 713156 -172881 0
0 0 0 598 713754 -172283 0
0 0 0 592 714346 -171691 0
0 0 0 580 714926 -171111 0
0 0 0 568 715494 -170543 0
0 0 0 567 716061 -169976 0
0 0 0 567 716628 -169409 0
0 0 0 556 717184 -168853 0
0 0 0 563 717747 -168290 0
0 0 0 550 718297 -167740 0
0 0 0 549 718846 -167191 0
0 0 0 557 719403 -166634 0
0 0 0 551 719954 -166083 0
0 0 0 562 720516 -165521 0
0 0 0 553 721069 -164968 0
0 0 0 573 721642 -164395 0
0 0 0 555 722197 -163840 0
0 0 0 592 722789 -163248 0
0 0 0 604 723393 -162644 0
0 0 0 603 723996 -162041 0
0 0 0 616 724612 -161425 0
0 0 0 604 725216 -160821 0
0 0 0 594 725810 -160227 0
0 0 0 1165 726975 -159062 1
0 0 0 1694 728669 -157368 1
0 0 0 548 729217 -156820 0
0 0 0 809 730026 -156011 0
0 0 0 934 730960 -155077 1
0 0 0 928 731888 -154149 1
0 0 0 1097 732985 -153052 1
0 0 0 578 733563 -152474 0
0 0 0 596 734159 -151878 0
0 0 0 568 734727 -151310 0
0 0 0 564 735291 -150746 0
0 0 0 606 735897 -150140 0
0 0 0 609 736506 -149531 0
0 0 0 619 737125 -148912 0
0 0 0 638 737763 -148274 0
0 0 0 688 738451 -147586 0
0 0 0 722 739173 -146864 0
0 0 0 728 739901 -146136 0
0 0 0 686 740587 -145450 0
0 0 0 744 741331 -144706 0
0 0 0 755 742086 -143951 0
0 0 0 761 742847 -143190 0
0 0 0 749 743596 -142441 0
0 0 0 736 744332 -141705 0
0 0 0 638 744970 -141067 0
0 0 0 601 745571 -140466 0
0 0 0 1251 746822 -139215 1
0 0 0 631 747453 -138584 0
0 0 0 659 748112 -137925 0
0 0 0 660 748772 -137265 0
0 0 0 675 749447 -136590 0
0 0 0 658 750105 -135932 0
0 0 0 609 750714 -135323 0
0 0 0 596 751310 -134727 0
0 0 0 582 751892 -134145 0
0 0 0 574 752466 -133571 0
0 0 0 554 753020 -133017 0
0 0 0 559 753579 -132458 0
0 0 0 564 754143 -131894 0
0 0 0 565 754708 -131329 0
0 0 0 559 755267 -130770 0
0 0 0 557 755824 -130213 0
0 0 0 541 756365 -129672 1
0 0 0 572 756937 -129100 0
0 0 0 560 757497 -128540 0
0 0 0 572 758069 -127968 0
0 0 0 576 758645 -127392 0
0 0 0 595 759240 -126797 0
0 0 0 592 759832 -126205 0
0 0 0 600 760432 -125605 0
0 0 0 604 761036 -125001 0
0 0 0 610 761646 -124391 0
0 0 0 622 762268 -123769 0
0 0 0 636 762904 -123133 0
0 0 0 625 763529 -122508 0
0 0 0 619 764148 -121889 0
0 0 0 625 764773 -121264 0
0 0 0 645 765418 -120619 0
0 0 0 665 766083 -119954 0
0 0 0 680 766763 -119274 0
0 0 0 671 767434 -118603 0
0 0 0 688 768122 -117915 0
0 0 0 680 768802 -117235 0
0 0 0 663 769465 -116572 0
0 0 0 653 770118 -115919 0
0 0 0 652 770770 -115267 0
0 0 0 673 771443 -114594 0
0 0 0 686 772129 -113908 0
0 0 0 693 772822 -113215 0
0 0 0 699 773521 -112516 0
0 0 0 686 774207 -111830 0
0 0 0 693 774900 -111137 0
0 0 0 683 775583 -110454 0
0 0 0 685 776268 -109769 0
0 0 0 696 776964 -109073 0
0 0 0 678 777642 -108395 0
0 0 0 658 778300 -107737 0
0 0 0 657 778957 -107080 0
0 0 0 645 779602 -106435 0
0 0 0 622 780224 -105813 0
0 0 0 618 780842 -105195 0
0 0 0 622 781464 -104573 0
0 0 0 617 782081 -103956 0
0 0 0 662 782743 -103294 0
0 0 0 675 783418 -102619 0
0 0 0 657 784075 -101962 0
0 0 0 626 784701 -101336 0
0 0 0 628 785329 -100708 0
0 0 0 632 785961 -100076 0
0 0 0 625 786586 -99451 0
0 0 0 630 787216 -98821 0
0 0 0 648 787864 -98173 0
0 0 0 647 788511 -97526 0
0 0 0 626 789137 -96900 0
0 0 0 611 789748 -96289 0
0 0 0 606 790354 -95683 0
0 0 0 612 790966 -95071 0
0 0 0 633 791599 -94438 0
0 0 0 654 792253 -93784 0
0 0 0 672 792925 -93112 0
0 0 0 717 793642 -92395 0
0 0 0 788 794430 -91607 0
0 0 0 753 795183 -90854 0
0 0 0 749 795932 -90105 0
0 0 0 773 796705 -89332 0
0 0 0 787 797492 -88545 0
0 0 0 755 798247 -87790 0
0 0 0 740 798987 -87050 0
0 0 0 702 799689 -86348 0
0 0 0 692 800381 -85656 0
0 0 0 650 801031 -85006 0
0 0 0 636 801667 -84370 0
0 0 0 633 802300 -83737 0
0 0 0 629 802929 -83108 0
0 0 0 631 803560 -82477 0
0 0 0 626 804186 -81851 0
0 0 0 623 804809 -81228 0
0 0 0 642 805451 -80586 0
0 0 0 666 806117 -79920 0
0 0 0 682 806799 -79238 0
0 0 0 660 807459 -78578 0
0 0 0 657 808116 -77921 0
0 0 0 674 808790 -77247 0
0 0 0 690 809480 -76557 0
0 0 0 698 810178 -75859 0
0 0 0 659 810837 -75200 0
0 0 0 670 811507 -74530 0
0 0 0 662 812169 -73868 0
0 0 0 677 812846 -73191 0
0 0 0 681 813527 -72510 0
0 0 0 678 814205 -71832 0
0 0 0 705 814910 -71127 0
0 0 0 733 815643 -70394 0
0 0 0 754 816397 -69640 0
0 0 0 716 817113 -68924 0
0 0 0 721 817834 -68203 0
0 0 0 714 818548 -67489 0
0 0 0 709 819257 -66780 0
0 0 0 694 819951 -66086 0
0 0 0 661 820612 -65425 0
0 0 0 671 821283 -64754 0
0 0 0 663 821946 -64091 0
0 0 0 638 822584 -63453 0
0 0 0 616 823200 -62837 0
0 0 0 614 823814 -62223 0
0 0 0 606 824420 -61617 0
0 0 0 607 825027 -61010 0
0 0 0 613 825640 -60397 0
0 0 0 629 826269 -59768 0
0 0 0 653 826922 -59115 0
0 0 0 673 827595 -58442 0
0 0 0 699 828294 -57743 0
0 0 0 688 828982 -57055 0
0 0 0 665 829647 -56390 0
0 0 0 646 830293 -55744 0
0 0 0 666 830959 -55078 0
0 0 0 673 831632 -54405 0
0 0 0 686 832318 -53719 0
0 0 0 711 833029 -53008 0
0 0 0 722 833751 -52286 0
0 0 0 760 834511 -51526 0
0 0 0 783 835294 -50743 0
0 0 0 789 836083 -49954 0
0 0 0 744 836827 -49210 0
0 0 0 721 837548 -48489 0
0 0 0 698 838246 -47791 0
0 0 0 681 838927 -47110 0
0 0 0 653 839580 -46457 0
0 0 0 657 840237 -45800 0
0 0 0 661 840898 -45139 0
0 0 0 666 841564 -44473 0
0 0 0 645 842209 -43828 0
0 0 0 654 842863 -43174 0
0 0 0 657 843520 -42517 0
0 0 0 642 844162 -41875 0
0 0 0 623 844785 -41252 0
0 0 0 628 845413 -40624 0
0 0 0 618 846031 -40006 0
0 0 0 624 846655 -39382 0
0 0 0 627 847282 -38755 0
0 0 0 636 847918 -38119 0
0 0 0 632 848550 -37487 0
0 0 0 645 849195 -36842 0
0 0 0 640 849835 -36202 0
0 0 0 658 850493 -35544 0
0 0 0 642 851135 -34902 0
0 0 0 640 851775 -34262 0
0 0 0 645 852420 -33617 0
0 0 0 650 853070 -32967 0
0 0 0 655 853725 -32312 0
0 0 0 656 854381 -31656 0
0 0 0 664 855045 -30992 0
0 0 0 681 855726 -30311 0
0 0 0 659 856385 -29652 0
0 0 0 666 857051 -28986 0
0 0 0 653 857704 -28333 0
0 0 0 646 858350 -27687 0
0 0 0 628 858978 -27059 0
0 0 0 626 859604 -26433 0
0 0 0 620 860224 -25813 0
0 0 0 604 860828 -25209 0
0 0 0 616 861444 -24593 0
0 0 0 623 862067 -23970 0
0 0 0 617 862684 -23353 0
0 0 0 626 863310 -22727 0
0 0 0 601 863911 -22126 0
0 0 0 613 864524 -21513 0
0 0 0 625 865149 -20888 0
0 0 0 630 865779 -20258 0
0 0 0 609 866388 -19649 0
0 0 0 609 866997 -19040 0
0 0 0 605 867602 -18435 0
0 0 0 612 868214 -17823 0
0 0 0 619 868833 -17204 0
0 0 0 622 869455 -16582 0
0 0 0 614 870069 -15968 0
0 0 0 617 870686 -15351 0
0 0 0 627 871313 -14724 0
0 0 0 630 871943 -14094 0
0 0 0 636 872579 -13458 0
0 0 0 657 873236 -12801 0
0 0 0 641 873877 -12160 0
0 0 0 639 874516 -11521 0
0 0 0 647 875163 -10874 0
0 0 0 659 875822 -10215 0
0 0 0 665 876487 -9550 0
0 0 0 660 877147 -8890 0
0 0 0 676 877823 -8214 0
0 0 0 700 878523 -7514 0
0 0 0 716 879239 -6798 0
0 0 0 693 879932 -6105 0
0 0 0 691 880623 -5414 0
0 0 0 690 881313 -4724 0
0 0 0 697 882010 -4027 0
0 0 0 654 882664 -3373 0
0 0 0 650 883314 -2723 0
0 0 0 634 883948 -2089 0
41 1 S102 617 884565 -1472 0
41 1 S102 615 885180 -857 0
41 1 S102 623 885803 -234 0
41 2 S102 642 886445 408 0
41 2 S102 676 887121 1084 0
41 2 S102 751 887872 1835 0
41 2 S102 715 888587 2550 0
41 2 S102 721 889308 3271 0
41 2 S102 728 890036 3999 0
41 2 S102 722 890758 4721 0
41 2 S102 670 891428 5391 0
41 2 S102 684 892112 6075 0
41 2 S102 672 892784 6747 0
0 0 0 678 893462 -7694 0
0 0 0 664 894126 -7030 0
0 0 0 675 894801 -6355 0
0 0 0 702 895503 -5653 0
0 0 0 707 896210 -4946 0
0 0 0 690 896900 -4256 0
0 0 0 690 897590 -3566 0
0 0 0 677 898267 -2889 0
0 0 0 661 898928 -2228 0
42 1 S112 671 899599 -1557 0
42 1 S112 684 900283 -873 0
42 1 S112 707 900990 -166 0
42 2 S112 694 901684 528 0
42 2 S112 722 902406 1250 0
42 2 S112 761 903167 2011 0
42 2 S112 737 903904 2748 0
42 2 S112 712 904616 3460 0
42 2 S112 708 905324 4168 0
42 2 S112 713 906037 4881 0
42 2 S112 691 906728 5572 0
42 2 S112 704 907432 6276 0
42 2 S112 708 908140 6984 0
0 0 0 683 908823 -9658 0
0 0 0 707 909530 -8951 0
0 0 0 692 910222 -8259 0
0 0 0 704 910926 -7555 0
0 0 0 709 911635 -6846 0
0 0 0 700 912335 -6146 0
0 0 0 657 912992 -5489 0
0 0 0 669 913661 -4820 0
0 0 0 671 914332 -4149 0
0 0 0 670 915002 -3479 0
0 0 0 660 915662 -2819 0
0 0 0 671 916333 -2148 0
43 1 S116 695 917028 -1453 0
43 1 S116 684 917712 -769 0
43 1 S116 687 918399 -82 0
43 2 S116 703 919102 621 0
43 2 S116 721 919823 1342 0
43 2 S116 714 920537 2056 0
43 2 S116 710 921247 2766 0
43 2 S116 696 921943 3462 0
43 2 S116 694 922637 4156 0
43 2 S116 659 923296 4815 0
43 2 S116 670 923966 5485 0
43 2 S116 676 924642 6161 0
43 2 S116 672 925314 6833 0
0 0 0 681 925995 -7589 0
0 0 0 713 926708 -6876 0
0 0 0 726 927434 -6150 0
0 0 0 689 928123 -5461 0
0 0 0 710 928833 -4751 0
0 0 0 700 929533 -4051 0
0 0 0 662 930195 -3389 0
0 0 0 675 930870 -2714 0
0 0 0 668 931538 -2046 0
44 1 S102 655 932193 -1391 0
44 1 S102 660 932853 -731 0
44 1 S102 656 933509 -75 0
44 2 S102 675 934184 600 0
44 2 S102 697 934881 1297 0
44 2 S102 736 935617 2033 0
44 2 S102 741 936358 2774 0
44 2 S102 728 937086 3502 0
44 2 S102 743 937829 4245 0
44 2 S102 738 938567 4983 0
44 2 S102 701 939268 5684 0
44 2 S102 714 939982 6398 0
0 0 0 697 940679 -8886 0
0 0 0 673 941352 -8213 0
0 0 0 702 942054 -7511 0
0 0 0 704 942758 -6807 0
0 0 0 668 943426 -6139 0
0 0 0 663 944089 -5476 0
0 0 0 642 944731 -4834 0
0 0 0 627 945358 -4207 0
0 0 0 637 945995 -3570 0
0 0 0 638 946633 -2932 0
0 0 0 677 947310 -2255 0
45 1 S116 703 948013 -1552 0
45 1 S116 724 948737 -828 0
45 1 S116 690 949427 -138 0
45 2 S116 710 950137 572 0
45 2 S116 712 950849 1284 0
45 2 S116 707 951556 1991 0
45 2 S116 681 952237 2672 0
45 2 S116 689 952926 3361 0
45 2 S116 688 953614 4049 0
45 2 S116 675 954289 4724 0
45 2 S116 697 954986 5421 0
45 2 S116 708 955694 6129 0
45 2 S116 693 956387 6822 0
0 0 0 758 957145 -12016 0
0 0 0 777 957922 -11239 0
0 0 0 729 958651 -10510 0
0 0 0 743 959394 -9767 0
0 0 0 749 960143 -9018 0
0 0 0 728 960871 -8290 0
0 0 0 685 961556 -7605 0
0 0 0 702 962258 -6903 0
0 0 0 697 962955 -6206 0
0 0 0 665 963620 -5541 0
0 0 0 697 964317 -4844 0
0 0 0 711 965028 -4133 0
0 0 0 703 965731 -3430 0
0 0 0 721 966452 -2709 0
46 1 S102 733 967185 -1976 0
46 1 S102 733 967918 -1243 0
46 1 S102 705 968623 -538 0
46 2 S102 716 969339 178 0
46 2 S102 724 970063 902 0
46 2 S102 681 970744 1583 0
46 2 S102 697 971441 2280 0
46 2 S102 690 972131 2970 0
46 2 S102 695 972826 3665 0
46 2 S102 693 973519 4358 0
46 2 S102 699 974218 5057 0
46 2 S102 705 974923 5762 0
46 2 S102 699 975622 6461 0
0 0 0 720 976342 -10309 0
0 0 0 723 977065 -9586 0
0 0 0 692 977757 -8894 0
0 0 0 716 978473 -8178 0
0 0 0 720 979193 -7458 0
0 0 0 722 979915 -6736 0
0 0 0 676 980591 -6060 0
0 0 0 688 981279 -5372 0
0 0 0 687 981966 -4685 0
0 0 0 665 982631 -4020 0
0 0 0 685 983316 -3335 0
0 0 0 682 983998 -2653 0
47 1 S112 691 984689 -1962 0
47 1 S112 675 985364 -1287 0
47 1 S112 691 986055 -596 0
47 2 S112 689 986744 93 0
47 2 S112 686 987430 779 0
47 2 S112 720 988150 1499 0
47 2 S112 737 988887 2236 0
47 2 S112 716 989603 2952 0
47 2 S112 715 990318 3667 0
47 2 S112 735 991053 4402 0
47 2 S112 726 991779 5128 0
47 2 S112 674 992453 5802 0
47 2 S112 690 993143 6492 0
0 0 0 684 993827 -12304 0
0 0 0 678 994505 -11626 0
0 0 0 681 995186 -10945 0
0 0 0 703 995889 -10242 0
0 0 0 753 996642 -9489 0
0 0 0 725 997367 -8764 0
0 0 0 723 998090 -8041 0
0 0 0 677 998767 -7364 0
0 0 0 669 999436 -6695 0
0 0 0 678 1000114 -6017 0
0 0 0 684 1000798 -5333 0
0 0 0 655 1001453 -4678 0
0 0 0 661 1002114 -4017 0
0 0 0 666 1002780 -3351 0
0 0 0 684 1003464 -2667 0
48 1 S116 671 1004135 -1996 0
48 1 S116 704 1004839 -1292 0
48 1 S116 731 1005570 -561 0
48 2 S116 716 1006286 155 0
48 2 S116 720 1007006 875 0
48 2 S116 739 1007745 1614 0
48 2 S116 734 1008479 2348 0
48 2 S116 688 1009167 3036 0
48 2 S116 704 1009871 3740 0
48 2 S116 703 1010574 4443 0
48 2 S116 689 1011263 5132 0
48 2 S116 673 1011936 5805 0
48 2 S116 705 1012641 6510 0
0 0 0 701 1013342 -8372 0
0 0 0 693 1014035 -7679 0
0 0 0 700 1014735 -6979 0
0 0 0 709 1015444 -6270 0
0 0 0 756 1016200 -5514 0
0 0 0 732 1016932 -4782 0
0 0 0 706 1017638 -4076 0
0 0 0 670 1018308 -3406 0
0 0 0 657 1018965 -2749 0
0 0 0 665 1019630 -2084 0
49 1 S112 678 1020308 -1406 0
49 1 S112 685 1020993 -721 0
49 1 S112 678 1021671 -43 0
49 2 S112 710 1022381 667 0
49 2 S112 729 1023110 1396 0
49 2 S112 743 1023853 2139 0
49 2 S112 735 1024588 2874 0
49 2 S112 721 1025309 3595 0
49 2 S112 711 1026020 4306 0
49 2 S112 670 1026690 4976 0
49 2 S112 688 1027378 5664 0
49 2 S112 684 1028062 6348 0
0 0 0 687 1028749 -12909 0
0 0 0 703 1029452 -12206 0
0 0 0 729 1030181 -11477 0
0 0 0 746 1030927 -10731 0
0 0 0 713 1031640 -10018 0
0 0 0 745 1032385 -9273 0
0 0 0 741 1033126 -8532 0
0 0 0 678 1033804 -7854 0
0 0 0 693 1034497 -7161 0
0 0 0 690 1035187 -6471 0
0 0 0 660 1035847 -5811 0
0 0 0 672 1036519 -5139 0
0 0 0 670 1037189 -4469 0
0 0 0 681 1037870 -3788 0
0 0 0 674 1038544 -3114 0
0 0 0 709 1039253 -2405 0
50 1 S106 727 1039980 -1678 0
50 1 S106 728 1040708 -950 0
50 1 S106 723 1041431 -227 0
50 2 S106 747 1042178 520 0
50 2 S106 744 1042922 1264 0
50 2 S106 697 1043619 1961 0
50 2 S106 683 1044302 2644 0
50 2 S106 695 1044997 3339 0
50 2 S106 688 1045685 4027 0
50 2 S106 684 1046369 4711 0
50 2 S106 683 1047052 5394 0
50 2 S106 714 1047766 6108 0
50 2 S106 713 1048479 6821 0
0 0 0 718 1049197 -6785 0
0 0 0 706 1049903 -6079 0
0 0 0 731 1050634 -5348 0
0 0 0 746 1051380 -4602 0
0 0 0 680 1052060 -3922 0
0 0 0 672 1052732 -3250 0
0 0 0 662 1053394 -2588 0
51 1 S112 652 1054046 -1936 0
51 1 S112 631 1054677 -1305 0
51 1 S112 618 1055295 -687 0
51 1 S112 612 1055907 -75 0
51 2 S112 632 1056539 557 0
51 2 S112 669 1057208 1226 0
51 2 S112 757 1057965 1983 0
51 2 S112 757 1058722 2740 0
51 2 S112 790 1059512 3530 0
51 2 S112 803 1060315 4333 0
51 2 S112 797 1061112 5130 0
51 2 S112 778 1061890 5908 0
51 2 S112 798 1062688 6706 0
0 0 0 802 1063490 -8241 0
0 0 0 763 1064253 -7478 0
0 0 0 788 1065041 -6690 0
0 0 0 787 1065828 -5903 0
0 0 0 786 1066614 -5117 0
0 0 0 775 1067389 -4342 0
0 0 0 779 1068168 -3563 0
0 0 0 720 1068888 -2843 0
0 0 0 743 1069631 -2100 0
52 1 S116 719 1070350 -1381 0
52 1 S116 728 1071078 -653 0
52 2 S116 697 1071775 44 0
52 2 S116 734 1072509 778 0
52 2 S116 785 1073294 1563 0
52 2 S116 757 1074051 2320 0
52 2 S116 733 1074784 3053 0
52 2 S116 732 1075516 3785 0
52 2 S116 681 1076197 4466 0
52 2 S116 722 1076919 5188 0
52 2 S116 730 1077649 5918 0
52 2 S116 706 1078355 6624 0
0 0 0 765 1079120 -9853 0
0 0 0 771 1079891 -9082 0
0 0 0 731 1080622 -8351 0
0 0 0 752 1081374 -7599 0
0 0 0 749 1082123 -6850 0
0 0 0 708 1082831 -6142 0
0 0 0 725 1083556 -5417 0
0 0 0 722 1084278 -4695 0
0 0 0 673 1084951 -4022 0
0 0 0 685 1085636 -3337 0
0 0 0 694 1086330 -2643 0
53 1 S106 712 1087042 -1931 0
53 1 S106 693 1087735 -1238 0
53 1 S106 729 1088464 -509 0
53 2 S106 734 1089198 225 0
53 2 S106 760 1089958 985 0
53 2 S106 706 1090664 1691 0
53 2 S106 739 1091403 2430 0
53 2 S106 730 1092133 3160 0
53 2 S106 714 1092847 3874 0
53 2 S106 707 1093554 4581 0
53 2 S106 728 1094282 5309 0
53 2 S106 748 1095030 6057 0
53 2 S106 711 1095741 6768 0
0 0 0 688 1096429 -6768 0
0 0 0 713 1097142 -6055 0
0 0 0 744 1097886 -5311 0
0 0 0 739 1098625 -4572 0
0 0 0 711 1099336 -3861 0
0 0 0 760 1100096 -3101 0
0 0 0 782 1100878 -2319 0
54 1 S102 769 1101647 -1550 0
54 1 S102 728 1102375 -822 0
54 1 S102 756 1103131 -66 0
54 2 S102 753 1103884 687 0
54 2 S102 726 1104610 1413 0
54 2 S102 745 1105355 2158 0
54 2 S102 750 1106105 2908 0
54 2 S102 743 1106848 3651 0
54 2 S102 734 1107582 4385 0
54 2 S102 755 1108337 5140 0
54 2 S102 748 1109085 5888 0
54 2 S102 709 1109794 6597 0
0 0 0 751 1110545 -11750 0
0 0 0 749 1111294 -11001 0
0 0 0 778 1112072 -10223 0
0 0 0 739 1112811 -9484 0
0 0 0 764 1113575 -8720 0
0 0 0 731 1114306 -7989 0
0 0 0 679 1114985 -7310 0
0 0 0 692 1115677 -6618 0
0 0 0 674 1116351 -5944 0
0 0 0 656 1117007 -5288 0
0 0 0 675 1117682 -4613 0
0 0 0 696 1118378 -3917 0
0 0 0 734 1119112 -3183 0
0 0 0 743 1119855 -2440 0
55 1 S106 770 1120625 -1670 0
55 1 S106 787 1121412 -883 0
55 1 S106 756 1122168 -127 0
55 2 S106 746 1122914 619 0
55 2 S106 731 1123645 1350 0
55 2 S106 679 1124324 2029 0
55 2 S106 681 1125005 2710 0
55 2 S106 684 1125689 3394 0
55 2 S106 687 1126376 4081 0
55 2 S106 669 1127045 4750 0
55 2 S106 701 1127746 5451 0
55 2 S106 712 1128458 6163 0
55 2 S106 693 1129151 6856 0
0 0 0 708 1129859 -5865 0
0 0 0 721 1130580 -5144 0
0 0 0 728 1131308 -4416 0
0 0 0 678 1131986 -3738 0
0 0 0 693 1132679 -3045 0
0 0 0 677 1133356 -2368 0
56 1 S116 646 1134002 -1722 0
56 1 S116 665 1134667 -1057 0
56 1 S116 676 1135343 -381 0
56 2 S116 706 1136049 325 0
56 2 S116 704 1136753 1029 0
56 2 S116 752 1137505 1781 0
56 2 S116 751 1138256 2532 0
56 2 S116 698 1138954 3230 0
56 2 S116 728 1139682 3958 0
56 2 S116 712 1140394 4670 0
56 2 S116 688 1141082 5358 0
56 2 S116 696 1141778 6054 0
56 2 S116 687 1142465 6741 0
0 0 0 679 1143144 -8247 0
0 0 0 672 1143816 -7575 0
0 0 0 666 1144482 -6909 0
0 0 0 651 1145133 -6258 0
0 0 0 637 1145770 -5621 0
0 0 0 651 1146421 -4970 0
0 0 0 630 1147051 -4340 0
0 0 0 635 1147686 -3705 0
0 0 0 622 1148308 -3083 0
0 0 0 608 1148916 -2475 0
57 1 S106 648 1149564 -1827 0
57 1 S106 633 1150197 -1194 0
57 1 S106 633 1150830 -561 0
57 2 S106 606 1151436 45 0
57 2 S106 585 1152021 630 0
57 2 S106 600 1152621 1230 0
57 2 S106 607 1153228 1837 0
57 2 S106 617 1153845 2454 0
57 2 S106 623 1154468 3077 0
57 2 S106 634 1155102 3711 0
57 2 S106 625 1155727 4336 0
57 2 S106 631 1156358 4967 0
57 2 S106 617 1156975 5584 0
57 2 S106 623 1157598 6207 0
57 2 S106 624 1158222 6831 0
0 0 0 642 1158864 -7696 0
0 0 0 668 1159532 -7028 0
0 0 0 691 1160223 -6337 0
0 0 0 664 1160887 -5673 0
0 0 0 665 1161552 -5008 0
0 0 0 686 1162238 -4322 0
0 0 0 693 1162931 -3629 0
0 0 0 692 1163623 -2937 0
0 0 0 665 1164288 -2272 0
58 1 S102 689 1164977 -1583 0
58 1 S102 697 1165674 -886 0
58 1 S102 713 1166387 -173 0
58 2 S102 686 1167073 513 0
58 2 S102 703 1167776 1216 0
58 2 S102 698 1168474 1914 0
58 2 S102 691 1169165 2605 0
58 2 S102 674 1169839 3279 0
58 2 S102 694 1170533 3973 0
58 2 S102 715 1171248 4688 0
58 2 S102 703 1171951 5391 0
58 2 S102 700 1172651 6091 0
58 2 S102 721 1173372 6812 0
0 0 0 738 1174110 -7801 0
0 0 0 693 1174803 -7108 0
0 0 0 724 1175527 -6384 0
0 0 0 728 1176255 -5656 0
0 0 0 707 1176962 -4949 0
0 0 0 672 1177634 -4277 0
0 0 0 664 1178298 -3613 0
0 0 0 648 1178946 -2965 0
0 0 0 631 1179577 -2334 0
59 1 S112 629 1180206 -1705 0
59 1 S112 626 1180832 -1079 0
59 1 S112 639 1181471 -440 0
59 2 S112 652 1182123 212 0
59 2 S112 658 1182781 870 0
59 2 S112 693 1183474 1563 0
59 2 S112 734 1184208 2297 0
59 2 S112 769 1184977 3066 0
59 2 S112 773 1185750 3839 0
59 2 S112 734 1186484 4573 0
59 2 S112 761 1187245 5334 0
59 2 S112 766 1188011 6100 0
59 2 S112 700 1188711 6800 0
0 0 0 713 1189424 -9447 0
0 0 0 726 1190150 -8721 0
0 0 0 753 1190903 -7968 0
0 0 0 752 1191655 -7216 0
0 0 0 833 1192488 -6383 0
0 0 0 800 1193288 -5583 0
0 0 0 787 1194075 -4796 0
0 0 0 781 1194856 -4015 0
0 0 0 729 1195585 -3286 0
0 0 0 733 1196318 -2553 0
60 1 S102 735 1197053 -1818 0
60 1 S102 752 1197805 -1066 0
60 1 S102 715 1198520 -351 0
60 2 S102 785 1199305 434 0
60 2 S102 798 1200103 1232 0
60 2 S102 743 1200846 1975 0
60 2 S102 773 1201619 2748 0
60 2 S102 764 1202383 3512 0
60 2 S102 732 1203115 4244 0
60 2 S102 732 1203847 4976 0
60 2 S102 740 1204587 5716 0
60 2 S102 751 1205338 6467 0
0 0 0 705 1206043 -10550 0
0 0 0 750 1206793 -9800 0
0 0 0 769 1207562 -9031 0
0 0 0 716 1208278 -8315 0
0 0 0 735 1209013 -7580 0
0 0 0 719 1209732 -6861 0
0 0 0 678 1210410 -6183 0
0 0 0 701 1211111 -5482 0
0 0 0 705 1211816 -4777 0
0 0 0 747 1212563 -4030 0
0 0 0 745 1213308 -3285 0
0 0 0 828 1214136 -2457 0
61 1 S106 825 1214961 -1632 0
61 1 S106 781 1215742 -851 0
61 1 S106 828 1216570 -23 0
61 2 S106 827 1217397 804 0
61 2 S106 777 1218174 1581 0
61 2 S106 824 1218998 2405 0
61 2 S106 819 1219817 3224 0
61 2 S106 773 1220590 3997 0
61 2 S106 793 1221383 4790 0
61 2 S106 799 1222182 5589 0
61 2 S106 789 1222971 6378 0
0 0 0 794 1223765 -6638 0
0 0 0 832 1224597 -5806 0
0 0 0 843 1225440 -4963 0
0 0 0 772 1226212 -4191 0
0 0 0 817 1227029 -3374 0
0 0 0 803 1227832 -2571 0
62 1 S112 737 1228569 -1834 0
62 1 S112 777 1229346 -1057 0
62 1 S112 775 1230121 -282 0
62 2 S112 727 1230848 445 0
62 2 S112 784 1231632 1229 0
62 2 S112 804 1232436 2033 0
62 2 S112 803 1233239 2836 0
62 2 S112 780 1234019 3616 0
62 2 S112 813 1234832 4429 0
62 2 S112 812 1235644 5241 0
62 2 S112 775 1236419 6016 0
62 2 S112 795 1237214 6811 0
0 0 0 775 1237989 -10203 0
0 0 0 781 1238770 -9422 0
0 0 0 800 1239570 -8622 0
0 0 0 734 1240304 -7888 0
0 0 0 748 1241052 -7140 0
0 0 0 750 1241802 -6390 0
0 0 0 738 1242540 -5652 0
0 0 0 740 1243280 -4912 0
0 0 0 764 1244044 -4148 0
0 0 0 750 1244794 -3398 0
0 0 0 731 1245525 -2667 0
63 1 S102 747 1246272 -1920 0
63 1 S102 751 1247023 -1169 0
63 1 S102 701 1247724 -468 0
63 2 S102 742 1248466 274 0
63 2 S102 739 1249205 1013 0
63 2 S102 789 1249994 1802 0
63 2 S102 733 1250727 2535 0
63 2 S102 773 1251500 3308 0
63 2 S102 796 1252296 4104 0
63 2 S102 772 1253068 4876 0
63 2 S102 769 1253837 5645 0
63 2 S102 775 1254612 6420 0
0 0 0 737 1255349 -8476 0
0 0 0 736 1256085 -7740 0
0 0 0 762 1256847 -6978 0
0 0 0 759 1257606 -6219 0
0 0 0 709 1258315 -5510 0
0 0 0 751 1259066 -4759 0
0 0 0 755 1259821 -4004 0
0 0 0 714 1260535 -3290 0
0 0 0 765 1261300 -2525 0
64 1 S112 767 1262067 -1758 0
64 1 S112 727 1262794 -1031 0
64 1 S112 743 1263537 -288 0
64 2 S112 745 1264282 457 0
64 2 S112 774 1265056 1231 0
64 2 S112 781 1265837 2012 0
64 2 S112 805 1266642 2817 0
64 2 S112 808 1267450 3625 0
64 2 S112 764 1268214 4389 0
64 2 S112 758 1268972 5147 0
64 2 S112 749 1269721 5896 0
64 2 S112 705 1270426 6601 0
0 0 0 740 1271166 -7265 0
0 0 0 747 1271913 -6518 0
0 0 0 704 1272617 -5814 0
0 0 0 805 1273422 -5009 0
0 0 0 767 1274189 -4242 0
0 0 0 707 1274896 -3535 0
0 0 0 766 1275662 -2769 0
65 1 S106 773 1276435 -1996 0
65 1 S106 718 1277153 -1278 0
65 1 S106 759 1277912 -519 0
65 2 S106 758 1278670 239 0
65 2 S106 744 1279414 983 0
65 2 S106 739 1280153 1722 0
65 2 S106 757 1280910 2479 0
65 2 S106 746 1281656 3225 0
65 2 S106 702 1282358 3927 0
65 2 S106 735 1283093 4662 0
65 2 S106 720 1283813 5382 0
65 2 S106 693 1284506 6075 0
65 2 S106 706 1285212 6781 0
0 0 0 757 1285969 -6205 0
0 0 0 776 1286745 -5429 0
0 0 0 740 1287485 -4689 0
0 0 0 742 1288227 -3947 0
0 0 0 740 1288967 -3207 0
0 0 0 703 1289670 -2504 0
66 1 S116 745 1290415 -1759 0
66 1 S116 747 1291162 -1012 0
66 1 S116 712 1291874 -300 0
66 2 S116 764 1292638 464 0
66 2 S116 785 1293423 1249 0
66 2 S116 793 1294216 2042 0
66 2 S116 803 1295019 2845 0
66 2 S116 802 1295821 3647 0
66 2 S116 783 1296604 4430 0
66 2 S116 792 1297396 5222 0
66 2 S116 791 1298187 6013 0
66 2 S116 740 1298927 6753 0
0 0 0 754 1299681 -11625 0
0 0 0 766 1300447 -10859 0
0 0 0 768 1301215 -10091 0
0 0 0 752 1301967 -9339 0
0 0 0 781 1302748 -8558 0
0 0 0 739 1303487 -7819 0
0 0 0 715 1304202 -7104 0
0 0 0 745 1304947 -6359 0
0 0 0 739 1305686 -5620 0
0 0 0 698 1306384 -4922 0
0 0 0 738 1307122 -4184 0
0 0 0 753 1307875 -3431 0
0 0 0 732 1308607 -2699 0
67 1 S102 742 1309349 -1957 0
67 1 S102 757 1310106 -1200 0
67 1 S102 769 1310875 -431 0
67 2 S102 723 1311598 292 0
67 2 S102 760 1312358 1052 0
67 2 S102 773 1313131 1825 0
67 2 S102 718 1313849 2543 0
67 2 S102 719 1314568 3262 0
67 2 S102 727 1315295 3989 0
67 2 S102 731 1316026 4720 0
67 2 S102 753 1316779 5473 0
67 2 S102 833 1317612 6306 0
0 0 0 853 1318465 -7430 0
0 0 0 770 1319235 -6660 0
0 0 0 789 1320024 -5871 0
0 0 0 776 1320800 -5095 0
0 0 0 710 1321510 -4385 0
0 0 0 742 1322252 -3643 0
0 0 0 740 1322992 -2903 0
0 0 0 693 1323685 -2210 0
68 1 S106 729 1324414 -1481 0
68 1 S106 731 1325145 -750 0
68 1 S106 724 1325869 -26 0
68 2 S106 743 1326612 717 0
68 2 S106 780 1327392 1497 0
68 2 S106 784 1328176 2281 0
68 2 S106 743 1328919 3024 0
68 2 S106 763 1329682 3787 0
68 2 S106 765 1330447 4552 0
68 2 S106 709 1331156 5261 0
68 2 S106 733 1331889 5994 0
68 2 S106 740 1332629 6734 0
0 0 0 725 1333354 -9915 0
0 0 0 721 1334075 -9194 0
0 0 0 742 1334817 -8452 0
0 0 0 772 1335589 -7680 0
0 0 0 728 1336317 -6952 0
0 0 0 745 1337062 -6207 0
0 0 0 737 1337799 -5470 0
0 0 0 690 1338489 -4780 0
0 0 0 721 1339210 -4059 0
0 0 0 721 1339931 -3338 0
0 0 0 719 1340650 -2619 0
69 1 S102 690 1341340 -1929 0
69 1 S102 749 1342089 -1180 0
69 1 S102 760 1342849 -420 0
69 2 S102 738 1343587 318 0
69 2 S102 732 1344319 1050 0
69 2 S102 744 1345063 1794 0
69 2 S102 735 1345798 2529 0
69 2 S102 684 1346482 3213 0
69 2 S102 710 1347192 3923 0
69 2 S102 701 1347893 4624 0
69 2 S102 678 1348571 5302 0
69 2 S102 688 1349259 5990 0
69 2 S102 720 1349979 6710 0
0 0 0 757 1350736 -9675 0
0 0 0 761 1351497 -8914 0
0 0 0 810 1352307 -8104 0
0 0 0 827 1353134 -7277 0
0 0 0 767 1353901 -6510 0
0 0 0 780 1354681 -5730 0
0 0 0 716 1355397 -5014 0
0 0 0 688 1356085 -4326 0
0 0 0 712 1356797 -3614 0
0 0 0 727 1357524 -2887 0
0 0 0 699 1358223 -2188 0
70 1 S112 728 1358951 -1460 0
70 1 S112 737 1359688 -723 0
70 2 S112 740 1360428 17 0
70 2 S112 738 1361166 755 0
70 2 S112 788 1361954 1543 0
70 2 S112 794 1362748 2337 0
70 2 S112 757 1363505 3094 0
70 2 S112 779 1364284 3873 0
70 2 S112 760 1365044 4633 0
70 2 S112 720 1365764 5353 0
70 2 S112 750 1366514 6103 0
70 2 S112 751 1367265 6854 0
0 0 0 718 1367983 -10880 0
0 0 0 753 1368736 -10127 0
0 0 0 776 1369512 -9351 0
0 0 0 715 1370227 -8636 0
0 0 0 742 1370969 -7894 0
0 0 0 717 1371686 -7177 0
0 0 0 681 1372367 -6496 0
0 0 0 706 1373073 -5790 0
0 0 0 715 1373788 -5075 0
0 0 0 691 1374479 -4384 0
0 0 0 728 1375207 -3656 0
0 0 0 733 1375940 -2923 0
0 0 0 714 1376654 -2209 0
71 1 S116 714 1377368 -1495 0
71 1 S116 750 1378118 -745 0
71 2 S116 786 1378904 41 0
71 2 S116 744 1379648 785 0
71 2 S116 763 1380411 1548 0
71 2 S116 770 1381181 2318 0
71 2 S116 738 1381919 3056 0
71 2 S116 728 1382647 3784 0
71 2 S116 744 1383391 4528 0
71 2 S116 724 1384115 5252 0
71 2 S116 712 1384827 5964 0
71 2 S116 737 1385564 6701 0
0 0 0 773 1386337 -9651 0
0 0 0 717 1387054 -8934 0
0 0 0 761 1387815 -8173 0
0 0 0 766 1388581 -7407 0
0 0 0 716 1389297 -6691 0
0 0 0 717 1390014 -5974 0
0 0 0 713 1390727 -5261 0
0 0 0 695 1391422 -4566 0
0 0 0 688 1392110 -3878 0
0 0 0 714 1392824 -3164 0
0 0 0 722 1393546 -2442 0
72 1 S102 698 1394244 -1744 0
72 1 S102 760 1395004 -984 0
72 1 S102 777 1395781 -207 0
72 2 S102 720 1396501 513 0
72 2 S102 761 1397262 1274 0
72 2 S102 755 1398017 2029 0
72 2 S102 708 1398725 2737 0
72 2 S102 737 1399462 3474 0
72 2 S102 729 1400191 4203 0
72 2 S102 695 1400886 4898 0
72 2 S102 728 1401614 5626 0
72 2 S102 731 1402345 6357 0
0 0 0 728 1403073 -7090 0
0 0 0 744 1403817 -6346 0
0 0 0 760 1404577 -5586 0
0 0 0 786 1405363 -4800 0
0 0 0 718 1406081 -4082 0
0 0 0 738 1406819 -3344 0
0 0 0 714 1407533 -2630 0
73 1 S116 687 1408220 -1943 0
73 1 S116 711 1408931 -1232 0
73 1 S116 722 1409653 -510 0
73 2 S116 695 1410348 185 0
73 2 S116 778 1411126 963 0
73 2 S116 813 1411939 1776 0
73 2 S116 813 1412752 2589 0
73 2 S116 785 1413537 3374 0
73 2 S116 801 1414338 4175 0
73 2 S116 793 1415131 4968 0
73 2 S116 751 1415882 5719 0
73 2 S116 759 1416641 6478 0
0 0 0 740 1417381 -10338 0
0 0 0 729 1418110 -9609 0
0 0 0 748 1418858 -8861 0
0 0 0 755 1419613 -8106 0
0 0 0 736 1420349 -7370 0
0 0 0 769 1421118 -6601 0
0 0 0 728 1421846 -5873 0
0 0 0 729 1422575 -5144 0
0 0 0 752 1423327 -4392 0
0 0 0 714 1424041 -3678 0
0 0 0 696 1424737 -2982 0
0 0 0 716 1425453 -2266 0
74 1 S106 731 1426184 -1535 0
74 1 S106 697 1426881 -838 0
74 1 S106 744 1427625 -94 0
74 2 S106 757 1428382 663 0
74 2 S106 742 1429124 1405 0
74 2 S106 689 1429813 2094 0
74 2 S106 710 1430523 2804 0
74 2 S106 717 1431240 3521 0
74 2 S106 739 1431979 4260 0
74 2 S106 741 1432720 5001 0
74 2 S106 737 1433457 5738 0
74 2 S106 702 1434159 6440 0
0 0 0 731 1434890 -6390 0
0 0 0 729 1435619 -5661 0
0 0 0 745 1436364 -4916 0
0 0 0 694 1437058 -4222 0
0 0 0 725 1437783 -3497 0
0 0 0 723 1438506 -2774 0
0 0 0 735 1439241 -2039 0
75 1 S112 771 1440012 -1268 0
75 1 S112 785 1440797 -483 0
75 2 S112 761 1441558 278 0
75 2 S112 768 1442326 1046 0
75 2 S112 769 1443095 1815 0
75 2 S112 764 1443859 2579 0
75 2 S112 737 1444596 3316 0
75 2 S112 764 1445360 4080 0
75 2 S112 761 1446121 4841 0
75 2 S112 719 1446840 5560 0
75 2 S112 758 1447598 6318 0
0 0 0 755 1448353 -7765 0
0 0 0 729 1449082 -7036 0
0 0 0 745 1449827 -6291 0
0 0 0 747 1450574 -5544 0
0 0 0 726 1451300 -4818 0
0 0 0 698 1451998 -4120 0
0 0 0 658 1452656 -3462 0
0 0 0 626 1453282 -2836 0
0 0 0 684 1453966 -2152 0
76 1 S116 672 1454638 -1480 0
76 1 S116 695 1455333 -785 0
76 1 S116 693 1456026 -92 0
76 2 S116 718 1456744 626 0
76 2 S116 754 1457498 1380 0
76 2 S116 707 1458205 2087 0
76 2 S116 739 1458944 2826 0
76 2 S116 728 1459672 3554 0
76 2 S116 721 1460393 4275 0
76 2 S116 696 1461089 4971 0
76 2 S116 752 1461841 5723 0
76 2 S116 788 1462629 6511 0
0 0 0 752 1463381 -7641 0
0 0 0 793 1464174 -6848 0
0 0 0 802 1464976 -6046 0
0 0 0 785 1465761 -5261 0
0 0 0 804 1466565 -4457 0
0 0 0 783 1467348 -3674 0
0 0 0 745 1468093 -2929 0
0 0 0 756 1468849 -2173 0
77 1 S106 733 1469582 -1440 0
77 1 S106 693 1470275 -747 0
77 2 S106 770 1471045 23 0
77 2 S106 798 1471843 821 0
77 2 S106 742 1472585 1563 0
77 2 S106 800 1473385 2363 0
77 2 S106 814 1474199 3177 0
77 2 S106 761 1474960 3938 0
77 2 S106 798 1475758 4736 0
77 2 S106 794 1476552 5530 0
77 2 S106 749 1477301 6279 0
0 0 0 779 1478080 -8111 0
0 0 0 758 1478838 -7353 0
0 0 0 755 1479593 -6598 0
0 0 0 712 1480305 -5886 0
0 0 0 736 1481041 -5150 0
0 0 0 719 1481760 -4431 0
0 0 0 709 1482469 -3722 0
0 0 0 727 1483196 -2995 0
0 0 0 730 1483926 -2265 0
78 1 S112 708 1484634 -1557 0
78 1 S112 734 1485368 -823 0
78 1 S112 731 1486099 -92 0
78 2 S112 696 1486795 604 0
78 2 S112 734 1487529 1338 0
78 2 S112 742 1488271 2080 0
78 2 S112 722 1488993 2802 0
78 2 S112 718 1489711 3520 0
78 2 S112 722 1490433 4242 0
78 2 S112 711 1491144 4953 0
78 2 S112 691 1491835 5644 0
78 2 S112 722 1492557 6366 0
0 0 0 743 1493300 -10729 0
0 0 0 723 1494023 -10006 0
0 0 0 770 1494793 -9236 0
0 0 0 758 1495551 -8478 0
0 0 0 702 1496253 -7776 0
0 0 0 729 1496982 -7047 0
0 0 0 722 1497704 -6325 0
0 0 0 707 1498411 -5618 0
0 0 0 741 1499152 -4877 0
0 0 0 761 1499913 -4116 0
0 0 0 768 1500681 -3348 0
0 0 0 749 1501430 -2599 0
79 1 S102 764 1502194 -1835 0
79 1 S102 776 1502970 -1059 0
79 1 S102 742 1503712 -317 0
79 2 S102 759 1504471 442 0
79 2 S102 751 1505222 1193 0
79 2 S102 707 1505929 1900 0
79 2 S102 736 1506665 2636 0
79 2 S102 743 1507408 3379 0
79 2 S102 716 1508124 4095 0
79 2 S102 746 1508870 4841 0
79 2 S102 733 1509603 5574 0
79 2 S102 705 1510308 6279 0
79 2 S102 735 1511043 7014 0
0 0 0 743 1511786 -8391 0
0 0 0 729 1512515 -7662 0
0 0 0 770 1513285 -6892 0
0 0 0 749 1514034 -6143 0
0 0 0 699 1514733 -5444 0
0 0 0 719 1515452 -4725 0
0 0 0 707 1516159 -4018 0
0 0 0 677 1516836 -3341 0
0 0 0 713 1517549 -2628 0
80 1 S116 706 1518255 -1922 0
80 1 S116 679 1518934 -1243 0
80 1 S116 721 1519655 -522 0
80 2 S116 760 1520415 238 0
80 2 S116 790 1521205 1028 0
80 2 S116 792 1521997 1820 0
80 2 S116 815 1522812 2635 0
80 2 S116 802 1523614 3437 0
80 2 S116 753 1524367 4190 0
80 2 S116 762 1525129 4952 0
80 2 S116 736 1525865 5688 0
80 2 S116 711 1526576 6399 0
