T_0025
BeatCount Mean SD BeatCountNoOutliers MeanNoOutliers SDNoOutliers
1644 909,880778588808 82,9901937926132 1622 912,897040690506 78,5544935063621

Trial TrialStatus Trialtype IBI AbsPosition RelPosition Outlier
0 0 0 969 1626 -14830 0
0 0 0 995 2621 -13835 0
0 0 0 918 3539 -12917 0
0 0 0 974 4513 -11943 0
0 0 0 987 5500 -10956 0
0 0 0 1066 6566 -9890 0
0 0 0 909 7475 -8981 0
0 0 0 961 8436 -8020 0
0 0 0 853 9289 -7167 0
0 0 0 828 10117 -6339 0
0 0 0 914 11031 -5425 0
0 0 0 988 12019 -4437 0
0 0 0 854 12873 -3583 0
0 0 0 951 13824 -2632 0
1 1 S112 941 14765 -1691 0
1 1 S112 825 15590 -866 0
1 1 S112 780 16370 -86 0
1 2 S112 761 17131 675 0
1 2 S112 890 18021 1565 0
1 2 S112 937 18958 2502 0
1 2 S112 878 19836 3380 0
1 2 S112 943 20779 4323 0
1 2 S112 986 21765 5309 0
1 2 S112 1012 22777 6321 0
0 0 0 886 23663 -11527 0
0 0 0 975 24638 -10552 0
0 0 0 1027 25665 -9525 0
0 0 0 948 26613 -8577 0
0 0 0 903 27516 -7674 0
0 0 0 923 28439 -6751 0
0 0 0 831 29270 -5920 0
0 0 0 930 30200 -4990 0
0 0 0 990 31190 -4000 0
0 0 0 922 32112 -3078 0
0 0 0 867 32979 -2211 0
2 1 S102 959 33938 -1252 0
2 1 S102 976 34914 -276 0
2 2 S102 952 35866 676 0
2 2 S102 950 36816 1626 0
2 2 S102 999 37815 2625 0
2 2 S102 1006 38821 3631 0
2 2 S102 916 39737 4547 0
2 2 S102 988 40725 5535 0
2 2 S102 1038 41763 6573 0
0 0 0 952 42715 -9037 0
0 0 0 993 43708 -8044 0
0 0 0 1073 44781 -6971 0
0 0 0 923 45704 -6048 0
0 0 0 802 46506 -5246 0
0 0 0 852 47358 -4394 0
0 0 0 898 48256 -3496 0
0 0 0 846 49102 -2650 0
3 1 S116 847 49949 -1803 0
3 1 S116 880 50829 -923 0
3 2 S116 941 51770 18 0
3 2 S116 948 52718 966 0
3 2 S116 977 53695 1943 0
3 2 S116 910 54605 2853 0
3 2 S116 934 55539 3787 0
3 2 S116 1011 56550 4798 0
3 2 S116 1025 57575 5823 0
3 2 S116 930 58505 6753 0
0 0 0 964 59469 -10088 0
0 0 0 1046 60515 -9042 0
0 0 0 1050 61565 -7992 0
0 0 0 955 62520 -7037 0
0 0 0 991 63511 -6046 0
0 0 0 1018 64529 -5028 0
0 0 0 967 65496 -4061 0
0 0 0 883 66379 -3178 0
0 0 0 992 67371 -2186 0
4 1 S106 1021 68392 -1165 0
4 1 S106 922 69314 -243 0
4 2 S106 898 70212 655 0
4 2 S106 1055 71267 1710 0
4 2 S106 1024 72291 2734 0
4 2 S106 994 73285 3728 0
4 2 S106 890 74175 4618 0
4 2 S106 935 75110 5553 0
4 2 S106 963 76073 6516 0
0 0 0 945 77018 -5719 0
0 0 0 880 77898 -4839 0
0 0 0 933 78831 -3906 0
0 0 0 954 79785 -2952 0
0 0 0 925 80710 -2027 0
5 1 S116 852 81562 -1175 0
5 1 S116 959 82521 -216 0
5 2 S116 983 83504 767 0
5 2 S116 994 84498 1761 0
5 2 S116 877 85375 2638 0
5 2 S116 966 86341 3604 0
5 2 S116 1002 87343 4606 0
5 2 S116 968 88311 5574 0
5 2 S116 864 89175 6438 0
0 0 0 977 90152 -8135 0
0 0 0 997 91149 -7138 0
0 0 0 829 91978 -6309 0
0 0 0 856 92834 -5453 0
0 0 0 889 93723 -4564 0
0 0 0 861 94584 -3703 0
0 0 0 815 95399 -2888 0
6 1 S106 918 96317 -1970 0
6 1 S106 924 97241 -1046 0
6 1 S106 859 98100 -187 0
6 2 S106 868 98968 681 0
6 2 S106 916 99884 1597 0
6 2 S106 961 100845 2558 0
6 2 S106 908 101753 3466 0
6 2 S106 925 102678 4391 0
6 2 S106 944 103622 5335 0
6 2 S106 952 104574 6287 0
0 0 0 876 105450 -9946 0
0 0 0 970 106420 -8976 0
0 0 0 966 107386 -8010 0
0 0 0 809 108195 -7201 0
0 0 0 728 108923 -6473 0
0 0 0 702 109625 -5771 0
0 0 0 711 110336 -5060 0
0 0 0 844 111180 -4216 0
0 0 0 929 112109 -3287 0
0 0 0 977 113086 -2310 0
7 1 S102 997 114083 -1313 0
7 1 S102 978 115061 -335 0
7 2 S102 985 116046 650 0
7 2 S102 919 116965 1569 0
7 2 S102 931 117896 2500 0
7 2 S102 959 118855 3459 0
7 2 S102 936 119791 4395 0
7 2 S102 938 120729 5333 0
7 2 S102 898 121627 6231 0
0 0 0 931 122558 -8753 0
0 0 0 991 123549 -7762 0
0 0 0 1003 124552 -6759 0
0 0 0 839 125391 -5920 0
0 0 0 871 126262 -5049 0
0 0 0 921 127183 -4128 0
0 0 0 883 128066 -3245 0
0 0 0 841 128907 -2404 0
8 1 S112 932 129839 -1472 0
8 1 S112 957 130796 -515 0
8 2 S112 831 131627 316 0
8 2 S112 927 132554 1243 0
8 2 S112 957 133511 2200 0
8 2 S112 884 134395 3084 0
8 2 S112 952 135347 4036 0
8 2 S112 972 136319 5008 0
8 2 S112 902 137221 5910 0
8 2 S112 895 138116 6805 0
0 0 0 992 139108 -6394 0
0 0 0 985 140093 -5409 0
0 0 0 901 140994 -4508 0
0 0 0 959 141953 -3549 0
0 0 0 986 142939 -2563 0
9 1 S116 870 143809 -1693 0
9 1 S116 937 144746 -756 0
9 2 S116 968 145714 212 0
9 2 S116 928 146642 1140 0
9 2 S116 931 147573 2071 0
9 2 S116 963 148536 3034 0
9 2 S116 932 149468 3966 0
9 2 S116 908 150376 4874 0
9 2 S116 967 151343 5841 0
9 2 S116 985 152328 6826 0
0 0 0 895 153223 -9653 0
0 0 0 958 154181 -8695 0
0 0 0 958 155139 -7737 0
0 0 0 927 156066 -6810 0
0 0 0 898 156964 -5912 0
0 0 0 938 157902 -4974 0
0 0 0 875 158777 -4099 0
0 0 0 791 159568 -3308 0
0 0 0 831 160399 -2477 0
10 1 S102 879 161278 -1598 0
10 1 S102 819 162097 -779 0
10 2 S102 924 163021 145 0
10 2 S102 1029 164050 1174 0
10 2 S102 969 165019 2143 0
10 2 S102 872 165891 3015 0
10 2 S102 939 166830 3954 0
10 2 S102 953 167783 4907 0
10 2 S102 920 168703 5827 0
10 2 S102 823 169526 6650 0
0 0 0 893 170419 -10031 0
0 0 0 915 171334 -9116 0
0 0 0 855 172189 -8261 0
0 0 0 784 172973 -7477 0
0 0 0 852 173825 -6625 0
0 0 0 871 174696 -5754 0
0 0 0 826 175522 -4928 0
0 0 0 816 176338 -4112 0
0 0 0 860 177198 -3252 0
0 0 0 833 178031 -2419 0
11 1 S112 796 178827 -1623 0
11 1 S112 895 179722 -728 0
11 2 S112 957 180679 229 0
11 2 S112 893 181572 1122 0
11 2 S112 893 182465 2015 0
11 2 S112 919 183384 2934 0
11 2 S112 886 184270 3820 0
11 2 S112 805 185075 4625 0
11 2 S112 840 185915 5465 0
11 2 S112 844 186759 6309 0
0 0 0 870 187629 -6415 0
0 0 0 822 188451 -5593 0
0 0 0 955 189406 -4638 0
0 0 0 966 190372 -3672 0
0 0 0 839 191211 -2833 0
12 1 S116 950 192161 -1883 0
12 1 S116 969 193130 -914 0
12 1 S116 855 193985 -59 0
12 2 S116 888 194873 829 0
12 2 S116 1005 195878 1834 0
12 2 S116 970 196848 2804 0
12 2 S116 864 197712 3668 0
12 2 S116 961 198673 4629 0
12 2 S116 1003 199676 5632 0
12 2 S116 905 200581 6537 0
0 0 0 962 201543 -11135 0
0 0 0 1038 202581 -10097 0
0 0 0 974 203555 -9123 0
0 0 0 923 204478 -8200 0
0 0 0 965 205443 -7235 0
0 0 0 930 206373 -6305 0
0 0 0 894 207267 -5411 0
0 0 0 965 208232 -4446 0
0 0 0 996 209228 -3450 0
0 0 0 887 210115 -2563 0
13 1 S112 944 211059 -1619 0
13 1 S112 998 212057 -621 0
13 2 S112 940 212997 319 0
13 2 S112 856 213853 1175 0
13 2 S112 915 214768 2090 0
13 2 S112 909 215677 2999 0
13 2 S112 793 216470 3792 0
13 2 S112 852 217322 4644 0
13 2 S112 901 218223 5545 0
13 2 S112 881 219104 6426 0
0 0 0 822 219926 -10557 0
0 0 0 928 220854 -9629 0
0 0 0 946 221800 -8683 0
0 0 0 860 222660 -7823 0
0 0 0 800 223460 -7023 0
0 0 0 863 224323 -6160 0
0 0 0 905 225228 -5255 0
0 0 0 840 226068 -4415 0
0 0 0 882 226950 -3533 0
0 0 0 976 227926 -2557 0
14 1 S106 898 228824 -1659 0
14 1 S106 896 229720 -763 0
14 2 S106 956 230676 193 0
14 2 S106 984 231660 1177 0
14 2 S106 850 232510 2027 0
14 2 S106 907 233417 2934 0
14 2 S106 939 234356 3873 0
14 2 S106 894 235250 4767 0
14 2 S106 823 236073 5590 0
14 2 S106 910 236983 6500 0
0 0 0 940 237923 -10316 0
0 0 0 922 238845 -9394 0
0 0 0 924 239769 -8470 0
0 0 0 942 240711 -7528 0
0 0 0 859 241570 -6669 0
0 0 0 827 242397 -5842 0
0 0 0 892 243289 -4950 0
0 0 0 910 244199 -4040 0
0 0 0 834 245033 -3206 0
0 0 0 897 245930 -2309 0
15 1 S116 935 246865 -1374 0
15 1 S116 904 247769 -470 0
15 2 S116 762 248531 292 0
15 2 S116 785 249316 1077 0
15 2 S116 866 250182 1943 0
15 2 S116 924 251106 2867 0
15 2 S116 926 252032 3793 0
15 2 S116 854 252886 4647 0
15 2 S116 894 253780 5541 0
15 2 S116 923 254703 6464 0
0 0 0 956 255659 -8163 0
0 0 0 920 256579 -7243 0
0 0 0 875 257454 -6368 0
0 0 0 936 258390 -5432 0
0 0 0 954 259344 -4478 0
0 0 0 966 260310 -3512 0
0 0 0 924 261234 -2588 0
16 1 S116 974 262208 -1614 0
16 1 S116 1067 263275 -547 0
16 2 S116 1058 264333 511 0
16 2 S116 989 265322 1500 0
16 2 S116 966 266288 2466 0
16 2 S116 986 267274 3452 0
16 2 S116 937 268211 4389 0
16 2 S116 781 268992 5170 0
16 2 S116 831 269823 6001 0
16 2 S116 911 270734 6912 0
0 0 0 945 271679 -7627 0
0 0 0 843 272522 -6784 0
0 0 0 919 273441 -5865 0
0 0 0 942 274383 -4923 0
0 0 0 814 275197 -4109 0
0 0 0 860 276057 -3249 0
0 0 0 904 276961 -2345 0
17 1 S106 901 277862 -1444 0
17 1 S106 798 278660 -646 0
17 2 S106 886 279546 240 0
17 2 S106 938 280484 1178 0
17 2 S106 969 281453 2147 0
17 2 S106 895 282348 3042 0
17 2 S106 899 283247 3941 0
17 2 S106 931 284178 4872 0
17 2 S106 924 285102 5796 0
17 2 S106 879 285981 6675 0
0 0 0 874 286855 -10489 0
0 0 0 968 287823 -9521 0
0 0 0 972 288795 -8549 0
0 0 0 883 289678 -7666 0
0 0 0 840 290518 -6826 0
0 0 0 885 291403 -5941 0
0 0 0 901 292304 -5040 0
0 0 0 818 293122 -4222 0
0 0 0 843 293965 -3379 0
0 0 0 911 294876 -2468 0
18 1 S102 918 295794 -1550 0
18 1 S102 824 296618 -726 0
18 2 S102 889 297507 163 0
18 2 S102 922 298429 1085 0
18 2 S102 923 299352 2008 0
18 2 S102 827 300179 2835 0
18 2 S102 838 301017 3673 0
18 2 S102 877 301894 4550 0
18 2 S102 885 302779 5435 0
18 2 S102 812 303591 6247 0
0 0 0 852 304443 -7407 0
0 0 0 904 305347 -6503 0
0 0 0 906 306253 -5597 0
0 0 0 846 307099 -4751 0
0 0 0 903 308002 -3848 0
0 0 0 931 308933 -2917 0
0 0 0 867 309800 -2050 0
19 1 S106 878 310678 -1172 0
19 1 S106 886 311564 -286 0
19 2 S106 867 312431 581 0
19 2 S106 793 313224 1374 0
19 2 S106 868 314092 2242 0
19 2 S106 937 315029 3179 0
19 2 S106 881 315910 4060 0
19 2 S106 799 316709 4859 0
19 2 S106 915 317624 5774 0
19 2 S106 956 318580 6730 0
0 0 0 924 319504 -10914 0
0 0 0 889 320393 -10025 0
0 0 0 928 321321 -9097 0
0 0 0 883 322204 -8214 0
0 0 0 744 322948 -7470 0
0 0 0 701 323649 -6769 0
0 0 0 682 324331 -6087 1
0 0 0 744 325075 -5343 0
0 0 0 860 325935 -4483 0
0 0 0 985 326920 -3498 0
0 0 0 976 327896 -2522 0
20 1 S112 984 328880 -1538 0
20 1 S112 974 329854 -564 0
20 2 S112 908 330762 344 0
20 2 S112 956 331718 1300 0
20 2 S112 985 332703 2285 0
20 2 S112 981 333684 3266 0
20 2 S112 986 334670 4252 0
20 2 S112 965 335635 5217 0
20 2 S112 864 336499 6081 0
0 0 0 962 337461 -9750 0
0 0 0 1098 338559 -8652 0
0 0 0 1067 339626 -7585 0
0 0 0 918 340544 -6667 0
0 0 0 994 341538 -5673 0
0 0 0 980 342518 -4693 0
0 0 0 897 343415 -3796 0
0 0 0 988 344403 -2808 0
21 1 S106 981 345384 -1827 0
21 1 S106 853 346237 -974 0
21 1 S106 951 347188 -23 0
21 2 S106 963 348151 940 0
21 2 S106 872 349023 1812 0
21 2 S106 958 349981 2770 0
21 2 S106 986 350967 3756 0
21 2 S106 937 351904 4693 0
21 2 S106 861 352765 5554 0
21 2 S106 969 353734 6523 0
0 0 0 1007 354741 -10160 0
0 0 0 943 355684 -9217 0
0 0 0 929 356613 -8288 0
0 0 0 958 357571 -7330 0
0 0 0 935 358506 -6395 0
0 0 0 848 359354 -5547 0
0 0 0 914 360268 -4633 0
0 0 0 960 361228 -3673 0
0 0 0 886 362114 -2787 0
22 1 S116 865 362979 -1922 0
22 1 S116 841 363820 -1081 0
22 1 S116 798 364618 -283 0
22 2 S116 768 365386 485 0
22 2 S116 867 366253 1352 0
22 2 S116 934 367187 2286 0
22 2 S116 934 368121 3220 0
22 2 S116 876 368997 4096 0
22 2 S116 917 369914 5013 0
22 2 S116 910 370824 5923 0
22 2 S116 846 371670 6769 0
0 0 0 862 372532 -8897 0
0 0 0 929 373461 -7968 0
0 0 0 950 374411 -7018 0
0 0 0 820 375231 -6198 0
0 0 0 861 376092 -5337 0
0 0 0 915 377007 -4422 0
0 0 0 879 377886 -3543 0
0 0 0 914 378800 -2629 0
23 1 S112 1002 379802 -1627 0
23 1 S112 983 380785 -644 0
23 2 S112 887 381672 243 0
23 2 S112 1020 382692 1263 0
23 2 S112 1039 383731 2302 0
23 2 S112 959 384690 3261 0
23 2 S112 984 385674 4245 0
23 2 S112 978 386652 5223 0
23 2 S112 956 387608 6179 0
0 0 0 867 388475 -10030 0
0 0 0 954 389429 -9076 0
0 0 0 976 390405 -8100 0
0 0 0 881 391286 -7219 0
0 0 0 922 392208 -6297 0
0 0 0 796 393004 -5501 0
0 0 0 731 393735 -4770 0
0 0 0 730 394465 -4040 0
0 0 0 703 395168 -3337 0
0 0 0 727 395895 -2610 0
24 1 S106 826 396721 -1784 0
24 1 S106 763 397484 -1021 0
24 1 S106 844 398328 -177 0
24 2 S106 869 399197 692 0
24 2 S106 845 400042 1537 0
24 2 S106 813 400855 2350 0
24 2 S106 855 401710 3205 0
24 2 S106 880 402590 4085 0
24 2 S106 791 403381 4876 0
24 2 S106 822 404203 5698 0
24 2 S106 901 405104 6599 0
0 0 0 893 405997 -8887 0
0 0 0 840 406837 -8047 0
0 0 0 988 407825 -7059 0
0 0 0 976 408801 -6083 0
0 0 0 840 409641 -5243 0
0 0 0 994 410635 -4249 0
0 0 0 989 411624 -3260 0
0 0 0 869 412493 -2391 0
25 1 S102 885 413378 -1506 0
25 1 S102 905 414283 -601 0
25 2 S102 887 415170 286 0
25 2 S102 805 415975 1091 0
25 2 S102 936 416911 2027 0
25 2 S102 1067 417978 3094 0
25 2 S102 957 418935 4051 0
25 2 S102 955 419890 5006 0
25 2 S102 1030 420920 6036 0
25 2 S102 940 421860 6976 0
0 0 0 803 422663 -5899 0
0 0 0 896 423559 -5003 0
0 0 0 917 424476 -4086 0
0 0 0 889 425365 -3197 0
0 0 0 831 426196 -2366 0
26 1 S116 927 427123 -1439 0
26 1 S116 1025 428148 -414 0
26 2 S116 1018 429166 604 0
26 2 S116 924 430090 1528 0
26 2 S116 1027 431117 2555 0
26 2 S116 1056 432173 3611 0
26 2 S116 972 433145 4583 0
26 2 S116 965 434110 5548 0
26 2 S116 953 435063 6501 0
0 0 0 973 436036 -6286 0
0 0 0 888 436924 -5398 0
0 0 0 946 437870 -4452 0
0 0 0 960 438830 -3492 0
0 0 0 892 439722 -2600 0
27 1 S106 893 440615 -1707 0
27 1 S106 929 441544 -778 0
27 2 S106 917 442461 139 0
27 2 S106 801 443262 940 0
27 2 S106 892 444154 1832 0
27 2 S106 960 445114 2792 0
27 2 S106 923 446037 3715 0
27 2 S106 850 446887 4565 0
27 2 S106 921 447808 5486 0
27 2 S106 974 448782 6460 0
0 0 0 918 449700 -7575 0
0 0 0 939 450639 -6636 0
0 0 0 1036 451675 -5600 0
0 0 0 1019 452694 -4581 0
0 0 0 854 453548 -3727 0
0 0 0 882 454430 -2845 0
28 1 S102 860 455290 -1985 0
28 1 S102 785 456075 -1200 0
28 1 S102 881 456956 -319 0
28 2 S102 1026 457982 707 0
28 2 S102 1033 459015 1740 0
28 2 S102 917 459932 2657 0
28 2 S102 1020 460952 3677 0
28 2 S102 1026 461978 4703 0
28 2 S102 898 462876 5601 0
28 2 S102 914 463790 6515 0
0 0 0 963 464753 -11007 0
0 0 0 1038 465791 -9969 0
0 0 0 900 466691 -9069 0
0 0 0 922 467613 -8147 0
0 0 0 919 468532 -7228 0
0 0 0 804 469336 -6424 0
0 0 0 931 470267 -5493 0
0 0 0 1040 471307 -4453 0
0 0 0 889 472196 -3564 0
0 0 0 985 473181 -2579 0
29 1 S112 1016 474197 -1563 0
29 1 S112 923 475120 -640 0
29 2 S112 954 476074 314 0
29 2 S112 992 477066 1306 0
29 2 S112 986 478052 2292 0
29 2 S112 877 478929 3169 0
29 2 S112 930 479859 4099 0
29 2 S112 906 480765 5005 0
29 2 S112 758 481523 5763 0
29 2 S112 874 482397 6637 0
0 0 0 941 483338 -6945 0
0 0 0 1053 484391 -5892 0
0 0 0 937 485328 -4955 0
0 0 0 1075 486403 -3880 0
0 0 0 1113 487516 -2767 0
30 1 S112 978 488494 -1789 0
30 1 S112 1090 489584 -699 0
30 2 S112 1099 490683 400 0
30 2 S112 970 491653 1370 0
30 2 S112 1008 492661 2378 0
30 2 S112 1044 493705 3422 0
30 2 S112 988 494693 4410 0
30 2 S112 891 495584 5301 0
30 2 S112 1019 496603 6320 0
0 0 0 1011 497614 -9313 0
0 0 0 919 498533 -8394 0
0 0 0 1022 499555 -7372 0
0 0 0 1002 500557 -6370 0
0 0 0 870 501427 -5500 0
0 0 0 965 502392 -4535 0
0 0 0 981 503373 -3554 0
0 0 0 856 504229 -2698 0
31 1 S106 963 505192 -1735 0
31 1 S106 1047 506239 -688 0
31 2 S106 985 507224 297 0
31 2 S106 1003 508227 1300 0
31 2 S106 1033 509260 2333 0
31 2 S106 994 510254 3327 0
31 2 S106 901 511155 4228 0
31 2 S106 1015 512170 5243 0
31 2 S106 1033 513203 6276 0
0 0 0 885 514088 -8904 0
0 0 0 983 515071 -7921 0
0 0 0 1013 516084 -6908 0
0 0 0 875 516959 -6033 0
0 0 0 923 517882 -5110 0
0 0 0 998 518880 -4112 0
0 0 0 919 519799 -3193 0
0 0 0 867 520666 -2326 0
32 1 S102 975 521641 -1351 0
32 1 S102 1005 522646 -346 0
32 2 S102 872 523518 526 0
32 2 S102 945 524463 1471 0
32 2 S102 966 525429 2437 0
32 2 S102 898 526327 3335 0
32 2 S102 915 527242 4250 0
32 2 S102 1006 528248 5256 0
32 2 S102 937 529185 6193 0
0 0 0 840 530025 -11153 0
0 0 0 931 530956 -10222 0
0 0 0 975 531931 -9247 0
0 0 0 842 532773 -8405 0
0 0 0 898 533671 -7507 0
0 0 0 864 534535 -6643 0
0 0 0 757 535292 -5886 0
0 0 0 730 536022 -5156 0
0 0 0 822 536844 -4334 0
0 0 0 929 537773 -3405 0
0 0 0 985 538758 -2420 0
33 1 S112 980 539738 -1440 0
33 1 S112 930 540668 -510 0
33 2 S112 1009 541677 499 0
33 2 S112 1023 542700 1522 0
33 2 S112 1018 543718 2540 0
33 2 S112 952 544670 3492 0
33 2 S112 925 545595 4417 0
33 2 S112 914 546509 5331 0
33 2 S112 944 547453 6275 0
0 0 0 951 548404 -10779 0
0 0 0 885 549289 -9894 0
0 0 0 1031 550320 -8863 0
0 0 0 1005 551325 -7858 0
0 0 0 902 552227 -6956 0
0 0 0 991 553218 -5965 0
0 0 0 1046 554264 -4919 0
0 0 0 1003 555267 -3916 0
0 0 0 914 556181 -3002 0
0 0 0 956 557137 -2046 0
34 1 S106 932 558069 -1114 0
34 1 S106 783 558852 -331 0
34 2 S106 752 559604 421 0
34 2 S106 809 560413 1230 0
34 2 S106 928 561341 2158 0
34 2 S106 923 562264 3081 0
34 2 S106 856 563120 3937 0
34 2 S106 953 564073 4890 0
34 2 S106 961 565034 5851 0
34 2 S106 873 565907 6724 0
0 0 0 906 566813 -9893 0
0 0 0 935 567748 -8958 0
0 0 0 924 568672 -8034 0
0 0 0 845 569517 -7189 0
0 0 0 885 570402 -6304 0
0 0 0 834 571236 -5470 0
0 0 0 721 571957 -4749 0
0 0 0 704 572661 -4045 0
0 0 0 737 573398 -3308 0
0 0 0 859 574257 -2449 0
35 1 S102 964 575221 -1485 0
35 1 S102 1013 576234 -472 0
35 2 S102 1016 577250 544 0
35 2 S102 1012 578262 1556 0
35 2 S102 936 579198 2492 0
35 2 S102 1003 580201 3495 0
35 2 S102 1009 581210 4504 0
35 2 S102 998 582208 5502 0
35 2 S102 905 583113 6407 0
0 0 0 952 584065 -8291 0
0 0 0 993 585058 -7298 0
0 0 0 1012 586070 -6286 0
0 0 0 933 587003 -5353 0
0 0 0 993 587996 -4360 0
0 0 0 962 588958 -3398 0
0 0 0 825 589783 -2573 0
36 1 S106 893 590676 -1680 0
36 1 S106 936 591612 -744 0
36 2 S106 861 592473 117 0
36 2 S106 969 593442 1086 0
36 2 S106 1008 594450 2094 0
36 2 S106 945 595395 3039 0
36 2 S106 983 596378 4022 0
36 2 S106 987 597365 5009 0
36 2 S106 948 598313 5957 0
36 2 S106 826 599139 6783 0
0 0 0 903 600042 -7483 0
0 0 0 953 600995 -6530 0
0 0 0 936 601931 -5594 0
0 0 0 802 602733 -4792 0
0 0 0 842 603575 -3950 0
0 0 0 868 604443 -3082 0
0 0 0 801 605244 -2281 0
37 1 S116 841 606085 -1440 0
37 1 S116 885 606970 -555 0
37 2 S116 889 607859 334 0
37 2 S116 846 608705 1180 0
37 2 S116 912 609617 2092 0
37 2 S116 924 610541 3016 0
37 2 S116 843 611384 3859 0
37 2 S116 857 612241 4716 0
37 2 S116 907 613148 5623 0
37 2 S116 927 614075 6550 0
0 0 0 855 614930 -11644 0
0 0 0 943 615873 -10701 0
0 0 0 1018 616891 -9683 0
0 0 0 1004 617895 -8679 0
0 0 0 866 618761 -7813 0
0 0 0 968 619729 -6845 0
0 0 0 974 620703 -5871 0
0 0 0 880 621583 -4991 0
0 0 0 912 622495 -4079 0
0 0 0 980 623475 -3099 0
0 0 0 952 624427 -2147 0
38 1 S102 861 625288 -1286 0
38 1 S102 941 626229 -345 0
38 2 S102 985 627214 640 0
38 2 S102 940 628154 1580 0
38 2 S102 945 629099 2525 0
38 2 S102 998 630097 3523 0
38 2 S102 938 631035 4461 0
38 2 S102 837 631872 5298 0
38 2 S102 911 632783 6209 0
0 0 0 908 633691 -9793 0
0 0 0 919 634610 -8874 0
0 0 0 837 635447 -8037 0
0 0 0 931 636378 -7106 0
0 0 0 913 637291 -6193 0
0 0 0 810 638101 -5383 0
0 0 0 888 638989 -4495 0
0 0 0 943 639932 -3552 0
0 0 0 921 640853 -2631 0
39 1 S116 858 641711 -1773 0
39 1 S116 937 642648 -836 0
39 2 S116 955 643603 119 0
39 2 S116 913 644516 1032 0
39 2 S116 818 645334 1850 0
39 2 S116 928 646262 2778 0
39 2 S116 951 647213 3729 0
39 2 S116 916 648129 4645 0
39 2 S116 833 648962 5478 0
39 2 S116 928 649890 6406 0
0 0 0 943 650833 -7206 0
0 0 0 914 651747 -6292 0
0 0 0 913 652660 -5379 0
0 0 0 950 653610 -4429 0
0 0 0 847 654457 -3582 0
0 0 0 845 655302 -2737 0
40 1 S112 894 656196 -1843 0
40 1 S112 892 657088 -951 0
40 1 S112 823 657911 -128 0
40 2 S112 945 658856 817 0
40 2 S112 955 659811 1772 0
40 2 S112 859 660670 2631 0
40 2 S112 889 661559 3520 0
40 2 S112 825 662384 4345 0
40 2 S112 796 663180 5141 0
40 2 S112 785 663965 5926 0
40 2 S112 846 664811 6772 0
0 0 0 903 665714 -187503 0
0 0 0 842 666556 -186661 0
0 0 0 965 667521 -185696 0
0 0 0 1003 668524 -184693 0
0 0 0 886 669410 -183807 0
0 0 0 855 670265 -182952 0
0 0 0 912 671177 -182040 0
0 0 0 862 672039 -181178 0
0 0 0 808 672847 -180370 0
0 0 0 748 673595 -179622 0
0 0 0 776 674371 -178846 0
0 0 0 754 675125 -178092 0
0 0 0 817 675942 -177275 0
0 0 0 867 676809 -176408 0
0 0 0 887 677696 -175521 0
0 0 0 807 678503 -174714 0
0 0 0 780 679283 -173934 0
0 0 0 826 680109 -173108 0
0 0 0 839 680948 -172269 0
0 0 0 572 681520 -171697 1
0 0 0 987 682507 -170710 0
0 0 0 763 683270 -169947 0
0 0 0 764 684034 -169183 0
0 0 0 721 684755 -168462 0
0 0 0 682 685437 -167780 1
0 0 0 675 686112 -167105 1
0 0 0 645 686757 -166460 1
0 0 0 626 687383 -165834 1
0 0 0 629 688012 -165205 1
0 0 0 640 688652 -164565 1
0 0 0 648 689300 -163917 1
0 0 0 695 689995 -163222 1
0 0 0 706 690701 -162516 0
0 0 0 651 691352 -161865 1
0 0 0 682 692034 -161183 1
0 0 0 761 692795 -160422 0
0 0 0 847 693642 -159575 0
0 0 0 912 694554 -158663 0
0 0 0 802 695356 -157861 0
0 0 0 847 696203 -157014 0
0 0 0 954 697157 -156060 0
0 0 0 993 698150 -155067 0
0 0 0 972 699122 -154095 0
0 0 0 878 700000 -153217 0
0 0 0 920 700920 -152297 0
0 0 0 952 701872 -151345 0
0 0 0 885 702757 -150460 0
0 0 0 851 703608 -149609 0
0 0 0 952 704560 -148657 0
0 0 0 1008 705568 -147649 0
0 0 0 959 706527 -146690 0
0 0 0 836 707363 -145854 0
0 0 0 922 708285 -144932 0
0 0 0 973 709258 -143959 0
0 0 0 825 710083 -143134 0
0 0 0 913 710996 -142221 0
0 0 0 939 711935 -141282 0
0 0 0 939 712874 -140343 0
0 0 0 846 713720 -139497 0
0 0 0 813 714533 -138684 0
0 0 0 865 715398 -137819 0
0 0 0 940 716338 -136879 0
0 0 0 965 717303 -135914 0
0 0 0 965 718268 -134949 0
0 0 0 849 719117 -134100 0
0 0 0 900 720017 -133200 0
0 0 0 965 720982 -132235 0
0 0 0 993 721975 -131242 0
0 0 0 852 722827 -130390 0
0 0 0 919 723746 -129471 0
0 0 0 976 724722 -128495 0
0 0 0 947 725669 -127548 0
0 0 0 839 726508 -126709 0
0 0 0 892 727400 -125817 0
0 0 0 894 728294 -124923 0
0 0 0 788 729082 -124135 0
0 0 0 838 729920 -123297 0
0 0 0 920 730840 -122377 0
0 0 0 939 731779 -121438 0
0 0 0 929 732708 -120509 0
0 0 0 882 733590 -119627 0
0 0 0 745 734335 -118882 0
0 0 0 761 735096 -118121 0
0 0 0 690 735786 -117431 1
0 0 0 699 736485 -116732 0
0 0 0 722 737207 -116010 0
0 0 0 702 737909 -115308 0
0 0 0 689 738598 -114619 1
0 0 0 791 739389 -113828 0
0 0 0 954 740343 -112874 0
0 0 0 1003 741346 -111871 0
0 0 0 1007 742353 -110864 0
0 0 0 914 743267 -109950 0
0 0 0 907 744174 -109043 0
0 0 0 925 745099 -108118 0
0 0 0 993 746092 -107125 0
0 0 0 1031 747123 -106094 0
0 0 0 832 747955 -105262 0
0 0 0 820 748775 -104442 0
0 0 0 841 749616 -103601 0
0 0 0 898 750514 -102703 0
0 0 0 911 751425 -101792 0
0 0 0 927 752352 -100865 0
0 0 0 922 753274 -99943 0
0 0 0 769 754043 -99174 0
0 0 0 732 754775 -98442 0
0 0 0 801 755576 -97641 0
0 0 0 865 756441 -96776 0
0 0 0 969 757410 -95807 0
0 0 0 1008 758418 -94799 0
0 0 0 974 759392 -93825 0
0 0 0 958 760350 -92867 0
0 0 0 808 761158 -92059 0
0 0 0 821 761979 -91238 0
0 0 0 865 762844 -90373 0
0 0 0 905 763749 -89468 0
0 0 0 834 764583 -88634 0
0 0 0 849 765432 -87785 0
0 0 0 930 766362 -86855 0
0 0 0 827 767189 -86028 0
0 0 0 801 767990 -85227 0
0 0 0 837 768827 -84390 0
0 0 0 976 769803 -83414 0
0 0 0 1002 770805 -82412 0
0 0 0 1018 771823 -81394 0
0 0 0 930 772753 -80464 0
0 0 0 919 773672 -79545 0
0 0 0 957 774629 -78588 0
0 0 0 807 775436 -77781 0
0 0 0 861 776297 -76920 0
0 0 0 787 777084 -76133 0
0 0 0 813 777897 -75320 0
0 0 0 930 778827 -74390 0
0 0 0 1003 779830 -73387 0
0 0 0 1008 780838 -72379 0
0 0 0 999 781837 -71380 0
0 0 0 946 782783 -70434 0
0 0 0 955 783738 -69479 0
0 0 0 993 784731 -68486 0
0 0 0 988 785719 -67498 0
0 0 0 918 786637 -66580 0
0 0 0 923 787560 -65657 0
0 0 0 953 788513 -64704 0
0 0 0 961 789474 -63743 0
0 0 0 887 790361 -62856 0
0 0 0 935 791296 -61921 0
0 0 0 972 792268 -60949 0
0 0 0 949 793217 -60000 0
0 0 0 863 794080 -59137 0
0 0 0 903 794983 -58234 0
0 0 0 935 795918 -57299 0
0 0 0 906 796824 -56393 0
0 0 0 813 797637 -55580 0
0 0 0 855 798492 -54725 0
0 0 0 884 799376 -53841 0
0 0 0 873 800249 -52968 0
0 0 0 781 801030 -52187 0
0 0 0 837 801867 -51350 0
0 0 0 881 802748 -50469 0
0 0 0 870 803618 -49599 0
0 0 0 793 804411 -48806 0
0 0 0 852 805263 -47954 0
0 0 0 891 806154 -47063 0
0 0 0 912 807066 -46151 0
0 0 0 884 807950 -45267 0
0 0 0 780 808730 -44487 0
0 0 0 860 809590 -43627 0
0 0 0 886 810476 -42741 0
0 0 0 894 811370 -41847 0
0 0 0 865 812235 -40982 0
0 0 0 864 813099 -40118 0
0 0 0 892 813991 -39226 0
0 0 0 905 814896 -38321 0
0 0 0 820 815716 -37501 0
0 0 0 857 816573 -36644 0
0 0 0 890 817463 -35754 0
0 0 0 883 818346 -34871 0
0 0 0 830 819176 -34041 0
0 0 0 895 820071 -33146 0
0 0 0 888 820959 -32258 0
0 0 0 853 821812 -31405 0
0 0 0 822 822634 -30583 0
0 0 0 862 823496 -29721 0
0 0 0 892 824388 -28829 0
0 0 0 839 825227 -27990 0
0 0 0 820 826047 -27170 0
0 0 0 806 826853 -26364 0
0 0 0 780 827633 -25584 0
0 0 0 848 828481 -24736 0
0 0 0 926 829407 -23810 0
0 0 0 889 830296 -22921 0
0 0 0 899 831195 -22022 0
0 0 0 923 832118 -21099 0
0 0 0 967 833085 -20132 0
0 0 0 949 834034 -19183 0
0 0 0 774 834808 -18409 0
0 0 0 721 835529 -17688 0
0 0 0 730 836259 -16958 0
0 0 0 833 837092 -16125 0
0 0 0 933 838025 -15192 0
0 0 0 917 838942 -14275 0
0 0 0 921 839863 -13354 0
0 0 0 993 840856 -12361 0
0 0 0 833 841689 -11528 0
0 0 0 895 842584 -10633 0
0 0 0 936 843520 -9697 0
0 0 0 941 844461 -8756 0
0 0 0 855 845316 -7901 0
0 0 0 895 846211 -7006 0
0 0 0 983 847194 -6023 0
0 0 0 1024 848218 -4999 0
0 0 0 978 849196 -4021 0
0 0 0 992 850188 -3029 0
0 0 0 946 851134 -2083 0
41 1 S102 990 852124 -1093 0
41 1 S102 1007 853131 -86 0
41 2 S102 949 854080 863 0
41 2 S102 957 855037 1820 0
41 2 S102 890 855927 2710 0
41 2 S102 763 856690 3473 0
41 2 S102 765 857455 4238 0
41 2 S102 791 858246 5029 0
41 2 S102 827 859073 5856 0
41 2 S102 850 859923 6706 0
0 0 0 989 860912 -8900 0
0 0 0 1017 861929 -7883 0
0 0 0 954 862883 -6929 0
0 0 0 1047 863930 -5882 0
0 0 0 1082 865012 -4800 0
0 0 0 952 865964 -3848 0
0 0 0 932 866896 -2916 0
42 1 S112 955 867851 -1961 0
42 1 S112 871 868722 -1090 0
42 1 S112 872 869594 -218 0
42 2 S112 946 870540 728 0
42 2 S112 1029 871569 1757 0
42 2 S112 914 872483 2671 0
42 2 S112 1066 873549 3737 0
42 2 S112 1131 874680 4868 1
42 2 S112 982 875662 5850 0
42 2 S112 988 876650 6838 0
0 0 0 1036 877686 -8555 0
0 0 0 1010 878696 -7545 0
0 0 0 887 879583 -6658 0
0 0 0 937 880520 -5721 0
0 0 0 968 881488 -4753 0
0 0 0 775 882263 -3978 0
0 0 0 782 883045 -3196 0
0 0 0 798 883843 -2398 0
43 1 S116 749 884592 -1649 0
43 1 S116 826 885418 -823 0
43 2 S116 866 886284 43 0
43 2 S116 880 887164 923 0
43 2 S116 990 888154 1913 0
43 2 S116 1031 889185 2944 0
43 2 S116 910 890095 3854 0
43 2 S116 925 891020 4779 0
43 2 S116 958 891978 5737 0
43 2 S116 954 892932 6691 0
0 0 0 871 893803 -6065 0
0 0 0 984 894787 -5081 0
0 0 0 990 895777 -4091 0
0 0 0 887 896664 -3204 0
0 0 0 956 897620 -2248 0
44 1 S102 1010 898630 -1238 0
44 1 S102 972 899602 -266 0
44 2 S102 877 900479 611 0
44 2 S102 1009 901488 1620 0
44 2 S102 1031 902519 2651 0
44 2 S102 955 903474 3606 0
44 2 S102 947 904421 4553 0
44 2 S102 997 905418 5550 0
44 2 S102 1008 906426 6558 0
0 0 0 934 907360 -7744 0
0 0 0 1004 908364 -6740 0
0 0 0 989 909353 -5751 0
0 0 0 891 910244 -4860 0
0 0 0 906 911150 -3954 0
0 0 0 943 912093 -3011 0
0 0 0 968 913061 -2043 0
45 1 S116 890 913951 -1153 0
45 1 S116 1000 914951 -153 0
45 2 S116 1006 915957 853 0
45 2 S116 989 916946 1842 0
45 2 S116 936 917882 2778 0
45 2 S116 997 918879 3775 0
45 2 S116 1007 919886 4782 0
45 2 S116 896 920782 5678 0
45 2 S116 951 921733 6629 0
0 0 0 976 922709 -10697 0
0 0 0 944 923653 -9753 0
0 0 0 864 924517 -8889 0
0 0 0 859 925376 -8030 0
0 0 0 847 926223 -7183 0
0 0 0 767 926990 -6416 0
0 0 0 817 927807 -5599 0
0 0 0 902 928709 -4697 0
0 0 0 798 929507 -3899 0
0 0 0 859 930366 -3040 0
0 0 0 915 931281 -2125 0
46 1 S102 899 932180 -1226 0
46 1 S102 842 933022 -384 0
46 2 S102 890 933912 506 0
46 2 S102 887 934799 1393 0
46 2 S102 826 935625 2219 0
46 2 S102 846 936471 3065 0
46 2 S102 873 937344 3938 0
46 2 S102 914 938258 4852 0
46 2 S102 880 939138 5732 0
46 2 S102 953 940091 6685 0
0 0 0 1025 941116 -9581 0
0 0 0 1027 942143 -8554 0
0 0 0 952 943095 -7602 0
0 0 0 1037 944132 -6565 0
0 0 0 964 945096 -5601 0
0 0 0 808 945904 -4793 0
0 0 0 844 946748 -3949 0
0 0 0 879 947627 -3070 0
0 0 0 820 948447 -2250 0
47 1 S112 892 949339 -1358 0
47 1 S112 955 950294 -403 0
47 2 S112 997 951291 594 0
47 2 S112 905 952196 1499 0
47 2 S112 1069 953265 2568 0
47 2 S112 1114 954379 3682 0
47 2 S112 1028 955407 4710 0
47 2 S112 950 956357 5660 0
47 2 S112 1078 957435 6738 0
0 0 0 1054 958489 -10312 0
0 0 0 944 959433 -9368 0
0 0 0 1011 960444 -8357 0
0 0 0 1042 961486 -7315 0
0 0 0 900 962386 -6415 0
0 0 0 925 963311 -5490 0
0 0 0 987 964298 -4503 0
0 0 0 856 965154 -3647 0
0 0 0 1068 966222 -2579 0
48 1 S116 1030 967252 -1549 0
48 1 S116 910 968162 -639 0
48 2 S116 1006 969168 367 0
48 2 S116 1034 970202 1401 0
48 2 S116 980 971182 2381 0
48 2 S116 915 972097 3296 0
48 2 S116 1031 973128 4327 0
48 2 S116 1056 974184 5383 0
48 2 S116 944 975128 6327 0
0 0 0 1000 976128 -7295 0
0 0 0 1104 977232 -6191 0
0 0 0 1003 978235 -5188 0
0 0 0 870 979105 -4318 0
0 0 0 965 980070 -3353 0
0 0 0 1011 981081 -2342 0
49 1 S112 862 981943 -1480 0
49 1 S112 964 982907 -516 0
49 2 S112 995 983902 479 0
49 2 S112 950 984852 1429 0
49 2 S112 959 985811 2388 0
49 2 S112 1080 986891 3468 0
49 2 S112 1019 987910 4487 0
49 2 S112 947 988857 5434 0
49 2 S112 1022 989879 6456 0
0 0 0 1001 990880 -10978 0
0 0 0 903 991783 -10075 0
0 0 0 946 992729 -9129 0
0 0 0 942 993671 -8187 0
0 0 0 838 994509 -7349 0
0 0 0 935 995444 -6414 0
0 0 0 980 996424 -5434 0
0 0 0 944 997368 -4490 0
0 0 0 861 998229 -3629 0
0 0 0 998 999227 -2631 0
50 1 S106 989 1000216 -1642 0
50 1 S106 889 1001105 -753 0
50 2 S106 923 1002028 170 0
50 2 S106 909 1002937 1079 0
50 2 S106 820 1003757 1899 0
50 2 S106 776 1004533 2675 0
50 2 S106 864 1005397 3539 0
50 2 S106 962 1006359 4501 0
50 2 S106 963 1007322 5464 0
50 2 S106 871 1008193 6335 0
0 0 0 1020 1009213 -6671 0
0 0 0 1080 1010293 -5591 0
0 0 0 952 1011245 -4639 0
0 0 0 911 1012156 -3728 0
0 0 0 795 1012951 -2933 0
0 0 0 752 1013703 -2181 0
51 1 S112 784 1014487 -1397 0
51 1 S112 727 1015214 -670 0
51 2 S112 795 1016009 125 0
51 2 S112 888 1016897 1013 0
51 2 S112 947 1017844 1960 0
51 2 S112 882 1018726 2842 0
51 2 S112 1025 1019751 3867 0
51 2 S112 1044 1020795 4911 0
51 2 S112 923 1021718 5834 0
51 2 S112 1011 1022729 6845 0
0 0 0 1047 1023776 -5934 0
0 0 0 885 1024661 -5049 0
0 0 0 932 1025593 -4117 0
0 0 0 948 1026541 -3169 0
0 0 0 846 1027387 -2323 0
52 1 S116 940 1028327 -1383 0
52 1 S116 975 1029302 -408 0
52 2 S116 929 1030231 521 0
52 2 S116 970 1031201 1491 0
52 2 S116 1109 1032310 2600 0
52 2 S116 1028 1033338 3628 0
52 2 S116 897 1034235 4525 0
52 2 S116 997 1035232 5522 0
52 2 S116 1013 1036245 6535 0
0 0 0 905 1037150 -9934 0
0 0 0 1007 1038157 -8927 0
0 0 0 1015 1039172 -7912 0
0 0 0 971 1040143 -6941 0
0 0 0 876 1041019 -6065 0
0 0 0 866 1041885 -5199 0
0 0 0 786 1042671 -4413 0
0 0 0 900 1043571 -3513 0
0 0 0 977 1044548 -2536 0
53 1 S106 902 1045450 -1634 0
53 1 S106 912 1046362 -722 0
53 2 S106 992 1047354 270 0
53 2 S106 1007 1048361 1277 0
53 2 S106 892 1049253 2169 0
53 2 S106 968 1050221 3137 0
53 2 S106 999 1051220 4136 0
53 2 S106 932 1052152 5068 0
53 2 S106 869 1053021 5937 0
53 2 S106 940 1053961 6877 0
0 0 0 949 1054910 -6183 0
0 0 0 867 1055777 -5316 0
0 0 0 910 1056687 -4406 0
0 0 0 797 1057484 -3609 0
0 0 0 744 1058228 -2865 0
0 0 0 730 1058958 -2135 0
54 1 S102 719 1059677 -1416 0
54 1 S102 835 1060512 -581 0
54 2 S102 811 1061323 230 0
54 2 S102 801 1062124 1031 0
54 2 S102 920 1063044 1951 0
54 2 S102 940 1063984 2891 0
54 2 S102 861 1064845 3752 0
54 2 S102 860 1065705 4612 0
54 2 S102 934 1066639 5546 0
54 2 S102 970 1067609 6516 0
0 0 0 882 1068491 -11866 0
0 0 0 903 1069394 -10963 0
0 0 0 1003 1070397 -9960 0
0 0 0 1062 1071459 -8898 0
0 0 0 805 1072264 -8093 0
0 0 0 907 1073171 -7186 0
0 0 0 921 1074092 -6265 0
0 0 0 868 1074960 -5397 0
0 0 0 979 1075939 -4418 0
0 0 0 932 1076871 -3486 0
0 0 0 906 1077777 -2580 0
55 1 S106 982 1078759 -1598 0
55 1 S106 968 1079727 -630 0
55 2 S106 853 1080580 223 0
55 2 S106 940 1081520 1163 0
55 2 S106 951 1082471 2114 0
55 2 S106 906 1083377 3020 0
55 2 S106 776 1084153 3796 0
55 2 S106 852 1085005 4648 0
55 2 S106 958 1085963 5606 0
55 2 S106 1085 1087048 6691 0
0 0 0 1057 1088105 -6642 0
0 0 0 969 1089074 -5673 0
0 0 0 1061 1090135 -4612 0
0 0 0 1025 1091160 -3587 0
0 0 0 912 1092072 -2675 0
56 1 S116 989 1093061 -1686 0
56 1 S116 994 1094055 -692 0
56 2 S116 880 1094935 188 0
56 2 S116 982 1095917 1170 0
56 2 S116 1034 1096951 2204 0
56 2 S116 1014 1097965 3218 0
56 2 S116 931 1098896 4149 0
56 2 S116 1034 1099930 5183 0
56 2 S116 1099 1101029 6282 0
0 0 0 988 1102017 -7402 0
0 0 0 1004 1103021 -6398 0
0 0 0 1074 1104095 -5324 0
0 0 0 952 1105047 -4372 0
0 0 0 787 1105834 -3585 0
0 0 0 888 1106722 -2697 0
57 1 S106 845 1107567 -1852 0
57 1 S106 761 1108328 -1091 0
57 1 S106 818 1109146 -273 0
57 2 S106 854 1110000 581 0
57 2 S106 939 1110939 1520 0
57 2 S106 968 1111907 2488 0
57 2 S106 989 1112896 3477 0
57 2 S106 917 1113813 4394 0
57 2 S106 936 1114749 5330 0
57 2 S106 927 1115676 6257 0
0 0 0 843 1116519 -8997 0
0 0 0 745 1117264 -8252 0
0 0 0 747 1118011 -7505 0
0 0 0 867 1118878 -6638 0
0 0 0 863 1119741 -5775 0
0 0 0 890 1120631 -4885 0
0 0 0 851 1121482 -4034 0
0 0 0 813 1122295 -3221 0
0 0 0 800 1123095 -2421 0
58 1 S102 718 1123813 -1703 0
58 1 S102 703 1124516 -1000 0
58 1 S102 692 1125208 -308 1
58 2 S102 669 1125877 361 1
58 2 S102 699 1126576 1060 0
58 2 S102 909 1127485 1969 0
58 2 S102 972 1128457 2941 0
58 2 S102 1011 1129468 3952 0
58 2 S102 1048 1130516 5000 0
58 2 S102 1067 1131583 6067 0
0 0 0 1059 1132642 -6518 0
0 0 0 1064 1133706 -5454 0
0 0 0 984 1134690 -4470 0
0 0 0 836 1135526 -3634 0
0 0 0 772 1136298 -2862 0
59 1 S112 883 1137181 -1979 0
59 1 S112 958 1138139 -1021 0
59 1 S112 899 1139038 -122 0
59 2 S112 803 1139841 681 0
59 2 S112 839 1140680 1520 0
59 2 S112 958 1141638 2478 0
59 2 S112 1060 1142698 3538 0
59 2 S112 1051 1143749 4589 0
59 2 S112 1073 1144822 5662 0
59 2 S112 1033 1145855 6695 0
0 0 0 896 1146751 -8043 0
0 0 0 980 1147731 -7063 0
0 0 0 958 1148689 -6105 0
0 0 0 880 1149569 -5225 0
0 0 0 783 1150352 -4442 0
0 0 0 910 1151262 -3532 0
0 0 0 1028 1152290 -2504 0
60 1 S102 1006 1153296 -1498 0
60 1 S102 904 1154200 -594 0
60 2 S102 1031 1155231 437 0
60 2 S102 1023 1156254 1460 0
60 2 S102 954 1157208 2414 0
60 2 S102 937 1158145 3351 0
60 2 S102 974 1159119 4325 0
60 2 S102 989 1160108 5314 0
60 2 S102 887 1160995 6201 0
0 0 0 925 1161920 -11359 0
0 0 0 997 1162917 -10362 0
0 0 0 784 1163701 -9578 0
0 0 0 764 1164465 -8814 0
0 0 0 760 1165225 -8054 0
0 0 0 694 1165919 -7360 1
0 0 0 754 1166673 -6606 0
0 0 0 709 1167382 -5897 0
0 0 0 703 1168085 -5194 0
0 0 0 697 1168782 -4497 0
0 0 0 715 1169497 -3782 0
0 0 0 703 1170200 -3079 0
0 0 0 713 1170913 -2366 0
61 1 S106 751 1171664 -1615 0
61 1 S106 764 1172428 -851 0
61 1 S106 718 1173146 -133 0
61 2 S106 685 1173831 552 1
61 2 S106 691 1174522 1243 1
61 2 S106 721 1175243 1964 0
61 2 S106 743 1175986 2707 0
61 2 S106 783 1176769 3490 0
61 2 S106 780 1177549 4270 0
61 2 S106 724 1178273 4994 0
61 2 S106 709 1178982 5703 0
61 2 S106 730 1179712 6433 0
0 0 0 697 1180409 -6033 0
0 0 0 676 1181085 -5357 1
0 0 0 681 1181766 -4676 1
0 0 0 697 1182463 -3979 0
0 0 0 781 1183244 -3198 0
0 0 0 939 1184183 -2259 0
62 1 S112 932 1185115 -1327 0
62 1 S112 971 1186086 -356 0
62 2 S112 1018 1187104 662 0
62 2 S112 999 1188103 1661 0
62 2 S112 879 1188982 2540 0
62 2 S112 878 1189860 3418 0
62 2 S112 1005 1190865 4423 0
62 2 S112 1024 1191889 5447 0
62 2 S112 1052 1192941 6499 0
0 0 0 1027 1193968 -11224 0
0 0 0 1037 1195005 -10187 0
0 0 0 885 1195890 -9302 0
0 0 0 838 1196728 -8464 0
0 0 0 780 1197508 -7684 0
0 0 0 791 1198299 -6893 0
0 0 0 880 1199179 -6013 0
0 0 0 866 1200045 -5147 0
0 0 0 920 1200965 -4227 0
0 0 0 964 1201929 -3263 0
0 0 0 984 1202913 -2279 0
63 1 S102 868 1203781 -1411 0
63 1 S102 986 1204767 -425 0
63 2 S102 1038 1205805 613 0
63 2 S102 880 1206685 1493 0
63 2 S102 982 1207667 2475 0
63 2 S102 1000 1208667 3475 0
63 2 S102 947 1209614 4422 0
63 2 S102 967 1210581 5389 0
63 2 S102 1022 1211603 6411 0
0 0 0 988 1212591 -8980 0
0 0 0 913 1213504 -8067 0
0 0 0 977 1214481 -7090 0
0 0 0 908 1215389 -6182 0
0 0 0 824 1216213 -5358 0
0 0 0 861 1217074 -4497 0
0 0 0 948 1218022 -3549 0
0 0 0 828 1218850 -2721 0
64 1 S112 765 1219615 -1956 0
64 1 S112 863 1220478 -1093 0
64 1 S112 893 1221371 -200 0
64 2 S112 850 1222221 650 0
64 2 S112 913 1223134 1563 0
64 2 S112 962 1224096 2525 0
64 2 S112 954 1225050 3479 0
64 2 S112 861 1225911 4340 0
64 2 S112 900 1226811 5240 0
64 2 S112 920 1227731 6160 0
0 0 0 937 1228668 -6730 0
0 0 0 857 1229525 -5873 0
0 0 0 953 1230478 -4920 0
0 0 0 974 1231452 -3946 0
0 0 0 858 1232310 -3088 0
0 0 0 932 1233242 -2156 0
65 1 S106 1016 1234258 -1140 0
65 1 S106 986 1235244 -154 0
65 2 S106 864 1236108 710 0
65 2 S106 997 1237105 1707 0
65 2 S106 1006 1238111 2713 0
65 2 S106 875 1238986 3588 0
65 2 S106 865 1239851 4453 0
65 2 S106 901 1240752 5354 0
65 2 S106 938 1241690 6292 0
0 0 0 830 1242520 -6422 0
0 0 0 917 1243437 -5505 0
0 0 0 942 1244379 -4563 0
0 0 0 877 1245256 -3686 0
0 0 0 874 1246130 -2812 0
66 1 S116 904 1247034 -1908 0
66 1 S116 915 1247949 -993 0
66 1 S116 844 1248793 -149 0
66 2 S116 823 1249616 674 0
66 2 S116 922 1250538 1596 0
66 2 S116 981 1251519 2577 0
66 2 S116 962 1252481 3539 0
66 2 S116 899 1253380 4438 0
66 2 S116 994 1254374 5432 0
66 2 S116 992 1255366 6424 0
0 0 0 882 1256248 -12190 0
0 0 0 964 1257212 -11226 0
0 0 0 979 1258191 -10247 0
0 0 0 933 1259124 -9314 0
0 0 0 850 1259974 -8464 0
0 0 0 826 1260800 -7638 0
0 0 0 758 1261558 -6880 0
0 0 0 745 1262303 -6135 0
0 0 0 806 1263109 -5329 0
0 0 0 860 1263969 -4469 0
0 0 0 819 1264788 -3650 0
0 0 0 840 1265628 -2810 0
67 1 S102 931 1266559 -1879 0
67 1 S102 937 1267496 -942 0
67 1 S102 871 1268367 -71 0
67 2 S102 946 1269313 875 0
67 2 S102 971 1270284 1846 0
67 2 S102 903 1271187 2749 0
67 2 S102 871 1272058 3620 0
67 2 S102 914 1272972 4534 0
67 2 S102 955 1273927 5489 0
67 2 S102 985 1274912 6474 0
0 0 0 883 1275795 -6768 0
0 0 0 1048 1276843 -5720 0
0 0 0 1080 1277923 -4640 0
0 0 0 907 1278830 -3733 0
0 0 0 956 1279786 -2777 0
68 1 S106 1044 1280830 -1733 0
68 1 S106 876 1281706 -857 0
68 2 S106 902 1282608 45 0
68 2 S106 926 1283534 971 0
68 2 S106 833 1284367 1804 0
68 2 S106 830 1285197 2634 0
68 2 S106 996 1286193 3630 0
68 2 S106 1010 1287203 4640 0
68 2 S106 863 1288066 5503 0
68 2 S106 1024 1289090 6527 0
0 0 0 1101 1290191 -10012 0
0 0 0 1036 1291227 -8976 0
0 0 0 842 1292069 -8134 0
0 0 0 907 1292976 -7227 0
0 0 0 881 1293857 -6346 0
0 0 0 798 1294655 -5548 0
0 0 0 863 1295518 -4685 0
0 0 0 862 1296380 -3823 0
0 0 0 842 1297222 -2981 0
0 0 0 768 1297990 -2213 0
69 1 S102 804 1298794 -1409 0
69 1 S102 877 1299671 -532 0
69 2 S102 865 1300536 333 0
69 2 S102 898 1301434 1231 0
69 2 S102 955 1302389 2186 0
69 2 S102 907 1303296 3093 0
69 2 S102 834 1304130 3927 0
69 2 S102 888 1305018 4815 0
69 2 S102 902 1305920 5717 0
69 2 S102 802 1306722 6519 0
0 0 0 824 1307546 -9368 0
0 0 0 890 1308436 -8478 0
0 0 0 938 1309374 -7540 0
0 0 0 863 1310237 -6677 0
0 0 0 874 1311111 -5803 0
0 0 0 814 1311925 -4989 0
0 0 0 837 1312762 -4152 0
0 0 0 807 1313569 -3345 0
0 0 0 859 1314428 -2486 0
70 1 S112 941 1315369 -1545 0
70 1 S112 896 1316265 -649 0
70 2 S112 795 1317060 146 0
70 2 S112 885 1317945 1031 0
70 2 S112 915 1318860 1946 0
70 2 S112 896 1319756 2842 0
70 2 S112 907 1320663 3749 0
70 2 S112 941 1321604 4690 0
70 2 S112 946 1322550 5636 0
70 2 S112 879 1323429 6515 0
0 0 0 979 1324408 -10825 0
0 0 0 1013 1325421 -9812 0
0 0 0 871 1326292 -8941 0
0 0 0 915 1327207 -8026 0
0 0 0 943 1328150 -7083 0
0 0 0 833 1328983 -6250 0
0 0 0 925 1329908 -5325 0
0 0 0 932 1330840 -4393 0
0 0 0 832 1331672 -3561 0
0 0 0 933 1332605 -2628 0
71 1 S116 956 1333561 -1672 0
71 1 S116 851 1334412 -821 0
71 2 S116 928 1335340 107 0
71 2 S116 960 1336300 1067 0
71 2 S116 918 1337218 1985 0
71 2 S116 894 1338112 2879 0
71 2 S116 978 1339090 3857 0
71 2 S116 984 1340074 4841 0
71 2 S116 852 1340926 5693 0
71 2 S116 957 1341883 6650 0
0 0 0 959 1342842 -9334 0
0 0 0 863 1343705 -8471 0
0 0 0 946 1344651 -7525 0
0 0 0 981 1345632 -6544 0
0 0 0 868 1346500 -5676 0
0 0 0 940 1347440 -4736 0
0 0 0 954 1348394 -3782 0
0 0 0 834 1349228 -2948 0
0 0 0 877 1350105 -2071 0
72 1 S102 906 1351011 -1165 0
72 1 S102 833 1351844 -332 0
72 2 S102 908 1352752 576 0
72 2 S102 935 1353687 1511 0
72 2 S102 877 1354564 2388 0
72 2 S102 874 1355438 3262 0
72 2 S102 921 1356359 4183 0
72 2 S102 891 1357250 5074 0
72 2 S102 827 1358077 5901 0
72 2 S102 919 1358996 6820 0
0 0 0 951 1359947 -5923 0
0 0 0 874 1360821 -5049 0
0 0 0 895 1361716 -4154 0
0 0 0 913 1362629 -3241 0
0 0 0 817 1363446 -2424 0
73 1 S116 870 1364316 -1554 0
73 1 S116 908 1365224 -646 0
73 2 S116 910 1366134 264 0
73 2 S116 849 1366983 1113 0
73 2 S116 971 1367954 2084 0
73 2 S116 1016 1368970 3100 0
73 2 S116 904 1369874 4004 0
73 2 S116 948 1370822 4952 0
73 2 S116 970 1371792 5922 0
73 2 S116 879 1372671 6801 0
0 0 0 880 1373551 -9610 0
0 0 0 937 1374488 -8673 0
0 0 0 958 1375446 -7715 0
0 0 0 887 1376333 -6828 0
0 0 0 933 1377266 -5895 0
0 0 0 933 1378199 -4962 0
0 0 0 817 1379016 -4145 0
0 0 0 899 1379915 -3246 0
0 0 0 915 1380830 -2331 0
74 1 S106 830 1381660 -1501 0
74 1 S106 877 1382537 -624 0
74 2 S106 931 1383468 307 0
74 2 S106 873 1384341 1180 0
74 2 S106 867 1385208 2047 0
74 2 S106 895 1386103 2942 0
74 2 S106 903 1387006 3845 0
74 2 S106 798 1387804 4643 0
74 2 S106 862 1388666 5505 0
74 2 S106 831 1389497 6336 0
0 0 0 780 1390277 -6030 0
0 0 0 846 1391123 -5184 0
0 0 0 937 1392060 -4247 0
0 0 0 939 1392999 -3308 0
0 0 0 839 1393838 -2469 0
75 1 S112 922 1394760 -1547 0
75 1 S112 948 1395708 -599 0
75 2 S112 910 1396618 311 0
75 2 S112 843 1397461 1154 0
75 2 S112 936 1398397 2090 0
75 2 S112 971 1399368 3061 0
75 2 S112 974 1400342 4035 0
75 2 S112 910 1401252 4945 0
75 2 S112 1025 1402277 5970 0
75 2 S112 1033 1403310 7003 0
0 0 0 938 1404248 -6731 0
0 0 0 977 1405225 -5754 0
0 0 0 1021 1406246 -4733 0
0 0 0 854 1407100 -3879 0
0 0 0 843 1407943 -3036 0
0 0 0 868 1408811 -2168 0
76 1 S116 748 1409559 -1420 0
76 1 S116 852 1410411 -568 0
76 2 S116 917 1411328 349 0
76 2 S116 954 1412282 1303 0
76 2 S116 983 1413265 2286 0
76 2 S116 1082 1414347 3368 0
76 2 S116 1042 1415389 4410 0
76 2 S116 977 1416366 5387 0
76 2 S116 1062 1417428 6449 0
0 0 0 1019 1418447 -6541 0
0 0 0 932 1419379 -5609 0
0 0 0 975 1420354 -4634 0
0 0 0 949 1421303 -3685 0
0 0 0 844 1422147 -2841 0
0 0 0 819 1422966 -2022 0
77 1 S106 843 1423809 -1179 0
77 1 S106 776 1424585 -403 0
77 2 S106 875 1425460 472 0
77 2 S106 1027 1426487 1499 0
77 2 S106 1046 1427533 2545 0
77 2 S106 925 1428458 3470 0
77 2 S106 1031 1429489 4501 0
77 2 S106 1025 1430514 5526 0
77 2 S106 901 1431415 6427 0
0 0 0 966 1432381 -8473 0
0 0 0 988 1433369 -7485 0
0 0 0 890 1434259 -6595 0
0 0 0 873 1435132 -5722 0
0 0 0 873 1436005 -4849 0
0 0 0 853 1436858 -3996 0
0 0 0 799 1437657 -3197 0
0 0 0 852 1438509 -2345 0
78 1 S112 906 1439415 -1439 0
78 1 S112 913 1440328 -526 0
78 2 S112 857 1441185 331 0
78 2 S112 981 1442166 1312 0
78 2 S112 1010 1443176 2322 0
78 2 S112 911 1444087 3233 0
78 2 S112 962 1445049 4195 0
78 2 S112 997 1446046 5192 0
78 2 S112 973 1447019 6165 0
0 0 0 871 1447890 -11548 0
0 0 0 956 1448846 -10592 0
0 0 0 997 1449843 -9595 0
0 0 0 910 1450753 -8685 0
0 0 0 805 1451558 -7880 0
0 0 0 811 1452369 -7069 0
0 0 0 780 1453149 -6289 0
0 0 0 744 1453893 -5545 0
0 0 0 752 1454645 -4793 0
0 0 0 740 1455385 -4053 0
0 0 0 848 1456233 -3205 0
0 0 0 823 1457056 -2382 0
79 1 S102 831 1457887 -1551 0
79 1 S102 947 1458834 -604 0
79 2 S102 1001 1459835 397 0
79 2 S102 932 1460767 1329 0
79 2 S102 976 1461743 2305 0
79 2 S102 979 1462722 3284 0
79 2 S102 866 1463588 4150 0
79 2 S102 901 1464489 5051 0
79 2 S102 923 1465412 5974 0
79 2 S102 940 1466352 6914 0
0 0 0 918 1467270 -8481 0
0 0 0 1073 1468343 -7408 0
0 0 0 1044 1469387 -6364 0
0 0 0 852 1470239 -5512 0
0 0 0 998 1471237 -4514 0
0 0 0 1039 1472276 -3475 0
0 0 0 977 1473253 -2498 0
80 1 S116 845 1474098 -1653 0
80 1 S116 964 1475062 -689 0
80 2 S116 1046 1476108 357 0
80 2 S116 928 1477036 1285 0
80 2 S116 1029 1478065 2314 0
80 2 S116 1089 1479154 3403 0
80 2 S116 1020 1480174 4423 0
80 2 S116 952 1481126 5375 0
80 2 S116 1014 1482140 6389 0
