T_0026
BeatCount Mean SD BeatCountNoOutliers MeanNoOutliers SDNoOutliers
2009 748,702339472374 91,4337926902268 1992 746,43624497992 88,4275581691867

Trial TrialStatus Trialtype IBI AbsPosition RelPosition Outlier
0 0 0 634 1191 -14624 0
0 0 0 624 1815 -14000 0
0 0 0 597 2412 -13403 0
0 0 0 582 2994 -12821 0
0 0 0 578 3572 -12243 0
0 0 0 594 4166 -11649 0
0 0 0 637 4803 -11012 0
0 0 0 674 5477 -10338 0
0 0 0 717 6194 -9621 0
0 0 0 750 6944 -8871 0
0 0 0 754 7698 -8117 0
0 0 0 751 8449 -7366 0
0 0 0 740 9189 -6626 0
0 0 0 701 9890 -5925 0
0 0 0 691 10581 -5234 0
0 0 0 733 11314 -4501 0
0 0 0 710 12024 -3791 0
0 0 0 720 12744 -3071 0
0 0 0 685 13429 -2386 0
1 1 S112 710 14139 -1676 0
1 1 S112 786 14925 -890 0
1 1 S112 831 15756 -59 0
1 2 S112 831 16587 772 0
1 2 S112 795 17382 1567 0
1 2 S112 733 18115 2300 0
1 2 S112 660 18775 2960 0
1 2 S112 643 19418 3603 0
1 2 S112 652 20070 4255 0
1 2 S112 679 20749 4934 0
1 2 S112 690 21439 5624 0
1 2 S112 682 22121 6306 0
1 2 S112 681 22802 6987 0
0 0 0 661 23463 -10405 0
0 0 0 642 24105 -9763 0
0 0 0 651 24756 -9112 0
0 0 0 703 25459 -8409 0
0 0 0 722 26181 -7687 0
0 0 0 756 26937 -6931 0
0 0 0 772 27709 -6159 0
0 0 0 759 28468 -5400 0
0 0 0 699 29167 -4701 0
0 0 0 702 29869 -3999 0
0 0 0 764 30633 -3235 0
0 0 0 840 31473 -2395 0
2 1 S102 838 32311 -1557 0
2 1 S102 834 33145 -723 0
2 2 S102 806 33951 83 0
2 2 S102 785 34736 868 0
2 2 S102 815 35551 1683 0
2 2 S102 827 36378 2510 0
2 2 S102 826 37204 3336 0
2 2 S102 796 38000 4132 0
2 2 S102 755 38755 4887 0
2 2 S102 685 39440 5572 0
2 2 S102 678 40118 6250 0
2 2 S102 726 40844 6976 0
0 0 0 810 41654 -8295 0
0 0 0 875 42529 -7420 0
0 0 0 874 43403 -6546 0
0 0 0 792 44195 -5754 0
0 0 0 709 44904 -5045 0
0 0 0 670 45574 -4375 0
0 0 0 687 46261 -3688 0
0 0 0 777 47038 -2911 0
0 0 0 743 47781 -2168 0
3 1 S116 746 48527 -1422 0
3 1 S116 735 49262 -687 0
3 2 S116 714 49976 27 0
3 2 S116 693 50669 720 0
3 2 S116 663 51332 1383 0
3 2 S116 625 51957 2008 0
3 2 S116 601 52558 2609 0
3 2 S116 594 53152 3203 0
3 2 S116 592 53744 3795 0
3 2 S116 605 54349 4400 0
3 2 S116 612 54961 5012 0
3 2 S116 619 55580 5631 0
3 2 S116 629 56209 6260 0
3 2 S116 620 56829 6880 0
0 0 0 583 57412 -10873 0
0 0 0 560 57972 -10313 0
0 0 0 558 58530 -9755 0
0 0 0 580 59110 -9175 0
0 0 0 626 59736 -8549 0
0 0 0 661 60397 -7888 0
0 0 0 676 61073 -7212 0
0 0 0 663 61736 -6549 0
0 0 0 661 62397 -5888 0
0 0 0 649 63046 -5239 0
0 0 0 636 63682 -4603 0
0 0 0 620 64302 -3983 0
0 0 0 607 64909 -3376 0
0 0 0 611 65520 -2765 0
0 0 0 664 66184 -2101 0
4 1 S106 703 66887 -1398 0
4 1 S106 759 67646 -639 0
4 2 S106 783 68429 144 0
4 2 S106 790 69219 934 0
4 2 S106 772 69991 1706 0
4 2 S106 758 70749 2464 0
4 2 S106 727 71476 3191 0
4 2 S106 694 72170 3885 0
4 2 S106 657 72827 4542 0
4 2 S106 632 73459 5174 0
4 2 S106 613 74072 5787 0
4 2 S106 596 74668 6383 0
4 2 S106 598 75266 6981 0
0 0 0 614 75880 -5800 0
0 0 0 654 76534 -5146 0
0 0 0 674 77208 -4472 0
0 0 0 656 77864 -3816 0
0 0 0 627 78491 -3189 0
0 0 0 588 79079 -2601 0
0 0 0 578 79657 -2023 0
5 1 S116 581 80238 -1442 0
5 1 S116 612 80850 -830 0
5 1 S116 607 81457 -223 0
5 2 S116 597 82054 374 0
5 2 S116 596 82650 970 0
5 2 S116 604 83254 1574 0
5 2 S116 620 83874 2194 0
5 2 S116 644 84518 2838 0
5 2 S116 638 85156 3476 0
5 2 S116 640 85796 4116 0
5 2 S116 617 86413 4733 0
5 2 S116 602 87015 5335 0
5 2 S116 597 87612 5932 0
5 2 S116 625 88237 6557 0
0 0 0 670 88907 -8606 0
0 0 0 710 89617 -7896 0
0 0 0 718 90335 -7178 0
0 0 0 678 91013 -6500 0
0 0 0 634 91647 -5866 0
0 0 0 595 92242 -5271 0
0 0 0 586 92828 -4685 0
0 0 0 586 93414 -4099 0
0 0 0 611 94025 -3488 0
0 0 0 619 94644 -2869 0
0 0 0 641 95285 -2228 0
6 1 S106 644 95929 -1584 0
6 1 S106 623 96552 -961 0
6 1 S106 625 97177 -336 0
6 2 S106 612 97789 276 0
6 2 S106 598 98387 874 0
6 2 S106 589 98976 1463 0
6 2 S106 585 99561 2048 0
6 2 S106 595 100156 2643 0
6 2 S106 600 100756 3243 0
6 2 S106 648 101404 3891 0
6 2 S106 661 102065 4552 0
6 2 S106 665 102730 5217 0
6 2 S106 648 103378 5865 0
6 2 S106 633 104011 6498 0
0 0 0 608 104619 -10185 0
0 0 0 592 105211 -9593 0
0 0 0 592 105803 -9001 0
0 0 0 601 106404 -8400 0
0 0 0 631 107035 -7769 0
0 0 0 658 107693 -7111 0
0 0 0 689 108382 -6422 0
0 0 0 681 109063 -5741 0
0 0 0 703 109766 -5038 0
0 0 0 699 110465 -4339 0
0 0 0 660 111125 -3679 0
0 0 0 651 111776 -3028 0
0 0 0 625 112401 -2403 0
7 1 S102 631 113032 -1772 0
7 1 S102 690 113722 -1082 0
7 1 S102 722 114444 -360 0
7 2 S102 743 115187 383 0
7 2 S102 766 115953 1149 0
7 2 S102 787 116740 1936 0
7 2 S102 773 117513 2709 0
7 2 S102 725 118238 3434 0
7 2 S102 678 118916 4112 0
7 2 S102 719 119635 4831 0
7 2 S102 787 120422 5618 0
7 2 S102 772 121194 6390 0
0 0 0 814 122008 -7849 0
0 0 0 768 122776 -7081 0
0 0 0 716 123492 -6365 0
0 0 0 687 124179 -5678 0
0 0 0 649 124828 -5029 0
0 0 0 619 125447 -4410 0
0 0 0 614 126061 -3796 0
0 0 0 634 126695 -3162 0
0 0 0 685 127380 -2477 0
8 1 S112 774 128154 -1703 0
8 1 S112 780 128934 -923 0
8 1 S112 769 129703 -154 0
8 2 S112 725 130428 571 0
8 2 S112 687 131115 1258 0
8 2 S112 665 131780 1923 0
8 2 S112 703 132483 2626 0
8 2 S112 754 133237 3380 0
8 2 S112 716 133953 4096 0
8 2 S112 680 134633 4776 0
8 2 S112 651 135284 5427 0
8 2 S112 628 135912 6055 0
8 2 S112 608 136520 6663 0
0 0 0 594 137114 -7564 0
0 0 0 592 137706 -6972 0
0 0 0 614 138320 -6358 0
0 0 0 653 138973 -5705 0
0 0 0 690 139663 -5015 0
0 0 0 683 140346 -4332 0
0 0 0 650 140996 -3682 0
0 0 0 626 141622 -3056 0
0 0 0 605 142227 -2451 0
9 1 S116 602 142829 -1849 0
9 1 S116 598 143427 -1251 0
9 1 S116 607 144034 -644 0
9 2 S116 648 144682 4 0
9 2 S116 676 145358 680 0
9 2 S116 718 146076 1398 0
9 2 S116 677 146753 2075 0
9 2 S116 661 147414 2736 0
9 2 S116 668 148082 3404 0
9 2 S116 668 148750 4072 0
9 2 S116 696 149446 4768 0
9 2 S116 703 150149 5471 0
9 2 S116 657 150806 6128 0
9 2 S116 631 151437 6759 0
0 0 0 600 152037 -10446 0
0 0 0 603 152640 -9843 0
0 0 0 628 153268 -9215 0
0 0 0 678 153946 -8537 0
0 0 0 696 154642 -7841 0
0 0 0 689 155331 -7152 0
0 0 0 676 156007 -6476 0
0 0 0 665 156672 -5811 0
0 0 0 644 157316 -5167 0
0 0 0 635 157951 -4532 0
0 0 0 620 158571 -3912 0
0 0 0 625 159196 -3287 0
0 0 0 639 159835 -2648 0
10 1 S102 685 160520 -1963 0
10 1 S102 726 161246 -1237 0
10 1 S102 716 161962 -521 0
10 2 S102 713 162675 192 0
10 2 S102 712 163387 904 0
10 2 S102 680 164067 1584 0
10 2 S102 655 164722 2239 0
10 2 S102 641 165363 2880 0
10 2 S102 695 166058 3575 0
10 2 S102 760 166818 4335 0
10 2 S102 743 167561 5078 0
10 2 S102 734 168295 5812 0
10 2 S102 702 168997 6514 0
0 0 0 671 169668 -9991 0
0 0 0 637 170305 -9354 0
0 0 0 624 170929 -8730 0
0 0 0 644 171573 -8086 0
0 0 0 656 172229 -7430 0
0 0 0 660 172889 -6770 0
0 0 0 614 173503 -6156 0
0 0 0 587 174090 -5569 0
0 0 0 599 174689 -4970 0
0 0 0 626 175315 -4344 0
0 0 0 628 175943 -3716 0
0 0 0 632 176575 -3084 0
0 0 0 629 177204 -2455 0
11 1 S112 648 177852 -1807 0
11 1 S112 705 178557 -1102 0
11 1 S112 718 179275 -384 0
11 2 S112 693 179968 309 0
11 2 S112 687 180655 996 0
11 2 S112 634 181289 1630 0
11 2 S112 639 181928 2269 0
11 2 S112 686 182614 2955 0
11 2 S112 773 183387 3728 0
11 2 S112 778 184165 4506 0
11 2 S112 766 184931 5272 0
11 2 S112 718 185649 5990 0
11 2 S112 670 186319 6660 0
0 0 0 639 186958 -6726 0
0 0 0 619 187577 -6107 0
0 0 0 643 188220 -5464 0
0 0 0 725 188945 -4739 0
0 0 0 760 189705 -3979 0
0 0 0 741 190446 -3238 0
0 0 0 724 191170 -2514 0
12 1 S116 681 191851 -1833 0
12 1 S116 649 192500 -1184 0
12 1 S116 657 193157 -527 0
12 2 S116 671 193828 144 0
12 2 S116 797 194625 941 0
12 2 S116 789 195414 1730 0
12 2 S116 788 196202 2518 0
12 2 S116 747 196949 3265 0
12 2 S116 684 197633 3949 0
12 2 S116 684 198317 4633 0
12 2 S116 720 199037 5353 0
12 2 S116 713 199750 6066 0
12 2 S116 720 200470 6786 0
0 0 0 715 201185 -9906 0
0 0 0 686 201871 -9220 0
0 0 0 674 202545 -8546 0
0 0 0 680 203225 -7866 0
0 0 0 679 203904 -7187 0
0 0 0 702 204606 -6485 0
0 0 0 708 205314 -5777 0
0 0 0 666 205980 -5111 0
0 0 0 634 206614 -4477 0
0 0 0 605 207219 -3872 0
0 0 0 590 207809 -3282 0
0 0 0 621 208430 -2661 0
13 1 S112 685 209115 -1976 0
13 1 S112 746 209861 -1230 0
13 1 S112 747 210608 -483 0
13 2 S112 749 211357 266 0
13 2 S112 745 212102 1011 0
13 2 S112 740 212842 1751 0
13 2 S112 734 213576 2485 0
13 2 S112 733 214309 3218 0
13 2 S112 728 215037 3946 0
13 2 S112 711 215748 4657 0
13 2 S112 699 216447 5356 0
13 2 S112 649 217096 6005 0
13 2 S112 638 217734 6643 0
0 0 0 635 218369 -10146 0
0 0 0 678 219047 -9468 0
0 0 0 705 219752 -8763 0
0 0 0 689 220441 -8074 0
0 0 0 701 221142 -7373 0
0 0 0 657 221799 -6716 0
0 0 0 663 222462 -6053 0
0 0 0 665 223127 -5388 0
0 0 0 689 223816 -4699 0
0 0 0 680 224496 -4019 0
0 0 0 702 225198 -3317 0
0 0 0 666 225864 -2651 0
14 1 S106 688 226552 -1963 0
14 1 S106 764 227316 -1199 0
14 1 S106 748 228064 -451 0
14 2 S106 763 228827 312 0
14 2 S106 769 229596 1081 0
14 2 S106 723 230319 1804 0
14 2 S106 704 231023 2508 0
14 2 S106 722 231745 3230 0
14 2 S106 763 232508 3993 0
14 2 S106 833 233341 4826 0
14 2 S106 829 234170 5655 0
14 2 S106 807 234977 6462 0
0 0 0 764 235741 -9866 0
0 0 0 809 236550 -9057 0
0 0 0 802 237352 -8255 0
0 0 0 765 238117 -7490 0
0 0 0 731 238848 -6759 0
0 0 0 687 239535 -6072 0
0 0 0 655 240190 -5417 0
0 0 0 660 240850 -4757 0
0 0 0 735 241585 -4022 0
0 0 0 820 242405 -3202 0
0 0 0 837 243242 -2365 0
15 1 S116 815 244057 -1550 0
15 1 S116 787 244844 -763 0
15 1 S116 716 245560 -47 0
15 2 S116 646 246206 599 0
15 2 S116 669 246875 1268 0
15 2 S116 733 247608 2001 0
15 2 S116 804 248412 2805 0
15 2 S116 773 249185 3578 0
15 2 S116 770 249955 4348 0
15 2 S116 732 250687 5080 0
15 2 S116 714 251401 5794 0
15 2 S116 683 252084 6477 0
0 0 0 660 252744 -9176 0
0 0 0 673 253417 -8503 0
0 0 0 689 254106 -7814 0
0 0 0 746 254852 -7068 0
0 0 0 724 255576 -6344 0
0 0 0 659 256235 -5685 0
0 0 0 605 256840 -5080 0
0 0 0 583 257423 -4497 0
0 0 0 569 257992 -3928 0
0 0 0 567 258559 -3361 0
0 0 0 562 259121 -2799 0
0 0 0 556 259677 -2243 0
16 1 S116 558 260235 -1685 0
16 1 S116 576 260811 -1109 0
16 1 S116 613 261424 -496 0
16 2 S116 654 262078 158 0
16 2 S116 667 262745 825 0
16 2 S116 689 263434 1514 0
16 2 S116 711 264145 2225 0
16 2 S116 730 264875 2955 0
16 2 S116 704 265579 3659 0
16 2 S116 684 266263 4343 0
16 2 S116 655 266918 4998 0
16 2 S116 684 267602 5682 0
16 2 S116 685 268287 6367 0
0 0 0 689 268976 -8296 0
0 0 0 667 269643 -7629 0
0 0 0 661 270304 -6968 0
0 0 0 622 270926 -6346 0
0 0 0 613 271539 -5733 0
0 0 0 637 272176 -5096 0
0 0 0 672 272848 -4424 0
0 0 0 698 273546 -3726 0
0 0 0 706 274252 -3020 0
0 0 0 684 274936 -2336 0
17 1 S106 648 275584 -1688 0
17 1 S106 619 276203 -1069 0
17 1 S106 608 276811 -461 0
17 2 S106 625 277436 164 0
17 2 S106 718 278154 882 0
17 2 S106 799 278953 1681 0
17 2 S106 803 279756 2484 0
17 2 S106 778 280534 3262 0
17 2 S106 749 281283 4011 0
17 2 S106 692 281975 4703 0
17 2 S106 650 282625 5353 0
17 2 S106 619 283244 5972 0
17 2 S106 625 283869 6597 0
0 0 0 703 284572 -10024 0
0 0 0 868 285440 -9156 0
0 0 0 827 286267 -8329 0
0 0 0 828 287095 -7501 0
0 0 0 827 287922 -6674 0
0 0 0 765 288687 -5909 0
0 0 0 699 289386 -5210 0
0 0 0 708 290094 -4502 0
0 0 0 767 290861 -3735 0
0 0 0 791 291652 -2944 0
0 0 0 823 292475 -2121 0
18 1 S102 831 293306 -1290 0
18 1 S102 768 294074 -522 0
18 2 S102 758 294832 236 0
18 2 S102 825 295657 1061 0
18 2 S102 827 296484 1888 0
18 2 S102 823 297307 2711 0
18 2 S102 802 298109 3513 0
18 2 S102 751 298860 4264 0
18 2 S102 711 299571 4975 0
18 2 S102 753 300324 5728 0
18 2 S102 779 301103 6507 0
0 0 0 773 301876 -5768 0
0 0 0 772 302648 -4996 0
0 0 0 715 303363 -4281 0
0 0 0 719 304082 -3562 0
0 0 0 736 304818 -2826 0
0 0 0 765 305583 -2061 0
19 1 S106 779 306362 -1282 0
19 1 S106 730 307092 -552 0
19 2 S106 683 307775 131 0
19 2 S106 714 308489 845 0
19 2 S106 787 309276 1632 0
19 2 S106 854 310130 2486 0
19 2 S106 838 310968 3324 0
19 2 S106 799 311767 4123 0
19 2 S106 741 312508 4864 0
19 2 S106 674 313182 5538 0
19 2 S106 687 313869 6225 0
19 2 S106 791 314660 7016 0
0 0 0 866 315526 -9442 0
0 0 0 839 316365 -8603 0
0 0 0 769 317134 -7834 0
0 0 0 693 317827 -7141 0
0 0 0 646 318473 -6495 0
0 0 0 619 319092 -5876 0
0 0 0 598 319690 -5278 0
0 0 0 610 320300 -4668 0
0 0 0 665 320965 -4003 0
0 0 0 734 321699 -3269 0
0 0 0 742 322441 -2527 0
20 1 S112 730 323171 -1797 0
20 1 S112 742 323913 -1055 0
20 1 S112 703 324616 -352 0
20 2 S112 654 325270 302 0
20 2 S112 644 325914 946 0
20 2 S112 671 326585 1617 0
20 2 S112 670 327255 2287 0
20 2 S112 631 327886 2918 0
20 2 S112 605 328491 3523 0
20 2 S112 605 329096 4128 0
20 2 S112 599 329695 4727 0
20 2 S112 598 330293 5325 0
20 2 S112 605 330898 5930 0
20 2 S112 610 331508 6540 0
0 0 0 622 332130 -9499 0
0 0 0 639 332769 -8860 0
0 0 0 651 333420 -8209 0
0 0 0 675 334095 -7534 0
0 0 0 662 334757 -6872 0
0 0 0 659 335416 -6213 0
0 0 0 668 336084 -5545 0
0 0 0 678 336762 -4867 0
0 0 0 672 337434 -4195 0
0 0 0 679 338113 -3516 0
0 0 0 659 338772 -2857 0
0 0 0 627 339399 -2230 0
21 1 S106 607 340006 -1623 0
21 1 S106 608 340614 -1015 0
21 1 S106 661 341275 -354 0
21 2 S106 763 342038 409 0
21 2 S106 837 342875 1246 0
21 2 S106 825 343700 2071 0
21 2 S106 783 344483 2854 0
21 2 S106 758 345241 3612 0
21 2 S106 727 345968 4339 0
21 2 S106 702 346670 5041 0
21 2 S106 679 347349 5720 0
21 2 S106 668 348017 6388 0
0 0 0 689 348706 -9982 0
0 0 0 674 349380 -9308 0
0 0 0 636 350016 -8672 0
0 0 0 629 350645 -8043 0
0 0 0 658 351303 -7385 0
0 0 0 655 351958 -6730 0
0 0 0 683 352641 -6047 0
0 0 0 690 353331 -5357 0
0 0 0 727 354058 -4630 0
0 0 0 732 354790 -3898 0
0 0 0 688 355478 -3210 0
0 0 0 658 356136 -2552 0
22 1 S116 633 356769 -1919 0
22 1 S116 639 357408 -1280 0
22 1 S116 655 358063 -625 0
22 2 S116 683 358746 58 0
22 2 S116 714 359460 772 0
22 2 S116 777 360237 1549 0
22 2 S116 742 360979 2291 0
22 2 S116 721 361700 3012 0
22 2 S116 719 362419 3731 0
22 2 S116 731 363150 4462 0
22 2 S116 754 363904 5216 0
22 2 S116 724 364628 5940 0
22 2 S116 729 365357 6669 0
0 0 0 739 366096 -8226 0
0 0 0 753 366849 -7473 0
0 0 0 701 367550 -6772 0
0 0 0 661 368211 -6111 0
0 0 0 658 368869 -5453 0
0 0 0 701 369570 -4752 0
0 0 0 777 370347 -3975 0
0 0 0 719 371066 -3256 0
0 0 0 650 371716 -2606 0
23 1 S112 626 372342 -1980 0
23 1 S112 694 373036 -1286 0
23 1 S112 774 373810 -512 0
23 2 S112 713 374523 201 0
23 2 S112 736 375259 937 0
23 2 S112 792 376051 1729 0
23 2 S112 821 376872 2550 0
23 2 S112 790 377662 3340 0
23 2 S112 756 378418 4096 0
23 2 S112 694 379112 4790 0
23 2 S112 680 379792 5470 0
23 2 S112 712 380504 6182 0
23 2 S112 724 381228 6906 0
0 0 0 726 381954 -8150 0
0 0 0 737 382691 -7413 0
0 0 0 711 383402 -6702 0
0 0 0 682 384084 -6020 0
0 0 0 705 384789 -5315 0
0 0 0 757 385546 -4558 0
0 0 0 767 386313 -3791 0
0 0 0 739 387052 -3052 0
0 0 0 675 387727 -2377 0
24 1 S106 704 388431 -1673 0
24 1 S106 752 389183 -921 0
24 1 S106 774 389957 -147 0
24 2 S106 773 390730 626 0
24 2 S106 778 391508 1404 0
24 2 S106 765 392273 2169 0
24 2 S106 727 393000 2896 0
24 2 S106 719 393719 3615 0
24 2 S106 682 394401 4297 0
24 2 S106 698 395099 4995 0
24 2 S106 732 395831 5727 0
24 2 S106 773 396604 6500 0
0 0 0 783 397387 -8500 0
0 0 0 772 398159 -7728 0
0 0 0 799 398958 -6929 0
0 0 0 735 399693 -6194 0
0 0 0 698 400391 -5496 0
0 0 0 658 401049 -4838 0
0 0 0 659 401708 -4179 0
0 0 0 690 402398 -3489 0
0 0 0 739 403137 -2750 0
25 1 S102 779 403916 -1971 0
25 1 S102 761 404677 -1210 0
25 1 S102 744 405421 -466 0
25 2 S102 743 406164 277 0
25 2 S102 804 406968 1081 0
25 2 S102 854 407822 1935 0
25 2 S102 894 408716 2829 0
25 2 S102 860 409576 3689 0
25 2 S102 850 410426 4539 0
25 2 S102 815 411241 5354 0
25 2 S102 777 412018 6131 0
25 2 S102 742 412760 6873 0
0 0 0 680 413440 -5461 0
0 0 0 678 414118 -4783 0
0 0 0 700 414818 -4083 0
0 0 0 822 415640 -3261 0
0 0 0 817 416457 -2444 0
26 1 S116 784 417241 -1660 0
26 1 S116 740 417981 -920 0
26 1 S116 696 418677 -224 0
26 2 S116 739 419416 515 0
26 2 S116 873 420289 1388 0
26 2 S116 868 421157 2256 0
26 2 S116 842 421999 3098 0
26 2 S116 791 422790 3889 0
26 2 S116 775 423565 4664 0
26 2 S116 791 424356 5455 0
26 2 S116 791 425147 6246 0
0 0 0 811 425958 -6803 0
0 0 0 814 426772 -5989 0
0 0 0 748 427520 -5241 0
0 0 0 741 428261 -4500 0
0 0 0 724 428985 -3776 0
0 0 0 721 429706 -3055 0
0 0 0 739 430445 -2316 0
27 1 S106 733 431178 -1583 0
27 1 S106 687 431865 -896 0
27 1 S106 705 432570 -191 0
27 2 S106 780 433350 589 0
27 2 S106 826 434176 1415 0
27 2 S106 862 435038 2277 0
27 2 S106 851 435889 3128 0
27 2 S106 837 436726 3965 0
27 2 S106 814 437540 4779 0
27 2 S106 763 438303 5542 0
27 2 S106 723 439026 6265 0
27 2 S106 742 439768 7007 0
0 0 0 799 440567 -6335 0
0 0 0 795 441362 -5540 0
0 0 0 811 442173 -4729 0
0 0 0 734 442907 -3995 0
0 0 0 676 443583 -3319 0
0 0 0 675 444258 -2644 0
28 1 S102 709 444967 -1935 0
28 1 S102 747 445714 -1188 0
28 1 S102 763 446477 -425 0
28 2 S102 751 447228 326 0
28 2 S102 721 447949 1047 0
28 2 S102 755 448704 1802 0
28 2 S102 809 449513 2611 0
28 2 S102 799 450312 3410 0
28 2 S102 776 451088 4186 0
28 2 S102 719 451807 4905 0
28 2 S102 669 452476 5574 0
28 2 S102 637 453113 6211 0
28 2 S102 631 453744 6842 0
0 0 0 709 454453 -9657 0
0 0 0 843 455296 -8814 0
0 0 0 829 456125 -7985 0
0 0 0 786 456911 -7199 0
0 0 0 769 457680 -6430 0
0 0 0 744 458424 -5686 0
0 0 0 684 459108 -5002 0
0 0 0 667 459775 -4335 0
0 0 0 700 460475 -3635 0
0 0 0 749 461224 -2886 0
0 0 0 774 461998 -2112 0
29 1 S112 747 462745 -1365 0
29 1 S112 691 463436 -674 0
29 1 S112 646 464082 -28 0
29 2 S112 621 464703 593 0
29 2 S112 648 465351 1241 0
29 2 S112 719 466070 1960 0
29 2 S112 710 466780 2670 0
29 2 S112 698 467478 3368 0
29 2 S112 676 468154 4044 0
29 2 S112 668 468822 4712 0
29 2 S112 642 469464 5354 0
29 2 S112 609 470073 5963 0
29 2 S112 587 470660 6550 0
0 0 0 592 471252 -6535 0
0 0 0 616 471868 -5919 0
0 0 0 650 472518 -5269 0
0 0 0 653 473171 -4616 0
0 0 0 634 473805 -3982 0
0 0 0 617 474422 -3365 0
0 0 0 590 475012 -2775 0
0 0 0 581 475593 -2194 0
30 1 S112 572 476165 -1622 0
30 1 S112 578 476743 -1044 0
30 1 S112 606 477349 -438 0
30 2 S112 629 477978 191 0
30 2 S112 654 478632 845 0
30 2 S112 669 479301 1514 0
30 2 S112 678 479979 2192 0
30 2 S112 655 480634 2847 0
30 2 S112 642 481276 3489 0
30 2 S112 621 481897 4110 0
30 2 S112 611 482508 4721 0
30 2 S112 632 483140 5353 0
30 2 S112 659 483799 6012 0
30 2 S112 679 484478 6691 0
0 0 0 670 485148 -8555 0
0 0 0 675 485823 -7880 0
0 0 0 711 486534 -7169 0
0 0 0 705 487239 -6464 0
0 0 0 669 487908 -5795 0
0 0 0 633 488541 -5162 0
0 0 0 596 489137 -4566 0
0 0 0 586 489723 -3980 0
0 0 0 585 490308 -3395 0
0 0 0 584 490892 -2811 0
0 0 0 571 491463 -2240 0
31 1 S106 563 492026 -1677 0
31 1 S106 600 492626 -1077 0
31 1 S106 739 493365 -338 0
31 2 S106 825 494190 487 0
31 2 S106 809 494999 1296 0
31 2 S106 790 495789 2086 0
31 2 S106 769 496558 2855 0
31 2 S106 758 497316 3613 0
31 2 S106 738 498054 4351 0
31 2 S106 703 498757 5054 0
31 2 S106 656 499413 5710 0
31 2 S106 627 500040 6337 0
31 2 S106 623 500663 6960 0
0 0 0 612 501275 -7464 0
0 0 0 705 501980 -6759 0
0 0 0 816 502796 -5943 0
0 0 0 812 503608 -5131 0
0 0 0 807 504415 -4324 0
0 0 0 796 505211 -3528 0
0 0 0 775 505986 -2753 0
32 1 S102 757 506743 -1996 0
32 1 S102 749 507492 -1247 0
32 1 S102 703 508195 -544 0
32 2 S102 714 508909 170 0
32 2 S102 710 509619 880 0
32 2 S102 731 510350 1611 0
32 2 S102 730 511080 2341 0
32 2 S102 727 511807 3068 0
32 2 S102 722 512529 3790 0
32 2 S102 733 513262 4523 0
32 2 S102 722 513984 5245 0
32 2 S102 774 514758 6019 0
32 2 S102 773 515531 6792 0
0 0 0 765 516296 -9652 0
0 0 0 772 517068 -8880 0
0 0 0 717 517785 -8163 0
0 0 0 648 518433 -7515 0
0 0 0 626 519059 -6889 0
0 0 0 637 519696 -6252 0
0 0 0 737 520433 -5515 0
0 0 0 730 521163 -4785 0
0 0 0 823 521986 -3962 0
0 0 0 834 522820 -3128 0
0 0 0 853 523673 -2275 0
33 1 S112 834 524507 -1441 0
33 1 S112 801 525308 -640 0
33 2 S112 747 526055 107 0
33 2 S112 707 526762 814 0
33 2 S112 789 527551 1603 0
33 2 S112 824 528375 2427 0
33 2 S112 828 529203 3255 0
33 2 S112 817 530020 4072 0
33 2 S112 757 530777 4829 0
33 2 S112 692 531469 5521 0
33 2 S112 731 532200 6252 0
33 2 S112 774 532974 7026 0
0 0 0 789 533763 -10404 0
0 0 0 823 534586 -9581 0
0 0 0 778 535364 -8803 0
0 0 0 701 536065 -8102 0
0 0 0 680 536745 -7422 0
0 0 0 696 537441 -6726 0
0 0 0 729 538170 -5997 0
0 0 0 735 538905 -5262 0
0 0 0 718 539623 -4544 0
0 0 0 678 540301 -3866 0
0 0 0 629 540930 -3237 0
0 0 0 628 541558 -2609 0
34 1 S106 655 542213 -1954 0
34 1 S106 702 542915 -1252 0
34 1 S106 742 543657 -510 0
34 2 S106 744 544401 234 0
34 2 S106 753 545154 987 0
34 2 S106 761 545915 1748 0
34 2 S106 787 546702 2535 0
34 2 S106 750 547452 3285 0
34 2 S106 750 548202 4035 0
34 2 S106 686 548888 4721 0
34 2 S106 649 549537 5370 0
34 2 S106 642 550179 6012 0
34 2 S106 682 550861 6694 0
0 0 0 732 551593 -7793 0
0 0 0 815 552408 -6978 0
0 0 0 796 553204 -6182 0
0 0 0 740 553944 -5442 0
0 0 0 693 554637 -4749 0
0 0 0 640 555277 -4109 0
0 0 0 630 555907 -3479 0
0 0 0 654 556561 -2825 0
0 0 0 718 557279 -2107 0
35 1 S102 725 558004 -1382 0
35 1 S102 735 558739 -647 0
35 2 S102 720 559459 73 0
35 2 S102 689 560148 762 0
35 2 S102 664 560812 1426 0
35 2 S102 701 561513 2127 0
35 2 S102 714 562227 2841 0
35 2 S102 729 562956 3570 0
35 2 S102 735 563691 4305 0
35 2 S102 735 564426 5040 0
35 2 S102 704 565130 5744 0
35 2 S102 695 565825 6439 0
0 0 0 673 566498 -6532 0
0 0 0 666 567164 -5866 0
0 0 0 657 567821 -5209 0
0 0 0 649 568470 -4560 0
0 0 0 629 569099 -3931 0
0 0 0 686 569785 -3245 0
0 0 0 727 570512 -2518 0
36 1 S106 762 571274 -1756 0
36 1 S106 770 572044 -986 0
36 1 S106 764 572808 -222 0
36 2 S106 744 573552 522 0
36 2 S106 739 574291 1261 0
36 2 S106 714 575005 1975 0
36 2 S106 752 575757 2727 0
36 2 S106 797 576554 3524 0
36 2 S106 799 577353 4323 0
36 2 S106 789 578142 5112 0
36 2 S106 766 578908 5878 0
36 2 S106 716 579624 6594 0
0 0 0 681 580305 -8392 0
0 0 0 695 581000 -7697 0
0 0 0 760 581760 -6937 0
0 0 0 774 582534 -6163 0
0 0 0 770 583304 -5393 0
0 0 0 753 584057 -4640 0
0 0 0 720 584777 -3920 0
0 0 0 685 585462 -3235 0
0 0 0 648 586110 -2587 0
37 1 S116 629 586739 -1958 0
37 1 S116 656 587395 -1302 0
37 1 S116 731 588126 -571 0
37 2 S116 825 588951 254 0
37 2 S116 854 589805 1108 0
37 2 S116 833 590638 1941 0
37 2 S116 781 591419 2722 0
37 2 S116 723 592142 3445 0
37 2 S116 671 592813 4116 0
37 2 S116 634 593447 4750 0
37 2 S116 619 594066 5369 0
37 2 S116 644 594710 6013 0
37 2 S116 716 595426 6729 0
0 0 0 791 596217 -10152 0
0 0 0 816 597033 -9336 0
0 0 0 796 597829 -8540 0
0 0 0 759 598588 -7781 0
0 0 0 724 599312 -7057 0
0 0 0 676 599988 -6381 0
0 0 0 624 600612 -5757 0
0 0 0 602 601214 -5155 0
0 0 0 609 601823 -4546 0
0 0 0 615 602438 -3931 0
0 0 0 628 603066 -3303 0
0 0 0 653 603719 -2650 0
38 1 S102 712 604431 -1938 0
38 1 S102 774 605205 -1164 0
38 1 S102 760 605965 -404 0
38 2 S102 752 606717 348 0
38 2 S102 740 607457 1088 0
38 2 S102 728 608185 1816 0
38 2 S102 705 608890 2521 0
38 2 S102 676 609566 3197 0
38 2 S102 645 610211 3842 0
38 2 S102 687 610898 4529 0
38 2 S102 737 611635 5266 0
38 2 S102 765 612400 6031 0
38 2 S102 776 613176 6807 0
0 0 0 753 613929 -8140 0
0 0 0 729 614658 -7411 0
0 0 0 714 615372 -6697 0
0 0 0 657 616029 -6040 0
0 0 0 617 616646 -5423 0
0 0 0 599 617245 -4824 0
0 0 0 594 617839 -4230 0
0 0 0 602 618441 -3628 0
0 0 0 595 619036 -3033 0
0 0 0 590 619626 -2443 0
39 1 S116 583 620209 -1860 0
39 1 S116 567 620776 -1293 0
39 1 S116 568 621344 -725 0
39 1 S116 575 621919 -150 0
39 2 S116 598 622517 448 0
39 2 S116 639 623156 1087 0
39 2 S116 676 623832 1763 0
39 2 S116 681 624513 2444 0
39 2 S116 656 625169 3100 0
39 2 S116 634 625803 3734 0
39 2 S116 596 626399 4330 0
39 2 S116 579 626978 4909 0
39 2 S116 586 627564 5495 0
39 2 S116 622 628186 6117 0
39 2 S116 613 628799 6730 0
0 0 0 615 629414 -6299 0
0 0 0 681 630095 -5618 0
0 0 0 842 630937 -4776 0
0 0 0 783 631720 -3993 0
0 0 0 753 632473 -3240 0
0 0 0 741 633214 -2499 0
40 1 S112 698 633912 -1801 0
40 1 S112 646 634558 -1155 0
40 1 S112 691 635249 -464 0
40 2 S112 716 635965 252 0
40 2 S112 826 636791 1078 0
40 2 S112 860 637651 1938 0
40 2 S112 842 638493 2780 0
40 2 S112 807 639300 3587 0
40 2 S112 798 640098 4385 0
40 2 S112 754 640852 5139 0
40 2 S112 691 641543 5830 0
40 2 S112 717 642260 6547 0
0 0 0 773 643033 -186216 0
0 0 0 821 643854 -185395 0
0 0 0 829 644683 -184566 0
0 0 0 796 645479 -183770 0
0 0 0 740 646219 -183030 0
0 0 0 680 646899 -182350 0
0 0 0 634 647533 -181716 0
0 0 0 662 648195 -181054 0
0 0 0 676 648871 -180378 0
0 0 0 699 649570 -179679 0
0 0 0 740 650310 -178939 0
0 0 0 757 651067 -178182 0
0 0 0 704 651771 -177478 0
0 0 0 644 652415 -176834 0
0 0 0 619 653034 -176215 0
0 0 0 607 653641 -175608 0
0 0 0 624 654265 -174984 0
0 0 0 650 654915 -174334 0
0 0 0 650 655565 -173684 0
0 0 0 666 656231 -173018 0
0 0 0 660 656891 -172358 0
0 0 0 635 657526 -171723 0
0 0 0 611 658137 -171112 0
0 0 0 601 658738 -170511 0
0 0 0 617 659355 -169894 0
0 0 0 630 659985 -169264 0
0 0 0 598 660583 -168666 0
0 0 0 592 661175 -168074 0
0 0 0 610 661785 -167464 0
0 0 0 633 662418 -166831 0
0 0 0 653 663071 -166178 0
0 0 0 653 663724 -165525 0
0 0 0 663 664387 -164862 0
0 0 0 702 665089 -164160 0
0 0 0 694 665783 -163466 0
0 0 0 652 666435 -162814 0
0 0 0 680 667115 -162134 0
0 0 0 764 667879 -161370 0
0 0 0 774 668653 -160596 0
0 0 0 794 669447 -159802 0
0 0 0 748 670195 -159054 0
0 0 0 713 670908 -158341 0
0 0 0 659 671567 -157682 0
0 0 0 664 672231 -157018 0
0 0 0 667 672898 -156351 0
0 0 0 755 673653 -155596 0
0 0 0 748 674401 -154848 0
0 0 0 682 675083 -154166 0
0 0 0 694 675777 -153472 0
0 0 0 880 676657 -152592 0
0 0 0 873 677530 -151719 0
0 0 0 832 678362 -150887 0
0 0 0 799 679161 -150088 0
0 0 0 785 679946 -149303 0
0 0 0 745 680691 -148558 0
0 0 0 810 681501 -147748 0
0 0 0 798 682299 -146950 0
0 0 0 762 683061 -146188 0
0 0 0 770 683831 -145418 0
0 0 0 726 684557 -144692 0
0 0 0 687 685244 -144005 0
0 0 0 763 686007 -143242 0
0 0 0 837 686844 -142405 0
0 0 0 883 687727 -141522 0
0 0 0 974 688701 -140548 0
0 0 0 847 689548 -139701 0
0 0 0 767 690315 -138934 0
0 0 0 701 691016 -138233 0
0 0 0 649 691665 -137584 0
0 0 0 632 692297 -136952 0
0 0 0 630 692927 -136322 0
0 0 0 616 693543 -135706 0
0 0 0 669 694212 -135037 0
0 0 0 781 694993 -134256 0
0 0 0 700 695693 -133556 0
0 0 0 690 696383 -132866 0
0 0 0 771 697154 -132095 0
0 0 0 801 697955 -131294 0
0 0 0 814 698769 -130480 0
0 0 0 744 699513 -129736 0
0 0 0 675 700188 -129061 0
0 0 0 722 700910 -128339 0
0 0 0 769 701679 -127570 0
0 0 0 848 702527 -126722 0
0 0 0 743 703270 -125979 0
0 0 0 728 703998 -125251 0
0 0 0 757 704755 -124494 0
0 0 0 705 705460 -123789 0
0 0 0 742 706202 -123047 0
0 0 0 762 706964 -122285 0
0 0 0 727 707691 -121558 0
0 0 0 683 708374 -120875 0
0 0 0 641 709015 -120234 0
0 0 0 627 709642 -119607 0
0 0 0 626 710268 -118981 0
0 0 0 602 710870 -118379 0
0 0 0 584 711454 -117795 0
0 0 0 600 712054 -117195 0
0 0 0 673 712727 -116522 0
0 0 0 709 713436 -115813 0
0 0 0 706 714142 -115107 0
0 0 0 706 714848 -114401 0
0 0 0 694 715542 -113707 0
0 0 0 707 716249 -113000 0
0 0 0 673 716922 -112327 0
0 0 0 694 717616 -111633 0
0 0 0 792 718408 -110841 0
0 0 0 837 719245 -110004 0
0 0 0 880 720125 -109124 0
0 0 0 860 720985 -108264 0
0 0 0 811 721796 -107453 0
0 0 0 709 722505 -106744 0
0 0 0 725 723230 -106019 0
0 0 0 744 723974 -105275 0
0 0 0 745 724719 -104530 0
0 0 0 757 725476 -103773 0
0 0 0 725 726201 -103048 0
0 0 0 684 726885 -102364 0
0 0 0 909 727794 -101455 0
0 0 0 954 728748 -100501 0
0 0 0 828 729576 -99673 0
0 0 0 737 730313 -98936 0
0 0 0 680 730993 -98256 0
0 0 0 744 731737 -97512 0
0 0 0 859 732596 -96653 0
0 0 0 886 733482 -95767 0
0 0 0 910 734392 -94857 0
0 0 0 872 735264 -93985 0
0 0 0 786 736050 -93199 0
0 0 0 728 736778 -92471 0
0 0 0 839 737617 -91632 0
0 0 0 955 738572 -90677 0
0 0 0 1019 739591 -89658 1
0 0 0 921 740512 -88737 0
0 0 0 802 741314 -87935 0
0 0 0 806 742120 -87129 0
0 0 0 880 743000 -86249 0
0 0 0 996 743996 -85253 1
0 0 0 884 744880 -84369 0
0 0 0 864 745744 -83505 0
0 0 0 797 746541 -82708 0
0 0 0 797 747338 -81911 0
0 0 0 771 748109 -81140 0
0 0 0 745 748854 -80395 0
0 0 0 722 749576 -79673 0
0 0 0 661 750237 -79012 0
0 0 0 676 750913 -78336 0
0 0 0 907 751820 -77429 0
0 0 0 875 752695 -76554 0
0 0 0 774 753469 -75780 0
0 0 0 842 754311 -74938 0
0 0 0 834 755145 -74104 0
0 0 0 839 755984 -73265 0
0 0 0 828 756812 -72437 0
0 0 0 842 757654 -71595 0
0 0 0 746 758400 -70849 0
0 0 0 754 759154 -70095 0
0 0 0 823 759977 -69272 0
0 0 0 887 760864 -68385 0
0 0 0 877 761741 -67508 0
0 0 0 852 762593 -66656 0
0 0 0 814 763407 -65842 0
0 0 0 838 764245 -65004 0
0 0 0 826 765071 -64178 0
0 0 0 834 765905 -63344 0
0 0 0 811 766716 -62533 0
0 0 0 742 767458 -61791 0
0 0 0 771 768229 -61020 0
0 0 0 850 769079 -60170 0
0 0 0 841 769920 -59329 0
0 0 0 815 770735 -58514 0
0 0 0 770 771505 -57744 0
0 0 0 713 772218 -57031 0
0 0 0 699 772917 -56332 0
0 0 0 799 773716 -55533 0
0 0 0 820 774536 -54713 0
0 0 0 927 775463 -53786 0
0 0 0 1044 776507 -52742 1
0 0 0 929 777436 -51813 0
0 0 0 822 778258 -50991 0
0 0 0 790 779048 -50201 0
0 0 0 868 779916 -49333 0
0 0 0 986 780902 -48347 1
0 0 0 1002 781904 -47345 1
0 0 0 971 782875 -46374 0
0 0 0 886 783761 -45488 0
0 0 0 813 784574 -44675 0
0 0 0 706 785280 -43969 0
0 0 0 673 785953 -43296 0
0 0 0 683 786636 -42613 0
0 0 0 879 787515 -41734 0
0 0 0 1012 788527 -40722 1
0 0 0 976 789503 -39746 0
0 0 0 916 790419 -38830 0
0 0 0 832 791251 -37998 0
0 0 0 829 792080 -37169 0
0 0 0 907 792987 -36262 0
0 0 0 890 793877 -35372 0
0 0 0 891 794768 -34481 0
0 0 0 823 795591 -33658 0
0 0 0 741 796332 -32917 0
0 0 0 694 797026 -32223 0
0 0 0 757 797783 -31466 0
0 0 0 855 798638 -30611 0
0 0 0 900 799538 -29711 0
0 0 0 965 800503 -28746 0
0 0 0 920 801423 -27826 0
0 0 0 830 802253 -26996 0
0 0 0 862 803115 -26134 0
0 0 0 877 803992 -25257 0
0 0 0 866 804858 -24391 0
0 0 0 1022 805880 -23369 1
0 0 0 995 806875 -22374 1
0 0 0 934 807809 -21440 0
0 0 0 903 808712 -20537 0
0 0 0 888 809600 -19649 0
0 0 0 841 810441 -18808 0
0 0 0 843 811284 -17965 0
0 0 0 919 812203 -17046 0
0 0 0 998 813201 -16048 1
0 0 0 1005 814206 -15043 1
0 0 0 974 815180 -14069 0
0 0 0 891 816071 -13178 0
0 0 0 785 816856 -12393 0
0 0 0 692 817548 -11701 0
0 0 0 687 818235 -11014 0
0 0 0 811 819046 -10203 0
0 0 0 885 819931 -9318 0
0 0 0 822 820753 -8496 0
0 0 0 804 821557 -7692 0
0 0 0 802 822359 -6890 0
0 0 0 707 823066 -6183 0
0 0 0 705 823771 -5478 0
0 0 0 767 824538 -4711 0
0 0 0 794 825332 -3917 0
0 0 0 727 826059 -3190 0
0 0 0 657 826716 -2533 0
41 1 S102 644 827360 -1889 0
41 1 S102 671 828031 -1218 0
41 1 S102 649 828680 -569 0
41 2 S102 616 829296 47 0
41 2 S102 605 829901 652 0
41 2 S102 634 830535 1286 0
41 2 S102 673 831208 1959 0
41 2 S102 715 831923 2674 0
41 2 S102 717 832640 3391 0
41 2 S102 700 833340 4091 0
41 2 S102 689 834029 4780 0
41 2 S102 654 834683 5434 0
41 2 S102 625 835308 6059 0
41 2 S102 619 835927 6678 0
0 0 0 640 836567 -6608 0
0 0 0 744 837311 -5864 0
0 0 0 804 838115 -5060 0
0 0 0 828 838943 -4232 0
0 0 0 768 839711 -3464 0
0 0 0 733 840444 -2731 0
42 1 S112 749 841193 -1982 0
42 1 S112 799 841992 -1183 0
42 1 S112 860 842852 -323 0
42 2 S112 865 843717 542 0
42 2 S112 924 844641 1466 0
42 2 S112 853 845494 2319 0
42 2 S112 830 846324 3149 0
42 2 S112 853 847177 4002 0
42 2 S112 861 848038 4863 0
42 2 S112 843 848881 5706 0
42 2 S112 770 849651 6476 0
0 0 0 736 850387 -8123 0
0 0 0 814 851201 -7309 0
0 0 0 857 852058 -6452 0
0 0 0 877 852935 -5575 0
0 0 0 828 853763 -4747 0
0 0 0 756 854519 -3991 0
0 0 0 680 855199 -3311 0
0 0 0 644 855843 -2667 0
43 1 S116 721 856564 -1946 0
43 1 S116 881 857445 -1065 0
43 1 S116 906 858351 -159 0
43 2 S116 957 859308 798 0
43 2 S116 924 860232 1722 0
43 2 S116 866 861098 2588 0
43 2 S116 852 861950 3440 0
43 2 S116 848 862798 4288 0
43 2 S116 816 863614 5104 0
43 2 S116 755 864369 5859 0
43 2 S116 764 865133 6623 0
0 0 0 770 865903 -6450 0
0 0 0 793 866696 -5657 0
0 0 0 790 867486 -4867 0
0 0 0 785 868271 -4082 0
0 0 0 782 869053 -3300 0
0 0 0 750 869803 -2550 0
44 1 S102 687 870490 -1863 0
44 1 S102 662 871152 -1201 0
44 1 S102 701 871853 -500 0
44 2 S102 774 872627 274 0
44 2 S102 876 873503 1150 0
44 2 S102 865 874368 2015 0
44 2 S102 874 875242 2889 0
44 2 S102 831 876073 3720 0
44 2 S102 812 876885 4532 0
44 2 S102 752 877637 5284 0
44 2 S102 708 878345 5992 0
44 2 S102 743 879088 6735 0
0 0 0 830 879918 -7504 0
0 0 0 843 880761 -6661 0
0 0 0 875 881636 -5786 0
0 0 0 894 882530 -4892 0
0 0 0 885 883415 -4007 0
0 0 0 815 884230 -3192 0
0 0 0 760 884990 -2432 0
45 1 S116 792 885782 -1640 0
45 1 S116 827 886609 -813 0
45 2 S116 906 887515 93 0
45 2 S116 946 888461 1039 0
45 2 S116 972 889433 2011 0
45 2 S116 937 890370 2948 0
45 2 S116 928 891298 3876 0
45 2 S116 915 892213 4791 0
45 2 S116 932 893145 5723 0
45 2 S116 853 893998 6576 0
0 0 0 774 894772 -10323 0
0 0 0 842 895614 -9481 0
0 0 0 930 896544 -8551 0
0 0 0 878 897422 -7673 0
0 0 0 789 898211 -6884 0
0 0 0 705 898916 -6179 0
0 0 0 727 899643 -5452 0
0 0 0 772 900415 -4680 0
0 0 0 701 901116 -3979 0
0 0 0 678 901794 -3301 0
0 0 0 785 902579 -2516 0
46 1 S102 926 903505 -1590 0
46 1 S102 925 904430 -665 0
46 2 S102 937 905367 272 0
46 2 S102 918 906285 1190 0
46 2 S102 884 907169 2074 0
46 2 S102 836 908005 2910 0
46 2 S102 797 908802 3707 0
46 2 S102 721 909523 4428 0
46 2 S102 755 910278 5183 0
46 2 S102 889 911167 6072 0
46 2 S102 912 912079 6984 0
0 0 0 906 912985 -6981 0
0 0 0 831 913816 -6150 0
0 0 0 781 914597 -5369 0
0 0 0 758 915355 -4611 0
0 0 0 697 916052 -3914 0
0 0 0 676 916728 -3238 0
0 0 0 697 917425 -2541 0
47 1 S112 773 918198 -1768 0
47 1 S112 826 919024 -942 0
47 1 S112 815 919839 -127 0
47 2 S112 820 920659 693 0
47 2 S112 808 921467 1501 0
47 2 S112 730 922197 2231 0
47 2 S112 689 922886 2920 0
47 2 S112 683 923569 3603 0
47 2 S112 692 924261 4295 0
47 2 S112 649 924910 4944 0
47 2 S112 627 925537 5571 0
47 2 S112 627 926164 6198 0
47 2 S112 653 926817 6851 0
0 0 0 674 927491 -9733 0
0 0 0 671 928162 -9062 0
0 0 0 662 928824 -8400 0
0 0 0 641 929465 -7759 0
0 0 0 639 930104 -7120 0
0 0 0 628 930732 -6492 0
0 0 0 604 931336 -5888 0
0 0 0 587 931923 -5301 0
0 0 0 583 932506 -4718 0
0 0 0 581 933087 -4137 0
0 0 0 613 933700 -3524 0
0 0 0 639 934339 -2885 0
0 0 0 685 935024 -2200 0
48 1 S116 706 935730 -1494 0
48 1 S116 691 936421 -803 0
48 1 S116 676 937097 -127 0
48 2 S116 662 937759 535 0
48 2 S116 651 938410 1186 0
48 2 S116 697 939107 1883 0
48 2 S116 729 939836 2612 0
48 2 S116 740 940576 3352 0
48 2 S116 736 941312 4088 0
48 2 S116 703 942015 4791 0
48 2 S116 697 942712 5488 0
48 2 S116 688 943400 6176 0
48 2 S116 670 944070 6846 0
0 0 0 658 944728 -5825 0
0 0 0 690 945418 -5135 0
0 0 0 721 946139 -4414 0
0 0 0 737 946876 -3677 0
0 0 0 745 947621 -2932 0
0 0 0 724 948345 -2208 0
49 1 S112 704 949049 -1504 0
49 1 S112 660 949709 -844 0
49 1 S112 642 950351 -202 0
49 2 S112 677 951028 475 0
49 2 S112 866 951894 1341 0
49 2 S112 817 952711 2158 0
49 2 S112 827 953538 2985 0
49 2 S112 805 954343 3790 0
49 2 S112 756 955099 4546 0
49 2 S112 684 955783 5230 0
49 2 S112 670 956453 5900 0
49 2 S112 672 957125 6572 0
0 0 0 720 957845 -9966 0
0 0 0 794 958639 -9172 0
0 0 0 793 959432 -8379 0
0 0 0 763 960195 -7616 0
0 0 0 726 960921 -6890 0
0 0 0 667 961588 -6223 0
0 0 0 676 962264 -5547 0
0 0 0 705 962969 -4842 0
0 0 0 791 963760 -4051 0
0 0 0 857 964617 -3194 0
0 0 0 828 965445 -2366 0
50 1 S106 827 966272 -1539 0
50 1 S106 830 967102 -709 0
50 2 S106 819 967921 110 0
50 2 S106 781 968702 891 0
50 2 S106 834 969536 1725 0
50 2 S106 875 970411 2600 0
50 2 S106 949 971360 3549 0
50 2 S106 914 972274 4463 0
50 2 S106 888 973162 5351 0
50 2 S106 853 974015 6204 0
50 2 S106 780 974795 6984 0
0 0 0 775 975570 -5205 0
0 0 0 711 976281 -4494 0
0 0 0 685 976966 -3809 0
0 0 0 753 977719 -3056 0
0 0 0 957 978676 -2099 0
51 1 S112 943 979619 -1156 0
51 1 S112 953 980572 -203 0
51 2 S112 917 981489 714 0
51 2 S112 877 982366 1591 0
51 2 S112 934 983300 2525 0
51 2 S112 915 984215 3440 0
51 2 S112 930 985145 4370 0
51 2 S112 823 985968 5193 0
51 2 S112 799 986767 5992 0
51 2 S112 878 987645 6870 0
0 0 0 994 988639 -5134 1
0 0 0 900 989539 -4234 0
0 0 0 812 990351 -3422 0
0 0 0 733 991084 -2689 0
52 1 S116 742 991826 -1947 0
52 1 S116 849 992675 -1098 0
52 1 S116 883 993558 -215 0
52 2 S116 863 994421 648 0
52 2 S116 866 995287 1514 0
52 2 S116 736 996023 2250 0
52 2 S116 762 996785 3012 0
52 2 S116 826 997611 3838 0
52 2 S116 836 998447 4674 0
52 2 S116 829 999276 5503 0
52 2 S116 815 1000091 6318 0
0 0 0 800 1000891 -7968 0
0 0 0 782 1001673 -7186 0
0 0 0 768 1002441 -6418 0
0 0 0 734 1003175 -5684 0
0 0 0 712 1003887 -4972 0
0 0 0 709 1004596 -4263 0
0 0 0 667 1005263 -3596 0
0 0 0 650 1005913 -2946 0
0 0 0 660 1006573 -2286 0
53 1 S106 711 1007284 -1575 0
53 1 S106 740 1008024 -835 0
53 1 S106 765 1008789 -70 0
53 2 S106 765 1009554 695 0
53 2 S106 789 1010343 1484 0
53 2 S106 759 1011102 2243 0
53 2 S106 814 1011916 3057 0
53 2 S106 808 1012724 3865 0
53 2 S106 778 1013502 4643 0
53 2 S106 761 1014263 5404 0
53 2 S106 729 1014992 6133 0
53 2 S106 699 1015691 6832 0
0 0 0 716 1016407 -5797 0
0 0 0 816 1017223 -4981 0
0 0 0 783 1018006 -4198 0
0 0 0 761 1018767 -3437 0
0 0 0 714 1019481 -2723 0
0 0 0 689 1020170 -2034 0
54 1 S102 740 1020910 -1294 0
54 1 S102 800 1021710 -494 0
54 2 S102 805 1022515 311 0
54 2 S102 839 1023354 1150 0
54 2 S102 823 1024177 1973 0
54 2 S102 810 1024987 2783 0
54 2 S102 839 1025826 3622 0
54 2 S102 894 1026720 4516 0
54 2 S102 855 1027575 5371 0
54 2 S102 759 1028334 6130 0
54 2 S102 694 1029028 6824 0
0 0 0 679 1029707 -9822 0
0 0 0 753 1030460 -9069 0
0 0 0 827 1031287 -8242 0
0 0 0 838 1032125 -7404 0
0 0 0 816 1032941 -6588 0
0 0 0 736 1033677 -5852 0
0 0 0 729 1034406 -5123 0
0 0 0 802 1035208 -4321 0
0 0 0 864 1036072 -3457 0
0 0 0 866 1036938 -2591 0
55 1 S106 812 1037750 -1779 0
55 1 S106 766 1038516 -1013 0
55 1 S106 789 1039305 -224 0
55 2 S106 837 1040142 613 0
55 2 S106 872 1041014 1485 0
55 2 S106 882 1041896 2367 0
55 2 S106 847 1042743 3214 0
55 2 S106 774 1043517 3988 0
55 2 S106 709 1044226 4697 0
55 2 S106 720 1044946 5417 0
55 2 S106 731 1045677 6148 0
55 2 S106 792 1046469 6940 0
0 0 0 826 1047295 -5281 0
0 0 0 772 1048067 -4509 0
0 0 0 743 1048810 -3766 0
0 0 0 799 1049609 -2967 0
0 0 0 841 1050450 -2126 0
56 1 S116 893 1051343 -1233 0
56 1 S116 841 1052184 -392 0
56 2 S116 776 1052960 384 0
56 2 S116 836 1053796 1220 0
56 2 S116 919 1054715 2139 0
56 2 S116 911 1055626 3050 0
56 2 S116 915 1056541 3965 0
56 2 S116 869 1057410 4834 0
56 2 S116 816 1058226 5650 0
56 2 S116 770 1058996 6420 0
0 0 0 715 1059711 -5995 0
0 0 0 742 1060453 -5253 0
0 0 0 815 1061268 -4438 0
0 0 0 843 1062111 -3595 0
0 0 0 861 1062972 -2734 0
57 1 S106 826 1063798 -1908 0
57 1 S106 771 1064569 -1137 0
57 1 S106 716 1065285 -421 0
57 2 S106 692 1065977 271 0
57 2 S106 821 1066798 1092 0
57 2 S106 884 1067682 1976 0
57 2 S106 896 1068578 2872 0
57 2 S106 881 1069459 3753 0
57 2 S106 837 1070296 4590 0
57 2 S106 815 1071111 5405 0
57 2 S106 785 1071896 6190 0
57 2 S106 720 1072616 6910 0
0 0 0 674 1073290 -7320 0
0 0 0 685 1073975 -6635 0
0 0 0 714 1074689 -5921 0
0 0 0 814 1075503 -5107 0
0 0 0 808 1076311 -4299 0
0 0 0 746 1077057 -3553 0
0 0 0 711 1077768 -2842 0
0 0 0 757 1078525 -2085 0
58 1 S102 814 1079339 -1271 0
58 1 S102 838 1080177 -433 0
58 2 S102 860 1081037 427 0
58 2 S102 897 1081934 1324 0
58 2 S102 895 1082829 2219 0
58 2 S102 821 1083650 3040 0
58 2 S102 815 1084465 3855 0
58 2 S102 790 1085255 4645 0
58 2 S102 724 1085979 5369 0
58 2 S102 781 1086760 6150 0
58 2 S102 812 1087572 6962 0
0 0 0 865 1088437 -5701 0
0 0 0 826 1089263 -4875 0
0 0 0 764 1090027 -4111 0
0 0 0 708 1090735 -3403 0
0 0 0 679 1091414 -2724 0
0 0 0 643 1092057 -2081 0
59 1 S112 696 1092753 -1385 0
59 1 S112 856 1093609 -529 0
59 2 S112 790 1094399 261 0
59 2 S112 796 1095195 1057 0
59 2 S112 718 1095913 1775 0
59 2 S112 747 1096660 2522 0
59 2 S112 849 1097509 3371 0
59 2 S112 866 1098375 4237 0
59 2 S112 869 1099244 5106 0
59 2 S112 831 1100075 5937 0
59 2 S112 736 1100811 6673 0
0 0 0 793 1101604 -8283 0
0 0 0 823 1102427 -7460 0
0 0 0 864 1103291 -6596 0
0 0 0 796 1104087 -5800 0
0 0 0 725 1104812 -5075 0
0 0 0 669 1105481 -4406 0
0 0 0 685 1106166 -3721 0
0 0 0 697 1106863 -3024 0
0 0 0 732 1107595 -2292 0
60 1 S102 731 1108326 -1561 0
60 1 S102 717 1109043 -844 0
60 1 S102 689 1109732 -155 0
60 2 S102 689 1110421 534 0
60 2 S102 763 1111184 1297 0
60 2 S102 786 1111970 2083 0
60 2 S102 786 1112756 2869 0
60 2 S102 771 1113527 3640 0
60 2 S102 732 1114259 4372 0
60 2 S102 688 1114947 5060 0
60 2 S102 634 1115581 5694 0
60 2 S102 625 1116206 6319 0
0 0 0 713 1116919 -10740 0
0 0 0 993 1117912 -9747 1
0 0 0 982 1118894 -8765 0
0 0 0 920 1119814 -7845 0
0 0 0 899 1120713 -6946 0
0 0 0 850 1121563 -6096 0
0 0 0 782 1122345 -5314 0
0 0 0 712 1123057 -4602 0
0 0 0 663 1123720 -3939 0
0 0 0 659 1124379 -3280 0
0 0 0 690 1125069 -2590 0
61 1 S106 775 1125844 -1815 0
61 1 S106 811 1126655 -1004 0
61 1 S106 791 1127446 -213 0
61 2 S106 831 1128277 618 0
61 2 S106 843 1129120 1461 0
61 2 S106 862 1129982 2323 0
61 2 S106 887 1130869 3210 0
61 2 S106 928 1131797 4138 0
61 2 S106 917 1132714 5055 0
61 2 S106 958 1133672 6013 0
61 2 S106 925 1134597 6938 0
0 0 0 885 1135482 -5192 0
0 0 0 787 1136269 -4405 0
0 0 0 701 1136970 -3704 0
0 0 0 646 1137616 -3058 0
0 0 0 684 1138300 -2374 0
62 1 S112 811 1139111 -1563 0
62 1 S112 840 1139951 -723 0
62 2 S112 858 1140809 135 0
62 2 S112 866 1141675 1001 0
62 2 S112 816 1142491 1817 0
62 2 S112 762 1143253 2579 0
62 2 S112 833 1144086 3412 0
62 2 S112 893 1144979 4305 0
62 2 S112 913 1145892 5218 0
62 2 S112 885 1146777 6103 0
62 2 S112 843 1147620 6946 0
0 0 0 805 1148425 -10601 0
0 0 0 744 1149169 -9857 0
0 0 0 821 1149990 -9036 0
0 0 0 815 1150805 -8221 0
0 0 0 728 1151533 -7493 0
0 0 0 693 1152226 -6800 0
0 0 0 668 1152894 -6132 0
0 0 0 688 1153582 -5444 0
0 0 0 664 1154246 -4780 0
0 0 0 686 1154932 -4094 0
0 0 0 738 1155670 -3356 0
0 0 0 800 1156470 -2556 0
63 1 S102 802 1157272 -1754 0
63 1 S102 795 1158067 -959 0
63 1 S102 775 1158842 -184 0
63 2 S102 789 1159631 605 0
63 2 S102 820 1160451 1425 0
63 2 S102 864 1161315 2289 0
63 2 S102 839 1162154 3128 0
63 2 S102 791 1162945 3919 0
63 2 S102 765 1163710 4684 0
63 2 S102 762 1164472 5446 0
63 2 S102 800 1165272 6246 0
0 0 0 907 1166179 -8546 0
0 0 0 928 1167107 -7618 0
0 0 0 889 1167996 -6729 0
0 0 0 770 1168766 -5959 0
0 0 0 697 1169463 -5262 0
0 0 0 689 1170152 -4573 0
0 0 0 725 1170877 -3848 0
0 0 0 777 1171654 -3071 0
0 0 0 850 1172504 -2221 0
64 1 S112 810 1173314 -1411 0
64 1 S112 751 1174065 -660 0
64 2 S112 763 1174828 103 0
64 2 S112 842 1175670 945 0
64 2 S112 883 1176553 1828 0
64 2 S112 903 1177456 2731 0
64 2 S112 868 1178324 3599 0
64 2 S112 821 1179145 4420 0
64 2 S112 747 1179892 5167 0
64 2 S112 788 1180680 5955 0
64 2 S112 859 1181539 6814 0
0 0 0 993 1182532 -5688 1
0 0 0 916 1183448 -4772 0
0 0 0 845 1184293 -3927 0
0 0 0 744 1185037 -3183 0
0 0 0 754 1185791 -2429 0
65 1 S106 775 1186566 -1654 0
65 1 S106 844 1187410 -810 0
65 2 S106 844 1188254 34 0
65 2 S106 818 1189072 852 0
65 2 S106 801 1189873 1653 0
65 2 S106 911 1190784 2564 0
65 2 S106 948 1191732 3512 0
65 2 S106 963 1192695 4475 0
65 2 S106 912 1193607 5387 0
65 2 S106 852 1194459 6239 0
65 2 S106 787 1195246 7026 0
0 0 0 809 1196055 -5130 0
0 0 0 792 1196847 -4338 0
0 0 0 782 1197629 -3556 0
0 0 0 766 1198395 -2790 0
0 0 0 724 1199119 -2066 0
66 1 S116 738 1199857 -1328 0
66 1 S116 848 1200705 -480 0
66 2 S116 868 1201573 388 0
66 2 S116 960 1202533 1348 0
66 2 S116 928 1203461 2276 0
66 2 S116 839 1204300 3115 0
66 2 S116 917 1205217 4032 0
66 2 S116 830 1206047 4862 0
66 2 S116 821 1206868 5683 0
66 2 S116 812 1207680 6495 0
0 0 0 785 1208465 -10492 0
0 0 0 754 1209219 -9738 0
0 0 0 780 1209999 -8958 0
0 0 0 816 1210815 -8142 0
0 0 0 800 1211615 -7342 0
0 0 0 742 1212357 -6600 0
0 0 0 698 1213055 -5902 0
0 0 0 714 1213769 -5188 0
0 0 0 770 1214539 -4418 0
0 0 0 837 1215376 -3581 0
0 0 0 908 1216284 -2673 0
67 1 S102 898 1217182 -1775 0
67 1 S102 933 1218115 -842 0
67 2 S102 869 1218984 27 0
67 2 S102 800 1219784 827 0
67 2 S102 860 1220644 1687 0
67 2 S102 854 1221498 2541 0
67 2 S102 865 1222363 3406 0
67 2 S102 881 1223244 4287 0
67 2 S102 890 1224134 5177 0
67 2 S102 860 1224994 6037 0
67 2 S102 790 1225784 6827 0
0 0 0 777 1226561 -5376 0
0 0 0 796 1227357 -4580 0
0 0 0 802 1228159 -3778 0
0 0 0 772 1228931 -3006 0
0 0 0 695 1229626 -2311 0
68 1 S106 656 1230282 -1655 0
68 1 S106 644 1230926 -1011 0
68 1 S106 684 1231610 -327 0
68 2 S106 764 1232374 437 0
68 2 S106 833 1233207 1270 0
68 2 S106 844 1234051 2114 0
68 2 S106 811 1234862 2925 0
68 2 S106 749 1235611 3674 0
68 2 S106 710 1236321 4384 0
68 2 S106 715 1237036 5099 0
68 2 S106 738 1237774 5837 0
68 2 S106 759 1238533 6596 0
0 0 0 774 1239307 -9656 0
0 0 0 751 1240058 -8905 0
0 0 0 723 1240781 -8182 0
0 0 0 766 1241547 -7416 0
0 0 0 797 1242344 -6619 0
0 0 0 773 1243117 -5846 0
0 0 0 719 1243836 -5127 0
0 0 0 721 1244557 -4406 0
0 0 0 750 1245307 -3656 0
0 0 0 791 1246098 -2865 0
0 0 0 821 1246919 -2044 0
69 1 S102 770 1247689 -1274 0
69 1 S102 710 1248399 -564 0
69 2 S102 719 1249118 155 0
69 2 S102 818 1249936 973 0
69 2 S102 845 1250781 1818 0
69 2 S102 838 1251619 2656 0
69 2 S102 816 1252435 3472 0
69 2 S102 776 1253211 4248 0
69 2 S102 823 1254034 5071 0
69 2 S102 883 1254917 5954 0
69 2 S102 895 1255812 6849 0
0 0 0 847 1256659 -7706 0
0 0 0 783 1257442 -6923 0
0 0 0 702 1258144 -6221 0
0 0 0 655 1258799 -5566 0
0 0 0 666 1259465 -4900 0
0 0 0 711 1260176 -4189 0
0 0 0 868 1261044 -3321 0
0 0 0 881 1261925 -2440 0
70 1 S112 843 1262768 -1597 0
70 1 S112 822 1263590 -775 0
70 2 S112 849 1264439 74 0
70 2 S112 907 1265346 981 0
70 2 S112 944 1266290 1925 0
70 2 S112 800 1267090 2725 0
70 2 S112 762 1267852 3487 0
70 2 S112 805 1268657 4292 0
70 2 S112 758 1269415 5050 0
70 2 S112 841 1270256 5891 0
70 2 S112 914 1271170 6805 0
0 0 0 850 1272020 -10498 0
0 0 0 851 1272871 -9647 0
0 0 0 849 1273720 -8798 0
0 0 0 803 1274523 -7995 0
0 0 0 742 1275265 -7253 0
0 0 0 686 1275951 -6567 0
0 0 0 693 1276644 -5874 0
0 0 0 741 1277385 -5133 0
0 0 0 889 1278274 -4244 0
0 0 0 899 1279173 -3345 0
0 0 0 899 1280072 -2446 0
71 1 S116 892 1280964 -1554 0
71 1 S116 833 1281797 -721 0
71 2 S116 800 1282597 79 0
71 2 S116 846 1283443 925 0
71 2 S116 844 1284287 1769 0
71 2 S116 722 1285009 2491 0
71 2 S116 666 1285675 3157 0
71 2 S116 654 1286329 3811 0
71 2 S116 681 1287010 4492 0
71 2 S116 721 1287731 5213 0
71 2 S116 736 1288467 5949 0
71 2 S116 729 1289196 6678 0
0 0 0 707 1289903 -8431 0
0 0 0 674 1290577 -7757 0
0 0 0 650 1291227 -7107 0
0 0 0 647 1291874 -6460 0
0 0 0 661 1292535 -5799 0
0 0 0 682 1293217 -5117 0
0 0 0 682 1293899 -4435 0
0 0 0 683 1294582 -3752 0
0 0 0 650 1295232 -3102 0
0 0 0 643 1295875 -2459 0
72 1 S102 665 1296540 -1794 0
72 1 S102 775 1297315 -1019 0
72 1 S102 790 1298105 -229 0
72 2 S102 773 1298878 544 0
72 2 S102 784 1299662 1328 0
72 2 S102 759 1300421 2087 0
72 2 S102 721 1301142 2808 0
72 2 S102 678 1301820 3486 0
72 2 S102 691 1302511 4177 0
72 2 S102 772 1303283 4949 0
72 2 S102 796 1304079 5745 0
72 2 S102 801 1304880 6546 0
0 0 0 849 1305729 -7094 0
0 0 0 835 1306564 -6259 0
0 0 0 800 1307364 -5459 0
0 0 0 759 1308123 -4700 0
0 0 0 762 1308885 -3938 0
0 0 0 751 1309636 -3187 0
0 0 0 698 1310334 -2489 0
73 1 S116 666 1311000 -1823 0
73 1 S116 631 1311631 -1192 0
73 1 S116 630 1312261 -562 0
73 2 S116 638 1312899 76 0
73 2 S116 738 1313637 814 0
73 2 S116 848 1314485 1662 0
73 2 S116 791 1315276 2453 0
73 2 S116 825 1316101 3278 0
73 2 S116 778 1316879 4056 0
73 2 S116 710 1317589 4766 0
73 2 S116 735 1318324 5501 0
73 2 S116 788 1319112 6289 0
0 0 0 821 1319933 -9104 0
0 0 0 798 1320731 -8306 0
0 0 0 764 1321495 -7542 0
0 0 0 711 1322206 -6831 0
0 0 0 728 1322934 -6103 0
0 0 0 838 1323772 -5265 0
0 0 0 873 1324645 -4392 0
0 0 0 842 1325487 -3550 0
0 0 0 770 1326257 -2780 0
0 0 0 695 1326952 -2085 0
74 1 S106 738 1327690 -1347 0
74 1 S106 832 1328522 -515 0
74 2 S106 848 1329370 333 0
74 2 S106 898 1330268 1231 0
74 2 S106 919 1331187 2150 0
74 2 S106 869 1332056 3019 0
74 2 S106 835 1332891 3854 0
74 2 S106 790 1333681 4644 0
74 2 S106 866 1334547 5510 0
74 2 S106 907 1335454 6417 0
0 0 0 904 1336358 -6157 0
0 0 0 850 1337208 -5307 0
0 0 0 782 1337990 -4525 0
0 0 0 729 1338719 -3796 0
0 0 0 732 1339451 -3064 0
0 0 0 870 1340321 -2194 0
75 1 S112 864 1341185 -1330 0
75 1 S112 786 1341971 -544 0
75 2 S112 706 1342677 162 0
75 2 S112 723 1343400 885 0
75 2 S112 836 1344236 1721 0
75 2 S112 830 1345066 2551 0
75 2 S112 814 1345880 3365 0
75 2 S112 793 1346673 4158 0
75 2 S112 772 1347445 4930 0
75 2 S112 760 1348205 5690 0
75 2 S112 748 1348953 6438 0
0 0 0 790 1349743 -7228 0
0 0 0 841 1350584 -6387 0
0 0 0 869 1351453 -5518 0
0 0 0 815 1352268 -4703 0
0 0 0 751 1353019 -3952 0
0 0 0 742 1353761 -3210 0
0 0 0 757 1354518 -2453 0
76 1 S116 769 1355287 -1684 0
76 1 S116 827 1356114 -857 0
76 1 S116 782 1356896 -75 0
76 2 S116 813 1357709 738 0
76 2 S116 914 1358623 1652 0
76 2 S116 866 1359489 2518 0
76 2 S116 840 1360329 3358 0
76 2 S116 780 1361109 4138 0
76 2 S116 738 1361847 4876 0
76 2 S116 783 1362630 5659 0
76 2 S116 885 1363515 6544 0
0 0 0 862 1364377 -6255 0
0 0 0 867 1365244 -5388 0
0 0 0 825 1366069 -4563 0
0 0 0 735 1366804 -3828 0
0 0 0 693 1367497 -3135 0
0 0 0 724 1368221 -2411 0
77 1 S106 795 1369016 -1616 0
77 1 S106 878 1369894 -738 0
77 2 S106 848 1370742 110 0
77 2 S106 801 1371543 911 0
77 2 S106 778 1372321 1689 0
77 2 S106 819 1373140 2508 0
77 2 S106 852 1373992 3360 0
77 2 S106 840 1374832 4200 0
77 2 S106 839 1375671 5039 0
77 2 S106 811 1376482 5850 0
77 2 S106 758 1377240 6608 0
0 0 0 698 1377938 -8526 0
0 0 0 702 1378640 -7824 0
0 0 0 781 1379421 -7043 0
0 0 0 816 1380237 -6227 0
0 0 0 826 1381063 -5401 0
0 0 0 785 1381848 -4616 0
0 0 0 725 1382573 -3891 0
0 0 0 780 1383353 -3111 0
0 0 0 857 1384210 -2254 0
78 1 S112 835 1385045 -1419 0
78 1 S112 835 1385880 -584 0
78 2 S112 819 1386699 235 0
78 2 S112 826 1387525 1061 0
78 2 S112 807 1388332 1868 0
78 2 S112 750 1389082 2618 0
78 2 S112 823 1389905 3441 0
78 2 S112 899 1390804 4340 0
78 2 S112 927 1391731 5267 0
78 2 S112 903 1392634 6170 0
0 0 0 883 1393517 -11366 0
0 0 0 828 1394345 -10538 0
0 0 0 833 1395178 -9705 0
0 0 0 909 1396087 -8796 0
0 0 0 881 1396968 -7915 0
0 0 0 801 1397769 -7114 0
0 0 0 736 1398505 -6378 0
0 0 0 693 1399198 -5685 0
0 0 0 710 1399908 -4975 0
0 0 0 824 1400732 -4151 0
0 0 0 892 1401624 -3259 0
0 0 0 877 1402501 -2382 0
79 1 S102 893 1403394 -1489 0
79 1 S102 832 1404226 -657 0
79 2 S102 817 1405043 160 0
79 2 S102 895 1405938 1055 0
79 2 S102 965 1406903 2020 0
79 2 S102 968 1407871 2988 0
79 2 S102 949 1408820 3937 0
79 2 S102 909 1409729 4846 0
79 2 S102 889 1410618 5735 0
79 2 S102 864 1411482 6599 0
0 0 0 844 1412326 -8754 0
0 0 0 847 1413173 -7907 0
0 0 0 838 1414011 -7069 0
0 0 0 747 1414758 -6322 0
0 0 0 729 1415487 -5593 0
0 0 0 722 1416209 -4871 0
0 0 0 669 1416878 -4202 0
0 0 0 677 1417555 -3525 0
0 0 0 689 1418244 -2836 0
0 0 0 689 1418933 -2147 0
80 1 S116 745 1419678 -1402 0
80 1 S116 824 1420502 -578 0
80 2 S116 827 1421329 249 0
80 2 S116 844 1422173 1093 0
80 2 S116 766 1422939 1859 0
80 2 S116 700 1423639 2559 0
80 2 S116 733 1424372 3292 0
80 2 S116 872 1425244 4164 0
80 2 S116 884 1426128 5048 0
80 2 S116 867 1426995 5915 0
80 2 S116 799 1427794 6714 0
