T_0087
BeatCount Mean SD BeatCountNoOutliers MeanNoOutliers SDNoOutliers
1612 962,058312655087 84,2555765757717 1591 965,571967316153 79,029194622824

Trial TrialStatus Trialtype IBI AbsPosition RelPosition Outlier
0 0 0 993 1821 -14360 0
0 0 0 923 2744 -13437 0
0 0 0 893 3637 -12544 0
0 0 0 831 4468 -11713 0
0 0 0 815 5283 -10898 0
0 0 0 824 6107 -10074 0
0 0 0 903 7010 -9171 0
0 0 0 913 7923 -8258 0
0 0 0 964 8887 -7294 0
0 0 0 925 9812 -6369 0
0 0 0 973 10785 -5396 0
0 0 0 982 11767 -4414 0
0 0 0 914 12681 -3500 0
0 0 0 879 13560 -2621 0
1 1 S112 884 14444 -1737 0
1 1 S112 897 15341 -840 0
1 2 S112 920 16261 80 0
1 2 S112 904 17165 984 0
1 2 S112 871 18036 1855 0
1 2 S112 853 18889 2708 0
1 2 S112 918 19807 3626 0
1 2 S112 928 20735 4554 0
1 2 S112 940 21675 5494 0
1 2 S112 871 22546 6365 0
0 0 0 882 23428 -11486 0
0 0 0 941 24369 -10545 0
0 0 0 923 25292 -9622 0
0 0 0 923 26215 -8699 0
0 0 0 863 27078 -7836 0
0 0 0 880 27958 -6956 0
0 0 0 906 28864 -6050 0
0 0 0 902 29766 -5148 0
0 0 0 930 30696 -4218 0
0 0 0 867 31563 -3351 0
0 0 0 909 32472 -2442 0
2 1 S102 967 33439 -1475 0
2 1 S102 986 34425 -489 0
2 2 S102 970 35395 481 0
2 2 S102 966 36361 1447 0
2 2 S102 886 37247 2333 0
2 2 S102 868 38115 3201 0
2 2 S102 914 39029 4115 0
2 2 S102 920 39949 5035 0
2 2 S102 1001 40950 6036 0
2 2 S102 964 41914 7000 0
0 0 0 973 42887 -9103 0
0 0 0 924 43811 -8179 0
0 0 0 982 44793 -7197 0
0 0 0 1001 45794 -6196 0
0 0 0 948 46742 -5248 0
0 0 0 892 47634 -4356 0
0 0 0 851 48485 -3505 0
0 0 0 855 49340 -2650 0
3 1 S116 928 50268 -1722 0
3 1 S116 917 51185 -805 0
3 2 S116 897 52082 92 0
3 2 S116 884 52966 976 0
3 2 S116 902 53868 1878 0
3 2 S116 900 54768 2778 0
3 2 S116 919 55687 3697 0
3 2 S116 874 56561 4571 0
3 2 S116 844 57405 5415 0
3 2 S116 865 58270 6280 0
0 0 0 882 59152 -11853 0
0 0 0 863 60015 -10990 0
0 0 0 851 60866 -10139 0
0 0 0 832 61698 -9307 0
0 0 0 867 62565 -8440 0
0 0 0 904 63469 -7536 0
0 0 0 965 64434 -6571 0
0 0 0 878 65312 -5693 0
0 0 0 851 66163 -4842 0
0 0 0 895 67058 -3947 0
0 0 0 948 68006 -2999 0
4 1 S106 1012 69018 -1987 0
4 1 S106 957 69975 -1030 0
4 1 S106 943 70918 -87 0
4 2 S106 967 71885 880 0
4 2 S106 939 72824 1819 0
4 2 S106 993 73817 2812 0
4 2 S106 1037 74854 3849 0
4 2 S106 999 75853 4848 0
4 2 S106 987 76840 5835 0
4 2 S106 967 77807 6802 0
0 0 0 1024 78831 -8454 0
0 0 0 1031 79862 -7423 0
0 0 0 975 80837 -6448 0
0 0 0 1057 81894 -5391 0
0 0 0 1003 82897 -4388 0
0 0 0 986 83883 -3402 0
0 0 0 906 84789 -2496 0
5 1 S116 955 85744 -1541 0
5 1 S116 1018 86762 -523 0
5 2 S116 1078 87840 555 0
5 2 S116 1036 88876 1591 0
5 2 S116 977 89853 2568 0
5 2 S116 1003 90856 3571 0
5 2 S116 970 91826 4541 0
5 2 S116 941 92767 5482 0
5 2 S116 924 93691 6406 0
0 0 0 933 94624 -9223 0
0 0 0 954 95578 -8269 0
0 0 0 951 96529 -7318 0
0 0 0 938 97467 -6380 0
0 0 0 893 98360 -5487 0
0 0 0 949 99309 -4538 0
0 0 0 1014 100323 -3524 0
0 0 0 1011 101334 -2513 0
6 1 S106 974 102308 -1539 0
6 1 S106 953 103261 -586 0
6 2 S106 920 104181 334 0
6 2 S106 890 105071 1224 0
6 2 S106 995 106066 2219 0
6 2 S106 1030 107096 3249 0
6 2 S106 1082 108178 4331 0
6 2 S106 990 109168 5321 0
6 2 S106 965 110133 6286 0
0 0 0 1032 111165 -11200 0
0 0 0 1073 112238 -10127 0
0 0 0 1073 113311 -9054 0
0 0 0 1021 114332 -8033 0
0 0 0 944 115276 -7089 0
0 0 0 1011 116287 -6078 0
0 0 0 1024 117311 -5054 0
0 0 0 990 118301 -4064 0
0 0 0 966 119267 -3098 0
0 0 0 964 120231 -2134 0
7 1 S102 953 121184 -1181 0
7 1 S102 987 122171 -194 0
7 2 S102 1038 123209 844 0
7 2 S102 1053 124262 1897 0
7 2 S102 1015 125277 2912 0
7 2 S102 1014 126291 3926 0
7 2 S102 1003 127294 4929 0
7 2 S102 1024 128318 5953 0
7 2 S102 1009 129327 6962 0
0 0 0 988 130315 -8479 0
0 0 0 981 131296 -7498 0
0 0 0 941 132237 -6557 0
0 0 0 945 133182 -5612 0
0 0 0 955 134137 -4657 0
0 0 0 954 135091 -3703 0
0 0 0 924 136015 -2779 0
8 1 S112 924 136939 -1855 0
8 1 S112 895 137834 -960 0
8 1 S112 919 138753 -41 0
8 2 S112 977 139730 936 0
8 2 S112 997 140727 1933 0
8 2 S112 990 141717 2923 0
8 2 S112 968 142685 3891 0
8 2 S112 959 143644 4850 0
8 2 S112 978 144622 5828 0
8 2 S112 977 145599 6805 0
0 0 0 958 146557 -7523 0
0 0 0 932 147489 -6591 0
0 0 0 942 148431 -5649 0
0 0 0 948 149379 -4701 0
0 0 0 918 150297 -3783 0
0 0 0 887 151184 -2896 0
0 0 0 837 152021 -2059 0
9 1 S116 863 152884 -1196 0
9 1 S116 862 153746 -334 0
9 2 S116 846 154592 512 0
9 2 S116 918 155510 1430 0
9 2 S116 991 156501 2421 0
9 2 S116 939 157440 3360 0
9 2 S116 874 158314 4234 0
9 2 S116 906 159220 5140 0
9 2 S116 940 160160 6080 0
9 2 S116 897 161057 6977 0
0 0 0 864 161921 -11920 0
0 0 0 813 162734 -11107 0
0 0 0 863 163597 -10244 0
0 0 0 864 164461 -9380 0
0 0 0 851 165312 -8529 0
0 0 0 834 166146 -7695 0
0 0 0 802 166948 -6893 0
0 0 0 830 167778 -6063 0
0 0 0 859 168637 -5204 0
0 0 0 879 169516 -4325 0
0 0 0 931 170447 -3394 0
0 0 0 961 171408 -2433 0
10 1 S102 938 172346 -1495 0
10 1 S102 977 173323 -518 0
10 2 S102 941 174264 423 0
10 2 S102 934 175198 1357 0
10 2 S102 897 176095 2254 0
10 2 S102 880 176975 3134 0
10 2 S102 877 177852 4011 0
10 2 S102 901 178753 4912 0
10 2 S102 917 179670 5829 0
10 2 S102 924 180594 6753 0
0 0 0 937 181531 -11392 0
0 0 0 942 182473 -10450 0
0 0 0 924 183397 -9526 0
0 0 0 943 184340 -8583 0
0 0 0 961 185301 -7622 0
0 0 0 970 186271 -6652 0
0 0 0 911 187182 -5741 0
0 0 0 868 188050 -4873 0
0 0 0 866 188916 -4007 0
0 0 0 910 189826 -3097 0
0 0 0 939 190765 -2158 0
11 1 S112 971 191736 -1187 0
11 1 S112 964 192700 -223 0
11 2 S112 936 193636 713 0
11 2 S112 930 194566 1643 0
11 2 S112 933 195499 2576 0
11 2 S112 948 196447 3524 0
11 2 S112 937 197384 4461 0
11 2 S112 912 198296 5373 0
11 2 S112 947 199243 6320 0
0 0 0 987 200230 -7580 0
0 0 0 1025 201255 -6555 0
0 0 0 1024 202279 -5531 0
0 0 0 987 203266 -4544 0
0 0 0 927 204193 -3617 0
0 0 0 925 205118 -2692 0
12 1 S116 919 206037 -1773 0
12 1 S116 927 206964 -846 0
12 2 S116 931 207895 85 0
12 2 S116 1003 208898 1088 0
12 2 S116 1056 209954 2144 0
12 2 S116 1031 210985 3175 0
12 2 S116 1033 212018 4208 0
12 2 S116 990 213008 5198 0
12 2 S116 969 213977 6167 0
0 0 0 947 214924 -12217 0
0 0 0 995 215919 -11222 0
0 0 0 999 216918 -10223 0
0 0 0 974 217892 -9249 0
0 0 0 997 218889 -8252 0
0 0 0 961 219850 -7291 0
0 0 0 926 220776 -6365 0
0 0 0 937 221713 -5428 0
0 0 0 978 222691 -4450 0
0 0 0 927 223618 -3523 0
0 0 0 851 224469 -2672 0
13 1 S112 885 225354 -1787 0
13 1 S112 838 226192 -949 0
13 1 S112 811 227003 -138 0
13 2 S112 788 227791 650 0
13 2 S112 894 228685 1544 0
13 2 S112 892 229577 2436 0
13 2 S112 908 230485 3344 0
13 2 S112 903 231388 4247 0
13 2 S112 869 232257 5116 0
13 2 S112 913 233170 6029 0
13 2 S112 898 234068 6927 0
0 0 0 895 234963 -12055 0
0 0 0 875 235838 -11180 0
0 0 0 859 236697 -10321 0
0 0 0 952 237649 -9369 0
0 0 0 925 238574 -8444 0
0 0 0 900 239474 -7544 0
0 0 0 858 240332 -6686 0
0 0 0 825 241157 -5861 0
0 0 0 838 241995 -5023 0
0 0 0 900 242895 -4123 0
0 0 0 966 243861 -3157 0
0 0 0 979 244840 -2178 0
14 1 S106 944 245784 -1234 0
14 1 S106 986 246770 -248 0
14 2 S106 967 247737 719 0
14 2 S106 976 248713 1695 0
14 2 S106 949 249662 2644 0
14 2 S106 892 250554 3536 0
14 2 S106 855 251409 4391 0
14 2 S106 861 252270 5252 0
14 2 S106 865 253135 6117 0
14 2 S106 876 254011 6993 0
0 0 0 855 254866 -10007 0
0 0 0 840 255706 -9167 0
0 0 0 833 256539 -8334 0
0 0 0 882 257421 -7452 0
0 0 0 896 258317 -6556 0
0 0 0 927 259244 -5629 0
0 0 0 988 260232 -4641 0
0 0 0 944 261176 -3697 0
0 0 0 996 262172 -2701 0
15 1 S116 1064 263236 -1637 0
15 1 S116 997 264233 -640 0
15 2 S116 942 265175 302 0
15 2 S116 933 266108 1235 0
15 2 S116 1019 267127 2254 0
15 2 S116 1001 268128 3255 0
15 2 S116 1007 269135 4262 0
15 2 S116 994 270129 5256 0
15 2 S116 1020 271149 6276 0
0 0 0 1059 272208 -9144 0
0 0 0 1044 273252 -8100 0
0 0 0 988 274240 -7112 0
0 0 0 998 275238 -6114 0
0 0 0 994 276232 -5120 0
0 0 0 1101 277333 -4019 0
0 0 0 994 278327 -3025 0
0 0 0 965 279292 -2060 0
16 1 S116 1007 280299 -1053 0
16 1 S116 956 281255 -97 0
16 2 S116 1002 282257 905 0
16 2 S116 1053 283310 1958 0
16 2 S116 1085 284395 3043 0
16 2 S116 1056 285451 4099 0
16 2 S116 1014 286465 5113 0
16 2 S116 982 287447 6095 0
0 0 0 1018 288465 -11488 0
0 0 0 1021 289486 -10467 0
0 0 0 989 290475 -9478 0
0 0 0 952 291427 -8526 0
0 0 0 938 292365 -7588 0
0 0 0 986 293351 -6602 0
0 0 0 992 294343 -5610 0
0 0 0 972 295315 -4638 0
0 0 0 959 296274 -3679 0
0 0 0 1022 297296 -2657 0
17 1 S106 1059 298355 -1598 0
17 1 S106 1042 299397 -556 0
17 2 S106 1057 300454 501 0
17 2 S106 957 301411 1458 0
17 2 S106 924 302335 2382 0
17 2 S106 960 303295 3342 0
17 2 S106 991 304286 4333 0
17 2 S106 963 305249 5296 0
17 2 S106 959 306208 6255 0
0 0 0 939 307147 -11042 0
0 0 0 1000 308147 -10042 0
0 0 0 1035 309182 -9007 0
0 0 0 998 310180 -8009 0
0 0 0 945 311125 -7064 0
0 0 0 926 312051 -6138 0
0 0 0 945 312996 -5193 0
0 0 0 969 313965 -4224 0
0 0 0 985 314950 -3239 0
0 0 0 980 315930 -2259 0
18 1 S102 959 316889 -1300 0
18 1 S102 919 317808 -381 0
18 2 S102 933 318741 552 0
18 2 S102 970 319711 1522 0
18 2 S102 973 320684 2495 0
18 2 S102 956 321640 3451 0
18 2 S102 920 322560 4371 0
18 2 S102 945 323505 5316 0
18 2 S102 1016 324521 6332 0
0 0 0 1028 325549 -7146 0
0 0 0 1014 326563 -6132 0
0 0 0 940 327503 -5192 0
0 0 0 916 328419 -4276 0
0 0 0 900 329319 -3376 0
0 0 0 939 330258 -2437 0
19 1 S106 953 331211 -1484 0
19 1 S106 944 332155 -540 0
19 2 S106 916 333071 376 0
19 2 S106 904 333975 1280 0
19 2 S106 1007 334982 2287 0
19 2 S106 1040 336022 3327 0
19 2 S106 998 337020 4325 0
19 2 S106 980 338000 5305 0
19 2 S106 925 338925 6230 0
0 0 0 868 339793 -10260 0
0 0 0 935 340728 -9325 0
0 0 0 963 341691 -8362 0
0 0 0 921 342612 -7441 0
0 0 0 891 343503 -6550 0
0 0 0 831 344334 -5719 0
0 0 0 823 345157 -4896 0
0 0 0 779 345936 -4117 0
0 0 0 764 346700 -3353 0
0 0 0 811 347511 -2542 0
20 1 S112 895 348406 -1647 0
20 1 S112 908 349314 -739 0
20 2 S112 964 350278 225 0
20 2 S112 971 351249 1196 0
20 2 S112 909 352158 2105 0
20 2 S112 868 353026 2973 0
20 2 S112 837 353863 3810 0
20 2 S112 815 354678 4625 0
20 2 S112 788 355466 5413 0
20 2 S112 769 356235 6182 0
20 2 S112 775 357010 6957 0
0 0 0 802 357812 -9565 0
0 0 0 849 358661 -8716 0
0 0 0 839 359500 -7877 0
0 0 0 842 360342 -7035 0
0 0 0 866 361208 -6169 0
0 0 0 852 362060 -5317 0
0 0 0 835 362895 -4482 0
0 0 0 835 363730 -3647 0
0 0 0 871 364601 -2776 0
21 1 S106 924 365525 -1852 0
21 1 S106 925 366450 -927 0
21 1 S106 925 367375 -2 0
21 2 S106 866 368241 864 0
21 2 S106 869 369110 1733 0
21 2 S106 890 370000 2623 0
21 2 S106 894 370894 3517 0
21 2 S106 887 371781 4404 0
21 2 S106 879 372660 5283 0
21 2 S106 866 373526 6149 0
0 0 0 936 374462 -10289 0
0 0 0 991 375453 -9298 0
0 0 0 966 376419 -8332 0
0 0 0 906 377325 -7426 0
0 0 0 879 378204 -6547 0
0 0 0 871 379075 -5676 0
0 0 0 946 380021 -4730 0
0 0 0 995 381016 -3735 0
0 0 0 973 381989 -2762 0
22 1 S116 972 382961 -1790 0
22 1 S116 979 383940 -811 0
22 2 S116 937 384877 126 0
22 2 S116 879 385756 1005 0
22 2 S116 1049 386805 2054 0
22 2 S116 1010 387815 3064 0
22 2 S116 1012 388827 4076 0
22 2 S116 949 389776 5025 0
22 2 S116 913 390689 5938 0
22 2 S116 875 391564 6813 0
0 0 0 953 392517 -8746 0
0 0 0 937 393454 -7809 0
0 0 0 945 394399 -6864 0
0 0 0 900 395299 -5964 0
0 0 0 879 396178 -5085 0
0 0 0 838 397016 -4247 0
0 0 0 892 397908 -3355 0
0 0 0 897 398805 -2458 0
23 1 S112 911 399716 -1547 0
23 1 S112 885 400601 -662 0
23 2 S112 858 401459 196 0
23 2 S112 861 402320 1057 0
23 2 S112 880 403200 1937 0
23 2 S112 856 404056 2793 0
23 2 S112 847 404903 3640 0
23 2 S112 834 405737 4474 0
23 2 S112 838 406575 5312 0
23 2 S112 855 407430 6167 0
23 2 S112 857 408287 7024 0
0 0 0 854 409141 -9165 0
0 0 0 837 409978 -8328 0
0 0 0 815 410793 -7513 0
0 0 0 851 411644 -6662 0
0 0 0 826 412470 -5836 0
0 0 0 807 413277 -5029 0
0 0 0 789 414066 -4240 0
0 0 0 803 414869 -3437 0
0 0 0 876 415745 -2561 0
24 1 S106 950 416695 -1611 0
24 1 S106 959 417654 -652 0
24 2 S106 982 418636 330 0
24 2 S106 969 419605 1299 0
24 2 S106 896 420501 2195 0
24 2 S106 929 421430 3124 0
24 2 S106 925 422355 4049 0
24 2 S106 923 423278 4972 0
24 2 S106 900 424178 5872 0
24 2 S106 892 425070 6764 0
0 0 0 925 425995 -8259 0
0 0 0 907 426902 -7352 0
0 0 0 1056 427958 -6296 0
0 0 0 1042 429000 -5254 0
0 0 0 1033 430033 -4221 0
0 0 0 1002 431035 -3219 0
0 0 0 967 432002 -2252 0
25 1 S102 954 432956 -1298 0
25 1 S102 910 433866 -388 0
25 2 S102 912 434778 524 0
25 2 S102 920 435698 1444 0
25 2 S102 992 436690 2436 0
25 2 S102 1033 437723 3469 0
25 2 S102 1023 438746 4492 0
25 2 S102 1012 439758 5504 0
25 2 S102 1028 440786 6532 0
0 0 0 1020 441806 -6109 0
0 0 0 992 442798 -5117 0
0 0 0 938 443736 -4179 0
0 0 0 892 444628 -3287 0
0 0 0 878 445506 -2409 0
26 1 S116 891 446397 -1518 0
26 1 S116 935 447332 -583 0
26 2 S116 950 448282 367 0
26 2 S116 943 449225 1310 0
26 2 S116 954 450179 2264 0
26 2 S116 935 451114 3199 0
26 2 S116 969 452083 4168 0
26 2 S116 986 453069 5154 0
26 2 S116 1004 454073 6158 0
0 0 0 967 455040 -7248 0
0 0 0 942 455982 -6306 0
0 0 0 920 456902 -5386 0
0 0 0 899 457801 -4487 0
0 0 0 925 458726 -3562 0
0 0 0 912 459638 -2650 0
27 1 S106 884 460522 -1766 0
27 1 S106 888 461410 -878 0
27 2 S106 900 462310 22 0
27 2 S106 881 463191 903 0
27 2 S106 935 464126 1838 0
27 2 S106 963 465089 2801 0
27 2 S106 969 466058 3770 0
27 2 S106 922 466980 4692 0
27 2 S106 903 467883 5595 0
27 2 S106 880 468763 6475 0
0 0 0 877 469640 -7552 0
0 0 0 926 470566 -6626 0
0 0 0 944 471510 -5682 0
0 0 0 929 472439 -4753 0
0 0 0 908 473347 -3845 0
0 0 0 884 474231 -2961 0
0 0 0 857 475088 -2104 0
28 1 S102 786 475874 -1318 0
28 1 S102 750 476624 -568 0
28 2 S102 772 477396 204 0
28 2 S102 814 478210 1018 0
28 2 S102 914 479124 1932 0
28 2 S102 913 480037 2845 0
28 2 S102 916 480953 3761 0
28 2 S102 960 481913 4721 0
28 2 S102 952 482865 5673 0
28 2 S102 957 483822 6630 0
0 0 0 934 484756 -11767 0
0 0 0 866 485622 -10901 0
0 0 0 817 486439 -10084 0
0 0 0 821 487260 -9263 0
0 0 0 822 488082 -8441 0
0 0 0 833 488915 -7608 0
0 0 0 860 489775 -6748 0
0 0 0 859 490634 -5889 0
0 0 0 867 491501 -5022 0
0 0 0 870 492371 -4152 0
0 0 0 876 493247 -3276 0
0 0 0 904 494151 -2372 0
29 1 S112 924 495075 -1448 0
29 1 S112 905 495980 -543 0
29 2 S112 886 496866 343 0
29 2 S112 888 497754 1231 0
29 2 S112 894 498648 2125 0
29 2 S112 873 499521 2998 0
29 2 S112 903 500424 3901 0
29 2 S112 921 501345 4822 0
29 2 S112 938 502283 5760 0
29 2 S112 937 503220 6697 0
0 0 0 928 504148 -6367 0
0 0 0 951 505099 -5416 0
0 0 0 942 506041 -4474 0
0 0 0 922 506963 -3552 0
0 0 0 923 507886 -2629 0
30 1 S112 833 508719 -1796 0
30 1 S112 809 509528 -987 0
30 1 S112 816 510344 -171 0
30 2 S112 839 511183 668 0
30 2 S112 895 512078 1563 0
30 2 S112 957 513035 2520 0
30 2 S112 952 513987 3472 0
30 2 S112 931 514918 4403 0
30 2 S112 998 515916 5401 0
30 2 S112 1007 516923 6408 0
0 0 0 949 517872 -10995 0
0 0 0 932 518804 -10063 0
0 0 0 914 519718 -9149 0
0 0 0 922 520640 -8227 0
0 0 0 927 521567 -7300 0
0 0 0 924 522491 -6376 0
0 0 0 913 523404 -5463 0
0 0 0 921 524325 -4542 0
0 0 0 979 525304 -3563 0
0 0 0 1018 526322 -2545 0
31 1 S106 1025 527347 -1520 0
31 1 S106 1042 528389 -478 0
31 2 S106 1003 529392 525 0
31 2 S106 981 530373 1506 0
31 2 S106 1005 531378 2511 0
31 2 S106 979 532357 3490 0
31 2 S106 999 533356 4489 0
31 2 S106 990 534346 5479 0
31 2 S106 975 535321 6454 0
0 0 0 949 536270 -8728 0
0 0 0 969 537239 -7759 0
0 0 0 995 538234 -6764 0
0 0 0 993 539227 -5771 0
0 0 0 991 540218 -4780 0
0 0 0 978 541196 -3802 0
0 0 0 998 542194 -2804 0
32 1 S102 1023 543217 -1781 0
32 1 S102 1001 544218 -780 0
32 2 S102 969 545187 189 0
32 2 S102 937 546124 1126 0
32 2 S102 947 547071 2073 0
32 2 S102 917 547988 2990 0
32 2 S102 898 548886 3888 0
32 2 S102 905 549791 4793 0
32 2 S102 972 550763 5765 0
32 2 S102 1001 551764 6766 0
0 0 0 978 552742 -10459 0
0 0 0 958 553700 -9501 0
0 0 0 944 554644 -8557 0
0 0 0 883 555527 -7674 0
0 0 0 844 556371 -6830 0
0 0 0 809 557180 -6021 0
0 0 0 834 558014 -5187 0
0 0 0 840 558854 -4347 0
0 0 0 884 559738 -3463 0
0 0 0 909 560647 -2554 0
33 1 S112 917 561564 -1637 0
33 1 S112 947 562511 -690 0
33 2 S112 971 563482 281 0
33 2 S112 972 564454 1253 0
33 2 S112 933 565387 2186 0
33 2 S112 905 566292 3091 0
33 2 S112 870 567162 3961 0
33 2 S112 883 568045 4844 0
33 2 S112 893 568938 5737 0
33 2 S112 864 569802 6601 0
0 0 0 897 570699 -11949 0
0 0 0 909 571608 -11040 0
0 0 0 942 572550 -10098 0
0 0 0 979 573529 -9119 0
0 0 0 955 574484 -8164 0
0 0 0 950 575434 -7214 0
0 0 0 949 576383 -6265 0
0 0 0 963 577346 -5302 0
0 0 0 883 578229 -4419 0
0 0 0 819 579048 -3600 0
0 0 0 763 579811 -2837 0
0 0 0 738 580549 -2099 1
34 1 S106 785 581334 -1314 0
34 1 S106 888 582222 -426 0
34 2 S106 949 583171 523 0
34 2 S106 991 584162 1514 0
34 2 S106 967 585129 2481 0
34 2 S106 945 586074 3426 0
34 2 S106 939 587013 4365 0
34 2 S106 945 587958 5310 0
34 2 S106 929 588887 6239 0
0 0 0 917 589804 -10715 0
0 0 0 927 590731 -9788 0
0 0 0 935 591666 -8853 0
0 0 0 965 592631 -7888 0
0 0 0 1006 593637 -6882 0
0 0 0 968 594605 -5914 0
0 0 0 950 595555 -4964 0
0 0 0 975 596530 -3989 0
0 0 0 989 597519 -3000 0
0 0 0 969 598488 -2031 0
35 1 S102 913 599401 -1118 0
35 1 S102 892 600293 -226 0
35 2 S102 841 601134 615 0
35 2 S102 856 601990 1471 0
35 2 S102 861 602851 2332 0
35 2 S102 877 603728 3209 0
35 2 S102 952 604680 4161 0
35 2 S102 967 605647 5128 0
35 2 S102 985 606632 6113 0
0 0 0 1025 607657 -7965 0
0 0 0 998 608655 -6967 0
0 0 0 933 609588 -6034 0
0 0 0 893 610481 -5141 0
0 0 0 873 611354 -4268 0
0 0 0 850 612204 -3418 0
0 0 0 845 613049 -2573 0
36 1 S106 824 613873 -1749 0
36 1 S106 832 614705 -917 0
36 1 S106 829 615534 -88 0
36 2 S106 855 616389 767 0
36 2 S106 915 617304 1682 0
36 2 S106 964 618268 2646 0
36 2 S106 952 619220 3598 0
36 2 S106 959 620179 4557 0
36 2 S106 954 621133 5511 0
36 2 S106 955 622088 6466 0
0 0 0 982 623070 -8666 0
0 0 0 977 624047 -7689 0
0 0 0 966 625013 -6723 0
0 0 0 938 625951 -5785 0
0 0 0 896 626847 -4889 0
0 0 0 887 627734 -4002 0
0 0 0 843 628577 -3159 0
0 0 0 824 629401 -2335 0
37 1 S116 786 630187 -1549 0
37 1 S116 747 630934 -802 0
37 1 S116 796 631730 -6 0
37 2 S116 880 632610 874 0
37 2 S116 983 633593 1857 0
37 2 S116 1025 634618 2882 0
37 2 S116 1003 635621 3885 0
37 2 S116 977 636598 4862 0
37 2 S116 939 637537 5801 0
37 2 S116 939 638476 6740 0
0 0 0 920 639396 -11107 0
0 0 0 887 640283 -10220 0
0 0 0 865 641148 -9355 0
0 0 0 846 641994 -8509 0
0 0 0 827 642821 -7682 0
0 0 0 829 643650 -6853 0
0 0 0 860 644510 -5993 0
0 0 0 891 645401 -5102 0
0 0 0 878 646279 -4224 0
0 0 0 887 647166 -3337 0
0 0 0 874 648040 -2463 0
38 1 S102 889 648929 -1574 0
38 1 S102 886 649815 -688 0
38 2 S102 956 650771 268 0
38 2 S102 937 651708 1205 0
38 2 S102 962 652670 2167 0
38 2 S102 923 653593 3090 0
38 2 S102 898 654491 3988 0
38 2 S102 890 655381 4878 0
38 2 S102 928 656309 5806 0
38 2 S102 960 657269 6766 0
0 0 0 945 658214 -9497 0
0 0 0 917 659131 -8580 0
0 0 0 899 660030 -7681 0
0 0 0 899 660929 -6782 0
0 0 0 921 661850 -5861 0
0 0 0 989 662839 -4872 0
0 0 0 951 663790 -3921 0
0 0 0 975 664765 -2946 0
0 0 0 939 665704 -2007 0
39 1 S116 1058 666762 -949 0
39 2 S116 1064 667826 115 0
39 2 S116 1025 668851 1140 0
39 2 S116 1017 669868 2157 0
39 2 S116 988 670856 3145 0
39 2 S116 972 671828 4117 0
39 2 S116 1016 672844 5133 0
39 2 S116 1047 673891 6180 0
0 0 0 1029 674920 -7944 0
0 0 0 1012 675932 -6932 0
0 0 0 988 676920 -5944 0
0 0 0 1019 677939 -4925 0
0 0 0 1008 678947 -3917 0
0 0 0 1022 679969 -2895 0
40 1 S112 1003 680972 -1892 0
40 1 S112 1011 681983 -881 0
40 2 S112 1041 683024 160 0
40 2 S112 1045 684069 1205 0
40 2 S112 1011 685080 2216 0
40 2 S112 983 686063 3199 0
40 2 S112 995 687058 4194 0
40 2 S112 995 688053 5189 0
40 2 S112 1021 689074 6210 0
0 0 0 1009 690083 -186732 0
0 0 0 1014 691097 -185718 0
0 0 0 1016 692113 -184702 0
0 0 0 1002 693115 -183700 0
0 0 0 977 694092 -182723 0
0 0 0 913 695005 -181810 0
0 0 0 812 695817 -180998 0
0 0 0 792 696609 -180206 0
0 0 0 782 697391 -179424 0
0 0 0 794 698185 -178630 0
0 0 0 797 698982 -177833 0
0 0 0 782 699764 -177051 0
0 0 0 767 700531 -176284 0
0 0 0 770 701301 -175514 0
0 0 0 756 702057 -174758 0
0 0 0 738 702795 -174020 1
0 0 0 718 703513 -173302 1
0 0 0 695 704208 -172607 1
0 0 0 693 704901 -171914 1
0 0 0 667 705568 -171247 1
0 0 0 658 706226 -170589 1
0 0 0 654 706880 -169935 1
0 0 0 664 707544 -169271 1
0 0 0 686 708230 -168585 1
0 0 0 707 708937 -167878 1
0 0 0 771 709708 -167107 0
0 0 0 803 710511 -166304 0
0 0 0 875 711386 -165429 0
0 0 0 856 712242 -164573 0
0 0 0 849 713091 -163724 0
0 0 0 833 713924 -162891 0
0 0 0 853 714777 -162038 0
0 0 0 857 715634 -161181 0
0 0 0 823 716457 -160358 0
0 0 0 816 717273 -159542 0
0 0 0 823 718096 -158719 0
0 0 0 854 718950 -157865 0
0 0 0 901 719851 -156964 0
0 0 0 912 720763 -156052 0
0 0 0 953 721716 -155099 0
0 0 0 945 722661 -154154 0
0 0 0 912 723573 -153242 0
0 0 0 825 724398 -152417 0
0 0 0 777 725175 -151640 0
0 0 0 752 725927 -150888 0
0 0 0 791 726718 -150097 0
0 0 0 865 727583 -149232 0
0 0 0 884 728467 -148348 0
0 0 0 905 729372 -147443 0
0 0 0 869 730241 -146574 0
0 0 0 810 731051 -145764 0
0 0 0 761 731812 -145003 0
0 0 0 739 732551 -144264 1
0 0 0 709 733260 -143555 1
0 0 0 723 733983 -142832 1
0 0 0 844 734827 -141988 0
0 0 0 979 735806 -141009 0
0 0 0 899 736705 -140110 0
0 0 0 958 737663 -139152 0
0 0 0 968 738631 -138184 0
0 0 0 970 739601 -137214 0
0 0 0 956 740557 -136258 0
0 0 0 966 741523 -135292 0
0 0 0 919 742442 -134373 0
0 0 0 938 743380 -133435 0
0 0 0 1037 744417 -132398 0
0 0 0 1094 745511 -131304 0
0 0 0 1075 746586 -130229 0
0 0 0 1067 747653 -129162 0
0 0 0 1067 748720 -128095 0
0 0 0 1116 749836 -126979 0
0 0 0 1105 750941 -125874 0
0 0 0 1082 752023 -124792 0
0 0 0 1092 753115 -123700 0
0 0 0 1102 754217 -122598 0
0 0 0 1165 755382 -121433 0
0 0 0 1126 756508 -120307 0
0 0 0 1117 757625 -119190 0
0 0 0 1063 758688 -118127 0
0 0 0 1008 759696 -117119 0
0 0 0 1005 760701 -116114 0
0 0 0 1091 761792 -115023 0
0 0 0 1168 762960 -113855 0
0 0 0 1118 764078 -112737 0
0 0 0 1059 765137 -111678 0
0 0 0 1041 766178 -110637 0
0 0 0 1085 767263 -109552 0
0 0 0 1122 768385 -108430 0
0 0 0 1045 769430 -107385 0
0 0 0 994 770424 -106391 0
0 0 0 973 771397 -105418 0
0 0 0 935 772332 -104483 0
0 0 0 922 773254 -103561 0
0 0 0 916 774170 -102645 0
0 0 0 908 775078 -101737 0
0 0 0 881 775959 -100856 0
0 0 0 905 776864 -99951 0
0 0 0 925 777789 -99026 0
0 0 0 976 778765 -98050 0
0 0 0 1044 779809 -97006 0
0 0 0 1007 780816 -95999 0
0 0 0 985 781801 -95014 0
0 0 0 960 782761 -94054 0
0 0 0 1061 783822 -92993 0
0 0 0 1043 784865 -91950 0
0 0 0 1000 785865 -90950 0
0 0 0 991 786856 -89959 0
0 0 0 1030 787886 -88929 0
0 0 0 1071 788957 -87858 0
0 0 0 1043 790000 -86815 0
0 0 0 1018 791018 -85797 0
0 0 0 1019 792037 -84778 0
0 0 0 1042 793079 -83736 0
0 0 0 1020 794099 -82716 0
0 0 0 978 795077 -81738 0
0 0 0 1007 796084 -80731 0
0 0 0 998 797082 -79733 0
0 0 0 1026 798108 -78707 0
0 0 0 1042 799150 -77665 0
0 0 0 1048 800198 -76617 0
0 0 0 1078 801276 -75539 0
0 0 0 1090 802366 -74449 0
0 0 0 997 803363 -73452 0
0 0 0 944 804307 -72508 0
0 0 0 881 805188 -71627 0
0 0 0 850 806038 -70777 0
0 0 0 787 806825 -69990 0
0 0 0 752 807577 -69238 0
0 0 0 772 808349 -68466 0
0 0 0 863 809212 -67603 0
0 0 0 959 810171 -66644 0
0 0 0 954 811125 -65690 0
0 0 0 928 812053 -64762 0
0 0 0 914 812967 -63848 0
0 0 0 910 813877 -62938 0
0 0 0 917 814794 -62021 0
0 0 0 936 815730 -61085 0
0 0 0 921 816651 -60164 0
0 0 0 917 817568 -59247 0
0 0 0 938 818506 -58309 0
0 0 0 978 819484 -57331 0
0 0 0 1033 820517 -56298 0
0 0 0 1059 821576 -55239 0
0 0 0 1060 822636 -54179 0
0 0 0 1040 823676 -53139 0
0 0 0 1018 824694 -52121 0
0 0 0 1026 825720 -51095 0
0 0 0 1011 826731 -50084 0
0 0 0 990 827721 -49094 0
0 0 0 986 828707 -48108 0
0 0 0 998 829705 -47110 0
0 0 0 990 830695 -46120 0
0 0 0 982 831677 -45138 0
0 0 0 940 832617 -44198 0
0 0 0 938 833555 -43260 0
0 0 0 914 834469 -42346 0
0 0 0 903 835372 -41443 0
0 0 0 923 836295 -40520 0
0 0 0 885 837180 -39635 0
0 0 0 927 838107 -38708 0
0 0 0 894 839001 -37814 0
0 0 0 863 839864 -36951 0
0 0 0 810 840674 -36141 0
0 0 0 788 841462 -35353 0
0 0 0 734 842196 -34619 1
0 0 0 701 842897 -33918 1
0 0 0 683 843580 -33235 1
0 0 0 667 844247 -32568 1
0 0 0 654 844901 -31914 1
0 0 0 665 845566 -31249 1
0 0 0 720 846286 -30529 1
0 0 0 790 847076 -29739 0
0 0 0 836 847912 -28903 0
0 0 0 862 848774 -28041 0
0 0 0 881 849655 -27160 0
0 0 0 910 850565 -26250 0
0 0 0 901 851466 -25349 0
0 0 0 947 852413 -24402 0
0 0 0 972 853385 -23430 0
0 0 0 1056 854441 -22374 0
0 0 0 1024 855465 -21350 0
0 0 0 1053 856518 -20297 0
0 0 0 1025 857543 -19272 0
0 0 0 1041 858584 -18231 0
0 0 0 1056 859640 -17175 0
0 0 0 1074 860714 -16101 0
0 0 0 1111 861825 -14990 0
0 0 0 1094 862919 -13896 0
0 0 0 1118 864037 -12778 0
0 0 0 1100 865137 -11678 0
0 0 0 1085 866222 -10593 0
0 0 0 1106 867328 -9487 0
0 0 0 1098 868426 -8389 0
0 0 0 1063 869489 -7326 0
0 0 0 1058 870547 -6268 0
0 0 0 1080 871627 -5188 0
0 0 0 1150 872777 -4038 0
0 0 0 1090 873867 -2948 0
41 1 S102 1018 874885 -1930 0
41 1 S102 1024 875909 -906 0
41 2 S102 1004 876913 98 0
41 2 S102 1101 878014 1199 0
41 2 S102 1119 879133 2318 0
41 2 S102 1027 880160 3345 0
41 2 S102 961 881121 4306 0
41 2 S102 933 882054 5239 0
41 2 S102 969 883023 6208 0
0 0 0 954 883977 -8289 0
0 0 0 953 884930 -7336 0
0 0 0 921 885851 -6415 0
0 0 0 890 886741 -5525 0
0 0 0 868 887609 -4657 0
0 0 0 867 888476 -3790 0
0 0 0 909 889385 -2881 0
42 1 S112 922 890307 -1959 0
42 1 S112 927 891234 -1032 0
42 1 S112 907 892141 -125 0
42 2 S112 951 893092 826 0
42 2 S112 996 894088 1822 0
42 2 S112 1012 895100 2834 0
42 2 S112 1005 896105 3839 0
42 2 S112 1021 897126 4860 0
42 2 S112 1074 898200 5934 0
42 2 S112 1064 899264 6998 0
0 0 0 999 900263 -9310 0
0 0 0 951 901214 -8359 0
0 0 0 918 902132 -7441 0
0 0 0 939 903071 -6502 0
0 0 0 967 904038 -5535 0
0 0 0 947 904985 -4588 0
0 0 0 991 905976 -3597 0
0 0 0 1034 907010 -2563 0
43 1 S116 999 908009 -1564 0
43 1 S116 975 908984 -589 0
43 2 S116 1036 910020 447 0
43 2 S116 989 911009 1436 0
43 2 S116 981 911990 2417 0
43 2 S116 957 912947 3374 0
43 2 S116 1027 913974 4401 0
43 2 S116 1093 915067 5494 0
43 2 S116 1108 916175 6602 0
0 0 0 1078 917253 -7291 0
0 0 0 1011 918264 -6280 0
0 0 0 1060 919324 -5220 0
0 0 0 1037 920361 -4183 0
0 0 0 1007 921368 -3176 0
0 0 0 997 922365 -2179 0
44 1 S102 974 923339 -1205 0
44 1 S102 968 924307 -237 0
44 2 S102 1079 925386 842 0
44 2 S102 1021 926407 1863 0
44 2 S102 954 927361 2817 0
44 2 S102 931 928292 3748 0
44 2 S102 891 929183 4639 0
44 2 S102 900 930083 5539 0
44 2 S102 856 930939 6395 0
0 0 0 896 931835 -9519 0
0 0 0 922 932757 -8597 0
0 0 0 942 933699 -7655 0
0 0 0 986 934685 -6669 0
0 0 0 1035 935720 -5634 0
0 0 0 965 936685 -4669 0
0 0 0 956 937641 -3713 0
0 0 0 963 938604 -2750 0
45 1 S116 906 939510 -1844 0
45 1 S116 901 940411 -943 0
45 1 S116 906 941317 -37 0
45 2 S116 919 942236 882 0
45 2 S116 910 943146 1792 0
45 2 S116 992 944138 2784 0
45 2 S116 1013 945151 3797 0
45 2 S116 1023 946174 4820 0
45 2 S116 1034 947208 5854 0
45 2 S116 1089 948297 6943 0
0 0 0 1121 949418 -11532 0
0 0 0 1042 950460 -10490 0
0 0 0 978 951438 -9512 0
0 0 0 1043 952481 -8469 0
0 0 0 1022 953503 -7447 0
0 0 0 1031 954534 -6416 0
0 0 0 1019 955553 -5397 0
0 0 0 1029 956582 -4368 0
0 0 0 1054 957636 -3314 0
0 0 0 1032 958668 -2282 0
46 1 S102 1046 959714 -1236 0
46 1 S102 988 960702 -248 0
46 2 S102 1085 961787 837 0
46 2 S102 1101 962888 1938 0
46 2 S102 1067 963955 3005 0
46 2 S102 1065 965020 4070 0
46 2 S102 1071 966091 5141 0
46 2 S102 1086 967177 6227 0
0 0 0 1087 968264 -8336 0
0 0 0 1057 969321 -7279 0
0 0 0 1008 970329 -6271 0
0 0 0 924 971253 -5347 0
0 0 0 850 972103 -4497 0
0 0 0 842 972945 -3655 0
0 0 0 881 973826 -2774 0
47 1 S112 980 974806 -1794 0
47 1 S112 1006 975812 -788 0
47 2 S112 975 976787 187 0
47 2 S112 1005 977792 1192 0
47 2 S112 1067 978859 2259 0
47 2 S112 1050 979909 3309 0
47 2 S112 963 980872 4272 0
47 2 S112 912 981784 5184 0
47 2 S112 872 982656 6056 0
47 2 S112 860 983516 6916 0
0 0 0 833 984349 -11515 0
0 0 0 849 985198 -10666 0
0 0 0 882 986080 -9784 0
0 0 0 903 986983 -8881 0
0 0 0 837 987820 -8044 0
0 0 0 793 988613 -7251 0
0 0 0 884 989497 -6367 0
0 0 0 1015 990512 -5352 0
0 0 0 1004 991516 -4348 0
0 0 0 1041 992557 -3307 0
0 0 0 1025 993582 -2282 0
48 1 S116 1003 994585 -1279 0
48 1 S116 1009 995594 -270 0
48 2 S116 956 996550 686 0
48 2 S116 952 997502 1638 0
48 2 S116 1061 998563 2699 0
48 2 S116 1046 999609 3745 0
48 2 S116 1061 1000670 4806 0
48 2 S116 968 1001638 5774 0
48 2 S116 1043 1002681 6817 0
0 0 0 1039 1003720 -7761 0
0 0 0 1071 1004791 -6690 0
0 0 0 1082 1005873 -5608 0
0 0 0 1172 1007045 -4436 0
0 0 0 1128 1008173 -3308 0
0 0 0 1099 1009272 -2209 0
49 1 S112 1040 1010312 -1169 0
49 1 S112 985 1011297 -184 0
49 2 S112 957 1012254 773 0
49 2 S112 1076 1013330 1849 0
49 2 S112 1102 1014432 2951 0
49 2 S112 1072 1015504 4023 0
49 2 S112 1039 1016543 5062 0
49 2 S112 1032 1017575 6094 0
0 0 0 1110 1018685 -12425 0
0 0 0 1048 1019733 -11377 0
0 0 0 1030 1020763 -10347 0
0 0 0 1063 1021826 -9284 0
0 0 0 1064 1022890 -8220 0
0 0 0 1046 1023936 -7174 0
0 0 0 979 1024915 -6195 0
0 0 0 922 1025837 -5273 0
0 0 0 917 1026754 -4356 0
0 0 0 901 1027655 -3455 0
0 0 0 948 1028603 -2507 0
50 1 S106 952 1029555 -1555 0
50 1 S106 938 1030493 -617 0
50 2 S106 962 1031455 345 0
50 2 S106 953 1032408 1298 0
50 2 S106 940 1033348 2238 0
50 2 S106 917 1034265 3155 0
50 2 S106 880 1035145 4035 0
50 2 S106 829 1035974 4864 0
50 2 S106 789 1036763 5653 0
50 2 S106 785 1037548 6438 0
0 0 0 759 1038307 -7541 0
0 0 0 821 1039128 -6720 0
0 0 0 925 1040053 -5795 0
0 0 0 949 1041002 -4846 0
0 0 0 853 1041855 -3993 0
0 0 0 824 1042679 -3169 0
0 0 0 857 1043536 -2312 0
51 1 S112 897 1044433 -1415 0
51 1 S112 920 1045353 -495 0
51 2 S112 900 1046253 405 0
51 2 S112 929 1047182 1334 0
51 2 S112 996 1048178 2330 0
51 2 S112 1047 1049225 3377 0
51 2 S112 1065 1050290 4442 0
51 2 S112 1090 1051380 5532 0
51 2 S112 1114 1052494 6646 0
0 0 0 1152 1053646 -7487 0
0 0 0 1107 1054753 -6380 0
0 0 0 1080 1055833 -5300 0
0 0 0 1082 1056915 -4218 0
0 0 0 1091 1058006 -3127 0
0 0 0 1042 1059048 -2085 0
52 1 S116 1055 1060103 -1030 0
52 2 S116 1155 1061258 125 0
52 2 S116 1106 1062364 1231 0
52 2 S116 1113 1063477 2344 0
52 2 S116 1083 1064560 3427 0
52 2 S116 1100 1065660 4527 0
52 2 S116 1067 1066727 5594 0
52 2 S116 1022 1067749 6616 0
0 0 0 973 1068722 -8790 0
0 0 0 1051 1069773 -7739 0
0 0 0 1127 1070900 -6612 0
0 0 0 1078 1071978 -5534 0
0 0 0 1079 1073057 -4455 0
0 0 0 1029 1074086 -3426 0
0 0 0 1010 1075096 -2416 0
53 1 S106 945 1076041 -1471 0
53 1 S106 918 1076959 -553 0
53 2 S106 914 1077873 361 0
53 2 S106 955 1078828 1316 0
53 2 S106 1021 1079849 2337 0
53 2 S106 987 1080836 3324 0
53 2 S106 982 1081818 4306 0
53 2 S106 967 1082785 5273 0
53 2 S106 961 1083746 6234 0
0 0 0 943 1084689 -7761 0
0 0 0 908 1085597 -6853 0
0 0 0 902 1086499 -5951 0
0 0 0 935 1087434 -5016 0
0 0 0 972 1088406 -4044 0
0 0 0 1007 1089413 -3037 0
0 0 0 987 1090400 -2050 0
54 1 S102 1002 1091402 -1048 0
54 1 S102 1020 1092422 -28 0
54 2 S102 1057 1093479 1029 0
54 2 S102 1043 1094522 2072 0
54 2 S102 1061 1095583 3133 0
54 2 S102 1081 1096664 4214 0
54 2 S102 1164 1097828 5378 0
54 2 S102 1138 1098966 6516 0
0 0 0 1081 1100047 -11799 0
0 0 0 1009 1101056 -10790 0
0 0 0 1010 1102066 -9780 0
0 0 0 1085 1103151 -8695 0
0 0 0 1098 1104249 -7597 0
0 0 0 1043 1105292 -6554 0
0 0 0 1034 1106326 -5520 0
0 0 0 998 1107324 -4522 0
0 0 0 1041 1108365 -3481 0
0 0 0 1080 1109445 -2401 0
55 1 S106 1075 1110520 -1326 0
55 1 S106 1030 1111550 -296 0
55 2 S106 978 1112528 682 0
55 2 S106 1042 1113570 1724 0
55 2 S106 1059 1114629 2783 0
55 2 S106 1023 1115652 3806 0
55 2 S106 1000 1116652 4806 0
55 2 S106 1058 1117710 5864 0
55 2 S106 1072 1118782 6936 0
0 0 0 1074 1119856 -7027 0
0 0 0 1019 1120875 -6008 0
0 0 0 1014 1121889 -4994 0
0 0 0 1027 1122916 -3967 0
0 0 0 1050 1123966 -2917 0
56 1 S116 1032 1124998 -1885 0
56 1 S116 1031 1126029 -854 0
56 2 S116 1040 1127069 186 0
56 2 S116 1096 1128165 1282 0
56 2 S116 1136 1129301 2418 0
56 2 S116 1063 1130364 3481 0
56 2 S116 1017 1131381 4498 0
56 2 S116 1056 1132437 5554 0
56 2 S116 1072 1133509 6626 0
0 0 0 1058 1134567 -8414 0
0 0 0 1040 1135607 -7374 0
0 0 0 1081 1136688 -6293 0
0 0 0 1137 1137825 -5156 0
0 0 0 1089 1138914 -4067 0
0 0 0 1054 1139968 -3013 0
57 1 S106 1099 1141067 -1914 0
57 1 S106 1046 1142113 -868 0
57 2 S106 1045 1143158 177 0
57 2 S106 1034 1144192 1211 0
57 2 S106 1060 1145252 2271 0
57 2 S106 995 1146247 3266 0
57 2 S106 974 1147221 4240 0
57 2 S106 951 1148172 5191 0
57 2 S106 965 1149137 6156 0
0 0 0 1031 1150168 -10104 0
0 0 0 1022 1151190 -9082 0
0 0 0 975 1152165 -8107 0
0 0 0 1001 1153166 -7106 0
0 0 0 988 1154154 -6118 0
0 0 0 1012 1155166 -5106 0
0 0 0 968 1156134 -4138 0
0 0 0 965 1157099 -3173 0
0 0 0 937 1158036 -2236 0
58 1 S102 972 1159008 -1264 0
58 1 S102 1028 1160036 -236 0
58 2 S102 994 1161030 758 0
58 2 S102 994 1162024 1752 0
58 2 S102 1020 1163044 2772 0
58 2 S102 1101 1164145 3873 0
58 2 S102 1129 1165274 5002 0
58 2 S102 1048 1166322 6050 0
0 0 0 1038 1167360 -8280 0
0 0 0 1072 1168432 -7208 0
0 0 0 1066 1169498 -6142 0
0 0 0 1036 1170534 -5106 0
0 0 0 1008 1171542 -4098 0
0 0 0 971 1172513 -3127 0
0 0 0 889 1173402 -2238 0
59 1 S112 883 1174285 -1355 0
59 1 S112 869 1175154 -486 0
59 2 S112 848 1176002 362 0
59 2 S112 873 1176875 1235 0
59 2 S112 918 1177793 2153 0
59 2 S112 979 1178772 3132 0
59 2 S112 1011 1179783 4143 0
59 2 S112 987 1180770 5130 0
59 2 S112 960 1181730 6090 0
0 0 0 947 1182677 -10768 0
0 0 0 911 1183588 -9857 0
0 0 0 896 1184484 -8961 0
0 0 0 894 1185378 -8067 0
0 0 0 909 1186287 -7158 0
0 0 0 901 1187188 -6257 0
0 0 0 809 1187997 -5448 0
0 0 0 773 1188770 -4675 0
0 0 0 752 1189522 -3923 0
0 0 0 789 1190311 -3134 0
0 0 0 953 1191264 -2181 0
60 1 S102 968 1192232 -1213 0
60 1 S102 1014 1193246 -199 0
60 2 S102 1039 1194285 840 0
60 2 S102 996 1195281 1836 0
60 2 S102 963 1196244 2799 0
60 2 S102 945 1197189 3744 0
60 2 S102 932 1198121 4676 0
60 2 S102 950 1199071 5626 0
60 2 S102 930 1200001 6556 0
0 0 0 906 1200907 -13162 0
0 0 0 905 1201812 -12257 0
0 0 0 945 1202757 -11312 0
0 0 0 973 1203730 -10339 0
0 0 0 1054 1204784 -9285 0
0 0 0 1059 1205843 -8226 0
0 0 0 1019 1206862 -7207 0
0 0 0 1039 1207901 -6168 0
0 0 0 1071 1208972 -5097 0
0 0 0 1073 1210045 -4024 0
0 0 0 1104 1211149 -2920 0
61 1 S106 1117 1212266 -1803 0
61 1 S106 1100 1213366 -703 0
61 2 S106 1084 1214450 381 0
61 2 S106 1062 1215512 1443 0
61 2 S106 1072 1216584 2515 0
61 2 S106 1048 1217632 3563 0
61 2 S106 1089 1218721 4652 0
61 2 S106 1043 1219764 5695 0
61 2 S106 973 1220737 6668 0
0 0 0 970 1221707 -8144 0
0 0 0 1032 1222739 -7112 0
0 0 0 1034 1223773 -6078 0
0 0 0 1069 1224842 -5009 0
0 0 0 1024 1225866 -3985 0
0 0 0 963 1226829 -3022 0
0 0 0 935 1227764 -2087 0
62 1 S112 879 1228643 -1208 0
62 1 S112 894 1229537 -314 0
62 2 S112 1002 1230539 688 0
62 2 S112 1087 1231626 1775 0
62 2 S112 1096 1232722 2871 0
62 2 S112 1079 1233801 3950 0
62 2 S112 1106 1234907 5056 0
62 2 S112 1089 1235996 6145 0
0 0 0 1030 1237026 -12040 0
0 0 0 986 1238012 -11054 0
0 0 0 944 1238956 -10110 0
0 0 0 953 1239909 -9157 0
0 0 0 917 1240826 -8240 0
0 0 0 902 1241728 -7338 0
0 0 0 905 1242633 -6433 0
0 0 0 915 1243548 -5518 0
0 0 0 922 1244470 -4596 0
0 0 0 1018 1245488 -3578 0
0 0 0 1018 1246506 -2560 0
63 1 S102 1037 1247543 -1523 0
63 1 S102 1052 1248595 -471 0
63 2 S102 1037 1249632 566 0
63 2 S102 1052 1250684 1618 0
63 2 S102 1025 1251709 2643 0
63 2 S102 1018 1252727 3661 0
63 2 S102 1036 1253763 4697 0
63 2 S102 1040 1254803 5737 0
63 2 S102 1016 1255819 6753 0
0 0 0 983 1256802 -10301 0
0 0 0 998 1257800 -9303 0
0 0 0 1057 1258857 -8246 0
0 0 0 1065 1259922 -7181 0
0 0 0 1038 1260960 -6143 0
0 0 0 1013 1261973 -5130 0
0 0 0 978 1262951 -4152 0
0 0 0 941 1263892 -3211 0
0 0 0 941 1264833 -2270 0
64 1 S112 1006 1265839 -1264 0
64 1 S112 1053 1266892 -211 0
64 2 S112 1045 1267937 834 0
64 2 S112 1040 1268977 1874 0
64 2 S112 1070 1270047 2944 0
64 2 S112 1041 1271088 3985 0
64 2 S112 1004 1272092 4989 0
64 2 S112 1021 1273113 6010 0
64 2 S112 1015 1274128 7025 0
0 0 0 1027 1275155 -7167 0
0 0 0 1018 1276173 -6149 0
0 0 0 1023 1277196 -5126 0
0 0 0 1031 1278227 -4095 0
0 0 0 1006 1279233 -3089 0
0 0 0 994 1280227 -2095 0
65 1 S106 1010 1281237 -1085 0
65 1 S106 982 1282219 -103 0
65 2 S106 996 1283215 893 0
65 2 S106 1053 1284268 1946 0
65 2 S106 1071 1285339 3017 0
65 2 S106 1121 1286460 4138 0
65 2 S106 1061 1287521 5199 0
65 2 S106 1022 1288543 6221 0
0 0 0 970 1289513 -7663 0
0 0 0 1044 1290557 -6619 0
0 0 0 1051 1291608 -5568 0
0 0 0 1055 1292663 -4513 0
0 0 0 996 1293659 -3517 0
0 0 0 982 1294641 -2535 0
66 1 S116 1030 1295671 -1505 0
66 1 S116 1010 1296681 -495 0
66 2 S116 1016 1297697 521 0
66 2 S116 1065 1298762 1586 0
66 2 S116 1075 1299837 2661 0
66 2 S116 1045 1300882 3706 0
66 2 S116 1002 1301884 4708 0
66 2 S116 992 1302876 5700 0
66 2 S116 1030 1303906 6730 0
0 0 0 1049 1304955 -10374 0
0 0 0 1060 1306015 -9314 0
0 0 0 1035 1307050 -8279 0
0 0 0 966 1308016 -7313 0
0 0 0 969 1308985 -6344 0
0 0 0 969 1309954 -5375 0
0 0 0 979 1310933 -4396 0
0 0 0 1050 1311983 -3346 0
0 0 0 1019 1313002 -2327 0
67 1 S102 1091 1314093 -1236 0
67 1 S102 1092 1315185 -144 0
67 2 S102 1051 1316236 907 0
67 2 S102 1051 1317287 1958 0
67 2 S102 1037 1318324 2995 0
67 2 S102 1021 1319345 4016 0
67 2 S102 1008 1320353 5024 0
67 2 S102 979 1321332 6003 0
67 2 S102 995 1322327 6998 0
0 0 0 1063 1323390 -8568 0
0 0 0 1056 1324446 -7512 0
0 0 0 1019 1325465 -6493 0
0 0 0 1004 1326469 -5489 0
0 0 0 1093 1327562 -4396 0
0 0 0 1075 1328637 -3321 0
0 0 0 1043 1329680 -2278 0
68 1 S106 1033 1330713 -1245 0
68 1 S106 1046 1331759 -199 0
68 2 S106 1015 1332774 816 0
68 2 S106 1040 1333814 1856 0
68 2 S106 1058 1334872 2914 0
68 2 S106 1010 1335882 3924 0
68 2 S106 994 1336876 4918 0
68 2 S106 1022 1337898 5940 0
68 2 S106 1002 1338900 6942 0
0 0 0 1007 1339907 -10436 0
0 0 0 968 1340875 -9468 0
0 0 0 1009 1341884 -8459 0
0 0 0 1029 1342913 -7430 0
0 0 0 1001 1343914 -6429 0
0 0 0 1016 1344930 -5413 0
0 0 0 1046 1345976 -4367 0
0 0 0 1037 1347013 -3330 0
0 0 0 1005 1348018 -2325 0
69 1 S102 995 1349013 -1330 0
69 1 S102 1034 1350047 -296 0
69 2 S102 987 1351034 691 0
69 2 S102 1017 1352051 1708 0
69 2 S102 1015 1353066 2723 0
69 2 S102 1073 1354139 3796 0
69 2 S102 1096 1355235 4892 0
69 2 S102 1055 1356290 5947 0
69 2 S102 1033 1357323 6980 0
0 0 0 1044 1358367 -8654 0
0 0 0 1051 1359418 -7603 0
0 0 0 1018 1360436 -6585 0
0 0 0 932 1361368 -5653 0
0 0 0 926 1362294 -4727 0
0 0 0 987 1363281 -3740 0
0 0 0 1007 1364288 -2733 0
70 1 S112 952 1365240 -1781 0
70 1 S112 949 1366189 -832 0
70 2 S112 926 1367115 94 0
70 2 S112 985 1368100 1079 0
70 2 S112 1077 1369177 2156 0
70 2 S112 1039 1370216 3195 0
70 2 S112 1002 1371218 4197 0
70 2 S112 1003 1372221 5200 0
70 2 S112 1032 1373253 6232 0
0 0 0 1036 1374289 -11548 0
0 0 0 1010 1375299 -10538 0
0 0 0 1022 1376321 -9516 0
0 0 0 1032 1377353 -8484 0
0 0 0 1003 1378356 -7481 0
0 0 0 995 1379351 -6486 0
0 0 0 990 1380341 -5496 0
0 0 0 1021 1381362 -4475 0
0 0 0 1063 1382425 -3412 0
0 0 0 1019 1383444 -2393 0
71 1 S116 997 1384441 -1396 0
71 1 S116 991 1385432 -405 0
71 2 S116 962 1386394 557 0
71 2 S116 942 1387336 1499 0
71 2 S116 952 1388288 2451 0
71 2 S116 950 1389238 3401 0
71 2 S116 974 1390212 4375 0
71 2 S116 946 1391158 5321 0
71 2 S116 976 1392134 6297 0
0 0 0 1019 1393153 -9578 0
0 0 0 1034 1394187 -8544 0
0 0 0 1058 1395245 -7486 0
0 0 0 1078 1396323 -6408 0
0 0 0 1033 1397356 -5375 0
0 0 0 1039 1398395 -4336 0
0 0 0 1009 1399404 -3327 0
0 0 0 985 1400389 -2342 0
72 1 S102 1014 1401403 -1328 0
72 1 S102 1013 1402416 -315 0
72 2 S102 1032 1403448 717 0
72 2 S102 1060 1404508 1777 0
72 2 S102 1073 1405581 2850 0
72 2 S102 1056 1406637 3906 0
72 2 S102 1038 1407675 4944 0
72 2 S102 1000 1408675 5944 0
72 2 S102 1072 1409747 7016 0
0 0 0 1102 1410849 -6951 0
0 0 0 1061 1411910 -5890 0
0 0 0 1058 1412968 -4832 0
0 0 0 1022 1413990 -3810 0
0 0 0 1012 1415002 -2798 0
73 1 S116 993 1415995 -1805 0
73 1 S116 994 1416989 -811 0
73 2 S116 1030 1418019 219 0
73 2 S116 1029 1419048 1248 0
73 2 S116 1086 1420134 2334 0
73 2 S116 1077 1421211 3411 0
73 2 S116 1113 1422324 4524 0
73 2 S116 1074 1423398 5598 0
73 2 S116 1082 1424480 6680 0
0 0 0 1080 1425560 -9780 0
0 0 0 1057 1426617 -8723 0
0 0 0 1061 1427678 -7662 0
0 0 0 1090 1428768 -6572 0
0 0 0 1048 1429816 -5524 0
0 0 0 1046 1430862 -4478 0
0 0 0 1020 1431882 -3458 0
0 0 0 1061 1432943 -2397 0
74 1 S106 1056 1433999 -1341 0
74 1 S106 1058 1435057 -283 0
74 2 S106 1040 1436097 757 0
74 2 S106 1003 1437100 1760 0
74 2 S106 962 1438062 2722 0
74 2 S106 958 1439020 3680 0
74 2 S106 970 1439990 4650 0
74 2 S106 965 1440955 5615 0
74 2 S106 962 1441917 6577 0
0 0 0 928 1442845 -8328 0
0 0 0 965 1443810 -7363 0
0 0 0 1009 1444819 -6354 0
0 0 0 1058 1445877 -5296 0
0 0 0 1051 1446928 -4245 0
0 0 0 990 1447918 -3255 0
0 0 0 916 1448834 -2339 0
75 1 S112 853 1449687 -1486 0
75 1 S112 821 1450508 -665 0
75 2 S112 831 1451339 166 0
75 2 S112 867 1452206 1033 0
75 2 S112 971 1453177 2004 0
75 2 S112 1023 1454200 3027 0
75 2 S112 1044 1455244 4071 0
75 2 S112 1024 1456268 5095 0
75 2 S112 1003 1457271 6098 0
0 0 0 985 1458256 -7589 0
0 0 0 958 1459214 -6631 0
0 0 0 925 1460139 -5706 0
0 0 0 927 1461066 -4779 0
0 0 0 912 1461978 -3867 0
0 0 0 919 1462897 -2948 0
76 1 S116 955 1463852 -1993 0
76 1 S116 972 1464824 -1021 0
76 1 S116 996 1465820 -25 0
76 2 S116 1026 1466846 1001 0
76 2 S116 1052 1467898 2053 0
76 2 S116 1085 1468983 3138 0
76 2 S116 1040 1470023 4178 0
76 2 S116 1010 1471033 5188 0
76 2 S116 986 1472019 6174 0
0 0 0 983 1473002 -7597 0
0 0 0 998 1474000 -6599 0
0 0 0 1041 1475041 -5558 0
0 0 0 1102 1476143 -4456 0
0 0 0 1014 1477157 -3442 0
0 0 0 963 1478120 -2479 0
77 1 S106 995 1479115 -1484 0
77 1 S106 991 1480106 -493 0
77 2 S106 904 1481010 411 0
77 2 S106 879 1481889 1290 0
77 2 S106 822 1482711 2112 0
77 2 S106 840 1483551 2952 0
77 2 S106 915 1484466 3867 0
77 2 S106 1047 1485513 4914 0
77 2 S106 1062 1486575 5976 0
77 2 S106 1013 1487588 6989 0
0 0 0 974 1488562 -8798 0
0 0 0 970 1489532 -7828 0
0 0 0 990 1490522 -6838 0
0 0 0 955 1491477 -5883 0
0 0 0 911 1492388 -4972 0
0 0 0 905 1493293 -4067 0
0 0 0 911 1494204 -3156 0
0 0 0 921 1495125 -2235 0
78 1 S112 933 1496058 -1302 0
78 1 S112 1013 1497071 -289 0
78 2 S112 1025 1498096 736 0
78 2 S112 1051 1499147 1787 0
78 2 S112 1099 1500246 2886 0
78 2 S112 1106 1501352 3992 0
78 2 S112 1099 1502451 5091 0
78 2 S112 1080 1503531 6171 0
0 0 0 1065 1504596 -11929 0
0 0 0 1062 1505658 -10867 0
0 0 0 1052 1506710 -9815 0
0 0 0 1070 1507780 -8745 0
0 0 0 1032 1508812 -7713 0
0 0 0 1032 1509844 -6681 0
0 0 0 1057 1510901 -5624 0
0 0 0 1026 1511927 -4598 0
0 0 0 1008 1512935 -3590 0
0 0 0 990 1513925 -2600 0
79 1 S102 979 1514904 -1621 0
79 1 S102 966 1515870 -655 0
79 2 S102 975 1516845 320 0
79 2 S102 968 1517813 1288 0
79 2 S102 992 1518805 2280 0
79 2 S102 1018 1519823 3298 0
79 2 S102 1019 1520842 4317 0
79 2 S102 999 1521841 5316 0
79 2 S102 967 1522808 6283 0
0 0 0 971 1523779 -10137 0
0 0 0 982 1524761 -9155 0
0 0 0 993 1525754 -8162 0
0 0 0 998 1526752 -7164 0
0 0 0 983 1527735 -6181 0
0 0 0 968 1528703 -5213 0
0 0 0 920 1529623 -4293 0
0 0 0 956 1530579 -3337 0
0 0 0 1003 1531582 -2334 0
80 1 S116 988 1532570 -1346 0
80 1 S116 993 1533563 -353 0
80 2 S116 978 1534541 625 0
80 2 S116 1032 1535573 1657 0
80 2 S116 1048 1536621 2705 0
80 2 S116 1075 1537696 3780 0
80 2 S116 1076 1538772 4856 0
80 2 S116 1075 1539847 5931 0
80 2 S116 1074 1540921 7005 0
