T_0078
BeatCount Mean SD BeatCountNoOutliers MeanNoOutliers SDNoOutliers
2180 766,685321100917 49,3327303030492 2143 767,252916472235 45,5730568396944

Trial TrialStatus Trialtype IBI AbsPosition RelPosition Outlier
0 0 0 699 1301 -15558 0
0 0 0 699 2000 -14859 0
0 0 0 717 2717 -14142 0
0 0 0 751 3468 -13391 0
0 0 0 752 4220 -12639 0
0 0 0 721 4941 -11918 0
0 0 0 765 5706 -11153 0
0 0 0 803 6509 -10350 0
0 0 0 790 7299 -9560 0
0 0 0 797 8096 -8763 0
0 0 0 776 8872 -7987 0
0 0 0 737 9609 -7250 0
0 0 0 724 10333 -6526 0
0 0 0 742 11075 -5784 0
0 0 0 758 11833 -5026 0
0 0 0 792 12625 -4234 0
0 0 0 794 13419 -3440 0
0 0 0 777 14196 -2663 0
1 1 S112 816 15012 -1847 0
1 1 S112 830 15842 -1017 0
1 1 S112 823 16665 -194 0
1 2 S112 774 17439 580 0
1 2 S112 792 18231 1372 0
1 2 S112 789 19020 2161 0
1 2 S112 790 19810 2951 0
1 2 S112 750 20560 3701 0
1 2 S112 723 21283 4424 0
1 2 S112 724 22007 5148 0
1 2 S112 740 22747 5888 0
1 2 S112 782 23529 6670 0
0 0 0 834 24363 -10982 0
0 0 0 844 25207 -10138 0
0 0 0 829 26036 -9309 0
0 0 0 813 26849 -8496 0
0 0 0 779 27628 -7717 0
0 0 0 749 28377 -6968 0
0 0 0 742 29119 -6226 0
0 0 0 754 29873 -5472 0
0 0 0 743 30616 -4729 0
0 0 0 726 31342 -4003 0
0 0 0 712 32054 -3291 0
0 0 0 729 32783 -2562 0
2 1 S102 745 33528 -1817 0
2 1 S102 769 34297 -1048 0
2 1 S102 744 35041 -304 0
2 2 S102 729 35770 425 0
2 2 S102 759 36529 1184 0
2 2 S102 791 37320 1975 0
2 2 S102 812 38132 2787 0
2 2 S102 808 38940 3595 0
2 2 S102 771 39711 4366 0
2 2 S102 789 40500 5155 0
2 2 S102 790 41290 5945 0
2 2 S102 783 42073 6728 0
0 0 0 750 42823 -8072 0
0 0 0 751 43574 -7321 0
0 0 0 750 44324 -6571 0
0 0 0 726 45050 -5845 0
0 0 0 702 45752 -5143 0
0 0 0 702 46454 -4441 0
0 0 0 718 47172 -3723 0
0 0 0 741 47913 -2982 0
0 0 0 774 48687 -2208 0
3 1 S116 767 49454 -1441 0
3 1 S116 812 50266 -629 0
3 2 S116 816 51082 187 0
3 2 S116 810 51892 997 0
3 2 S116 775 52667 1772 0
3 2 S116 802 53469 2574 0
3 2 S116 804 54273 3378 0
3 2 S116 791 55064 4169 0
3 2 S116 769 55833 4938 0
3 2 S116 785 56618 5723 0
3 2 S116 797 57415 6520 0
0 0 0 810 58225 -10525 0
0 0 0 783 59008 -9742 0
0 0 0 806 59814 -8936 0
0 0 0 783 60597 -8153 0
0 0 0 782 61379 -7371 0
0 0 0 758 62137 -6613 0
0 0 0 770 62907 -5843 0
0 0 0 770 63677 -5073 0
0 0 0 772 64449 -4301 0
0 0 0 747 65196 -3554 0
0 0 0 751 65947 -2803 0
0 0 0 790 66737 -2013 0
4 1 S106 811 67548 -1202 0
4 1 S106 835 68383 -367 0
4 2 S106 795 69178 428 0
4 2 S106 799 69977 1227 0
4 2 S106 800 70777 2027 0
4 2 S106 802 71579 2829 0
4 2 S106 759 72338 3588 0
4 2 S106 766 73104 4354 0
4 2 S106 784 73888 5138 0
4 2 S106 784 74672 5922 0
4 2 S106 769 75441 6691 0
0 0 0 777 76218 -6342 0
0 0 0 813 77031 -5529 0
0 0 0 817 77848 -4712 0
0 0 0 783 78631 -3929 0
0 0 0 745 79376 -3184 0
0 0 0 755 80131 -2429 0
5 1 S116 768 80899 -1661 0
5 1 S116 781 81680 -880 0
5 1 S116 756 82436 -124 0
5 2 S116 762 83198 638 0
5 2 S116 780 83978 1418 0
5 2 S116 804 84782 2222 0
5 2 S116 814 85596 3036 0
5 2 S116 779 86375 3815 0
5 2 S116 792 87167 4607 0
5 2 S116 805 87972 5412 0
5 2 S116 796 88768 6208 0
5 2 S116 772 89540 6980 0
0 0 0 775 90315 -7846 0
0 0 0 788 91103 -7058 0
0 0 0 782 91885 -6276 0
0 0 0 781 92666 -5495 0
0 0 0 749 93415 -4746 0
0 0 0 769 94184 -3977 0
0 0 0 781 94965 -3196 0
0 0 0 804 95769 -2392 0
6 1 S106 775 96544 -1617 0
6 1 S106 754 97298 -863 0
6 1 S106 766 98064 -97 0
6 2 S106 785 98849 688 0
6 2 S106 797 99646 1485 0
6 2 S106 787 100433 2272 0
6 2 S106 767 101200 3039 0
6 2 S106 800 102000 3839 0
6 2 S106 811 102811 4650 0
6 2 S106 816 103627 5466 0
6 2 S106 779 104406 6245 0
0 0 0 789 105195 -10058 0
0 0 0 799 105994 -9259 0
0 0 0 795 106789 -8464 0
0 0 0 751 107540 -7713 0
0 0 0 746 108286 -6967 0
0 0 0 755 109041 -6212 0
0 0 0 759 109800 -5453 0
0 0 0 766 110566 -4687 0
0 0 0 748 111314 -3939 0
0 0 0 761 112075 -3178 0
0 0 0 784 112859 -2394 0
7 1 S102 775 113634 -1619 0
7 1 S102 795 114429 -824 0
7 1 S102 762 115191 -62 0
7 2 S102 769 115960 707 0
7 2 S102 801 116761 1508 0
7 2 S102 797 117558 2305 0
7 2 S102 775 118333 3080 0
7 2 S102 772 119105 3852 0
7 2 S102 777 119882 4629 0
7 2 S102 772 120654 5401 0
7 2 S102 746 121400 6147 0
7 2 S102 743 122143 6890 0
0 0 0 753 122896 -8073 0
0 0 0 768 123664 -7305 0
0 0 0 769 124433 -6536 0
0 0 0 747 125180 -5789 0
0 0 0 751 125931 -5038 0
0 0 0 763 126694 -4275 0
0 0 0 769 127463 -3506 0
0 0 0 777 128240 -2729 0
8 1 S112 753 128993 -1976 0
8 1 S112 765 129758 -1211 0
8 1 S112 791 130549 -420 0
8 2 S112 814 131363 394 0
8 2 S112 825 132188 1219 0
8 2 S112 786 132974 2005 0
8 2 S112 776 133750 2781 0
8 2 S112 786 134536 3567 0
8 2 S112 801 135337 4368 0
8 2 S112 779 136116 5147 0
8 2 S112 773 136889 5920 0
8 2 S112 793 137682 6713 0
0 0 0 801 138483 -6131 0
0 0 0 767 139250 -5364 0
0 0 0 739 139989 -4625 0
0 0 0 734 140723 -3891 0
0 0 0 743 141466 -3148 0
0 0 0 745 142211 -2403 0
9 1 S116 744 142955 -1659 0
9 1 S116 748 143703 -911 0
9 1 S116 748 144451 -163 0
9 2 S116 757 145208 594 0
9 2 S116 765 145973 1359 0
9 2 S116 762 146735 2121 0
9 2 S116 790 147525 2911 0
9 2 S116 795 148320 3706 0
9 2 S116 797 149117 4503 0
9 2 S116 758 149875 5261 0
9 2 S116 756 150631 6017 0
9 2 S116 771 151402 6788 0
0 0 0 771 152173 -10030 0
0 0 0 752 152925 -9278 0
0 0 0 739 153664 -8539 0
0 0 0 741 154405 -7798 0
0 0 0 736 155141 -7062 0
0 0 0 734 155875 -6328 0
0 0 0 717 156592 -5611 0
0 0 0 720 157312 -4891 0
0 0 0 743 158055 -4148 0
0 0 0 774 158829 -3374 0
0 0 0 800 159629 -2574 0
10 1 S102 782 160411 -1792 0
10 1 S102 788 161199 -1004 0
10 1 S102 814 162013 -190 0
10 2 S102 808 162821 618 0
10 2 S102 802 163623 1420 0
10 2 S102 766 164389 2186 0
10 2 S102 779 165168 2965 0
10 2 S102 784 165952 3749 0
10 2 S102 798 166750 4547 0
10 2 S102 771 167521 5318 0
10 2 S102 781 168302 6099 0
10 2 S102 779 169081 6878 0
0 0 0 781 169862 -9600 0
0 0 0 776 170638 -8824 0
0 0 0 750 171388 -8074 0
0 0 0 758 172146 -7316 0
0 0 0 760 172906 -6556 0
0 0 0 766 173672 -5790 0
0 0 0 743 174415 -5047 0
0 0 0 751 175166 -4296 0
0 0 0 752 175918 -3544 0
0 0 0 756 176674 -2788 0
0 0 0 737 177411 -2051 0
11 1 S112 742 178153 -1309 0
11 1 S112 768 178921 -541 0
11 2 S112 797 179718 256 0
11 2 S112 793 180511 1049 0
11 2 S112 769 181280 1818 0
11 2 S112 795 182075 2613 0
11 2 S112 814 182889 3427 0
11 2 S112 800 183689 4227 0
11 2 S112 777 184466 5004 0
11 2 S112 801 185267 5805 0
11 2 S112 805 186072 6610 0
0 0 0 804 186876 -6445 0
0 0 0 776 187652 -5669 0
0 0 0 807 188459 -4862 0
0 0 0 781 189240 -4081 0
0 0 0 764 190004 -3317 0
0 0 0 733 190737 -2584 0
12 1 S116 736 191473 -1848 0
12 1 S116 747 192220 -1101 0
12 1 S116 772 192992 -329 0
12 2 S116 785 193777 456 0
12 2 S116 761 194538 1217 0
12 2 S116 805 195343 2022 0
12 2 S116 815 196158 2837 0
12 2 S116 819 196977 3656 0
12 2 S116 781 197758 4437 0
12 2 S116 792 198550 5229 0
12 2 S116 796 199346 6025 0
12 2 S116 799 200145 6824 0
0 0 0 757 200902 -9926 0
0 0 0 777 201679 -9149 0
0 0 0 774 202453 -8375 0
0 0 0 767 203220 -7608 0
0 0 0 736 203956 -6872 0
0 0 0 725 204681 -6147 0
0 0 0 709 205390 -5438 0
0 0 0 694 206084 -4744 0
0 0 0 695 206779 -4049 0
0 0 0 693 207472 -3356 0
0 0 0 702 208174 -2654 0
13 1 S112 721 208895 -1933 0
13 1 S112 747 209642 -1186 0
13 1 S112 744 210386 -442 0
13 2 S112 724 211110 282 0
13 2 S112 731 211841 1013 0
13 2 S112 737 212578 1750 0
13 2 S112 734 213312 2484 0
13 2 S112 702 214014 3186 0
13 2 S112 682 214696 3868 0
13 2 S112 673 215369 4541 0
13 2 S112 675 216044 5216 0
13 2 S112 698 216742 5914 0
13 2 S112 785 217527 6699 0
0 0 0 811 218338 -9964 0
0 0 0 806 219144 -9158 0
0 0 0 827 219971 -8331 0
0 0 0 827 220798 -7504 0
0 0 0 803 221601 -6701 0
0 0 0 798 222399 -5903 0
0 0 0 790 223189 -5113 0
0 0 0 784 223973 -4329 0
0 0 0 742 224715 -3587 0
0 0 0 745 225460 -2842 0
0 0 0 742 226202 -2100 0
14 1 S106 744 226946 -1356 0
14 1 S106 735 227681 -621 0
14 2 S106 724 228405 103 0
14 2 S106 733 229138 836 0
14 2 S106 753 229891 1589 0
14 2 S106 766 230657 2355 0
14 2 S106 756 231413 3111 0
14 2 S106 752 232165 3863 0
14 2 S106 769 232934 4632 0
14 2 S106 795 233729 5427 0
14 2 S106 800 234529 6227 0
14 2 S106 779 235308 7006 0
0 0 0 808 236116 -9693 0
0 0 0 839 236955 -8854 0
0 0 0 817 237772 -8037 0
0 0 0 769 238541 -7268 0
0 0 0 770 239311 -6498 0
0 0 0 762 240073 -5736 0
0 0 0 754 240827 -4982 0
0 0 0 728 241555 -4254 0
0 0 0 700 242255 -3554 0
0 0 0 683 242938 -2871 0
0 0 0 688 243626 -2183 0
15 1 S116 701 244327 -1482 0
15 1 S116 734 245061 -748 0
15 2 S116 778 245839 30 0
15 2 S116 824 246663 854 0
15 2 S116 801 247464 1655 0
15 2 S116 823 248287 2478 0
15 2 S116 846 249133 3324 0
15 2 S116 842 249975 4166 0
15 2 S116 797 250772 4963 0
15 2 S116 807 251579 5770 0
15 2 S116 806 252385 6576 0
0 0 0 796 253181 -8411 0
0 0 0 759 253940 -7652 0
0 0 0 768 254708 -6884 0
0 0 0 768 255476 -6116 0
0 0 0 750 256226 -5366 0
0 0 0 722 256948 -4644 0
0 0 0 706 257654 -3938 0
0 0 0 705 258359 -3233 0
0 0 0 721 259080 -2512 0
16 1 S116 768 259848 -1744 0
16 1 S116 825 260673 -919 0
16 1 S116 855 261528 -64 0
16 2 S116 811 262339 747 0
16 2 S116 832 263171 1579 0
16 2 S116 826 263997 2405 0
16 2 S116 813 264810 3218 0
16 2 S116 780 265590 3998 0
16 2 S116 788 266378 4786 0
16 2 S116 784 267162 5570 0
16 2 S116 781 267943 6351 0
0 0 0 749 268692 -7953 0
0 0 0 753 269445 -7200 0
0 0 0 760 270205 -6440 0
0 0 0 755 270960 -5685 0
0 0 0 742 271702 -4943 0
0 0 0 721 272423 -4222 0
0 0 0 736 273159 -3486 0
0 0 0 752 273911 -2734 0
17 1 S106 773 274684 -1961 0
17 1 S106 778 275462 -1183 0
17 1 S106 762 276224 -421 0
17 2 S106 800 277024 379 0
17 2 S106 823 277847 1202 0
17 2 S106 819 278666 2021 0
17 2 S106 791 279457 2812 0
17 2 S106 797 280254 3609 0
17 2 S106 805 281059 4414 0
17 2 S106 783 281842 5197 0
17 2 S106 741 282583 5938 0
17 2 S106 744 283327 6682 0
0 0 0 742 284069 -11094 0
0 0 0 768 284837 -10326 0
0 0 0 792 285629 -9534 0
0 0 0 782 286411 -8752 0
0 0 0 776 287187 -7976 0
0 0 0 780 287967 -7196 0
0 0 0 772 288739 -6424 0
0 0 0 746 289485 -5678 0
0 0 0 766 290251 -4912 0
0 0 0 788 291039 -4124 0
0 0 0 799 291838 -3325 0
0 0 0 782 292620 -2543 0
18 1 S102 781 293401 -1762 0
18 1 S102 791 294192 -971 0
18 1 S102 796 294988 -175 0
18 2 S102 755 295743 580 0
18 2 S102 723 296466 1303 0
18 2 S102 727 297193 2030 0
18 2 S102 740 297933 2770 0
18 2 S102 771 298704 3541 0
18 2 S102 803 299507 4344 0
18 2 S102 792 300299 5136 0
18 2 S102 803 301102 5939 0
18 2 S102 820 301922 6759 0
0 0 0 845 302767 -6173 0
0 0 0 824 303591 -5349 0
0 0 0 818 304409 -4531 0
0 0 0 798 305207 -3733 0
0 0 0 781 305988 -2952 0
0 0 0 747 306735 -2205 0
19 1 S106 739 307474 -1466 0
19 1 S106 724 308198 -742 0
19 1 S106 725 308923 -17 0
19 2 S106 744 309667 727 0
19 2 S106 731 310398 1458 0
19 2 S106 760 311158 2218 0
19 2 S106 786 311944 3004 0
19 2 S106 803 312747 3807 0
19 2 S106 791 313538 4598 0
19 2 S106 817 314355 5415 0
19 2 S106 842 315197 6257 0
0 0 0 835 316032 -10149 0
0 0 0 800 316832 -9349 0
0 0 0 807 317639 -8542 0
0 0 0 797 318436 -7745 0
0 0 0 777 319213 -6968 0
0 0 0 731 319944 -6237 0
0 0 0 702 320646 -5535 0
0 0 0 705 321351 -4830 0
0 0 0 716 322067 -4114 0
0 0 0 739 322806 -3375 0
0 0 0 759 323565 -2616 0
20 1 S112 749 324314 -1867 0
20 1 S112 754 325068 -1113 0
20 1 S112 766 325834 -347 0
20 2 S112 734 326568 387 0
20 2 S112 728 327296 1115 0
20 2 S112 752 328048 1867 0
20 2 S112 738 328786 2605 0
20 2 S112 761 329547 3366 0
20 2 S112 779 330326 4145 0
20 2 S112 777 331103 4922 0
20 2 S112 763 331866 5685 0
20 2 S112 790 332656 6475 0
0 0 0 793 333449 -8648 0
0 0 0 801 334250 -7847 0
0 0 0 762 335012 -7085 0
0 0 0 768 335780 -6317 0
0 0 0 768 336548 -5549 0
0 0 0 771 337319 -4778 0
0 0 0 752 338071 -4026 0
0 0 0 748 338819 -3278 0
0 0 0 769 339588 -2509 0
21 1 S106 801 340389 -1708 0
21 1 S106 827 341216 -881 0
21 1 S106 815 342031 -66 0
21 2 S106 785 342816 719 0
21 2 S106 797 343613 1516 0
21 2 S106 801 344414 2317 0
21 2 S106 765 345179 3082 0
21 2 S106 766 345945 3848 0
21 2 S106 783 346728 4631 0
21 2 S106 796 347524 5427 0
21 2 S106 811 348335 6238 0
21 2 S106 775 349110 7013 0
0 0 0 813 349923 -9880 0
0 0 0 820 350743 -9060 0
0 0 0 818 351561 -8242 0
0 0 0 763 352324 -7479 0
0 0 0 746 353070 -6733 0
0 0 0 747 353817 -5986 0
0 0 0 755 354572 -5231 0
0 0 0 762 355334 -4469 0
0 0 0 751 356085 -3718 0
0 0 0 758 356843 -2960 0
0 0 0 784 357627 -2176 0
22 1 S116 778 358405 -1398 0
22 1 S116 754 359159 -644 0
22 2 S116 731 359890 87 0
22 2 S116 725 360615 812 0
22 2 S116 714 361329 1526 0
22 2 S116 702 362031 2228 0
22 2 S116 698 362729 2926 0
22 2 S116 705 363434 3631 0
22 2 S116 722 364156 4353 0
22 2 S116 738 364894 5091 0
22 2 S116 734 365628 5825 0
22 2 S116 753 366381 6578 0
0 0 0 752 367133 -8370 0
0 0 0 742 367875 -7628 0
0 0 0 715 368590 -6913 0
0 0 0 707 369297 -6206 0
0 0 0 708 370005 -5498 0
0 0 0 706 370711 -4792 0
0 0 0 706 371417 -4086 0
0 0 0 697 372114 -3389 0
0 0 0 683 372797 -2706 0
0 0 0 684 373481 -2022 0
23 1 S112 694 374175 -1328 0
23 1 S112 727 374902 -601 0
23 2 S112 788 375690 187 0
23 2 S112 799 376489 986 0
23 2 S112 744 377233 1730 0
23 2 S112 747 377980 2477 0
23 2 S112 747 378727 3224 0
23 2 S112 773 379500 3997 0
23 2 S112 800 380300 4797 0
23 2 S112 792 381092 5589 0
23 2 S112 757 381849 6346 0
0 0 0 760 382609 -8759 0
0 0 0 781 383390 -7978 0
0 0 0 837 384227 -7141 0
0 0 0 851 385078 -6290 0
0 0 0 794 385872 -5496 0
0 0 0 780 386652 -4716 0
0 0 0 775 387427 -3941 0
0 0 0 771 388198 -3170 0
0 0 0 757 388955 -2413 0
24 1 S106 729 389684 -1684 0
24 1 S106 738 390422 -946 0
24 1 S106 750 391172 -196 0
24 2 S106 774 391946 578 0
24 2 S106 790 392736 1368 0
24 2 S106 754 393490 2122 0
24 2 S106 783 394273 2905 0
24 2 S106 794 395067 3699 0
24 2 S106 802 395869 4501 0
24 2 S106 782 396651 5283 0
24 2 S106 789 397440 6072 0
24 2 S106 806 398246 6878 0
0 0 0 821 399067 -8681 0
0 0 0 808 399875 -7873 0
0 0 0 849 400724 -7024 0
0 0 0 825 401549 -6199 0
0 0 0 802 402351 -5397 0
0 0 0 765 403116 -4632 0
0 0 0 761 403877 -3871 0
0 0 0 764 404641 -3107 0
0 0 0 773 405414 -2334 0
25 1 S102 773 406187 -1561 0
25 1 S102 736 406923 -825 0
25 1 S102 723 407646 -102 0
25 2 S102 721 408367 619 0
25 2 S102 698 409065 1317 0
25 2 S102 704 409769 2021 0
25 2 S102 708 410477 2729 0
25 2 S102 722 411199 3451 0
25 2 S102 735 411934 4186 0
25 2 S102 712 412646 4898 0
25 2 S102 711 413357 5609 0
25 2 S102 727 414084 6336 0
0 0 0 757 414841 -5954 0
0 0 0 797 415638 -5157 0
0 0 0 807 416445 -4350 0
0 0 0 758 417203 -3592 0
0 0 0 770 417973 -2822 0
0 0 0 782 418755 -2040 0
26 1 S116 789 419544 -1251 0
26 1 S116 754 420298 -497 0
26 2 S116 740 421038 243 0
26 2 S116 747 421785 990 0
26 2 S116 756 422541 1746 0
26 2 S116 773 423314 2519 0
26 2 S116 749 424063 3268 0
26 2 S116 756 424819 4024 0
26 2 S116 773 425592 4797 0
26 2 S116 781 426373 5578 0
26 2 S116 791 427164 6369 0
0 0 0 759 427923 -6533 0
0 0 0 790 428713 -5743 0
0 0 0 804 429517 -4939 0
0 0 0 775 430292 -4164 0
0 0 0 739 431031 -3425 0
0 0 0 737 431768 -2688 0
27 1 S106 740 432508 -1948 0
27 1 S106 741 433249 -1207 0
27 1 S106 728 433977 -479 0
27 2 S106 701 434678 222 0
27 2 S106 703 435381 925 0
27 2 S106 705 436086 1630 0
27 2 S106 708 436794 2338 0
27 2 S106 720 437514 3058 0
27 2 S106 722 438236 3780 0
27 2 S106 745 438981 4525 0
27 2 S106 756 439737 5281 0
27 2 S106 778 440515 6059 0
27 2 S106 772 441287 6831 0
0 0 0 791 442078 -5856 0
0 0 0 814 442892 -5042 0
0 0 0 784 443676 -4258 0
0 0 0 754 444430 -3504 0
0 0 0 714 445144 -2790 0
0 0 0 689 445833 -2101 0
28 1 S102 690 446523 -1411 0
28 1 S102 687 447210 -724 0
28 1 S102 695 447905 -29 0
28 2 S102 701 448606 672 0
28 2 S102 703 449309 1375 0
28 2 S102 690 449999 2065 0
28 2 S102 683 450682 2748 0
28 2 S102 686 451368 3434 0
28 2 S102 686 452054 4120 0
28 2 S102 678 452732 4798 0
28 2 S102 696 453428 5494 0
28 2 S102 708 454136 6202 0
28 2 S102 728 454864 6930 0
0 0 0 719 455583 -9609 0
0 0 0 737 456320 -8872 0
0 0 0 735 457055 -8137 0
0 0 0 721 457776 -7416 0
0 0 0 702 458478 -6714 0
0 0 0 684 459162 -6030 0
0 0 0 677 459839 -5353 0
0 0 0 678 460517 -4675 0
0 0 0 695 461212 -3980 0
0 0 0 717 461929 -3263 0
0 0 0 728 462657 -2535 0
29 1 S112 717 463374 -1818 0
29 1 S112 751 464125 -1067 0
29 1 S112 775 464900 -292 0
29 2 S112 793 465693 501 0
29 2 S112 774 466467 1275 0
29 2 S112 795 467262 2070 0
29 2 S112 797 468059 2867 0
29 2 S112 784 468843 3651 0
29 2 S112 749 469592 4400 0
29 2 S112 753 470345 5153 0
29 2 S112 751 471096 5904 0
29 2 S112 751 471847 6655 0
0 0 0 727 472574 -6644 0
0 0 0 740 473314 -5904 0
0 0 0 756 474070 -5148 0
0 0 0 764 474834 -4384 0
0 0 0 742 475576 -3642 0
0 0 0 722 476298 -2920 0
0 0 0 716 477014 -2204 0
30 1 S112 725 477739 -1479 0
30 1 S112 745 478484 -734 0
30 2 S112 749 479233 15 0
30 2 S112 753 479986 768 0
30 2 S112 770 480756 1538 0
30 2 S112 779 481535 2317 0
30 2 S112 803 482338 3120 0
30 2 S112 776 483114 3896 0
30 2 S112 773 483887 4669 0
30 2 S112 774 484661 5443 0
30 2 S112 785 485446 6228 0
30 2 S112 755 486201 6983 0
0 0 0 737 486938 -7946 0
0 0 0 742 487680 -7204 0
0 0 0 739 488419 -6465 0
0 0 0 737 489156 -5728 0
0 0 0 716 489872 -5012 0
0 0 0 699 490571 -4313 0
0 0 0 685 491256 -3628 0
0 0 0 686 491942 -2942 0
0 0 0 695 492637 -2247 0
31 1 S106 722 493359 -1525 0
31 1 S106 775 494134 -750 0
31 2 S106 804 494938 54 0
31 2 S106 809 495747 863 0
31 2 S106 789 496536 1652 0
31 2 S106 802 497338 2454 0
31 2 S106 798 498136 3252 0
31 2 S106 794 498930 4046 0
31 2 S106 783 499713 4829 0
31 2 S106 773 500486 5602 0
31 2 S106 774 501260 6376 0
0 0 0 765 502025 -8510 0
0 0 0 755 502780 -7755 0
0 0 0 718 503498 -7037 0
0 0 0 703 504201 -6334 0
0 0 0 699 504900 -5635 0
0 0 0 717 505617 -4918 0
0 0 0 722 506339 -4196 0
0 0 0 723 507062 -3473 0
0 0 0 709 507771 -2764 0
0 0 0 725 508496 -2039 0
32 1 S102 739 509235 -1300 0
32 1 S102 767 510002 -533 0
32 2 S102 781 510783 248 0
32 2 S102 749 511532 997 0
32 2 S102 787 512319 1784 0
32 2 S102 790 513109 2574 0
32 2 S102 781 513890 3355 0
32 2 S102 758 514648 4113 0
32 2 S102 763 515411 4876 0
32 2 S102 761 516172 5637 0
32 2 S102 761 516933 6398 0
0 0 0 740 517673 -10866 0
0 0 0 757 518430 -10109 0
0 0 0 756 519186 -9353 0
0 0 0 757 519943 -8596 0
0 0 0 734 520677 -7862 0
0 0 0 704 521381 -7158 0
0 0 0 706 522087 -6452 0
0 0 0 702 522789 -5750 0
0 0 0 683 523472 -5067 0
0 0 0 684 524156 -4383 0
0 0 0 671 524827 -3712 0
0 0 0 679 525506 -3033 0
0 0 0 688 526194 -2345 0
33 1 S112 716 526910 -1629 0
33 1 S112 709 527619 -920 0
33 1 S112 707 528326 -213 0
33 2 S112 722 529048 509 0
33 2 S112 710 529758 1219 0
33 2 S112 711 530469 1930 0
33 2 S112 725 531194 2655 0
33 2 S112 728 531922 3383 0
33 2 S112 737 532659 4120 0
33 2 S112 722 533381 4842 0
33 2 S112 709 534090 5551 0
33 2 S112 688 534778 6239 0
33 2 S112 687 535465 6926 0
0 0 0 695 536160 -10101 0
0 0 0 720 536880 -9381 0
0 0 0 772 537652 -8609 0
0 0 0 761 538413 -7848 0
0 0 0 774 539187 -7074 0
0 0 0 804 539991 -6270 0
0 0 0 818 540809 -5452 0
0 0 0 809 541618 -4643 0
0 0 0 783 542401 -3860 0
0 0 0 794 543195 -3066 0
0 0 0 786 543981 -2280 0
34 1 S106 776 544757 -1504 0
34 1 S106 744 545501 -760 0
34 2 S106 764 546265 4 0
34 2 S106 770 547035 774 0
34 2 S106 792 547827 1566 0
34 2 S106 774 548601 2340 0
34 2 S106 797 549398 3137 0
34 2 S106 808 550206 3945 0
34 2 S106 790 550996 4735 0
34 2 S106 788 551784 5523 0
34 2 S106 805 552589 6328 0
0 0 0 808 553397 -8150 0
0 0 0 804 554201 -7346 0
0 0 0 773 554974 -6573 0
0 0 0 772 555746 -5801 0
0 0 0 775 556521 -5026 0
0 0 0 767 557288 -4259 0
0 0 0 735 558023 -3524 0
0 0 0 734 558757 -2790 0
0 0 0 749 559506 -2041 0
35 1 S102 772 560278 -1269 0
35 1 S102 786 561064 -483 0
35 2 S102 767 561831 284 0
35 2 S102 783 562614 1067 0
35 2 S102 799 563413 1866 0
35 2 S102 805 564218 2671 0
35 2 S102 780 564998 3451 0
35 2 S102 781 565779 4232 0
35 2 S102 801 566580 5033 0
35 2 S102 800 567380 5833 0
35 2 S102 776 568156 6609 0
0 0 0 773 568929 -5930 0
0 0 0 779 569708 -5151 0
0 0 0 771 570479 -4380 0
0 0 0 758 571237 -3622 0
0 0 0 734 571971 -2888 0
0 0 0 720 572691 -2168 0
36 1 S106 731 573422 -1437 0
36 1 S106 745 574167 -692 0
36 2 S106 757 574924 65 0
36 2 S106 767 575691 832 0
36 2 S106 754 576445 1586 0
36 2 S106 781 577226 2367 0
36 2 S106 780 578006 3147 0
36 2 S106 778 578784 3925 0
36 2 S106 756 579540 4681 0
36 2 S106 752 580292 5433 0
36 2 S106 774 581066 6207 0
36 2 S106 787 581853 6994 0
0 0 0 760 582613 -7863 0
0 0 0 765 583378 -7098 0
0 0 0 756 584134 -6342 0
0 0 0 743 584877 -5599 0
0 0 0 717 585594 -4882 0
0 0 0 703 586297 -4179 0
0 0 0 718 587015 -3461 0
0 0 0 731 587746 -2730 0
37 1 S116 756 588502 -1974 0
37 1 S116 771 589273 -1203 0
37 1 S116 754 590027 -449 0
37 2 S116 737 590764 288 0
37 2 S116 715 591479 1003 0
37 2 S116 718 592197 1721 0
37 2 S116 747 592944 2468 0
37 2 S116 761 593705 3229 0
37 2 S116 742 594447 3971 0
37 2 S116 760 595207 4731 0
37 2 S116 769 595976 5500 0
37 2 S116 785 596761 6285 0
0 0 0 795 597556 -10958 0
0 0 0 765 598321 -10193 0
0 0 0 802 599123 -9391 0
0 0 0 794 599917 -8597 0
0 0 0 765 600682 -7832 0
0 0 0 732 601414 -7100 0
0 0 0 712 602126 -6388 0
0 0 0 722 602848 -5666 0
0 0 0 740 603588 -4926 0
0 0 0 754 604342 -4172 0
0 0 0 770 605112 -3402 0
0 0 0 776 605888 -2626 0
38 1 S102 798 606686 -1828 0
38 1 S102 807 607493 -1021 0
38 1 S102 814 608307 -207 0
38 2 S102 808 609115 601 0
38 2 S102 780 609895 1381 0
38 2 S102 784 610679 2165 0
38 2 S102 774 611453 2939 0
38 2 S102 747 612200 3686 0
38 2 S102 750 612950 4436 0
38 2 S102 756 613706 5192 0
38 2 S102 746 614452 5938 0
38 2 S102 716 615168 6654 0
0 0 0 720 615888 -8441 0
0 0 0 747 616635 -7694 0
0 0 0 792 617427 -6902 0
0 0 0 806 618233 -6096 0
0 0 0 805 619038 -5291 0
0 0 0 771 619809 -4520 0
0 0 0 782 620591 -3738 0
0 0 0 778 621369 -2960 0
0 0 0 779 622148 -2181 0
39 1 S116 765 622913 -1416 0
39 1 S116 736 623649 -680 0
39 2 S116 715 624364 35 0
39 2 S116 715 625079 750 0
39 2 S116 720 625799 1470 0
39 2 S116 748 626547 2218 0
39 2 S116 789 627336 3007 0
39 2 S116 801 628137 3808 0
39 2 S116 841 628978 4649 0
39 2 S116 872 629850 5521 0
39 2 S116 874 630724 6395 0
0 0 0 869 631593 -6679 0
0 0 0 834 632427 -5845 0
0 0 0 838 633265 -5007 0
0 0 0 798 634063 -4209 0
0 0 0 771 634834 -3438 0
0 0 0 727 635561 -2711 0
0 0 0 704 636265 -2007 0
40 1 S112 704 636969 -1303 0
40 1 S112 710 637679 -593 0
40 2 S112 745 638424 152 0
40 2 S112 806 639230 958 0
40 2 S112 828 640058 1786 0
40 2 S112 826 640884 2612 0
40 2 S112 869 641753 3481 0
40 2 S112 880 642633 4361 0
40 2 S112 847 643480 5208 0
40 2 S112 796 644276 6004 0
40 2 S112 792 645068 6796 0
0 0 0 789 645857 -186384 0
0 0 0 779 646636 -185605 0
0 0 0 754 647390 -184851 0
0 0 0 761 648151 -184090 0
0 0 0 756 648907 -183334 0
0 0 0 737 649644 -182597 0
0 0 0 713 650357 -181884 0
0 0 0 696 651053 -181188 0
0 0 0 675 651728 -180513 0
0 0 0 680 652408 -179833 0
0 0 0 682 653090 -179151 0
0 0 0 680 653770 -178471 0
0 0 0 689 654459 -177782 0
0 0 0 682 655141 -177100 0
0 0 0 685 655826 -176415 0
0 0 0 694 656520 -175721 0
0 0 0 702 657222 -175019 0
0 0 0 707 657929 -174312 0
0 0 0 711 658640 -173601 0
0 0 0 711 659351 -172890 0
0 0 0 708 660059 -172182 0
0 0 0 702 660761 -171480 0
0 0 0 689 661450 -170791 0
0 0 0 675 662125 -170116 0
0 0 0 665 662790 -169451 0
0 0 0 649 663439 -168802 0
0 0 0 636 664075 -168166 1
0 0 0 625 664700 -167541 1
0 0 0 620 665320 -166921 1
0 0 0 623 665943 -166298 1
0 0 0 635 666578 -165663 1
0 0 0 654 667232 -165009 0
0 0 0 664 667896 -164345 0
0 0 0 658 668554 -163687 0
0 0 0 658 669212 -163029 0
0 0 0 647 669859 -162382 0
0 0 0 616 670475 -161766 1
0 0 0 649 671124 -161117 0
0 0 0 655 671779 -160462 0
0 0 0 654 672433 -159808 0
0 0 0 653 673086 -159155 0
0 0 0 649 673735 -158506 0
0 0 0 653 674388 -157853 0
0 0 0 676 675064 -157177 0
0 0 0 707 675771 -156470 0
0 0 0 740 676511 -155730 0
0 0 0 748 677259 -154982 0
0 0 0 751 678010 -154231 0
0 0 0 750 678760 -153481 0
0 0 0 753 679513 -152728 0
0 0 0 757 680270 -151971 0
0 0 0 759 681029 -151212 0
0 0 0 759 681788 -150453 0
0 0 0 763 682551 -149690 0
0 0 0 762 683313 -148928 0
0 0 0 737 684050 -148191 0
0 0 0 740 684790 -147451 0
0 0 0 749 685539 -146702 0
0 0 0 759 686298 -145943 0
0 0 0 731 687029 -145212 0
0 0 0 735 687764 -144477 0
0 0 0 727 688491 -143750 0
0 0 0 712 689203 -143038 0
0 0 0 695 689898 -142343 0
0 0 0 695 690593 -141648 0
0 0 0 689 691282 -140959 0
0 0 0 687 691969 -140272 0
0 0 0 698 692667 -139574 0
0 0 0 715 693382 -138859 0
0 0 0 712 694094 -138147 0
0 0 0 701 694795 -137446 0
0 0 0 711 695506 -136735 0
0 0 0 726 696232 -136009 0
0 0 0 722 696954 -135287 0
0 0 0 706 697660 -134581 0
0 0 0 711 698371 -133870 0
0 0 0 699 699070 -133171 0
0 0 0 693 699763 -132478 0
0 0 0 701 700464 -131777 0
0 0 0 711 701175 -131066 0
0 0 0 720 701895 -130346 0
0 0 0 735 702630 -129611 0
0 0 0 748 703378 -128863 0
0 0 0 740 704118 -128123 0
0 0 0 761 704879 -127362 0
0 0 0 747 705626 -126615 0
0 0 0 749 706375 -125866 0
0 0 0 737 707112 -125129 0
0 0 0 740 707852 -124389 0
0 0 0 726 708578 -123663 0
0 0 0 738 709316 -122925 0
0 0 0 741 710057 -122184 0
0 0 0 732 710789 -121452 0
0 0 0 726 711515 -120726 0
0 0 0 749 712264 -119977 0
0 0 0 744 713008 -119233 0
0 0 0 729 713737 -118504 0
0 0 0 724 714461 -117780 0
0 0 0 725 715186 -117055 0
0 0 0 709 715895 -116346 0
0 0 0 711 716606 -115635 0
0 0 0 715 717321 -114920 0
0 0 0 704 718025 -114216 0
0 0 0 679 718704 -113537 0
0 0 0 688 719392 -112849 0
0 0 0 680 720072 -112169 0
0 0 0 668 720740 -111501 0
0 0 0 670 721410 -110831 0
0 0 0 673 722083 -110158 0
0 0 0 688 722771 -109470 0
0 0 0 691 723462 -108779 0
0 0 0 689 724151 -108090 0
0 0 0 698 724849 -107392 0
0 0 0 708 725557 -106684 0
0 0 0 686 726243 -105998 0
0 0 0 691 726934 -105307 0
0 0 0 696 727630 -104611 0
0 0 0 698 728328 -103913 0
0 0 0 701 729029 -103212 0
0 0 0 698 729727 -102514 0
0 0 0 681 730408 -101833 0
0 0 0 687 731095 -101146 0
0 0 0 672 731767 -100474 0
0 0 0 662 732429 -99812 0
0 0 0 643 733072 -99169 0
0 0 0 639 733711 -98530 1
0 0 0 636 734347 -97894 1
0 0 0 629 734976 -97265 1
0 0 0 631 735607 -96634 1
0 0 0 626 736233 -96008 1
0 0 0 633 736866 -95375 1
0 0 0 633 737499 -94742 1
0 0 0 621 738120 -94121 1
0 0 0 621 738741 -93500 1
0 0 0 637 739378 -92863 1
0 0 0 641 740019 -92222 0
0 0 0 638 740657 -91584 1
0 0 0 627 741284 -90957 1
0 0 0 622 741906 -90335 1
0 0 0 615 742521 -89720 1
0 0 0 608 743129 -89112 1
0 0 0 608 743737 -88504 1
0 0 0 615 744352 -87889 1
0 0 0 625 744977 -87264 1
0 0 0 642 745619 -86622 0
0 0 0 657 746276 -85965 0
0 0 0 667 746943 -85298 0
0 0 0 668 747611 -84630 0
0 0 0 674 748285 -83956 0
0 0 0 693 748978 -83263 0
0 0 0 739 749717 -82524 0
0 0 0 746 750463 -81778 0
0 0 0 752 751215 -81026 0
0 0 0 746 751961 -80280 0
0 0 0 755 752716 -79525 0
0 0 0 725 753441 -78800 0
0 0 0 718 754159 -78082 0
0 0 0 710 754869 -77372 0
0 0 0 706 755575 -76666 0
0 0 0 716 756291 -75950 0
0 0 0 722 757013 -75228 0
0 0 0 727 757740 -74501 0
0 0 0 723 758463 -73778 0
0 0 0 698 759161 -73080 0
0 0 0 690 759851 -72390 0
0 0 0 687 760538 -71703 0
0 0 0 684 761222 -71019 0
0 0 0 683 761905 -70336 0
0 0 0 681 762586 -69655 0
0 0 0 694 763280 -68961 0
0 0 0 717 763997 -68244 0
0 0 0 698 764695 -67546 0
0 0 0 687 765382 -66859 0
0 0 0 690 766072 -66169 0
0 0 0 704 766776 -65465 0
0 0 0 718 767494 -64747 0
0 0 0 745 768239 -64002 0
0 0 0 754 768993 -63248 0
0 0 0 744 769737 -62504 0
0 0 0 757 770494 -61747 0
0 0 0 768 771262 -60979 0
0 0 0 772 772034 -60207 0
0 0 0 751 772785 -59456 0
0 0 0 762 773547 -58694 0
0 0 0 773 774320 -57921 0
0 0 0 781 775101 -57140 0
0 0 0 778 775879 -56362 0
0 0 0 749 776628 -55613 0
0 0 0 766 777394 -54847 0
0 0 0 763 778157 -54084 0
0 0 0 776 778933 -53308 0
0 0 0 781 779714 -52527 0
0 0 0 752 780466 -51775 0
0 0 0 783 781249 -50992 0
0 0 0 796 782045 -50196 0
0 0 0 802 782847 -49394 0
0 0 0 771 783618 -48623 0
0 0 0 754 784372 -47869 0
0 0 0 746 785118 -47123 0
0 0 0 734 785852 -46389 0
0 0 0 725 786577 -45664 0
0 0 0 705 787282 -44959 0
0 0 0 708 787990 -44251 0
0 0 0 722 788712 -43529 0
0 0 0 749 789461 -42780 0
0 0 0 768 790229 -42012 0
0 0 0 756 790985 -41256 0
0 0 0 767 791752 -40489 0
0 0 0 781 792533 -39708 0
0 0 0 787 793320 -38921 0
0 0 0 759 794079 -38162 0
0 0 0 755 794834 -37407 0
0 0 0 755 795589 -36652 0
0 0 0 751 796340 -35901 0
0 0 0 744 797084 -35157 0
0 0 0 719 797803 -34438 0
0 0 0 717 798520 -33721 0
0 0 0 705 799225 -33016 0
0 0 0 697 799922 -32319 0
0 0 0 687 800609 -31632 0
0 0 0 678 801287 -30954 0
0 0 0 676 801963 -30278 0
0 0 0 675 802638 -29603 0
0 0 0 671 803309 -28932 0
0 0 0 667 803976 -28265 0
0 0 0 678 804654 -27587 0
0 0 0 693 805347 -26894 0
0 0 0 679 806026 -26215 0
0 0 0 680 806706 -25535 0
0 0 0 686 807392 -24849 0
0 0 0 699 808091 -24150 0
0 0 0 709 808800 -23441 0
0 0 0 729 809529 -22712 0
0 0 0 728 810257 -21984 0
0 0 0 707 810964 -21277 0
0 0 0 712 811676 -20565 0
0 0 0 711 812387 -19854 0
0 0 0 713 813100 -19141 0
0 0 0 709 813809 -18432 0
0 0 0 729 814538 -17703 0
0 0 0 754 815292 -16949 0
0 0 0 758 816050 -16191 0
0 0 0 783 816833 -15408 0
0 0 0 791 817624 -14617 0
0 0 0 790 818414 -13827 0
0 0 0 770 819184 -13057 0
0 0 0 758 819942 -12299 0
0 0 0 745 820687 -11554 0
0 0 0 743 821430 -10811 0
0 0 0 720 822150 -10091 0
0 0 0 716 822866 -9375 0
0 0 0 729 823595 -8646 0
0 0 0 747 824342 -7899 0
0 0 0 758 825100 -7141 0
0 0 0 753 825853 -6388 0
0 0 0 781 826634 -5607 0
0 0 0 789 827423 -4818 0
0 0 0 774 828197 -4044 0
0 0 0 753 828950 -3291 0
0 0 0 746 829696 -2545 0
41 1 S102 727 830423 -1818 0
41 1 S102 716 831139 -1102 0
41 1 S102 712 831851 -390 0
41 2 S102 696 832547 306 0
41 2 S102 701 833248 1007 0
41 2 S102 709 833957 1716 0
41 2 S102 707 834664 2423 0
41 2 S102 699 835363 3122 0
41 2 S102 712 836075 3834 0
41 2 S102 737 836812 4571 0
41 2 S102 733 837545 5304 0
41 2 S102 729 838274 6033 0
41 2 S102 781 839055 6814 0
0 0 0 826 839881 -6203 0
0 0 0 894 840775 -5309 1
0 0 0 840 841615 -4469 0
0 0 0 839 842454 -3630 0
0 0 0 820 843274 -2810 0
0 0 0 807 844081 -2003 0
42 1 S112 776 844857 -1227 0
42 1 S112 772 845629 -455 0
42 2 S112 778 846407 323 0
42 2 S112 754 847161 1077 0
42 2 S112 754 847915 1831 0
42 2 S112 786 848701 2617 0
42 2 S112 805 849506 3422 0
42 2 S112 805 850311 4227 0
42 2 S112 835 851146 5062 0
42 2 S112 852 851998 5914 0
42 2 S112 846 852844 6760 0
0 0 0 824 853668 -8149 0
0 0 0 840 854508 -7309 0
0 0 0 818 855326 -6491 0
0 0 0 777 856103 -5714 0
0 0 0 743 856846 -4971 0
0 0 0 749 857595 -4222 0
0 0 0 756 858351 -3466 0
0 0 0 770 859121 -2696 0
43 1 S116 750 859871 -1946 0
43 1 S116 774 860645 -1172 0
43 1 S116 796 861441 -376 0
43 2 S116 819 862260 443 0
43 2 S116 813 863073 1256 0
43 2 S116 778 863851 2034 0
43 2 S116 786 864637 2820 0
43 2 S116 808 865445 3628 0
43 2 S116 808 866253 4436 0
43 2 S116 772 867025 5208 0
43 2 S116 782 867807 5990 0
43 2 S116 774 868581 6764 0
0 0 0 780 869361 -6697 0
0 0 0 774 870135 -5923 0
0 0 0 780 870915 -5143 0
0 0 0 781 871696 -4362 0
0 0 0 784 872480 -3578 0
0 0 0 750 873230 -2828 0
0 0 0 740 873970 -2088 0
44 1 S102 748 874718 -1340 0
44 1 S102 760 875478 -580 0
44 2 S102 774 876252 194 0
44 2 S102 757 877009 951 0
44 2 S102 787 877796 1738 0
44 2 S102 809 878605 2547 0
44 2 S102 815 879420 3362 0
44 2 S102 783 880203 4145 0
44 2 S102 798 881001 4943 0
44 2 S102 796 881797 5739 0
44 2 S102 804 882601 6543 0
0 0 0 782 883383 -8176 0
0 0 0 792 884175 -7384 0
0 0 0 818 884993 -6566 0
0 0 0 797 885790 -5769 0
0 0 0 777 886567 -4992 0
0 0 0 763 887330 -4229 0
0 0 0 780 888110 -3449 0
0 0 0 788 888898 -2661 0
45 1 S116 794 889692 -1867 0
45 1 S116 755 890447 -1112 0
45 1 S116 779 891226 -333 0
45 2 S116 786 892012 453 0
45 2 S116 800 892812 1253 0
45 2 S116 800 893612 2053 0
45 2 S116 792 894404 2845 0
45 2 S116 838 895242 3683 0
45 2 S116 859 896101 4542 0
45 2 S116 848 896949 5390 0
45 2 S116 818 897767 6208 0
0 0 0 830 898597 -11364 0
0 0 0 834 899431 -10530 0
0 0 0 818 900249 -9712 0
0 0 0 789 901038 -8923 0
0 0 0 773 901811 -8150 0
0 0 0 767 902578 -7383 0
0 0 0 759 903337 -6624 0
0 0 0 752 904089 -5872 0
0 0 0 731 904820 -5141 0
0 0 0 730 905550 -4411 0
0 0 0 740 906290 -3671 0
0 0 0 767 907057 -2904 0
0 0 0 810 907867 -2094 0
46 1 S102 818 908685 -1276 0
46 1 S102 801 909486 -475 0
46 2 S102 818 910304 343 0
46 2 S102 834 911138 1177 0
46 2 S102 800 911938 1977 0
46 2 S102 807 912745 2784 0
46 2 S102 816 913561 3600 0
46 2 S102 825 914386 4425 0
46 2 S102 786 915172 5211 0
46 2 S102 795 915967 6006 0
46 2 S102 814 916781 6820 0
0 0 0 829 917610 -7404 0
0 0 0 810 918420 -6594 0
0 0 0 758 919178 -5836 0
0 0 0 767 919945 -5069 0
0 0 0 788 920733 -4281 0
0 0 0 802 921535 -3479 0
0 0 0 798 922333 -2681 0
47 1 S112 767 923100 -1914 0
47 1 S112 790 923890 -1124 0
47 1 S112 793 924683 -331 0
47 2 S112 803 925486 472 0
47 2 S112 784 926270 1256 0
47 2 S112 832 927102 2088 0
47 2 S112 853 927955 2941 0
47 2 S112 866 928821 3807 0
47 2 S112 815 929636 4622 0
47 2 S112 810 930446 5432 0
47 2 S112 798 931244 6230 0
47 2 S112 789 932033 7019 0
0 0 0 761 932794 -11849 0
0 0 0 757 933551 -11092 0
0 0 0 773 934324 -10319 0
0 0 0 807 935131 -9512 0
0 0 0 840 935971 -8672 0
0 0 0 782 936753 -7890 0
0 0 0 796 937549 -7094 0
0 0 0 803 938352 -6291 0
0 0 0 786 939138 -5505 0
0 0 0 759 939897 -4746 0
0 0 0 783 940680 -3963 0
0 0 0 801 941481 -3162 0
0 0 0 845 942326 -2317 0
48 1 S116 843 943169 -1474 0
48 1 S116 798 943967 -676 0
48 2 S116 812 944779 136 0
48 2 S116 827 945606 963 0
48 2 S116 836 946442 1799 0
48 2 S116 795 947237 2594 0
48 2 S116 754 947991 3348 0
48 2 S116 755 948746 4103 0
48 2 S116 767 949513 4870 0
48 2 S116 795 950308 5665 0
48 2 S116 842 951150 6507 0
0 0 0 854 952004 -6366 0
0 0 0 813 952817 -5553 0
0 0 0 818 953635 -4735 0
0 0 0 807 954442 -3928 0
0 0 0 800 955242 -3128 0
0 0 0 763 956005 -2365 0
49 1 S112 777 956782 -1588 0
49 1 S112 776 957558 -812 0
49 1 S112 789 958347 -23 0
49 2 S112 770 959117 747 0
49 2 S112 788 959905 1535 0
49 2 S112 804 960709 2339 0
49 2 S112 826 961535 3165 0
49 2 S112 800 962335 3965 0
49 2 S112 820 963155 4785 0
49 2 S112 841 963996 5626 0
49 2 S112 855 964851 6481 0
0 0 0 832 965683 -10376 0
0 0 0 784 966467 -9592 0
0 0 0 799 967266 -8793 0
0 0 0 786 968052 -8007 0
0 0 0 768 968820 -7239 0
0 0 0 736 969556 -6503 0
0 0 0 716 970272 -5787 0
0 0 0 697 970969 -5090 0
0 0 0 708 971677 -4382 0
0 0 0 736 972413 -3646 0
0 0 0 789 973202 -2857 0
0 0 0 830 974032 -2027 0
50 1 S106 805 974837 -1222 0
50 1 S106 754 975591 -468 0
50 2 S106 760 976351 292 0
50 2 S106 766 977117 1058 0
50 2 S106 791 977908 1849 0
50 2 S106 797 978705 2646 0
50 2 S106 794 979499 3440 0
50 2 S106 759 980258 4199 0
50 2 S106 782 981040 4981 0
50 2 S106 787 981827 5768 0
50 2 S106 807 982634 6575 0
0 0 0 767 983401 -5556 0
0 0 0 790 984191 -4766 0
0 0 0 794 984985 -3972 0
0 0 0 779 985764 -3193 0
0 0 0 747 986511 -2446 0
51 1 S112 737 987248 -1709 0
51 1 S112 735 987983 -974 0
51 1 S112 735 988718 -239 0
51 2 S112 734 989452 495 0
51 2 S112 742 990194 1237 0
51 2 S112 751 990945 1988 0
51 2 S112 776 991721 2764 0
51 2 S112 756 992477 3520 0
51 2 S112 758 993235 4278 0
51 2 S112 757 993992 5035 0
51 2 S112 760 994752 5795 0
51 2 S112 740 995492 6535 0
0 0 0 719 996211 -6192 0
0 0 0 713 996924 -5479 0
0 0 0 720 997644 -4759 0
0 0 0 733 998377 -4026 0
0 0 0 770 999147 -3256 0
0 0 0 775 999922 -2481 0
52 1 S116 762 1000684 -1719 0
52 1 S116 793 1001477 -926 0
52 1 S116 805 1002282 -121 0
52 2 S116 795 1003077 674 0
52 2 S116 787 1003864 1461 0
52 2 S116 820 1004684 2281 0
52 2 S116 833 1005517 3114 0
52 2 S116 797 1006314 3911 0
52 2 S116 807 1007121 4718 0
52 2 S116 818 1007939 5536 0
52 2 S116 811 1008750 6347 0
0 0 0 774 1009524 -7849 0
0 0 0 797 1010321 -7052 0
0 0 0 800 1011121 -6252 0
0 0 0 790 1011911 -5462 0
0 0 0 766 1012677 -4696 0
0 0 0 768 1013445 -3928 0
0 0 0 770 1014215 -3158 0
0 0 0 802 1015017 -2356 0
53 1 S106 808 1015825 -1548 0
53 1 S106 792 1016617 -756 0
53 2 S106 828 1017445 72 0
53 2 S106 839 1018284 911 0
53 2 S106 852 1019136 1763 0
53 2 S106 812 1019948 2575 0
53 2 S106 815 1020763 3390 0
53 2 S106 811 1021574 4201 0
53 2 S106 804 1022378 5005 0
53 2 S106 756 1023134 5761 0
53 2 S106 767 1023901 6528 0
0 0 0 779 1024680 -6851 0
0 0 0 805 1025485 -6046 0
0 0 0 817 1026302 -5229 0
0 0 0 782 1027084 -4447 0
0 0 0 802 1027886 -3645 0
0 0 0 813 1028699 -2832 0
0 0 0 812 1029511 -2020 0
54 1 S102 779 1030290 -1241 0
54 1 S102 797 1031087 -444 0
54 2 S102 808 1031895 364 0
54 2 S102 811 1032706 1175 0
54 2 S102 772 1033478 1947 0
54 2 S102 811 1034289 2758 0
54 2 S102 820 1035109 3578 0
54 2 S102 853 1035962 4431 0
54 2 S102 818 1036780 5249 0
54 2 S102 820 1037600 6069 0
54 2 S102 841 1038441 6910 0
0 0 0 852 1039293 -10126 0
0 0 0 803 1040096 -9323 0
0 0 0 798 1040894 -8525 0
0 0 0 794 1041688 -7731 0
0 0 0 785 1042473 -6946 0
0 0 0 755 1043228 -6191 0
0 0 0 723 1043951 -5468 0
0 0 0 699 1044650 -4769 0
0 0 0 684 1045334 -4085 0
0 0 0 683 1046017 -3402 0
0 0 0 690 1046707 -2712 0
55 1 S106 741 1047448 -1971 0
55 1 S106 851 1048299 -1120 0
55 1 S106 931 1049230 -189 1
55 2 S106 960 1050190 771 1
55 2 S106 935 1051125 1706 1
55 2 S106 898 1052023 2604 1
55 2 S106 865 1052888 3469 0
55 2 S106 837 1053725 4306 0
55 2 S106 805 1054530 5111 0
55 2 S106 774 1055304 5885 0
55 2 S106 759 1056063 6644 0
0 0 0 753 1056816 -6778 0
0 0 0 754 1057570 -6024 0
0 0 0 761 1058331 -5263 0
0 0 0 771 1059102 -4492 0
0 0 0 746 1059848 -3746 0
0 0 0 732 1060580 -3014 0
0 0 0 743 1061323 -2271 0
56 1 S116 779 1062102 -1492 0
56 1 S116 825 1062927 -667 0
56 2 S116 865 1063792 198 0
56 2 S116 842 1064634 1040 0
56 2 S116 863 1065497 1903 0
56 2 S116 863 1066360 2766 0
56 2 S116 862 1067222 3628 0
56 2 S116 812 1068034 4440 0
56 2 S116 812 1068846 5252 0
56 2 S116 822 1069668 6074 0
56 2 S116 828 1070496 6902 0
0 0 0 811 1071307 -7174 0
0 0 0 779 1072086 -6395 0
0 0 0 797 1072883 -5598 0
0 0 0 823 1073706 -4775 0
0 0 0 791 1074497 -3984 0
0 0 0 755 1075252 -3229 0
0 0 0 764 1076016 -2465 0
57 1 S106 765 1076781 -1700 0
57 1 S106 774 1077555 -926 0
57 1 S106 755 1078310 -171 0
57 2 S106 766 1079076 595 0
57 2 S106 787 1079863 1382 0
57 2 S106 799 1080662 2181 0
57 2 S106 770 1081432 2951 0
57 2 S106 798 1082230 3749 0
57 2 S106 812 1083042 4561 0
57 2 S106 822 1083864 5383 0
57 2 S106 806 1084670 6189 0
57 2 S106 800 1085470 6989 0
0 0 0 808 1086278 -8285 0
0 0 0 819 1087097 -7466 0
0 0 0 815 1087912 -6651 0
0 0 0 766 1088678 -5885 0
0 0 0 788 1089466 -5097 0
0 0 0 805 1090271 -4292 0
0 0 0 817 1091088 -3475 0
0 0 0 815 1091903 -2660 0
58 1 S102 773 1092676 -1887 0
58 1 S102 787 1093463 -1100 0
58 1 S102 763 1094226 -337 0
58 2 S102 750 1094976 413 0
58 2 S102 737 1095713 1150 0
58 2 S102 724 1096437 1874 0
58 2 S102 746 1097183 2620 0
58 2 S102 775 1097958 3395 0
58 2 S102 805 1098763 4200 0
58 2 S102 794 1099557 4994 0
58 2 S102 838 1100395 5832 0
58 2 S102 855 1101250 6687 0
0 0 0 864 1102114 -6424 0
0 0 0 830 1102944 -5594 0
0 0 0 838 1103782 -4756 0
0 0 0 809 1104591 -3947 0
0 0 0 764 1105355 -3183 0
0 0 0 743 1106098 -2440 0
59 1 S112 740 1106838 -1700 0
59 1 S112 731 1107569 -969 0
59 1 S112 720 1108289 -249 0
59 2 S112 702 1108991 453 0
59 2 S112 711 1109702 1164 0
59 2 S112 716 1110418 1880 0
59 2 S112 711 1111129 2591 0
59 2 S112 726 1111855 3317 0
59 2 S112 765 1112620 4082 0
59 2 S112 818 1113438 4900 0
59 2 S112 851 1114289 5751 0
59 2 S112 843 1115132 6594 0
0 0 0 891 1116023 -8447 0
0 0 0 891 1116914 -7556 0
0 0 0 888 1117802 -6668 0
0 0 0 806 1118608 -5862 0
0 0 0 807 1119415 -5055 0
0 0 0 791 1120206 -4264 0
0 0 0 777 1120983 -3487 0
0 0 0 743 1121726 -2744 0
0 0 0 714 1122440 -2030 0
60 1 S102 722 1123162 -1308 0
60 1 S102 740 1123902 -568 0
60 2 S102 794 1124696 226 0
60 2 S102 842 1125538 1068 0
60 2 S102 851 1126389 1919 0
60 2 S102 834 1127223 2753 0
60 2 S102 844 1128067 3597 0
60 2 S102 873 1128940 4470 0
60 2 S102 854 1129794 5324 0
60 2 S102 802 1130596 6126 0
60 2 S102 806 1131402 6932 0
0 0 0 784 1132186 -9659 0
0 0 0 804 1132990 -8855 0
0 0 0 758 1133748 -8097 0
0 0 0 749 1134497 -7348 0
0 0 0 732 1135229 -6616 0
0 0 0 702 1135931 -5914 0
0 0 0 687 1136618 -5227 0
0 0 0 689 1137307 -4538 0
0 0 0 689 1137996 -3849 0
0 0 0 701 1138697 -3148 0
0 0 0 713 1139410 -2435 0
61 1 S106 741 1140151 -1694 0
61 1 S106 745 1140896 -949 0
61 1 S106 722 1141618 -227 0
61 2 S106 711 1142329 484 0
61 2 S106 726 1143055 1210 0
61 2 S106 743 1143798 1953 0
61 2 S106 772 1144570 2725 0
61 2 S106 787 1145357 3512 0
61 2 S106 766 1146123 4278 0
61 2 S106 794 1146917 5072 0
61 2 S106 804 1147721 5876 0
61 2 S106 829 1148550 6705 0
0 0 0 815 1149365 -5792 0
0 0 0 842 1150207 -4950 0
0 0 0 821 1151028 -4129 0
0 0 0 816 1151844 -3313 0
0 0 0 776 1152620 -2537 0
62 1 S112 763 1153383 -1774 0
62 1 S112 768 1154151 -1006 0
62 1 S112 794 1154945 -212 0
62 2 S112 817 1155762 605 0
62 2 S112 807 1156569 1412 0
62 2 S112 844 1157413 2256 0
62 2 S112 879 1158292 3135 0
62 2 S112 884 1159176 4019 0
62 2 S112 823 1159999 4842 0
62 2 S112 846 1160845 5688 0
62 2 S112 855 1161700 6543 0
0 0 0 863 1162563 -10101 0
0 0 0 822 1163385 -9279 0
0 0 0 806 1164191 -8473 0
0 0 0 795 1164986 -7678 0
0 0 0 765 1165751 -6913 0
0 0 0 731 1166482 -6182 0
0 0 0 726 1167208 -5456 0
0 0 0 730 1167938 -4726 0
0 0 0 760 1168698 -3966 0
0 0 0 807 1169505 -3159 0
0 0 0 802 1170307 -2357 0
63 1 S102 813 1171120 -1544 0
63 1 S102 828 1171948 -716 0
63 2 S102 838 1172786 122 0
63 2 S102 810 1173596 932 0
63 2 S102 846 1174442 1778 0
63 2 S102 854 1175296 2632 0
63 2 S102 859 1176155 3491 0
63 2 S102 822 1176977 4313 0
63 2 S102 815 1177792 5128 0
63 2 S102 829 1178621 5957 0
63 2 S102 821 1179442 6778 0
0 0 0 770 1180212 -7771 0
0 0 0 772 1180984 -6999 0
0 0 0 770 1181754 -6229 0
0 0 0 753 1182507 -5476 0
0 0 0 734 1183241 -4742 0
0 0 0 715 1183956 -4027 0
0 0 0 733 1184689 -3294 0
0 0 0 760 1185449 -2534 0
64 1 S112 793 1186242 -1741 0
64 1 S112 826 1187068 -915 0
64 1 S112 796 1187864 -119 0
64 2 S112 825 1188689 706 0
64 2 S112 837 1189526 1543 0
64 2 S112 846 1190372 2389 0
64 2 S112 822 1191194 3211 0
64 2 S112 852 1192046 4063 0
64 2 S112 847 1192893 4910 0
64 2 S112 837 1193730 5747 0
64 2 S112 773 1194503 6520 0
0 0 0 738 1195241 -5938 0
0 0 0 733 1195974 -5205 0
0 0 0 743 1196717 -4462 0
0 0 0 765 1197482 -3697 0
0 0 0 787 1198269 -2910 0
0 0 0 799 1199068 -2111 0
65 1 S106 786 1199854 -1325 0
65 1 S106 825 1200679 -500 0
65 2 S106 845 1201524 345 0
65 2 S106 843 1202367 1188 0
65 2 S106 798 1203165 1986 0
65 2 S106 805 1203970 2791 0
65 2 S106 802 1204772 3593 0
65 2 S106 773 1205545 4366 0
65 2 S106 768 1206313 5134 0
65 2 S106 781 1207094 5915 0
65 2 S106 798 1207892 6713 0
0 0 0 801 1208693 -6329 0
0 0 0 771 1209464 -5558 0
0 0 0 806 1210270 -4752 0
0 0 0 814 1211084 -3938 0
0 0 0 822 1211906 -3116 0
0 0 0 796 1212702 -2320 0
66 1 S116 750 1213452 -1570 0
66 1 S116 750 1214202 -820 0
66 1 S116 732 1214934 -88 0
66 2 S116 719 1215653 631 0
66 2 S116 711 1216364 1342 0
66 2 S116 746 1217110 2088 0
66 2 S116 756 1217866 2844 0
66 2 S116 801 1218667 3645 0
66 2 S116 828 1219495 4473 0
66 2 S116 844 1220339 5317 0
66 2 S116 791 1221130 6108 0
66 2 S116 812 1221942 6920 0
0 0 0 828 1222770 -10240 0
0 0 0 838 1223608 -9402 0
0 0 0 804 1224412 -8598 0
0 0 0 778 1225190 -7820 0
0 0 0 766 1225956 -7054 0
0 0 0 752 1226708 -6302 0
0 0 0 728 1227436 -5574 0
0 0 0 707 1228143 -4867 0
0 0 0 713 1228856 -4154 0
0 0 0 713 1229569 -3441 0
0 0 0 724 1230293 -2717 0
67 1 S102 727 1231020 -1990 0
67 1 S102 740 1231760 -1250 0
67 1 S102 765 1232525 -485 0
67 2 S102 787 1233312 302 0
67 2 S102 764 1234076 1066 0
67 2 S102 742 1234818 1808 0
67 2 S102 753 1235571 2561 0
67 2 S102 764 1236335 3325 0
67 2 S102 768 1237103 4093 0
67 2 S102 746 1237849 4839 0
67 2 S102 745 1238594 5584 0
67 2 S102 755 1239349 6339 0
0 0 0 772 1240121 -6533 0
0 0 0 769 1240890 -5764 0
0 0 0 787 1241677 -4977 0
0 0 0 807 1242484 -4170 0
0 0 0 818 1243302 -3352 0
0 0 0 807 1244109 -2545 0
68 1 S106 776 1244885 -1769 0
68 1 S106 801 1245686 -968 0
68 1 S106 819 1246505 -149 0
68 2 S106 839 1247344 690 0
68 2 S106 848 1248192 1538 0
68 2 S106 855 1249047 2393 0
68 2 S106 838 1249885 3231 0
68 2 S106 782 1250667 4013 0
68 2 S106 796 1251463 4809 0
68 2 S106 776 1252239 5585 0
68 2 S106 781 1253020 6366 0
0 0 0 790 1253810 -9887 0
0 0 0 773 1254583 -9114 0
0 0 0 755 1255338 -8359 0
0 0 0 763 1256101 -7596 0
0 0 0 756 1256857 -6840 0
0 0 0 745 1257602 -6095 0
0 0 0 720 1258322 -5375 0
0 0 0 717 1259039 -4658 0
0 0 0 739 1259778 -3919 0
0 0 0 768 1260546 -3151 0
0 0 0 833 1261379 -2318 0
69 1 S102 848 1262227 -1470 0
69 1 S102 843 1263070 -627 0
69 2 S102 849 1263919 222 0
69 2 S102 828 1264747 1050 0
69 2 S102 781 1265528 1831 0
69 2 S102 757 1266285 2588 0
69 2 S102 762 1267047 3350 0
69 2 S102 782 1267829 4132 0
69 2 S102 814 1268643 4946 0
69 2 S102 849 1269492 5795 0
69 2 S102 829 1270321 6624 0
0 0 0 868 1271189 -7860 0
0 0 0 889 1272078 -6971 0
0 0 0 873 1272951 -6098 0
0 0 0 804 1273755 -5294 0
0 0 0 763 1274518 -4531 0
0 0 0 765 1275283 -3766 0
0 0 0 774 1276057 -2992 0
0 0 0 794 1276851 -2198 0
70 1 S112 802 1277653 -1396 0
70 1 S112 752 1278405 -644 0
70 2 S112 723 1279128 79 0
70 2 S112 706 1279834 785 0
70 2 S112 694 1280528 1479 0
70 2 S112 693 1281221 2172 0
70 2 S112 716 1281937 2888 0
70 2 S112 802 1282739 3690 0
70 2 S112 961 1283700 4651 1
70 2 S112 1005 1284705 5656 1
70 2 S112 987 1285692 6643 1
0 0 0 922 1286614 -9825 1
0 0 0 892 1287506 -8933 0
0 0 0 843 1288349 -8090 0
0 0 0 836 1289185 -7254 0
0 0 0 790 1289975 -6464 0
0 0 0 771 1290746 -5693 0
0 0 0 743 1291489 -4950 0
0 0 0 735 1292224 -4215 0
0 0 0 713 1292937 -3502 0
0 0 0 715 1293652 -2787 0
0 0 0 709 1294361 -2078 0
71 1 S116 706 1295067 -1372 0
71 1 S116 731 1295798 -641 0
71 2 S116 761 1296559 120 0
71 2 S116 792 1297351 912 0
71 2 S116 827 1298178 1739 0
71 2 S116 802 1298980 2541 0
71 2 S116 801 1299781 3342 0
71 2 S116 837 1300618 4179 0
71 2 S116 858 1301476 5037 0
71 2 S116 835 1302311 5872 0
71 2 S116 815 1303126 6687 0
0 0 0 823 1303949 -8240 0
0 0 0 823 1304772 -7417 0
0 0 0 806 1305578 -6611 0
0 0 0 762 1306340 -5849 0
0 0 0 765 1307105 -5084 0
0 0 0 762 1307867 -4322 0
0 0 0 779 1308646 -3543 0
0 0 0 769 1309415 -2774 0
72 1 S102 786 1310201 -1988 0
72 1 S102 810 1311011 -1178 0
72 1 S102 842 1311853 -336 0
72 2 S102 857 1312710 521 0
72 2 S102 817 1313527 1338 0
72 2 S102 819 1314346 2157 0
72 2 S102 820 1315166 2977 0
72 2 S102 800 1315966 3777 0
72 2 S102 772 1316738 4549 0
72 2 S102 759 1317497 5308 0
72 2 S102 773 1318270 6081 0
72 2 S102 772 1319042 6853 0
0 0 0 760 1319802 -6263 0
0 0 0 764 1320566 -5499 0
0 0 0 792 1321358 -4707 0
0 0 0 788 1322146 -3919 0
0 0 0 760 1322906 -3159 0
0 0 0 749 1323655 -2410 0
73 1 S116 741 1324396 -1669 0
73 1 S116 744 1325140 -925 0
73 1 S116 754 1325894 -171 0
73 2 S116 735 1326629 564 0
73 2 S116 737 1327366 1301 0
73 2 S116 774 1328140 2075 0
73 2 S116 808 1328948 2883 0
73 2 S116 841 1329789 3724 0
73 2 S116 840 1330629 4564 0
73 2 S116 872 1331501 5436 0
73 2 S116 883 1332384 6319 0
0 0 0 878 1333262 -8984 0
0 0 0 841 1334103 -8143 0
0 0 0 845 1334948 -7298 0
0 0 0 824 1335772 -6474 0
0 0 0 795 1336567 -5679 0
0 0 0 748 1337315 -4931 0
0 0 0 754 1338069 -4177 0
0 0 0 758 1338827 -3419 0
0 0 0 776 1339603 -2643 0
74 1 S106 768 1340371 -1875 0
74 1 S106 734 1341105 -1141 0
74 1 S106 753 1341858 -388 0
74 2 S106 780 1342638 392 0
74 2 S106 821 1343459 1213 0
74 2 S106 826 1344285 2039 0
74 2 S106 801 1345086 2840 0
74 2 S106 813 1345899 3653 0
74 2 S106 837 1346736 4490 0
74 2 S106 828 1347564 5318 0
74 2 S106 788 1348352 6106 0
74 2 S106 796 1349148 6902 0
0 0 0 819 1349967 -5343 0
0 0 0 825 1350792 -4518 0
0 0 0 797 1351589 -3721 0
0 0 0 756 1352345 -2965 0
0 0 0 758 1353103 -2207 0
75 1 S112 749 1353852 -1458 0
75 1 S112 753 1354605 -705 0
75 2 S112 754 1355359 49 0
75 2 S112 736 1356095 785 0
75 2 S112 740 1356835 1525 0
75 2 S112 756 1357591 2281 0
75 2 S112 753 1358344 3034 0
75 2 S112 758 1359102 3792 0
75 2 S112 785 1359887 4577 0
75 2 S112 801 1360688 5378 0
75 2 S112 788 1361476 6166 0
75 2 S112 763 1362239 6929 0
0 0 0 765 1363004 -6215 0
0 0 0 798 1363802 -5417 0
0 0 0 798 1364600 -4619 0
0 0 0 776 1365376 -3843 0
0 0 0 740 1366116 -3103 0
0 0 0 743 1366859 -2360 0
76 1 S116 742 1367601 -1618 0
76 1 S116 757 1368358 -861 0
76 1 S116 750 1369108 -111 0
76 2 S116 743 1369851 632 0
76 2 S116 783 1370634 1415 0
76 2 S116 807 1371441 2222 0
76 2 S116 833 1372274 3055 0
76 2 S116 812 1373086 3867 0
76 2 S116 829 1373915 4696 0
76 2 S116 846 1374761 5542 0
76 2 S116 865 1375626 6407 0
0 0 0 828 1376454 -6127 0
0 0 0 807 1377261 -5320 0
0 0 0 789 1378050 -4531 0
0 0 0 747 1378797 -3784 0
0 0 0 704 1379501 -3080 0
0 0 0 697 1380198 -2383 0
77 1 S106 686 1380884 -1697 0
77 1 S106 682 1381566 -1015 0
77 1 S106 678 1382244 -337 0
77 2 S106 677 1382921 340 0
77 2 S106 700 1383621 1040 0
77 2 S106 772 1384393 1812 0
77 2 S106 816 1385209 2628 0
77 2 S106 835 1386044 3463 0
77 2 S106 801 1386845 4264 0
77 2 S106 834 1387679 5098 0
77 2 S106 853 1388532 5951 0
77 2 S106 812 1389344 6763 0
0 0 0 765 1390109 -8471 0
0 0 0 775 1390884 -7696 0
0 0 0 795 1391679 -6901 0
0 0 0 794 1392473 -6107 0
0 0 0 800 1393273 -5307 0
0 0 0 751 1394024 -4556 0
0 0 0 772 1394796 -3784 0
0 0 0 784 1395580 -3000 0
0 0 0 791 1396371 -2209 0
78 1 S112 766 1397137 -1443 0
78 1 S112 793 1397930 -650 0
78 2 S112 811 1398741 161 0
78 2 S112 823 1399564 984 0
78 2 S112 801 1400365 1785 0
78 2 S112 821 1401186 2606 0
78 2 S112 827 1402013 3433 0
78 2 S112 819 1402832 4252 0
78 2 S112 787 1403619 5039 0
78 2 S112 803 1404422 5842 0
78 2 S112 811 1405233 6653 0
0 0 0 791 1406024 -10145 0
0 0 0 771 1406795 -9374 0
0 0 0 793 1407588 -8581 0
0 0 0 796 1408384 -7785 0
0 0 0 776 1409160 -7009 0
0 0 0 741 1409901 -6268 0
0 0 0 730 1410631 -5538 0
0 0 0 740 1411371 -4798 0
0 0 0 757 1412128 -4041 0
0 0 0 782 1412910 -3259 0
0 0 0 794 1413704 -2465 0
79 1 S102 783 1414487 -1682 0
79 1 S102 808 1415295 -874 0
79 1 S102 808 1416103 -66 0
79 2 S102 794 1416897 728 0
79 2 S102 779 1417676 1507 0
79 2 S102 799 1418475 2306 0
79 2 S102 802 1419277 3108 0
79 2 S102 797 1420074 3905 0
79 2 S102 785 1420859 4690 0
79 2 S102 785 1421644 5475 0
79 2 S102 797 1422441 6272 0
0 0 0 797 1423238 -9129 0
0 0 0 831 1424069 -8298 0
0 0 0 855 1424924 -7443 0
0 0 0 865 1425789 -6578 0
0 0 0 811 1426600 -5767 0
0 0 0 780 1427380 -4987 0
0 0 0 788 1428168 -4199 0
0 0 0 789 1428957 -3410 0
0 0 0 768 1429725 -2642 0
80 1 S116 732 1430457 -1910 0
80 1 S116 726 1431183 -1184 0
80 1 S116 730 1431913 -454 0
80 2 S116 733 1432646 279 0
80 2 S116 753 1433399 1032 0
80 2 S116 759 1434158 1791 0
80 2 S116 771 1434929 2562 0
80 2 S116 812 1435741 3374 0
80 2 S116 839 1436580 4213 0
80 2 S116 826 1437406 5039 0
80 2 S116 842 1438248 5881 0
80 2 S116 854 1439102 6735 0
