T_0095
BeatCount Mean SD BeatCountNoOutliers MeanNoOutliers SDNoOutliers
1438 1047,95757997218 58,4634878376663 1411 1050,86534372785 53,5974657187824

Trial TrialStatus Trialtype IBI AbsPosition RelPosition Outlier
0 0 0 1055 1075 -18201 0
0 0 0 1124 2199 -17077 0
0 0 0 1107 3306 -15970 0
0 0 0 1040 4346 -14930 0
0 0 0 948 5294 -13982 0
0 0 0 975 6269 -13007 0
0 0 0 1028 7297 -11979 0
0 0 0 1136 8433 -10843 0
0 0 0 1147 9580 -9696 0
0 0 0 1082 10662 -8614 0
0 0 0 1154 11816 -7460 0
0 0 0 1162 12978 -6298 0
0 0 0 1155 14133 -5143 0
0 0 0 1105 15238 -4038 0
0 0 0 1101 16339 -2937 0
1 1 S112 1091 17430 -1846 0
1 1 S112 1078 18508 -768 0
1 2 S112 1054 19562 286 0
1 2 S112 1093 20655 1379 0
1 2 S112 1062 21717 2441 0
1 2 S112 981 22698 3422 0
1 2 S112 1077 23775 4499 0
1 2 S112 1155 24930 5654 0
1 2 S112 1173 26103 6827 0
0 0 0 1165 27268 -10377 0
0 0 0 1124 28392 -9253 0
0 0 0 1139 29531 -8114 0
0 0 0 1097 30628 -7017 0
0 0 0 992 31620 -6025 0
0 0 0 1029 32649 -4996 0
0 0 0 993 33642 -4003 0
0 0 0 958 34600 -3045 0
0 0 0 920 35520 -2125 0
2 1 S102 939 36459 -1186 0
2 1 S102 984 37443 -202 0
2 2 S102 998 38441 796 0
2 2 S102 978 39419 1774 0
2 2 S102 1035 40454 2809 0
2 2 S102 1082 41536 3891 0
2 2 S102 1117 42653 5008 0
2 2 S102 1145 43798 6153 0
0 0 0 1142 44940 -11306 0
0 0 0 1144 46084 -10162 0
0 0 0 1108 47192 -9054 0
0 0 0 1060 48252 -7994 0
0 0 0 1100 49352 -6894 0
0 0 0 1110 50462 -5784 0
0 0 0 1121 51583 -4663 0
0 0 0 1043 52626 -3620 0
0 0 0 1087 53713 -2533 0
3 1 S116 1119 54832 -1414 0
3 1 S116 1128 55960 -286 0
3 2 S116 1079 57039 793 0
3 2 S116 1111 58150 1904 0
3 2 S116 1107 59257 3011 0
3 2 S116 1064 60321 4075 0
3 2 S116 992 61313 5067 0
3 2 S116 1067 62380 6134 0
0 0 0 1104 63484 -11911 0
0 0 0 1076 64560 -10835 0
0 0 0 1038 65598 -9797 0
0 0 0 1073 66671 -8724 0
0 0 0 1078 67749 -7646 0
0 0 0 989 68738 -6657 0
0 0 0 1039 69777 -5618 0
0 0 0 1090 70867 -4528 0
0 0 0 1087 71954 -3441 0
0 0 0 1000 72954 -2441 0
4 1 S106 1057 74011 -1384 0
4 1 S106 1062 75073 -322 0
4 2 S106 995 76068 673 0
4 2 S106 1063 77131 1736 0
4 2 S106 1099 78230 2835 0
4 2 S106 1080 79310 3915 0
4 2 S106 1055 80365 4970 0
4 2 S106 1123 81488 6093 0
0 0 0 1129 82617 -8228 0
0 0 0 1119 83736 -7109 0
0 0 0 1129 84865 -5980 0
0 0 0 1161 86026 -4819 0
0 0 0 1067 87093 -3752 0
0 0 0 1103 88196 -2649 0
5 1 S116 1109 89305 -1540 0
5 1 S116 1115 90420 -425 0
5 2 S116 1077 91497 652 0
5 2 S116 1143 92640 1795 0
5 2 S116 1138 93778 2933 0
5 2 S116 1128 94906 4061 0
5 2 S116 1090 95996 5151 0
5 2 S116 1123 97119 6274 0
0 0 0 1119 98238 -10910 0
0 0 0 1060 99298 -9850 0
0 0 0 1098 100396 -8752 0
0 0 0 1086 101482 -7666 0
0 0 0 1088 102570 -6578 0
0 0 0 1010 103580 -5568 0
0 0 0 1062 104642 -4506 0
0 0 0 1084 105726 -3422 0
0 0 0 1037 106763 -2385 0
6 1 S106 1072 107835 -1313 0
6 1 S106 1082 108917 -231 0
6 2 S106 1077 109994 846 0
6 2 S106 1062 111056 1908 0
6 2 S106 1091 112147 2999 0
6 2 S106 1088 113235 4087 0
6 2 S106 1018 114253 5105 0
6 2 S106 1050 115303 6155 0
0 0 0 1061 116364 -9827 0
0 0 0 1102 117466 -8725 0
0 0 0 1012 118478 -7713 0
0 0 0 1043 119521 -6670 0
0 0 0 991 120512 -5679 0
0 0 0 944 121456 -4735 0
0 0 0 1008 122464 -3727 0
0 0 0 944 123408 -2783 0
7 1 S102 1002 124410 -1781 0
7 1 S102 1062 125472 -719 0
7 2 S102 1076 126548 357 0
7 2 S102 1094 127642 1451 0
7 2 S102 1119 128761 2570 0
7 2 S102 1122 129883 3692 0
7 2 S102 1094 130977 4786 0
7 2 S102 1095 132072 5881 0
7 2 S102 1137 133209 7018 0
0 0 0 1140 134349 -7027 0
0 0 0 1133 135482 -5894 0
0 0 0 1117 136599 -4777 0
0 0 0 1110 137709 -3667 0
0 0 0 1124 138833 -2543 0
8 1 S112 1162 139995 -1381 0
8 1 S112 1121 141116 -260 0
8 2 S112 1153 142269 893 0
8 2 S112 1200 143469 2093 1
8 2 S112 1205 144674 3298 1
8 2 S112 1052 145726 4350 0
8 2 S112 1133 146859 5483 0
8 2 S112 1172 148031 6655 0
0 0 0 1124 149155 -8103 0
0 0 0 1138 150293 -6965 0
0 0 0 1137 151430 -5828 0
0 0 0 1104 152534 -4724 0
0 0 0 1005 153539 -3719 0
0 0 0 1059 154598 -2660 0
9 1 S116 1094 155692 -1566 0
9 1 S116 1073 156765 -493 0
9 2 S116 1048 157813 555 0
9 2 S116 1112 158925 1667 0
9 2 S116 1138 160063 2805 0
9 2 S116 1097 161160 3902 0
9 2 S116 1090 162250 4992 0
9 2 S116 1114 163364 6106 0
0 0 0 1121 164485 -11656 0
0 0 0 1054 165539 -10602 0
0 0 0 1070 166609 -9532 0
0 0 0 1074 167683 -8458 0
0 0 0 1049 168732 -7409 0
0 0 0 970 169702 -6439 0
0 0 0 1027 170729 -5412 0
0 0 0 1082 171811 -4330 0
0 0 0 1078 172889 -3252 0
0 0 0 1029 173918 -2223 0
10 1 S102 1088 175006 -1135 0
10 1 S102 1101 176107 -34 0
10 2 S102 1073 177180 1039 0
10 2 S102 1030 178210 2069 0
10 2 S102 1088 179298 3157 0
10 2 S102 1111 180409 4268 0
10 2 S102 1068 181477 5336 0
10 2 S102 1059 182536 6395 0
0 0 0 1102 183638 -10491 0
0 0 0 1096 184734 -9395 0
0 0 0 1060 185794 -8335 0
0 0 0 991 186785 -7344 0
0 0 0 1040 187825 -6304 0
0 0 0 1070 188895 -5234 0
0 0 0 1084 189979 -4150 0
0 0 0 1049 191028 -3101 0
11 1 S112 1119 192147 -1982 0
11 1 S112 1127 193274 -855 0
11 2 S112 1074 194348 219 0
11 2 S112 1072 195420 1291 0
11 2 S112 1123 196543 2414 0
11 2 S112 1141 197684 3555 0
11 2 S112 1078 198762 4633 0
11 2 S112 1108 199870 5741 0
11 2 S112 1101 200971 6842 0
0 0 0 1068 202039 -6579 0
0 0 0 1055 203094 -5524 0
0 0 0 1069 204163 -4455 0
0 0 0 1058 205221 -3397 0
0 0 0 994 206215 -2403 0
12 1 S116 1037 207252 -1366 0
12 1 S116 1062 208314 -304 0
12 2 S116 963 209277 659 0
12 2 S116 1043 210320 1702 0
12 2 S116 1078 211398 2780 0
12 2 S116 1062 212460 3842 0
12 2 S116 1027 213487 4869 0
12 2 S116 1073 214560 5942 0
12 2 S116 1079 215639 7021 0
0 0 0 1085 216724 -11241 0
0 0 0 992 217716 -10249 0
0 0 0 1051 218767 -9198 0
0 0 0 1032 219799 -8166 0
0 0 0 1024 220823 -7142 0
0 0 0 983 221806 -6159 0
0 0 0 1034 222840 -5125 0
0 0 0 1073 223913 -4052 0
0 0 0 1036 224949 -3016 0
13 1 S112 1029 225978 -1987 0
13 1 S112 1073 227051 -914 0
13 2 S112 1122 228173 208 0
13 2 S112 1078 229251 1286 0
13 2 S112 1121 230372 2407 0
13 2 S112 1127 231499 3534 0
13 2 S112 1099 232598 4633 0
13 2 S112 1079 233677 5712 0
13 2 S112 1101 234778 6813 0
0 0 0 1130 235908 -11653 0
0 0 0 1106 237014 -10547 0
0 0 0 1109 238123 -9438 0
0 0 0 1104 239227 -8334 0
0 0 0 1103 240330 -7231 0
0 0 0 1084 241414 -6147 0
0 0 0 1111 242525 -5036 0
0 0 0 1122 243647 -3914 0
0 0 0 1046 244693 -2868 0
14 1 S106 1094 245787 -1774 0
14 1 S106 1119 246906 -655 0
14 2 S106 1162 248068 507 0
14 2 S106 1119 249187 1626 0
14 2 S106 1122 250309 2748 0
14 2 S106 1154 251463 3902 0
14 2 S106 1122 252585 5024 0
14 2 S106 1054 253639 6078 0
0 0 0 1056 254695 -11434 0
0 0 0 1059 255754 -10375 0
0 0 0 1079 256833 -9296 0
0 0 0 1014 257847 -8282 0
0 0 0 1054 258901 -7228 0
0 0 0 1099 260000 -6129 0
0 0 0 1119 261119 -5010 0
0 0 0 1074 262193 -3936 0
0 0 0 1141 263334 -2795 0
15 1 S116 1130 264464 -1665 0
15 1 S116 1062 265526 -603 0
15 2 S116 1037 266563 434 0
15 2 S116 1082 267645 1516 0
15 2 S116 1111 268756 2627 0
15 2 S116 1110 269866 3737 0
15 2 S116 1098 270964 4835 0
15 2 S116 1121 272085 5956 0
15 2 S116 1066 273151 7022 0
0 0 0 1111 274262 -10153 0
0 0 0 1097 275359 -9056 0
0 0 0 1077 276436 -7979 0
0 0 0 1049 277485 -6930 0
0 0 0 1073 278558 -5857 0
0 0 0 1086 279644 -4771 0
0 0 0 1018 280662 -3753 0
0 0 0 1076 281738 -2677 0
16 1 S116 1116 282854 -1561 0
16 1 S116 1050 283904 -511 0
16 2 S116 1057 284961 546 0
16 2 S116 1100 286061 1646 0
16 2 S116 1101 287162 2747 0
16 2 S116 1032 288194 3779 0
16 2 S116 1087 289281 4866 0
16 2 S116 1126 290407 5992 0
0 0 0 1048 291455 -8013 0
0 0 0 1104 292559 -6909 0
0 0 0 1103 293662 -5806 0
0 0 0 1109 294771 -4697 0
0 0 0 1106 295877 -3591 0
0 0 0 1142 297019 -2449 0
17 1 S106 1147 298166 -1302 0
17 1 S106 1029 299195 -273 0
17 2 S106 1094 300289 821 0
17 2 S106 1114 301403 1935 0
17 2 S106 1095 302498 3030 0
17 2 S106 1034 303532 4064 0
17 2 S106 1071 304603 5135 0
17 2 S106 1083 305686 6218 0
0 0 0 1067 306753 -11996 0
0 0 0 1036 307789 -10960 0
0 0 0 1065 308854 -9895 0
0 0 0 1072 309926 -8823 0
0 0 0 1007 310933 -7816 0
0 0 0 1019 311952 -6797 0
0 0 0 1055 313007 -5742 0
0 0 0 1086 314093 -4656 0
0 0 0 1054 315147 -3602 0
0 0 0 1025 316172 -2577 0
18 1 S102 1057 317229 -1520 0
18 1 S102 1059 318288 -461 0
18 2 S102 986 319274 525 0
18 2 S102 1041 320315 1566 0
18 2 S102 1081 321396 2647 0
18 2 S102 1110 322506 3757 0
18 2 S102 1044 323550 4801 0
18 2 S102 1094 324644 5895 0
18 2 S102 1129 325773 7024 0
0 0 0 1110 326883 -5841 0
0 0 0 1121 328004 -4720 0
0 0 0 1082 329086 -3638 0
0 0 0 1022 330108 -2616 0
19 1 S106 1059 331167 -1557 0
19 1 S106 1053 332220 -504 0
19 2 S106 1051 333271 547 0
19 2 S106 1044 334315 1591 0
19 2 S106 1082 335397 2673 0
19 2 S106 1088 336485 3761 0
19 2 S106 1052 337537 4813 0
19 2 S106 1098 338635 5911 0
19 2 S106 1114 339749 7025 0
0 0 0 1010 340759 -9223 0
0 0 0 1052 341811 -8171 0
0 0 0 1085 342896 -7086 0
0 0 0 1099 343995 -5987 0
0 0 0 1042 345037 -4945 0
0 0 0 1070 346107 -3875 0
0 0 0 1114 347221 -2761 0
20 1 S112 1109 348330 -1652 0
20 1 S112 1036 349366 -616 0
20 2 S112 1065 350431 449 0
20 2 S112 1089 351520 1538 0
20 2 S112 1083 352603 2621 0
20 2 S112 1027 353630 3648 0
20 2 S112 1095 354725 4743 0
20 2 S112 1126 355851 5869 0
20 2 S112 1066 356917 6935 0
0 0 0 1031 357948 -10635 0
0 0 0 1075 359023 -9560 0
0 0 0 1100 360123 -8460 0
0 0 0 1035 361158 -7425 0
0 0 0 1010 362168 -6415 0
0 0 0 1036 363204 -5379 0
0 0 0 1030 364234 -4349 0
0 0 0 968 365202 -3381 0
0 0 0 990 366192 -2391 0
21 1 S106 1003 367195 -1388 0
21 1 S106 1058 368253 -330 0
21 2 S106 1013 369266 683 0
21 2 S106 1072 370338 1755 0
21 2 S106 1116 371454 2871 0
21 2 S106 1060 372514 3931 0
21 2 S106 1058 373572 4989 0
21 2 S106 1101 374673 6090 0
0 0 0 1061 375734 -10605 0
0 0 0 1052 376786 -9553 0
0 0 0 1093 377879 -8460 0
0 0 0 1097 378976 -7363 0
0 0 0 1077 380053 -6286 0
0 0 0 1124 381177 -5162 0
0 0 0 1147 382324 -4015 0
0 0 0 1152 383476 -2863 0
22 1 S116 1093 384569 -1770 0
22 1 S116 1104 385673 -666 0
22 2 S116 1118 386791 452 0
22 2 S116 1046 387837 1498 0
22 2 S116 1066 388903 2564 0
22 2 S116 1083 389986 3647 0
22 2 S116 1014 391000 4661 0
22 2 S116 1086 392086 5747 0
22 2 S116 1091 393177 6838 0
0 0 0 1010 394187 -9642 0
0 0 0 1047 395234 -8595 0
0 0 0 1086 396320 -7509 0
0 0 0 1064 397384 -6445 0
0 0 0 1007 398391 -5438 0
0 0 0 1045 399436 -4393 0
0 0 0 1051 400487 -3342 0
0 0 0 1060 401547 -2282 0
23 1 S112 1058 402605 -1224 0
23 1 S112 1100 403705 -124 0
23 2 S112 1084 404789 960 0
23 2 S112 1003 405792 1963 0
23 2 S112 1071 406863 3034 0
23 2 S112 1104 407967 4138 0
23 2 S112 1095 409062 5233 0
23 2 S112 1051 410113 6284 0
0 0 0 1087 411200 -8743 0
0 0 0 1086 412286 -7657 0
0 0 0 1094 413380 -6563 0
0 0 0 1008 414388 -5555 0
0 0 0 1059 415447 -4496 0
0 0 0 1064 416511 -3432 0
0 0 0 1037 417548 -2395 0
24 1 S106 1039 418587 -1356 0
24 1 S106 1069 419656 -287 0
24 2 S106 1097 420753 810 0
24 2 S106 1077 421830 1887 0
24 2 S106 1036 422866 2923 0
24 2 S106 1067 423933 3990 0
24 2 S106 1076 425009 5066 0
24 2 S106 1004 426013 6070 0
0 0 0 1028 427041 -8171 0
0 0 0 1050 428091 -7121 0
0 0 0 1057 429148 -6064 0
0 0 0 1015 430163 -5049 0
0 0 0 1075 431238 -3974 0
0 0 0 1105 432343 -2869 0
25 1 S102 1112 433455 -1757 0
25 1 S102 1054 434509 -703 0
25 2 S102 1008 435517 305 0
25 2 S102 1047 436564 1352 0
25 2 S102 1055 437619 2407 0
25 2 S102 1029 438648 3436 0
25 2 S102 1041 439689 4477 0
25 2 S102 1070 440759 5547 0
25 2 S102 1083 441842 6630 0
0 0 0 1053 442895 -6259 0
0 0 0 1058 443953 -5201 0
0 0 0 1053 445006 -4148 0
0 0 0 1012 446018 -3136 0
0 0 0 962 446980 -2174 0
26 1 S116 1011 447991 -1163 0
26 1 S116 1037 449028 -126 0
26 2 S116 979 450007 853 0
26 2 S116 1074 451081 1927 0
26 2 S116 1119 452200 3046 0
26 2 S116 1123 453323 4169 0
26 2 S116 1077 454400 5246 0
26 2 S116 1116 455516 6362 0
0 0 0 1112 456628 -7430 0
0 0 0 1023 457651 -6407 0
0 0 0 1013 458664 -5394 0
0 0 0 996 459660 -4398 0
0 0 0 981 460641 -3417 0
0 0 0 925 461566 -2492 0
27 1 S106 927 462493 -1565 0
27 1 S106 893 463386 -672 1
27 2 S106 884 464270 212 1
27 2 S106 848 465118 1060 1
27 2 S106 876 465994 1936 1
27 2 S106 879 466873 2815 1
27 2 S106 923 467796 3738 0
27 2 S106 936 468732 4674 0
27 2 S106 891 469623 5565 1
27 2 S106 933 470556 6498 0
0 0 0 951 471507 -6046 0
0 0 0 970 472477 -5076 0
0 0 0 924 473401 -4152 0
0 0 0 924 474325 -3228 0
0 0 0 943 475268 -2285 0
28 1 S102 979 476247 -1306 0
28 1 S102 1037 477284 -269 0
28 2 S102 1003 478287 734 0
28 2 S102 1090 479377 1824 0
28 2 S102 1104 480481 2928 0
28 2 S102 1114 481595 4042 0
28 2 S102 1004 482599 5046 0
28 2 S102 1080 483679 6126 0
0 0 0 1135 484814 -11075 0
0 0 0 1128 485942 -9947 0
0 0 0 1098 487040 -8849 0
0 0 0 1025 488065 -7824 0
0 0 0 1086 489151 -6738 0
0 0 0 1094 490245 -5644 0
0 0 0 1092 491337 -4552 0
0 0 0 1035 492372 -3517 0
0 0 0 1075 493447 -2442 0
29 1 S112 1088 494535 -1354 0
29 1 S112 1040 495575 -314 0
29 2 S112 1058 496633 744 0
29 2 S112 1101 497734 1845 0
29 2 S112 1105 498839 2950 0
29 2 S112 1050 499889 4000 0
29 2 S112 1084 500973 5084 0
29 2 S112 1142 502115 6226 0
0 0 0 1148 503263 -6983 0
0 0 0 1036 504299 -5947 0
0 0 0 1063 505362 -4884 0
0 0 0 1064 506426 -3820 0
0 0 0 1060 507486 -2760 0
30 1 S112 981 508467 -1779 0
30 1 S112 1034 509501 -745 0
30 2 S112 1059 510560 314 0
30 2 S112 1028 511588 1342 0
30 2 S112 1104 512692 2446 0
30 2 S112 1123 513815 3569 0
30 2 S112 1119 514934 4688 0
30 2 S112 1069 516003 5757 0
30 2 S112 1122 517125 6879 0
0 0 0 1121 518246 -8678 0
0 0 0 1031 519277 -7647 0
0 0 0 1090 520367 -6557 0
0 0 0 1081 521448 -5476 0
0 0 0 1009 522457 -4467 0
0 0 0 1017 523474 -3450 0
0 0 0 1050 524524 -2400 0
31 1 S106 1071 525595 -1329 0
31 1 S106 969 526564 -360 0
31 2 S106 1020 527584 660 0
31 2 S106 1061 528645 1721 0
31 2 S106 1097 529742 2818 0
31 2 S106 1009 530751 3827 0
31 2 S106 1071 531822 4898 0
31 2 S106 1078 532900 5976 0
31 2 S106 1041 533941 7017 0
0 0 0 1056 534997 -7013 0
0 0 0 1037 536034 -5976 0
0 0 0 973 537007 -5003 0
0 0 0 1005 538012 -3998 0
0 0 0 987 538999 -3011 0
32 1 S102 1046 540045 -1965 0
32 1 S102 1053 541098 -912 0
32 2 S102 1031 542129 119 0
32 2 S102 1115 543244 1234 0
32 2 S102 1160 544404 2394 0
32 2 S102 1124 545528 3518 0
32 2 S102 1119 546647 4637 0
32 2 S102 1155 547802 5792 0
32 2 S102 1128 548930 6920 0
0 0 0 1056 549986 -10128 0
0 0 0 1061 551047 -9067 0
0 0 0 1030 552077 -8037 0
0 0 0 1011 553088 -7026 0
0 0 0 982 554070 -6044 0
0 0 0 1009 555079 -5035 0
0 0 0 1037 556116 -3998 0
0 0 0 1059 557175 -2939 0
33 1 S112 1011 558186 -1928 0
33 1 S112 1028 559214 -900 0
33 2 S112 1037 560251 137 0
33 2 S112 1020 561271 1157 0
33 2 S112 973 562244 2130 0
33 2 S112 1020 563264 3150 0
33 2 S112 1049 564313 4199 0
33 2 S112 1092 565405 5291 0
33 2 S112 1034 566439 6325 0
0 0 0 1107 567546 -12163 0
0 0 0 1113 568659 -11050 0
0 0 0 1058 569717 -9992 0
0 0 0 1068 570785 -8924 0
0 0 0 1068 571853 -7856 0
0 0 0 1033 572886 -6823 0
0 0 0 985 573871 -5838 0
0 0 0 1031 574902 -4807 0
0 0 0 1073 575975 -3734 0
0 0 0 1063 577038 -2671 0
34 1 S106 1057 578095 -1614 0
34 1 S106 1088 579183 -526 0
34 2 S106 1085 580268 559 0
34 2 S106 1044 581312 1603 0
34 2 S106 1060 582372 2663 0
34 2 S106 1084 583456 3747 0
34 2 S106 1088 584544 4835 0
34 2 S106 1034 585578 5869 0
34 2 S106 1087 586665 6956 0
0 0 0 1117 587782 -7461 0
0 0 0 1067 588849 -6394 0
0 0 0 968 589817 -5426 0
0 0 0 891 590708 -4535 1
0 0 0 942 591650 -3593 0
0 0 0 925 592575 -2668 0
35 1 S102 933 593508 -1735 0
35 1 S102 908 594416 -827 0
35 2 S102 916 595332 89 0
35 2 S102 1003 596335 1092 0
35 2 S102 1054 597389 2146 0
35 2 S102 1096 598485 3242 0
35 2 S102 1034 599519 4276 0
35 2 S102 1083 600602 5359 0
35 2 S102 1119 601721 6478 0
0 0 0 1101 602822 -5386 0
0 0 0 1098 603920 -4288 0
0 0 0 1071 604991 -3217 0
0 0 0 1055 606046 -2162 0
36 1 S106 1061 607107 -1101 0
36 1 S106 1075 608182 -26 0
36 2 S106 1060 609242 1034 0
36 2 S106 1022 610264 2056 0
36 2 S106 1077 611341 3133 0
36 2 S106 1101 612442 4234 0
36 2 S106 1141 613583 5375 0
36 2 S106 1065 614648 6440 0
0 0 0 1081 615729 -7847 0
0 0 0 1085 616814 -6762 0
0 0 0 1088 617902 -5674 0
0 0 0 1094 618996 -4580 0
0 0 0 1094 620090 -3486 0
0 0 0 1039 621129 -2447 0
37 1 S116 1004 622133 -1443 0
37 1 S116 1038 623171 -405 0
37 2 S116 1052 624223 647 0
37 2 S116 1057 625280 1704 0
37 2 S116 978 626258 2682 0
37 2 S116 1030 627288 3712 0
37 2 S116 1064 628352 4776 0
37 2 S116 1079 629431 5855 0
37 2 S116 997 630428 6852 0
0 0 0 1061 631489 -11732 0
0 0 0 1029 632518 -10703 0
0 0 0 1078 633596 -9625 0
0 0 0 1035 634631 -8590 0
0 0 0 970 635601 -7620 0
0 0 0 1003 636604 -6617 0
0 0 0 990 637594 -5627 0
0 0 0 978 638572 -4649 0
0 0 0 1005 639577 -3644 0
0 0 0 1035 640612 -2609 0
38 1 S102 1024 641636 -1585 0
38 1 S102 1006 642642 -579 0
38 2 S102 1040 643682 461 0
38 2 S102 1063 644745 1524 0
38 2 S102 1071 645816 2595 0
38 2 S102 997 646813 3592 0
38 2 S102 1036 647849 4628 0
38 2 S102 1009 648858 5637 0
38 2 S102 1047 649905 6684 0
0 0 0 1072 650977 -9486 0
0 0 0 1015 651992 -8471 0
0 0 0 985 652977 -7486 0
0 0 0 1018 653995 -6468 0
0 0 0 1027 655022 -5441 0
0 0 0 1019 656041 -4422 0
0 0 0 1048 657089 -3374 0
0 0 0 1075 658164 -2299 0
39 1 S116 988 659152 -1311 0
39 1 S116 1045 660197 -266 0
39 2 S116 1061 661258 795 0
39 2 S116 1078 662336 1873 0
39 2 S116 1084 663420 2957 0
39 2 S116 1023 664443 3980 0
39 2 S116 1057 665500 5037 0
39 2 S116 1073 666573 6110 0
0 0 0 1034 667607 -7859 0
0 0 0 1031 668638 -6828 0
0 0 0 1035 669673 -5793 0
0 0 0 1048 670721 -4745 0
0 0 0 991 671712 -3754 0
0 0 0 1010 672722 -2744 0
40 1 S112 1036 673758 -1708 0
40 1 S112 1072 674830 -636 0
40 2 S112 1071 675901 435 0
40 2 S112 1019 676920 1454 0
40 2 S112 1053 677973 2507 0
40 2 S112 1073 679046 3580 0
40 2 S112 1075 680121 4655 0
40 2 S112 1017 681138 5672 0
40 2 S112 1045 682183 6717 0
0 0 0 1043 683226 -186970 0
0 0 0 1032 684258 -185938 0
0 0 0 1007 685265 -184931 0
0 0 0 1019 686284 -183912 0
0 0 0 1037 687321 -182875 0
0 0 0 1041 688362 -181834 0
0 0 0 1001 689363 -180833 0
0 0 0 1008 690371 -179825 0
0 0 0 952 691323 -178873 0
0 0 0 914 692237 -177959 0
0 0 0 943 693180 -177016 0
0 0 0 931 694111 -176085 0
0 0 0 908 695019 -175177 0
0 0 0 894 695913 -174283 1
0 0 0 957 696870 -173326 0
0 0 0 1038 697908 -172288 0
0 0 0 982 698890 -171306 0
0 0 0 1019 699909 -170287 0
0 0 0 1050 700959 -169237 0
0 0 0 971 701930 -168266 0
0 0 0 981 702911 -167285 0
0 0 0 948 703859 -166337 0
0 0 0 966 704825 -165371 0
0 0 0 986 705811 -164385 0
0 0 0 1006 706817 -163379 0
0 0 0 999 707816 -162380 0
0 0 0 1017 708833 -161363 0
0 0 0 1054 709887 -160309 0
0 0 0 1069 710956 -159240 0
0 0 0 1053 712009 -158187 0
0 0 0 1068 713077 -157119 0
0 0 0 1081 714158 -156038 0
0 0 0 1098 715256 -154940 0
0 0 0 1102 716358 -153838 0
0 0 0 1048 717406 -152790 0
0 0 0 1065 718471 -151725 0
0 0 0 1061 719532 -150664 0
0 0 0 1061 720593 -149603 0
0 0 0 1027 721620 -148576 0
0 0 0 1006 722626 -147570 0
0 0 0 1039 723665 -146531 0
0 0 0 1065 724730 -145466 0
0 0 0 1062 725792 -144404 0
0 0 0 952 726744 -143452 0
0 0 0 922 727666 -142530 0
0 0 0 943 728609 -141587 0
0 0 0 932 729541 -140655 0
0 0 0 915 730456 -139740 0
0 0 0 886 731342 -138854 1
0 0 0 886 732228 -137968 1
0 0 0 874 733102 -137094 1
0 0 0 863 733965 -136231 1
0 0 0 886 734851 -135345 1
0 0 0 903 735754 -134442 0
0 0 0 925 736679 -133517 0
0 0 0 928 737607 -132589 0
0 0 0 900 738507 -131689 0
0 0 0 922 739429 -130767 0
0 0 0 929 740358 -129838 0
0 0 0 938 741296 -128900 0
0 0 0 931 742227 -127969 0
0 0 0 955 743182 -127014 0
0 0 0 992 744174 -126022 0
0 0 0 1017 745191 -125005 0
0 0 0 998 746189 -124007 0
0 0 0 1023 747212 -122984 0
0 0 0 1055 748267 -121929 0
0 0 0 1089 749356 -120840 0
0 0 0 1095 750451 -119745 0
0 0 0 1060 751511 -118685 0
0 0 0 1104 752615 -117581 0
0 0 0 1109 753724 -116472 0
0 0 0 1109 754833 -115363 0
0 0 0 1003 755836 -114360 0
0 0 0 1047 756883 -113313 0
0 0 0 1061 757944 -112252 0
0 0 0 1084 759028 -111168 0
0 0 0 1111 760139 -110057 0
0 0 0 1063 761202 -108994 0
0 0 0 1071 762273 -107923 0
0 0 0 1090 763363 -106833 0
0 0 0 1062 764425 -105771 0
0 0 0 1008 765433 -104763 0
0 0 0 1081 766514 -103682 0
0 0 0 1106 767620 -102576 0
0 0 0 1093 768713 -101483 0
0 0 0 1012 769725 -100471 0
0 0 0 1058 770783 -99413 0
0 0 0 1084 771867 -98329 0
0 0 0 1073 772940 -97256 0
0 0 0 996 773936 -96260 0
0 0 0 1040 774976 -95220 0
0 0 0 1006 775982 -94214 0
0 0 0 987 776969 -93227 0
0 0 0 915 777884 -92312 0
0 0 0 707 778591 -91605 1
0 0 0 819 779410 -90786 1
0 0 0 873 780283 -89913 1
0 0 0 886 781169 -89027 1
0 0 0 866 782035 -88161 1
0 0 0 928 782963 -87233 0
0 0 0 1012 783975 -86221 0
0 0 0 930 784905 -85291 0
0 0 0 1007 785912 -84284 0
0 0 0 1070 786982 -83214 0
0 0 0 1097 788079 -82117 0
0 0 0 1111 789190 -81006 0
0 0 0 1110 790300 -79896 0
0 0 0 1108 791408 -78788 0
0 0 0 1084 792492 -77704 0
0 0 0 1048 793540 -76656 0
0 0 0 1009 794549 -75647 0
0 0 0 1043 795592 -74604 0
0 0 0 1052 796644 -73552 0
0 0 0 1034 797678 -72518 0
0 0 0 948 798626 -71570 0
0 0 0 978 799604 -70592 0
0 0 0 992 800596 -69600 0
0 0 0 1035 801631 -68565 0
0 0 0 1047 802678 -67518 0
0 0 0 1094 803772 -66424 0
0 0 0 1148 804920 -65276 0
0 0 0 1125 806045 -64151 0
0 0 0 1120 807165 -63031 0
0 0 0 1143 808308 -61888 0
0 0 0 1161 809469 -60727 0
0 0 0 1080 810549 -59647 0
0 0 0 975 811524 -58672 0
0 0 0 981 812505 -57691 0
0 0 0 941 813446 -56750 0
0 0 0 908 814354 -55842 0
0 0 0 890 815244 -54952 1
0 0 0 891 816135 -54061 1
0 0 0 875 817010 -53186 1
0 0 0 872 817882 -52314 1
0 0 0 951 818833 -51363 0
0 0 0 978 819811 -50385 0
0 0 0 957 820768 -49428 0
0 0 0 1023 821791 -48405 0
0 0 0 1067 822858 -47338 0
0 0 0 1102 823960 -46236 0
0 0 0 1029 824989 -45207 0
0 0 0 1041 826030 -44166 0
0 0 0 1074 827104 -43092 0
0 0 0 1088 828192 -42004 0
0 0 0 1110 829302 -40894 0
0 0 0 1132 830434 -39762 0
0 0 0 1066 831500 -38696 0
0 0 0 1108 832608 -37588 0
0 0 0 1134 833742 -36454 0
0 0 0 1121 834863 -35333 0
0 0 0 1047 835910 -34286 0
0 0 0 1038 836948 -33248 0
0 0 0 1038 837986 -32210 0
0 0 0 1030 839016 -31180 0
0 0 0 983 839999 -30197 0
0 0 0 1021 841020 -29176 0
0 0 0 1056 842076 -28120 0
0 0 0 1059 843135 -27061 0
0 0 0 1059 844194 -26002 0
0 0 0 994 845188 -25008 0
0 0 0 1032 846220 -23976 0
0 0 0 1031 847251 -22945 0
0 0 0 999 848250 -21946 0
0 0 0 950 849200 -20996 0
0 0 0 991 850191 -20005 0
0 0 0 1016 851207 -18989 0
0 0 0 1034 852241 -17955 0
0 0 0 1028 853269 -16927 0
0 0 0 1045 854314 -15882 0
0 0 0 1043 855357 -14839 0
0 0 0 957 856314 -13882 0
0 0 0 934 857248 -12948 0
0 0 0 937 858185 -12011 0
0 0 0 1004 859189 -11007 0
0 0 0 1006 860195 -10001 0
0 0 0 971 861166 -9030 0
0 0 0 1029 862195 -8001 0
0 0 0 1056 863251 -6945 0
0 0 0 1072 864323 -5873 0
0 0 0 1017 865340 -4856 0
0 0 0 1059 866399 -3797 0
0 0 0 1058 867457 -2739 0
41 1 S102 995 868452 -1744 0
41 1 S102 996 869448 -748 0
41 2 S102 1001 870449 253 0
41 2 S102 1024 871473 1277 0
41 2 S102 1012 872485 2289 0
41 2 S102 1000 873485 3289 0
41 2 S102 1052 874537 4341 0
41 2 S102 1088 875625 5429 0
41 2 S102 1088 876713 6517 0
0 0 0 1044 877757 -7293 0
0 0 0 1114 878871 -6179 0
0 0 0 1123 879994 -5056 0
0 0 0 1052 881046 -4004 0
0 0 0 1036 882082 -2968 0
42 1 S112 1061 883143 -1907 0
42 1 S112 1093 884236 -814 0
42 2 S112 1047 885283 233 0
42 2 S112 1027 886310 1260 0
42 2 S112 1099 887409 2359 0
42 2 S112 1112 888521 3471 0
42 2 S112 1089 889610 4560 0
42 2 S112 1136 890746 5696 0
42 2 S112 1133 891879 6829 0
0 0 0 1053 892932 -10719 0
0 0 0 1094 894026 -9625 0
0 0 0 1113 895139 -8512 0
0 0 0 1117 896256 -7395 0
0 0 0 1121 897377 -6274 0
0 0 0 1125 898502 -5149 0
0 0 0 1134 899636 -4015 0
0 0 0 1115 900751 -2900 0
43 1 S116 1033 901784 -1867 0
43 1 S116 1073 902857 -794 0
43 2 S116 1088 903945 294 0
43 2 S116 1084 905029 1378 0
43 2 S116 1120 906149 2498 0
43 2 S116 1148 907297 3646 0
43 2 S116 1138 908435 4784 0
43 2 S116 1070 909505 5854 0
43 2 S116 1091 910596 6945 0
0 0 0 1088 911684 -6871 0
0 0 0 1020 912704 -5851 0
0 0 0 1052 913756 -4799 0
0 0 0 1036 914792 -3763 0
0 0 0 954 915746 -2809 0
44 1 S102 983 916729 -1826 0
44 1 S102 968 917697 -858 0
44 2 S102 935 918632 77 0
44 2 S102 954 919586 1031 0
44 2 S102 986 920572 2017 0
44 2 S102 918 921490 2935 0
44 2 S102 969 922459 3904 0
44 2 S102 990 923449 4894 0
44 2 S102 1028 924477 5922 0
44 2 S102 1028 925505 6950 0
0 0 0 993 926498 -7044 0
0 0 0 998 927496 -6046 0
0 0 0 1002 928498 -5044 0
0 0 0 961 929459 -4083 0
0 0 0 976 930435 -3107 0
0 0 0 1016 931451 -2091 0
45 1 S116 1078 932529 -1013 0
45 2 S116 1097 933626 84 0
45 2 S116 1102 934728 1186 0
45 2 S116 1157 935885 2343 0
45 2 S116 1158 937043 3501 0
45 2 S116 1138 938181 4639 0
45 2 S116 1108 939289 5747 0
45 2 S116 1133 940422 6880 0
0 0 0 1081 941503 -9480 0
0 0 0 1083 942586 -8397 0
0 0 0 1050 943636 -7347 0
0 0 0 1016 944652 -6331 0
0 0 0 1038 945690 -5293 0
0 0 0 1061 946751 -4232 0
0 0 0 1068 947819 -3164 0
0 0 0 987 948806 -2177 0
46 1 S102 1040 949846 -1137 0
46 1 S102 1068 950914 -69 0
46 2 S102 1100 952014 1031 0
46 2 S102 1066 953080 2097 0
46 2 S102 1112 954192 3209 0
46 2 S102 1119 955311 4328 0
46 2 S102 1085 956396 5413 0
46 2 S102 1061 957457 6474 0
0 0 0 1104 958561 -7591 0
0 0 0 1077 959638 -6514 0
0 0 0 964 960602 -5550 0
0 0 0 998 961600 -4552 0
0 0 0 1044 962644 -3508 0
0 0 0 1036 963680 -2472 0
47 1 S112 970 964650 -1502 0
47 1 S112 1005 965655 -497 0
47 2 S112 941 966596 444 0
47 2 S112 931 967527 1375 0
47 2 S112 992 968519 2367 0
47 2 S112 1034 969553 3401 0
47 2 S112 969 970522 4370 0
47 2 S112 1047 971569 5417 0
47 2 S112 1102 972671 6519 0
0 0 0 1153 973824 -10730 0
0 0 0 1114 974938 -9616 0
0 0 0 1082 976020 -8534 0
0 0 0 1092 977112 -7442 0
0 0 0 1093 978205 -6349 0
0 0 0 1034 979239 -5315 0
0 0 0 1069 980308 -4246 0
0 0 0 1075 981383 -3171 0
0 0 0 1107 982490 -2064 0
48 1 S116 1085 983575 -979 0
48 2 S116 1104 984679 125 0
48 2 S116 1125 985804 1250 0
48 2 S116 1155 986959 2405 0
48 2 S116 1105 988064 3510 0
48 2 S116 1020 989084 4530 0
48 2 S116 1068 990152 5598 0
48 2 S116 1107 991259 6705 0
0 0 0 1105 992364 -5585 0
0 0 0 1045 993409 -4540 0
0 0 0 1073 994482 -3467 0
0 0 0 1018 995500 -2449 0
49 1 S112 1057 996557 -1392 0
49 1 S112 1085 997642 -307 0
49 2 S112 1117 998759 810 0
49 2 S112 1092 999851 1902 0
49 2 S112 1110 1000961 3012 0
49 2 S112 1147 1002108 4159 0
49 2 S112 1136 1003244 5295 0
49 2 S112 1058 1004302 6353 0
0 0 0 1095 1005397 -10208 0
0 0 0 1079 1006476 -9129 0
0 0 0 1022 1007498 -8107 0
0 0 0 1003 1008501 -7104 0
0 0 0 1031 1009532 -6073 0
0 0 0 1023 1010555 -5050 0
0 0 0 1018 1011573 -4032 0
0 0 0 1068 1012641 -2964 0
50 1 S106 1109 1013750 -1855 0
50 1 S106 1132 1014882 -723 0
50 2 S106 1135 1016017 412 0
50 2 S106 1091 1017108 1503 0
50 2 S106 1018 1018126 2521 0
50 2 S106 1064 1019190 3585 0
50 2 S106 1098 1020288 4683 0
50 2 S106 1099 1021387 5782 0
50 2 S106 1033 1022420 6815 0
0 0 0 1125 1023545 -6467 0
0 0 0 1143 1024688 -5324 0
0 0 0 1091 1025779 -4233 0
0 0 0 1007 1026786 -3226 0
0 0 0 1029 1027815 -2197 0
51 1 S112 1037 1028852 -1160 0
51 1 S112 1033 1029885 -127 0
51 2 S112 976 1030861 849 0
51 2 S112 1011 1031872 1860 0
51 2 S112 1011 1032883 2871 0
51 2 S112 1038 1033921 3909 0
51 2 S112 1044 1034965 4953 0
51 2 S112 990 1035955 5943 0
51 2 S112 1001 1036956 6944 0
0 0 0 1009 1037965 -5823 0
0 0 0 1002 1038967 -4821 0
0 0 0 962 1039929 -3859 0
0 0 0 967 1040896 -2892 0
52 1 S116 994 1041890 -1898 0
52 1 S116 1041 1042931 -857 0
52 2 S116 1061 1043992 204 0
52 2 S116 1013 1045005 1217 0
52 2 S116 1090 1046095 2307 0
52 2 S116 1103 1047198 3410 0
52 2 S116 1100 1048298 4510 0
52 2 S116 1025 1049323 5535 0
52 2 S116 1059 1050382 6594 0
0 0 0 1063 1051445 -8010 0
0 0 0 1046 1052491 -6964 0
0 0 0 1003 1053494 -5961 0
0 0 0 1008 1054502 -4953 0
0 0 0 1025 1055527 -3928 0
0 0 0 1072 1056599 -2856 0
53 1 S106 995 1057594 -1861 0
53 1 S106 1066 1058660 -795 0
53 2 S106 1098 1059758 303 0
53 2 S106 1104 1060862 1407 0
53 2 S106 1130 1061992 2537 0
53 2 S106 1055 1063047 3592 0
53 2 S106 1103 1064150 4695 0
53 2 S106 1112 1065262 5807 0
53 2 S106 1130 1066392 6937 0
0 0 0 1058 1067450 -6561 0
0 0 0 1069 1068519 -5492 0
0 0 0 1079 1069598 -4413 0
0 0 0 1063 1070661 -3350 0
0 0 0 984 1071645 -2366 0
54 1 S102 1043 1072688 -1323 0
54 1 S102 1042 1073730 -281 0
54 2 S102 1006 1074736 725 0
54 2 S102 1068 1075804 1793 0
54 2 S102 1091 1076895 2884 0
54 2 S102 1119 1078014 4003 0
54 2 S102 1048 1079062 5051 0
54 2 S102 1068 1080130 6119 0
0 0 0 1044 1081174 -9929 0
0 0 0 970 1082144 -8959 0
0 0 0 990 1083134 -7969 0
0 0 0 1001 1084135 -6968 0
0 0 0 1015 1085150 -5953 0
0 0 0 949 1086099 -5004 0
0 0 0 1024 1087123 -3980 0
0 0 0 1045 1088168 -2935 0
55 1 S106 1050 1089218 -1885 0
55 1 S106 1013 1090231 -872 0
55 2 S106 1059 1091290 187 0
55 2 S106 1065 1092355 1252 0
55 2 S106 1074 1093429 2326 0
55 2 S106 1025 1094454 3351 0
55 2 S106 1011 1095465 4362 0
55 2 S106 1006 1096471 5368 0
55 2 S106 987 1097458 6355 0
0 0 0 1010 1098468 -6561 0
0 0 0 1002 1099470 -5559 0
0 0 0 998 1100468 -4561 0
0 0 0 950 1101418 -3611 0
0 0 0 976 1102394 -2635 0
56 1 S116 994 1103388 -1641 0
56 1 S116 1022 1104410 -619 0
56 2 S116 988 1105398 369 0
56 2 S116 1067 1106465 1436 0
56 2 S116 1097 1107562 2533 0
56 2 S116 1039 1108601 3572 0
56 2 S116 1101 1109702 4673 0
56 2 S116 1118 1110820 5791 0
56 2 S116 1088 1111908 6879 0
0 0 0 1050 1112958 -7224 0
0 0 0 1080 1114038 -6144 0
0 0 0 1096 1115134 -5048 0
0 0 0 1043 1116177 -4005 0
0 0 0 1011 1117188 -2994 0
57 1 S106 1042 1118230 -1952 0
57 1 S106 1061 1119291 -891 0
57 2 S106 977 1120268 86 0
57 2 S106 1037 1121305 1123 0
57 2 S106 1052 1122357 2175 0
57 2 S106 1059 1123416 3234 0
57 2 S106 1016 1124432 4250 0
57 2 S106 1056 1125488 5306 0
57 2 S106 1049 1126537 6355 0
0 0 0 1025 1127562 -9049 0
0 0 0 984 1128546 -8065 0
0 0 0 993 1129539 -7072 0
0 0 0 1001 1130540 -6071 0
0 0 0 982 1131522 -5089 0
0 0 0 1023 1132545 -4066 0
0 0 0 1038 1133583 -3028 0
0 0 0 1027 1134610 -2001 0
58 1 S102 1044 1135654 -957 0
58 2 S102 1064 1136718 107 0
58 2 S102 1060 1137778 1167 0
58 2 S102 988 1138766 2155 0
58 2 S102 1020 1139786 3175 0
58 2 S102 1022 1140808 4197 0
58 2 S102 1058 1141866 5255 0
58 2 S102 1064 1142930 6319 0
0 0 0 1062 1143992 -6677 0
0 0 0 1088 1145080 -5589 0
0 0 0 1045 1146125 -4544 0
0 0 0 964 1147089 -3580 0
0 0 0 981 1148070 -2599 0
59 1 S112 977 1149047 -1622 0
59 1 S112 998 1150045 -624 0
59 2 S112 1011 1151056 387 0
59 2 S112 1011 1152067 1398 0
59 2 S112 1065 1153132 2463 0
59 2 S112 1101 1154233 3564 0
59 2 S112 1070 1155303 4634 0
59 2 S112 1085 1156388 5719 0
59 2 S112 1080 1157468 6799 0
0 0 0 1065 1158533 -7687 0
0 0 0 960 1159493 -6727 0
0 0 0 989 1160482 -5738 0
0 0 0 993 1161475 -4745 0
0 0 0 969 1162444 -3776 0
0 0 0 982 1163426 -2794 0
60 1 S102 1001 1164427 -1793 0
60 1 S102 1065 1165492 -728 0
60 2 S102 992 1166484 264 0
60 2 S102 1059 1167543 1323 0
60 2 S102 1077 1168620 2400 0
60 2 S102 1070 1169690 3470 0
60 2 S102 1002 1170692 4472 0
60 2 S102 1034 1171726 5506 0
60 2 S102 1057 1172783 6563 0
0 0 0 982 1173765 -10094 0
0 0 0 1004 1174769 -9090 0
0 0 0 1005 1175774 -8085 0
0 0 0 1000 1176774 -7085 0
0 0 0 1001 1177775 -6084 0
0 0 0 950 1178725 -5134 0
0 0 0 1010 1179735 -4124 0
0 0 0 1061 1180796 -3063 0
61 1 S106 1071 1181867 -1992 0
61 1 S106 1033 1182900 -959 0
61 2 S106 1057 1183957 98 0
61 2 S106 1101 1185058 1199 0
61 2 S106 1061 1186119 2260 0
61 2 S106 1082 1187201 3342 0
61 2 S106 1131 1188332 4473 0
61 2 S106 1110 1189442 5583 0
61 2 S106 1038 1190480 6621 0
0 0 0 1084 1191564 -7597 0
0 0 0 1097 1192661 -6500 0
0 0 0 1109 1193770 -5391 0
0 0 0 1038 1194808 -4353 0
0 0 0 994 1195802 -3359 0
0 0 0 1016 1196818 -2343 0
62 1 S112 1026 1197844 -1317 0
62 1 S112 1004 1198848 -313 0
62 2 S112 1066 1199914 753 0
62 2 S112 1088 1201002 1841 0
62 2 S112 1105 1202107 2946 0
62 2 S112 1091 1203198 4037 0
62 2 S112 1135 1204333 5172 0
62 2 S112 1120 1205453 6292 0
0 0 0 1050 1206503 -10861 0
0 0 0 1065 1207568 -9796 0
0 0 0 1035 1208603 -8761 0
0 0 0 1035 1209638 -7726 0
0 0 0 950 1210588 -6776 0
0 0 0 988 1211576 -5788 0
0 0 0 1002 1212578 -4786 0
0 0 0 1033 1213611 -3753 0
0 0 0 1047 1214658 -2706 0
63 1 S102 988 1215646 -1718 0
63 1 S102 1053 1216699 -665 0
63 2 S102 1077 1217776 412 0
63 2 S102 1047 1218823 1459 0
63 2 S102 1088 1219911 2547 0
63 2 S102 1106 1221017 3653 0
63 2 S102 1090 1222107 4743 0
63 2 S102 1085 1223192 5828 0
63 2 S102 1095 1224287 6923 0
0 0 0 1089 1225376 -9992 0
0 0 0 979 1226355 -9013 0
0 0 0 945 1227300 -8068 0
0 0 0 956 1228256 -7112 0
0 0 0 947 1229203 -6165 0
0 0 0 1024 1230227 -5141 0
0 0 0 986 1231213 -4155 0
0 0 0 1028 1232241 -3127 0
0 0 0 1075 1233316 -2052 0
64 1 S112 1128 1234444 -924 0
64 2 S112 1088 1235532 164 0
64 2 S112 1046 1236578 1210 0
64 2 S112 1102 1237680 2312 0
64 2 S112 1101 1238781 3413 0
64 2 S112 1038 1239819 4451 0
64 2 S112 1061 1240880 5512 0
64 2 S112 1077 1241957 6589 0
0 0 0 1061 1243018 -8150 0
0 0 0 1019 1244037 -7131 0
0 0 0 1053 1245090 -6078 0
0 0 0 1048 1246138 -5030 0
0 0 0 977 1247115 -4053 0
0 0 0 979 1248094 -3074 0
0 0 0 978 1249072 -2096 0
65 1 S106 990 1250062 -1106 0
65 1 S106 997 1251059 -109 0
65 2 S106 960 1252019 851 0
65 2 S106 1017 1253036 1868 0
65 2 S106 1029 1254065 2897 0
65 2 S106 1041 1255106 3938 0
65 2 S106 973 1256079 4911 0
65 2 S106 1013 1257092 5924 0
65 2 S106 1019 1258111 6943 0
0 0 0 1055 1259166 -5679 0
0 0 0 1048 1260214 -4631 0
0 0 0 949 1261163 -3682 0
0 0 0 992 1262155 -2690 0
66 1 S116 994 1263149 -1696 0
66 1 S116 1024 1264173 -672 0
66 2 S116 975 1265148 303 0
66 2 S116 1051 1266199 1354 0
66 2 S116 1108 1267307 2462 0
66 2 S116 1105 1268412 3567 0
66 2 S116 1133 1269545 4700 0
66 2 S116 1172 1270717 5872 0
0 0 0 1168 1271885 -11511 0
0 0 0 1106 1272991 -10405 0
0 0 0 1111 1274102 -9294 0
0 0 0 1110 1275212 -8184 0
0 0 0 1024 1276236 -7160 0
0 0 0 1057 1277293 -6103 0
0 0 0 1088 1278381 -5015 0
0 0 0 1040 1279421 -3975 0
0 0 0 1060 1280481 -2915 0
67 1 S102 1068 1281549 -1847 0
67 1 S102 1075 1282624 -772 0
67 2 S102 1022 1283646 250 0
67 2 S102 1086 1284732 1336 0
67 2 S102 1115 1285847 2451 0
67 2 S102 1096 1286943 3547 0
67 2 S102 983 1287926 4530 0
67 2 S102 1029 1288955 5559 0
67 2 S102 1061 1290016 6620 0
0 0 0 1096 1291112 -5596 0
0 0 0 1056 1292168 -4540 0
0 0 0 1065 1293233 -3475 0
0 0 0 1046 1294279 -2429 0
68 1 S106 1057 1295336 -1372 0
68 1 S106 971 1296307 -401 0
68 2 S106 1029 1297336 628 0
68 2 S106 1051 1298387 1679 0
68 2 S106 1080 1299467 2759 0
68 2 S106 1065 1300532 3824 0
68 2 S106 1126 1301658 4950 0
68 2 S106 1125 1302783 6075 0
0 0 0 1116 1303899 -12007 0
0 0 0 1097 1304996 -10910 0
0 0 0 971 1305967 -9939 0
0 0 0 982 1306949 -8957 0
0 0 0 951 1307900 -8006 0
0 0 0 965 1308865 -7041 0
0 0 0 991 1309856 -6050 0
0 0 0 956 1310812 -5094 0
0 0 0 1015 1311827 -4079 0
0 0 0 1070 1312897 -3009 0
69 1 S102 1106 1314003 -1903 0
69 1 S102 1032 1315035 -871 0
69 2 S102 1104 1316139 233 0
69 2 S102 1128 1317267 1361 0
69 2 S102 1110 1318377 2471 0
69 2 S102 1036 1319413 3507 0
69 2 S102 1069 1320482 4576 0
69 2 S102 1059 1321541 5635 0
69 2 S102 1052 1322593 6687 0
0 0 0 1018 1323611 -7995 0
0 0 0 1030 1324641 -6965 0
0 0 0 1038 1325679 -5927 0
0 0 0 1055 1326734 -4872 0
0 0 0 1047 1327781 -3825 0
0 0 0 1065 1328846 -2760 0
70 1 S112 1092 1329938 -1668 0
70 1 S112 1111 1331049 -557 0
70 2 S112 1076 1332125 519 0
70 2 S112 1101 1333226 1620 0
70 2 S112 1103 1334329 2723 0
70 2 S112 1042 1335371 3765 0
70 2 S112 955 1336326 4720 0
70 2 S112 980 1337306 5700 0
70 2 S112 980 1338286 6680 0
0 0 0 984 1339270 -9843 0
0 0 0 998 1340268 -8845 0
0 0 0 984 1341252 -7861 0
0 0 0 999 1342251 -6862 0
0 0 0 999 1343250 -5863 0
0 0 0 1014 1344264 -4849 0
0 0 0 1055 1345319 -3794 0
0 0 0 1071 1346390 -2723 0
71 1 S116 989 1347379 -1734 0
71 1 S116 1027 1348406 -707 0
71 2 S116 1015 1349421 308 0
71 2 S116 1009 1350430 1317 0
71 2 S116 946 1351376 2263 0
71 2 S116 994 1352370 3257 0
71 2 S116 1048 1353418 4305 0
71 2 S116 1098 1354516 5403 0
71 2 S116 1089 1355605 6492 0
0 0 0 1115 1356720 -8855 0
0 0 0 990 1357710 -7865 0
0 0 0 999 1358709 -6866 0
0 0 0 988 1359697 -5878 0
0 0 0 992 1360689 -4886 0
0 0 0 1012 1361701 -3874 0
0 0 0 1058 1362759 -2816 0
72 1 S102 1119 1363878 -1697 0
72 1 S102 1101 1364979 -596 0
72 2 S102 1003 1365982 407 0
72 2 S102 1071 1367053 1478 0
72 2 S102 1084 1368137 2562 0
72 2 S102 1103 1369240 3665 0
72 2 S102 1063 1370303 4728 0
72 2 S102 1107 1371410 5835 0
72 2 S102 1113 1372523 6948 0
0 0 0 1080 1373603 -6064 0
0 0 0 1046 1374649 -5018 0
0 0 0 1017 1375666 -4001 0
0 0 0 1052 1376718 -2949 0
73 1 S116 1007 1377725 -1942 0
73 1 S116 927 1378652 -1015 0
73 1 S116 905 1379557 -110 0
73 2 S116 912 1380469 802 0
73 2 S116 879 1381348 1681 1
73 2 S116 895 1382243 2576 1
73 2 S116 1006 1383249 3582 0
73 2 S116 1061 1384310 4643 0
73 2 S116 950 1385260 5593 0
73 2 S116 1044 1386304 6637 0
0 0 0 1119 1387423 -9734 0
0 0 0 1104 1388527 -8630 0
0 0 0 1146 1389673 -7484 0
0 0 0 1090 1390763 -6394 0
0 0 0 982 1391745 -5412 0
0 0 0 1004 1392749 -4408 0
0 0 0 1008 1393757 -3400 0
0 0 0 1004 1394761 -2396 0
74 1 S106 1010 1395771 -1386 0
74 1 S106 1010 1396781 -376 0
74 2 S106 1043 1397824 667 0
74 2 S106 1060 1398884 1727 0
74 2 S106 1077 1399961 2804 0
74 2 S106 1058 1401019 3862 0
74 2 S106 974 1401993 4836 0
74 2 S106 1035 1403028 5871 0
74 2 S106 1088 1404116 6959 0
0 0 0 1124 1405240 -5379 0
0 0 0 1065 1406305 -4314 0
0 0 0 1025 1407330 -3289 0
0 0 0 1024 1408354 -2265 0
75 1 S112 1030 1409384 -1235 0
75 1 S112 986 1410370 -249 0
75 2 S112 1027 1411397 778 0
75 2 S112 1049 1412446 1827 0
75 2 S112 1084 1413530 2911 0
75 2 S112 1081 1414611 3992 0
75 2 S112 1083 1415694 5075 0
75 2 S112 996 1416690 6071 0
0 0 0 1009 1417699 -9515 0
0 0 0 1010 1418709 -8505 0
0 0 0 997 1419706 -7508 0
0 0 0 1078 1420784 -6430 0
0 0 0 1110 1421894 -5320 0
0 0 0 1084 1422978 -4236 0
0 0 0 996 1423974 -3240 0
0 0 0 1015 1424989 -2225 0
76 1 S116 972 1425961 -1253 0
76 1 S116 941 1426902 -312 0
76 2 S116 910 1427812 598 0
76 2 S116 883 1428695 1481 1
76 2 S116 918 1429613 2399 0
76 2 S116 985 1430598 3384 0
76 2 S116 1028 1431626 4412 0
76 2 S116 1064 1432690 5476 0
76 2 S116 1076 1433766 6552 0
0 0 0 1004 1434770 -6054 0
0 0 0 982 1435752 -5072 0
0 0 0 955 1436707 -4117 0
0 0 0 935 1437642 -3182 0
0 0 0 915 1438557 -2267 0
77 1 S106 938 1439495 -1329 0
77 1 S106 953 1440448 -376 0
77 2 S106 926 1441374 550 0
77 2 S106 1008 1442382 1558 0
77 2 S106 1042 1443424 2600 0
77 2 S106 1079 1444503 3679 0
77 2 S106 1091 1445594 4770 0
77 2 S106 1114 1446708 5884 0
77 2 S106 1117 1447825 7001 0
0 0 0 1105 1448930 -7130 0
0 0 0 986 1449916 -6144 0
0 0 0 1017 1450933 -5127 0
0 0 0 1014 1451947 -4113 0
0 0 0 1030 1452977 -3083 0
0 0 0 1054 1454031 -2029 0
78 1 S112 1025 1455056 -1004 0
78 2 S112 1053 1456109 49 0
78 2 S112 1016 1457125 1065 0
78 2 S112 999 1458124 2064 0
78 2 S112 1047 1459171 3111 0
78 2 S112 1103 1460274 4214 0
78 2 S112 1123 1461397 5337 0
78 2 S112 987 1462384 6324 0
0 0 0 1093 1463477 -9708 0
0 0 0 1111 1464588 -8597 0
0 0 0 1035 1465623 -7562 0
0 0 0 1029 1466652 -6533 0
0 0 0 1045 1467697 -5488 0
0 0 0 1058 1468755 -4430 0
0 0 0 989 1469744 -3441 0
0 0 0 1049 1470793 -2392 0
79 1 S102 1062 1471855 -1330 0
79 1 S102 1068 1472923 -262 0
79 2 S102 1085 1474008 823 0
79 2 S102 1086 1475094 1909 0
79 2 S102 1101 1476195 3010 0
79 2 S102 1074 1477269 4084 0
79 2 S102 1015 1478284 5099 0
79 2 S102 990 1479274 6089 0
0 0 0 967 1480241 -9788 0
0 0 0 981 1481222 -8807 0
0 0 0 916 1482138 -7891 0
0 0 0 966 1483104 -6925 0
0 0 0 968 1484072 -5957 0
0 0 0 1022 1485094 -4935 0
0 0 0 1032 1486126 -3903 0
0 0 0 996 1487122 -2907 0
80 1 S116 1052 1488174 -1855 0
80 1 S116 1023 1489197 -832 0
80 2 S116 1013 1490210 181 0
80 2 S116 1054 1491264 1235 0
80 2 S116 1072 1492336 2307 0
80 2 S116 1073 1493409 3380 0
80 2 S116 1044 1494453 4424 0
80 2 S116 1086 1495539 5510 0
80 2 S116 1120 1496659 6630 0
