T_0001
BeatCount Mean SD BeatCountNoOutliers MeanNoOutliers SDNoOutliers
2177 700,214515388149 40,7893554392302 2155 700,038051044084 36,660225561917

Trial TrialStatus Trialtype IBI AbsPosition RelPosition Outlier
0 0 0 665 1025 -14656 0
0 0 0 693 1718 -13963 0
0 0 0 664 2382 -13299 0
0 0 0 672 3054 -12627 0
0 0 0 640 3694 -11987 0
0 0 0 659 4353 -11328 0
0 0 0 676 5029 -10652 0
0 0 0 713 5742 -9939 0
0 0 0 660 6402 -9279 0
0 0 0 680 7082 -8599 0
0 0 0 695 7777 -7904 0
0 0 0 700 8477 -7204 0
0 0 0 696 9173 -6508 0
0 0 0 686 9859 -5822 0
0 0 0 693 10552 -5129 0
0 0 0 709 11261 -4420 0
0 0 0 704 11965 -3716 0
0 0 0 679 12644 -3037 0
0 0 0 692 13336 -2345 0
1 1 S112 700 14036 -1645 0
1 1 S112 717 14753 -928 0
1 1 S112 706 15459 -222 0
1 2 S112 690 16149 468 0
1 2 S112 714 16863 1182 0
1 2 S112 728 17591 1910 0
1 2 S112 742 18333 2652 0
1 2 S112 716 19049 3368 0
1 2 S112 759 19808 4127 0
1 2 S112 748 20556 4875 0
1 2 S112 741 21297 5616 0
1 2 S112 705 22002 6321 0
0 0 0 716 22718 -11149 0
0 0 0 728 23446 -10421 0
0 0 0 686 24132 -9735 0
0 0 0 693 24825 -9042 0
0 0 0 707 25532 -8335 0
0 0 0 708 26240 -7627 0
0 0 0 678 26918 -6949 0
0 0 0 692 27610 -6257 0
0 0 0 698 28308 -5559 0
0 0 0 721 29029 -4838 0
0 0 0 683 29712 -4155 0
0 0 0 678 30390 -3477 0
0 0 0 677 31067 -2800 0
0 0 0 676 31743 -2124 0
2 1 S102 660 32403 -1464 0
2 1 S102 670 33073 -794 0
2 1 S102 685 33758 -109 0
2 2 S102 722 34480 613 0
2 2 S102 701 35181 1314 0
2 2 S102 705 35886 2019 0
2 2 S102 731 36617 2750 0
2 2 S102 745 37362 3495 0
2 2 S102 707 38069 4202 0
2 2 S102 705 38774 4907 0
2 2 S102 719 39493 5626 0
2 2 S102 747 40240 6373 0
0 0 0 745 40985 -10008 0
0 0 0 765 41750 -9243 0
0 0 0 797 42547 -8446 0
0 0 0 844 43391 -7602 1
0 0 0 821 44212 -6781 1
0 0 0 795 45007 -5986 0
0 0 0 782 45789 -5204 0
0 0 0 775 46564 -4429 0
0 0 0 729 47293 -3700 0
0 0 0 739 48032 -2961 0
0 0 0 729 48761 -2232 0
3 1 S116 710 49471 -1522 0
3 1 S116 694 50165 -828 0
3 1 S116 693 50858 -135 0
3 2 S116 724 51582 589 0
3 2 S116 717 52299 1306 0
3 2 S116 699 52998 2005 0
3 2 S116 737 53735 2742 0
3 2 S116 753 54488 3495 0
3 2 S116 790 55278 4285 0
3 2 S116 740 56018 5025 0
3 2 S116 759 56777 5784 0
3 2 S116 755 57532 6539 0
0 0 0 760 58292 -11086 0
0 0 0 739 59031 -10347 0
0 0 0 749 59780 -9598 0
0 0 0 777 60557 -8821 0
0 0 0 777 61334 -8044 0
0 0 0 734 62068 -7310 0
0 0 0 772 62840 -6538 0
0 0 0 775 63615 -5763 0
0 0 0 749 64364 -5014 0
0 0 0 743 65107 -4271 0
0 0 0 740 65847 -3531 0
0 0 0 729 66576 -2802 0
0 0 0 699 67275 -2103 0
4 1 S106 723 67998 -1380 0
4 1 S106 725 68723 -655 0
4 2 S106 740 69463 85 0
4 2 S106 704 70167 789 0
4 2 S106 740 70907 1529 0
4 2 S106 731 71638 2260 0
4 2 S106 738 72376 2998 0
4 2 S106 711 73087 3709 0
4 2 S106 737 73824 4446 0
4 2 S106 748 74572 5194 0
4 2 S106 748 75320 5942 0
4 2 S106 720 76040 6662 0
0 0 0 754 76794 -6543 0
0 0 0 764 77558 -5779 0
0 0 0 782 78340 -4997 0
0 0 0 740 79080 -4257 0
0 0 0 744 79824 -3513 0
0 0 0 738 80562 -2775 0
0 0 0 724 81286 -2051 0
5 1 S116 721 82007 -1330 0
5 1 S116 740 82747 -590 0
5 2 S116 768 83515 178 0
5 2 S116 768 84283 946 0
5 2 S116 728 85011 1674 0
5 2 S116 724 85735 2398 0
5 2 S116 726 86461 3124 0
5 2 S116 741 87202 3865 0
5 2 S116 710 87912 4575 0
5 2 S116 719 88631 5294 0
5 2 S116 735 89366 6029 0
5 2 S116 775 90141 6804 0
0 0 0 763 90904 -8796 0
0 0 0 723 91627 -8073 0
0 0 0 740 92367 -7333 0
0 0 0 749 93116 -6584 0
0 0 0 739 93855 -5845 0
0 0 0 738 94593 -5107 0
0 0 0 751 95344 -4356 0
0 0 0 736 96080 -3620 0
0 0 0 729 96809 -2891 0
0 0 0 697 97506 -2194 0
6 1 S106 682 98188 -1512 0
6 1 S106 663 98851 -849 0
6 1 S106 659 99510 -190 0
6 2 S106 641 100151 451 0
6 2 S106 664 100815 1115 0
6 2 S106 691 101506 1806 0
6 2 S106 712 102218 2518 0
6 2 S106 684 102902 3202 0
6 2 S106 719 103621 3921 0
6 2 S106 714 104335 4635 0
6 2 S106 694 105029 5329 0
6 2 S106 654 105683 5983 0
6 2 S106 645 106328 6628 0
0 0 0 655 106983 -10638 0
0 0 0 634 107617 -10004 0
0 0 0 662 108279 -9342 0
0 0 0 713 108992 -8629 0
0 0 0 705 109697 -7924 0
0 0 0 685 110382 -7239 0
0 0 0 723 111105 -6516 0
0 0 0 752 111857 -5764 0
0 0 0 763 112620 -5001 0
0 0 0 710 113330 -4291 0
0 0 0 729 114059 -3562 0
0 0 0 729 114788 -2833 0
0 0 0 756 115544 -2077 0
7 1 S102 715 116259 -1362 0
7 1 S102 729 116988 -633 0
7 2 S102 754 117742 121 0
7 2 S102 793 118535 914 0
7 2 S102 796 119331 1710 0
7 2 S102 762 120093 2472 0
7 2 S102 766 120859 3238 0
7 2 S102 772 121631 4010 0
7 2 S102 787 122418 4797 0
7 2 S102 782 123200 5579 0
7 2 S102 794 123994 6373 0
0 0 0 793 124787 -8567 0
0 0 0 789 125576 -7778 0
0 0 0 741 126317 -7037 0
0 0 0 741 127058 -6296 0
0 0 0 737 127795 -5559 0
0 0 0 745 128540 -4814 0
0 0 0 721 129261 -4093 0
0 0 0 741 130002 -3352 0
0 0 0 763 130765 -2589 0
8 1 S112 763 131528 -1826 0
8 1 S112 715 132243 -1111 0
8 1 S112 733 132976 -378 0
8 2 S112 719 133695 341 0
8 2 S112 737 134432 1078 0
8 2 S112 734 135166 1812 0
8 2 S112 714 135880 2526 0
8 2 S112 712 136592 3238 0
8 2 S112 726 137318 3964 0
8 2 S112 759 138077 4723 0
8 2 S112 739 138816 5462 0
8 2 S112 737 139553 6199 0
8 2 S112 772 140325 6971 0
0 0 0 762 141087 -6027 0
0 0 0 735 141822 -5292 0
0 0 0 709 142531 -4583 0
0 0 0 716 143247 -3867 0
0 0 0 722 143969 -3145 0
0 0 0 736 144705 -2409 0
9 1 S116 706 145411 -1703 0
9 1 S116 727 146138 -976 0
9 1 S116 730 146868 -246 0
9 2 S116 739 147607 493 0
9 2 S116 701 148308 1194 0
9 2 S116 716 149024 1910 0
9 2 S116 734 149758 2644 0
9 2 S116 718 150476 3362 0
9 2 S116 693 151169 4055 0
9 2 S116 700 151869 4755 0
9 2 S116 692 152561 5447 0
9 2 S116 718 153279 6165 0
9 2 S116 726 154005 6891 0
0 0 0 723 154728 -9893 0
0 0 0 742 155470 -9151 0
0 0 0 757 156227 -8394 0
0 0 0 716 156943 -7678 0
0 0 0 727 157670 -6951 0
0 0 0 740 158410 -6211 0
0 0 0 751 159161 -5460 0
0 0 0 725 159886 -4735 0
0 0 0 727 160613 -4008 0
0 0 0 735 161348 -3273 0
0 0 0 728 162076 -2545 0
10 1 S102 686 162762 -1859 0
10 1 S102 678 163440 -1181 0
10 1 S102 680 164120 -501 0
10 2 S102 679 164799 178 0
10 2 S102 676 165475 854 0
10 2 S102 668 166143 1522 0
10 2 S102 686 166829 2208 0
10 2 S102 711 167540 2919 0
10 2 S102 726 168266 3645 0
10 2 S102 698 168964 4343 0
10 2 S102 704 169668 5047 0
10 2 S102 714 170382 5761 0
10 2 S102 734 171116 6495 0
0 0 0 709 171825 -10883 0
0 0 0 713 172538 -10170 0
0 0 0 735 173273 -9435 0
0 0 0 740 174013 -8695 0
0 0 0 701 174714 -7994 0
0 0 0 706 175420 -7288 0
0 0 0 713 176133 -6575 0
0 0 0 735 176868 -5840 0
0 0 0 697 177565 -5143 0
0 0 0 699 178264 -4444 0
0 0 0 700 178964 -3744 0
0 0 0 707 179671 -3037 0
0 0 0 678 180349 -2359 0
11 1 S112 668 181017 -1691 0
11 1 S112 679 181696 -1012 0
11 1 S112 696 182392 -316 0
11 2 S112 721 183113 405 0
11 2 S112 707 183820 1112 0
11 2 S112 722 184542 1834 0
11 2 S112 766 185308 2600 0
11 2 S112 788 186096 3388 0
11 2 S112 765 186861 4153 0
11 2 S112 729 187590 4882 0
11 2 S112 734 188324 5616 0
11 2 S112 757 189081 6373 0
0 0 0 739 189820 -6300 0
0 0 0 718 190538 -5582 0
0 0 0 708 191246 -4874 0
0 0 0 702 191948 -4172 0
0 0 0 696 192644 -3476 0
0 0 0 671 193315 -2805 0
0 0 0 672 193987 -2133 0
12 1 S116 680 194667 -1453 0
12 1 S116 700 195367 -753 0
12 1 S116 684 196051 -69 0
12 2 S116 687 196738 618 0
12 2 S116 718 197456 1336 0
12 2 S116 753 198209 2089 0
12 2 S116 736 198945 2825 0
12 2 S116 726 199671 3551 0
12 2 S116 727 200398 4278 0
12 2 S116 744 201142 5022 0
12 2 S116 726 201868 5748 0
12 2 S116 707 202575 6455 0
0 0 0 709 203284 -11006 0
0 0 0 728 204012 -10278 0
0 0 0 762 204774 -9516 0
0 0 0 721 205495 -8795 0
0 0 0 711 206206 -8084 0
0 0 0 715 206921 -7369 0
0 0 0 729 207650 -6640 0
0 0 0 691 208341 -5949 0
0 0 0 705 209046 -5244 0
0 0 0 715 209761 -4529 0
0 0 0 710 210471 -3819 0
0 0 0 688 211159 -3131 0
0 0 0 684 211843 -2447 0
13 1 S112 701 212544 -1746 0
13 1 S112 710 213254 -1036 0
13 1 S112 696 213950 -340 0
13 2 S112 702 214652 362 0
13 2 S112 725 215377 1087 0
13 2 S112 766 216143 1853 0
13 2 S112 747 216890 2600 0
13 2 S112 710 217600 3310 0
13 2 S112 710 218310 4020 0
13 2 S112 731 219041 4751 0
13 2 S112 737 219778 5488 0
13 2 S112 707 220485 6195 0
13 2 S112 706 221191 6901 0
0 0 0 716 221907 -10238 0
0 0 0 732 222639 -9506 0
0 0 0 744 223383 -8762 0
0 0 0 722 224105 -8040 0
0 0 0 734 224839 -7306 0
0 0 0 733 225572 -6573 0
0 0 0 739 226311 -5834 0
0 0 0 703 227014 -5131 0
0 0 0 701 227715 -4430 0
0 0 0 713 228428 -3717 0
0 0 0 714 229142 -3003 0
0 0 0 683 229825 -2320 0
14 1 S106 679 230504 -1641 0
14 1 S106 683 231187 -958 0
14 1 S106 697 231884 -261 0
14 2 S106 674 232558 413 0
14 2 S106 691 233249 1104 0
14 2 S106 701 233950 1805 0
14 2 S106 709 234659 2514 0
14 2 S106 697 235356 3211 0
14 2 S106 712 236068 3923 0
14 2 S106 719 236787 4642 0
14 2 S106 733 237520 5375 0
14 2 S106 690 238210 6065 0
14 2 S106 678 238888 6743 0
0 0 0 680 239568 -10448 0
0 0 0 692 240260 -9756 0
0 0 0 676 240936 -9080 0
0 0 0 666 241602 -8414 0
0 0 0 674 242276 -7740 0
0 0 0 684 242960 -7056 0
0 0 0 739 243699 -6317 0
0 0 0 710 244409 -5607 0
0 0 0 704 245113 -4903 0
0 0 0 716 245829 -4187 0
0 0 0 735 246564 -3452 0
0 0 0 747 247311 -2705 0
0 0 0 701 248012 -2004 0
15 1 S116 717 248729 -1287 0
15 1 S116 723 249452 -564 0
15 2 S116 733 250185 169 0
15 2 S116 713 250898 882 0
15 2 S116 736 251634 1618 0
15 2 S116 742 252376 2360 0
15 2 S116 773 253149 3133 0
15 2 S116 745 253894 3878 0
15 2 S116 746 254640 4624 0
15 2 S116 752 255392 5376 0
15 2 S116 768 256160 6144 0
15 2 S116 750 256910 6894 0
0 0 0 719 257629 -9264 0
0 0 0 747 258376 -8517 0
0 0 0 761 259137 -7756 0
0 0 0 757 259894 -6999 0
0 0 0 714 260608 -6285 0
0 0 0 715 261323 -5570 0
0 0 0 710 262033 -4860 0
0 0 0 719 262752 -4141 0
0 0 0 687 263439 -3454 0
0 0 0 711 264150 -2743 0
0 0 0 724 264874 -2019 0
16 1 S116 728 265602 -1291 0
16 1 S116 700 266302 -591 0
16 2 S116 710 267012 119 0
16 2 S116 707 267719 826 0
16 2 S116 721 268440 1547 0
16 2 S116 702 269142 2249 0
16 2 S116 695 269837 2944 0
16 2 S116 710 270547 3654 0
16 2 S116 726 271273 4380 0
16 2 S116 722 271995 5102 0
16 2 S116 681 272676 5783 0
16 2 S116 697 273373 6480 0
0 0 0 698 274071 -8870 0
0 0 0 707 274778 -8163 0
0 0 0 679 275457 -7484 0
0 0 0 664 276121 -6820 0
0 0 0 676 276797 -6144 0
0 0 0 675 277472 -5469 0
0 0 0 659 278131 -4810 0
0 0 0 672 278803 -4138 0
0 0 0 685 279488 -3453 0
0 0 0 722 280210 -2731 0
0 0 0 708 280918 -2023 0
17 1 S106 689 281607 -1334 0
17 1 S106 692 282299 -642 0
17 2 S106 693 282992 51 0
17 2 S106 680 283672 731 0
17 2 S106 677 284349 1408 0
17 2 S106 693 285042 2101 0
17 2 S106 709 285751 2810 0
17 2 S106 696 286447 3506 0
17 2 S106 683 287130 4189 0
17 2 S106 691 287821 4880 0
17 2 S106 707 288528 5587 0
17 2 S106 745 289273 6332 0
0 0 0 749 290022 -10757 0
0 0 0 737 290759 -10020 0
0 0 0 776 291535 -9244 0
0 0 0 768 292303 -8476 0
0 0 0 723 293026 -7753 0
0 0 0 704 293730 -7049 0
0 0 0 700 294430 -6349 0
0 0 0 700 295130 -5649 0
0 0 0 684 295814 -4965 0
0 0 0 668 296482 -4297 0
0 0 0 668 297150 -3629 0
0 0 0 673 297823 -2956 0
0 0 0 655 298478 -2301 0
18 1 S102 640 299118 -1661 0
18 1 S102 633 299751 -1028 0
18 1 S102 631 300382 -397 0
18 2 S102 611 300993 214 0
18 2 S102 603 301596 817 0
18 2 S102 611 302207 1428 0
18 2 S102 626 302833 2054 0
18 2 S102 612 303445 2666 0
18 2 S102 624 304069 3290 0
18 2 S102 638 304707 3928 0
18 2 S102 673 305380 4601 0
18 2 S102 682 306062 5283 0
18 2 S102 658 306720 5941 0
18 2 S102 672 307392 6613 0
0 0 0 684 308076 -7607 0
0 0 0 717 308793 -6890 0
0 0 0 660 309453 -6230 0
0 0 0 671 310124 -5559 0
0 0 0 716 310840 -4843 0
0 0 0 771 311611 -4072 0
0 0 0 727 312338 -3345 0
0 0 0 721 313059 -2624 0
19 1 S106 734 313793 -1890 0
19 1 S106 774 314567 -1116 0
19 1 S106 738 315305 -378 0
19 2 S106 755 316060 377 0
19 2 S106 757 316817 1134 0
19 2 S106 744 317561 1878 0
19 2 S106 697 318258 2575 0
19 2 S106 699 318957 3274 0
19 2 S106 702 319659 3976 0
19 2 S106 690 320349 4666 0
19 2 S106 668 321017 5334 0
19 2 S106 669 321686 6003 0
19 2 S106 672 322358 6675 0
0 0 0 677 323035 -10586 0
0 0 0 669 323704 -9917 0
0 0 0 659 324363 -9258 0
0 0 0 670 325033 -8588 0
0 0 0 699 325732 -7889 0
0 0 0 693 326425 -7196 0
0 0 0 673 327098 -6523 0
0 0 0 703 327801 -5820 0
0 0 0 746 328547 -5074 0
0 0 0 740 329287 -4334 0
0 0 0 712 329999 -3622 0
0 0 0 726 330725 -2896 0
0 0 0 728 331453 -2168 0
20 1 S112 712 332165 -1456 0
20 1 S112 684 332849 -772 0
20 1 S112 683 333532 -89 0
20 2 S112 683 334215 594 0
20 2 S112 695 334910 1289 0
20 2 S112 673 335583 1962 0
20 2 S112 682 336265 2644 0
20 2 S112 701 336966 3345 0
20 2 S112 710 337676 4055 0
20 2 S112 684 338360 4739 0
20 2 S112 695 339055 5434 0
20 2 S112 710 339765 6144 0
20 2 S112 741 340506 6885 0
0 0 0 731 341237 -8034 0
0 0 0 703 341940 -7331 0
0 0 0 705 342645 -6626 0
0 0 0 696 343341 -5930 0
0 0 0 676 344017 -5254 0
0 0 0 667 344684 -4587 0
0 0 0 668 345352 -3919 0
0 0 0 679 346031 -3240 0
0 0 0 676 346707 -2564 0
21 1 S106 650 347357 -1914 0
21 1 S106 649 348006 -1265 0
21 1 S106 646 348652 -619 0
21 2 S106 653 349305 34 0
21 2 S106 645 349950 679 0
21 2 S106 659 350609 1338 0
21 2 S106 674 351283 2012 0
21 2 S106 712 351995 2724 0
21 2 S106 696 352691 3420 0
21 2 S106 688 353379 4108 0
21 2 S106 715 354094 4823 0
21 2 S106 726 354820 5549 0
21 2 S106 714 355534 6263 0
21 2 S106 702 356236 6965 0
0 0 0 730 356966 -10591 0
0 0 0 737 357703 -9854 0
0 0 0 736 358439 -9118 0
0 0 0 694 359133 -8424 0
0 0 0 699 359832 -7725 0
0 0 0 700 360532 -7025 0
0 0 0 702 361234 -6323 0
0 0 0 688 361922 -5635 0
0 0 0 691 362613 -4944 0
0 0 0 698 363311 -4246 0
0 0 0 700 364011 -3546 0
0 0 0 685 364696 -2861 0
0 0 0 691 365387 -2170 0
22 1 S116 699 366086 -1471 0
22 1 S116 689 366775 -782 0
22 1 S116 654 367429 -128 0
22 2 S116 655 368084 527 0
22 2 S116 673 368757 1200 0
22 2 S116 727 369484 1927 0
22 2 S116 727 370211 2654 0
22 2 S116 716 370927 3370 0
22 2 S116 741 371668 4111 0
22 2 S116 762 372430 4873 0
22 2 S116 775 373205 5648 0
22 2 S116 715 373920 6363 0
0 0 0 699 374619 -9599 0
0 0 0 695 375314 -8904 0
0 0 0 721 376035 -8183 0
0 0 0 729 376764 -7454 0
0 0 0 694 377458 -6760 0
0 0 0 693 378151 -6067 0
0 0 0 685 378836 -5382 0
0 0 0 687 379523 -4695 0
0 0 0 681 380204 -4014 0
0 0 0 684 380888 -3330 0
0 0 0 698 381586 -2632 0
23 1 S112 724 382310 -1908 0
23 1 S112 716 383026 -1192 0
23 1 S112 681 383707 -511 0
23 2 S112 690 384397 179 0
23 2 S112 693 385090 872 0
23 2 S112 724 385814 1596 0
23 2 S112 697 386511 2293 0
23 2 S112 717 387228 3010 0
23 2 S112 744 387972 3754 0
23 2 S112 771 388743 4525 0
23 2 S112 771 389514 5296 0
23 2 S112 734 390248 6030 0
23 2 S112 744 390992 6774 0
0 0 0 741 391733 -8450 0
0 0 0 765 392498 -7685 0
0 0 0 745 393243 -6940 0
0 0 0 727 393970 -6213 0
0 0 0 708 394678 -5505 0
0 0 0 747 395425 -4758 0
0 0 0 766 396191 -3992 0
0 0 0 738 396929 -3254 0
0 0 0 733 397662 -2521 0
24 1 S106 722 398384 -1799 0
24 1 S106 711 399095 -1088 0
24 1 S106 677 399772 -411 0
24 2 S106 683 400455 272 0
24 2 S106 692 401147 964 0
24 2 S106 707 401854 1671 0
24 2 S106 683 402537 2354 0
24 2 S106 690 403227 3044 0
24 2 S106 704 403931 3748 0
24 2 S106 719 404650 4467 0
24 2 S106 683 405333 5150 0
24 2 S106 695 406028 5845 0
24 2 S106 692 406720 6537 0
0 0 0 677 407397 -8619 0
0 0 0 659 408056 -7960 0
0 0 0 654 408710 -7306 0
0 0 0 643 409353 -6663 0
0 0 0 624 409977 -6039 0
0 0 0 631 410608 -5408 0
0 0 0 650 411258 -4758 0
0 0 0 632 411890 -4126 0
0 0 0 650 412540 -3476 0
0 0 0 659 413199 -2817 0
0 0 0 686 413885 -2131 0
25 1 S102 672 414557 -1459 0
25 1 S102 664 415221 -795 0
25 1 S102 682 415903 -113 0
25 2 S102 706 416609 593 0
25 2 S102 711 417320 1304 0
25 2 S102 679 417999 1983 0
25 2 S102 687 418686 2670 0
25 2 S102 694 419380 3364 0
25 2 S102 702 420082 4066 0
25 2 S102 686 420768 4752 0
25 2 S102 693 421461 5445 0
25 2 S102 698 422159 6143 0
25 2 S102 719 422878 6862 0
0 0 0 729 423607 -6384 0
0 0 0 730 424337 -5654 0
0 0 0 756 425093 -4898 0
0 0 0 733 425826 -4165 0
0 0 0 700 426526 -3465 0
0 0 0 685 427211 -2780 0
0 0 0 692 427903 -2088 0
26 1 S116 705 428608 -1383 0
26 1 S116 704 429312 -679 0
26 2 S116 687 429999 8 0
26 2 S116 697 430696 705 0
26 2 S116 709 431405 1414 0
26 2 S116 714 432119 2128 0
26 2 S116 684 432803 2812 0
26 2 S116 684 433487 3496 0
26 2 S116 705 434192 4201 0
26 2 S116 711 434903 4912 0
26 2 S116 707 435610 5619 0
26 2 S116 707 436317 6326 0
0 0 0 726 437043 -7123 0
0 0 0 738 437781 -6385 0
0 0 0 729 438510 -5656 0
0 0 0 708 439218 -4948 0
0 0 0 704 439922 -4244 0
0 0 0 700 440622 -3544 0
0 0 0 673 441295 -2871 0
0 0 0 671 441966 -2200 0
27 1 S106 679 442645 -1521 0
27 1 S106 695 443340 -826 0
27 1 S106 679 444019 -147 0
27 2 S106 674 444693 527 0
27 2 S106 703 445396 1230 0
27 2 S106 717 446113 1947 0
27 2 S106 717 446830 2664 0
27 2 S106 689 447519 3353 0
27 2 S106 700 448219 4053 0
27 2 S106 700 448919 4753 0
27 2 S106 718 449637 5471 0
27 2 S106 692 450329 6163 0
27 2 S106 678 451007 6841 0
0 0 0 687 451694 -6431 0
0 0 0 692 452386 -5739 0
0 0 0 685 453071 -5054 0
0 0 0 662 453733 -4392 0
0 0 0 652 454385 -3740 0
0 0 0 653 455038 -3087 0
0 0 0 682 455720 -2405 0
28 1 S102 672 456392 -1733 0
28 1 S102 680 457072 -1053 0
28 1 S102 706 457778 -347 0
28 2 S102 736 458514 389 0
28 2 S102 721 459235 1110 0
28 2 S102 707 459942 1817 0
28 2 S102 708 460650 2525 0
28 2 S102 697 461347 3222 0
28 2 S102 690 462037 3912 0
28 2 S102 664 462701 4576 0
28 2 S102 667 463368 5243 0
28 2 S102 682 464050 5925 0
28 2 S102 699 464749 6624 0
0 0 0 681 465430 -10865 0
0 0 0 676 466106 -10189 0
0 0 0 685 466791 -9504 0
0 0 0 704 467495 -8800 0
0 0 0 674 468169 -8126 0
0 0 0 671 468840 -7455 0
0 0 0 673 469513 -6782 0
0 0 0 679 470192 -6103 0
0 0 0 714 470906 -5389 0
0 0 0 702 471608 -4687 0
0 0 0 723 472331 -3964 0
0 0 0 730 473061 -3234 0
0 0 0 701 473762 -2533 0
29 1 S112 687 474449 -1846 0
29 1 S112 684 475133 -1162 0
29 1 S112 688 475821 -474 0
29 2 S112 681 476502 207 0
29 2 S112 660 477162 867 0
29 2 S112 670 477832 1537 0
29 2 S112 686 478518 2223 0
29 2 S112 676 479194 2899 0
29 2 S112 663 479857 3562 0
29 2 S112 670 480527 4232 0
29 2 S112 667 481194 4899 0
29 2 S112 688 481882 5587 0
29 2 S112 654 482536 6241 0
29 2 S112 641 483177 6882 0
0 0 0 663 483840 -6612 0
0 0 0 688 484528 -5924 0
0 0 0 656 485184 -5268 0
0 0 0 649 485833 -4619 0
0 0 0 648 486481 -3971 0
0 0 0 639 487120 -3332 0
0 0 0 642 487762 -2690 0
0 0 0 628 488390 -2062 0
30 1 S112 634 489024 -1428 0
30 1 S112 637 489661 -791 0
30 1 S112 646 490307 -145 0
30 2 S112 661 490968 516 0
30 2 S112 664 491632 1180 0
30 2 S112 644 492276 1824 0
30 2 S112 658 492934 2482 0
30 2 S112 670 493604 3152 0
30 2 S112 692 494296 3844 0
30 2 S112 747 495043 4591 0
30 2 S112 727 495770 5318 0
30 2 S112 711 496481 6029 0
30 2 S112 719 497200 6748 0
0 0 0 718 497918 -8831 0
0 0 0 738 498656 -8093 0
0 0 0 726 499382 -7367 0
0 0 0 723 500105 -6644 0
0 0 0 715 500820 -5929 0
0 0 0 715 501535 -5214 0
0 0 0 695 502230 -4519 0
0 0 0 691 502921 -3828 0
0 0 0 695 503616 -3133 0
0 0 0 706 504322 -2427 0
31 1 S106 699 505021 -1728 0
31 1 S106 700 505721 -1028 0
31 1 S106 711 506432 -317 0
31 2 S106 729 507161 412 0
31 2 S106 699 507860 1111 0
31 2 S106 706 508566 1817 0
31 2 S106 720 509286 2537 0
31 2 S106 730 510016 3267 0
31 2 S106 694 510710 3961 0
31 2 S106 703 511413 4664 0
31 2 S106 717 512130 5381 0
31 2 S106 702 512832 6083 0
31 2 S106 685 513517 6768 0
0 0 0 697 514214 -8434 0
0 0 0 706 514920 -7728 0
0 0 0 689 515609 -7039 0
0 0 0 682 516291 -6357 0
0 0 0 687 516978 -5670 0
0 0 0 711 517689 -4959 0
0 0 0 698 518387 -4261 0
0 0 0 719 519106 -3542 0
0 0 0 759 519865 -2783 0
0 0 0 769 520634 -2014 0
32 1 S102 723 521357 -1291 0
32 1 S102 718 522075 -573 0
32 2 S102 712 522787 139 0
32 2 S102 695 523482 834 0
32 2 S102 678 524160 1512 0
32 2 S102 682 524842 2194 0
32 2 S102 686 525528 2880 0
32 2 S102 697 526225 3577 0
32 2 S102 673 526898 4250 0
32 2 S102 690 527588 4940 0
32 2 S102 722 528310 5662 0
32 2 S102 737 529047 6399 0
0 0 0 731 529778 -10824 0
0 0 0 725 530503 -10099 0
0 0 0 725 531228 -9374 0
0 0 0 735 531963 -8639 0
0 0 0 706 532669 -7933 0
0 0 0 694 533363 -7239 0
0 0 0 697 534060 -6542 0
0 0 0 715 534775 -5827 0
0 0 0 730 535505 -5097 0
0 0 0 692 536197 -4405 0
0 0 0 711 536908 -3694 0
0 0 0 704 537612 -2990 0
0 0 0 705 538317 -2285 0
33 1 S112 684 539001 -1601 0
33 1 S112 694 539695 -907 0
33 1 S112 704 540399 -203 0
33 2 S112 721 541120 518 0
33 2 S112 724 541844 1242 0
33 2 S112 706 542550 1948 0
33 2 S112 725 543275 2673 0
33 2 S112 721 543996 3394 0
33 2 S112 741 544737 4135 0
33 2 S112 727 545464 4862 0
33 2 S112 721 546185 5583 0
33 2 S112 736 546921 6319 0
0 0 0 792 547713 -11208 0
0 0 0 801 548514 -10407 0
0 0 0 733 549247 -9674 0
0 0 0 728 549975 -8946 0
0 0 0 713 550688 -8233 0
0 0 0 705 551393 -7528 0
0 0 0 676 552069 -6852 0
0 0 0 693 552762 -6159 0
0 0 0 692 553454 -5467 0
0 0 0 743 554197 -4724 0
0 0 0 718 554915 -4006 0
0 0 0 745 555660 -3261 0
0 0 0 760 556420 -2501 0
34 1 S106 765 557185 -1736 0
34 1 S106 728 557913 -1008 0
34 1 S106 729 558642 -279 0
34 2 S106 726 559368 447 0
34 2 S106 720 560088 1167 0
34 2 S106 724 560812 1891 0
34 2 S106 718 561530 2609 0
34 2 S106 736 562266 3345 0
34 2 S106 756 563022 4101 0
34 2 S106 736 563758 4837 0
34 2 S106 760 564518 5597 0
34 2 S106 756 565274 6353 0
0 0 0 750 566024 -8912 0
0 0 0 723 566747 -8189 0
0 0 0 743 567490 -7446 0
0 0 0 757 568247 -6689 0
0 0 0 739 568986 -5950 0
0 0 0 714 569700 -5236 0
0 0 0 740 570440 -4496 0
0 0 0 747 571187 -3749 0
0 0 0 729 571916 -3020 0
0 0 0 701 572617 -2319 0
35 1 S102 713 573330 -1606 0
35 1 S102 705 574035 -901 0
35 1 S102 690 574725 -211 0
35 2 S102 698 575423 487 0
35 2 S102 714 576137 1201 0
35 2 S102 711 576848 1912 0
35 2 S102 694 577542 2606 0
35 2 S102 693 578235 3299 0
35 2 S102 710 578945 4009 0
35 2 S102 729 579674 4738 0
35 2 S102 689 580363 5427 0
35 2 S102 703 581066 6130 0
35 2 S102 722 581788 6852 0
0 0 0 726 582514 -6281 0
0 0 0 690 583204 -5591 0
0 0 0 711 583915 -4880 0
0 0 0 712 584627 -4168 0
0 0 0 712 585339 -3456 0
0 0 0 687 586026 -2769 0
0 0 0 699 586725 -2070 0
36 1 S106 706 587431 -1364 0
36 1 S106 715 588146 -649 0
36 2 S106 678 588824 29 0
36 2 S106 676 589500 705 0
36 2 S106 677 590177 1382 0
36 2 S106 680 590857 2062 0
36 2 S106 681 591538 2743 0
36 2 S106 669 592207 3412 0
36 2 S106 682 592889 4094 0
36 2 S106 684 593573 4778 0
36 2 S106 690 594263 5468 0
36 2 S106 682 594945 6150 0
36 2 S106 700 595645 6850 0
0 0 0 710 596355 -8853 0
0 0 0 718 597073 -8135 0
0 0 0 703 597776 -7432 0
0 0 0 722 598498 -6710 0
0 0 0 710 599208 -6000 0
0 0 0 691 599899 -5309 0
0 0 0 680 600579 -4629 0
0 0 0 695 601274 -3934 0
0 0 0 710 601984 -3224 0
0 0 0 681 602665 -2543 0
37 1 S116 680 603345 -1863 0
37 1 S116 710 604055 -1153 0
37 1 S116 701 604756 -452 0
37 2 S116 686 605442 234 0
37 2 S116 696 606138 930 0
37 2 S116 719 606857 1649 0
37 2 S116 734 607591 2383 0
37 2 S116 702 608293 3085 0
37 2 S116 708 609001 3793 0
37 2 S116 719 609720 4512 0
37 2 S116 726 610446 5238 0
37 2 S116 694 611140 5932 0
37 2 S116 698 611838 6630 0
0 0 0 709 612547 -11030 0
0 0 0 711 613258 -10319 0
0 0 0 689 613947 -9630 0
0 0 0 709 614656 -8921 0
0 0 0 695 615351 -8226 0
0 0 0 699 616050 -7527 0
0 0 0 680 616730 -6847 0
0 0 0 695 617425 -6152 0
0 0 0 692 618117 -5460 0
0 0 0 668 618785 -4792 0
0 0 0 646 619431 -4146 0
0 0 0 652 620083 -3494 0
0 0 0 659 620742 -2835 0
0 0 0 660 621402 -2175 0
38 1 S102 646 622048 -1529 0
38 1 S102 632 622680 -897 0
38 1 S102 643 623323 -254 0
38 2 S102 649 623972 395 0
38 2 S102 652 624624 1047 0
38 2 S102 654 625278 1701 0
38 2 S102 663 625941 2364 0
38 2 S102 677 626618 3041 0
38 2 S102 676 627294 3717 0
38 2 S102 679 627973 4396 0
38 2 S102 689 628662 5085 0
38 2 S102 705 629367 5790 0
38 2 S102 693 630060 6483 0
0 0 0 659 630719 -9386 0
0 0 0 673 631392 -8713 0
0 0 0 692 632084 -8021 0
0 0 0 672 632756 -7349 0
0 0 0 653 633409 -6696 0
0 0 0 670 634079 -6026 0
0 0 0 661 634740 -5365 0
0 0 0 698 635438 -4667 0
0 0 0 689 636127 -3978 0
0 0 0 703 636830 -3275 0
0 0 0 723 637553 -2552 0
39 1 S116 693 638246 -1859 0
39 1 S116 683 638929 -1176 0
39 1 S116 716 639645 -460 0
39 2 S116 710 640355 250 0
39 2 S116 687 641042 937 0
39 2 S116 678 641720 1615 0
39 2 S116 648 642368 2263 0
39 2 S116 675 643043 2938 0
39 2 S116 699 643742 3637 0
39 2 S116 714 644456 4351 0
39 2 S116 725 645181 5076 0
39 2 S116 695 645876 5771 0
39 2 S116 708 646584 6479 0
0 0 0 765 647349 -6964 0
0 0 0 775 648124 -6189 0
0 0 0 761 648885 -5428 0
0 0 0 733 649618 -4695 0
0 0 0 732 650350 -3963 0
0 0 0 733 651083 -3230 0
0 0 0 699 651782 -2531 0
40 1 S112 697 652479 -1834 0
40 1 S112 700 653179 -1134 0
40 1 S112 694 653873 -440 0
40 2 S112 670 654543 230 0
40 2 S112 676 655219 906 0
40 2 S112 718 655937 1624 0
40 2 S112 722 656659 2346 0
40 2 S112 703 657362 3049 0
40 2 S112 727 658089 3776 0
40 2 S112 736 658825 4512 0
40 2 S112 719 659544 5231 0
40 2 S112 706 660250 5937 0
40 2 S112 723 660973 6660 0
0 0 0 736 661709 -187466 0
0 0 0 748 662457 -186718 0
0 0 0 706 663163 -186012 0
0 0 0 695 663858 -185317 0
0 0 0 700 664558 -184617 0
0 0 0 721 665279 -183896 0
0 0 0 713 665992 -183183 0
0 0 0 703 666695 -182480 0
0 0 0 716 667411 -181764 0
0 0 0 704 668115 -181060 0
0 0 0 680 668795 -180380 0
0 0 0 649 669444 -179731 0
0 0 0 650 670094 -179081 0
0 0 0 651 670745 -178430 0
0 0 0 655 671400 -177775 0
0 0 0 656 672056 -177119 0
0 0 0 656 672712 -176463 0
0 0 0 653 673365 -175810 0
0 0 0 652 674017 -175158 0
0 0 0 649 674666 -174509 0
0 0 0 614 675280 -173895 0
0 0 0 589 675869 -173306 1
0 0 0 600 676469 -172706 0
0 0 0 576 677045 -172130 1
0 0 0 567 677612 -171563 1
0 0 0 614 678226 -170949 0
0 0 0 596 678822 -170353 0
0 0 0 667 679489 -169686 0
0 0 0 650 680139 -169036 0
0 0 0 612 680751 -168424 0
0 0 0 623 681374 -167801 0
0 0 0 661 682035 -167140 0
0 0 0 688 682723 -166452 0
0 0 0 694 683417 -165758 0
0 0 0 693 684110 -165065 0
0 0 0 679 684789 -164386 0
0 0 0 668 685457 -163718 0
0 0 0 660 686117 -163058 0
0 0 0 662 686779 -162396 0
0 0 0 662 687441 -161734 0
0 0 0 651 688092 -161083 0
0 0 0 649 688741 -160434 0
0 0 0 642 689383 -159792 0
0 0 0 636 690019 -159156 0
0 0 0 639 690658 -158517 0
0 0 0 664 691322 -157853 0
0 0 0 661 691983 -157192 0
0 0 0 663 692646 -156529 0
0 0 0 661 693307 -155868 0
0 0 0 668 693975 -155200 0
0 0 0 667 694642 -154533 0
0 0 0 661 695303 -153872 0
0 0 0 657 695960 -153215 0
0 0 0 655 696615 -152560 0
0 0 0 633 697248 -151927 0
0 0 0 644 697892 -151283 0
0 0 0 652 698544 -150631 0
0 0 0 666 699210 -149965 0
0 0 0 646 699856 -149319 0
0 0 0 654 700510 -148665 0
0 0 0 645 701155 -148020 0
0 0 0 638 701793 -147382 0
0 0 0 630 702423 -146752 0
0 0 0 634 703057 -146118 0
0 0 0 625 703682 -145493 0
0 0 0 625 704307 -144868 0
0 0 0 647 704954 -144221 0
0 0 0 659 705613 -143562 0
0 0 0 651 706264 -142911 0
0 0 0 635 706899 -142276 0
0 0 0 644 707543 -141632 0
0 0 0 656 708199 -140976 0
0 0 0 684 708883 -140292 0
0 0 0 667 709550 -139625 0
0 0 0 665 710215 -138960 0
0 0 0 688 710903 -138272 0
0 0 0 695 711598 -137577 0
0 0 0 704 712302 -136873 0
0 0 0 689 712991 -136184 0
0 0 0 699 713690 -135485 0
0 0 0 687 714377 -134798 0
0 0 0 692 715069 -134106 0
0 0 0 681 715750 -133425 0
0 0 0 680 716430 -132745 0
0 0 0 691 717121 -132054 0
0 0 0 714 717835 -131340 0
0 0 0 722 718557 -130618 0
0 0 0 698 719255 -129920 0
0 0 0 711 719966 -129209 0
0 0 0 723 720689 -128486 0
0 0 0 731 721420 -127755 0
0 0 0 716 722136 -127039 0
0 0 0 696 722832 -126343 0
0 0 0 691 723523 -125652 0
0 0 0 710 724233 -124942 0
0 0 0 662 724895 -124280 0
0 0 0 640 725535 -123640 0
0 0 0 622 726157 -123018 0
0 0 0 624 726781 -122394 0
0 0 0 607 727388 -121787 0
0 0 0 599 727987 -121188 0
0 0 0 610 728597 -120578 0
0 0 0 649 729246 -119929 0
0 0 0 684 729930 -119245 0
0 0 0 673 730603 -118572 0
0 0 0 678 731281 -117894 0
0 0 0 671 731952 -117223 0
0 0 0 663 732615 -116560 0
0 0 0 642 733257 -115918 0
0 0 0 644 733901 -115274 0
0 0 0 633 734534 -114641 0
0 0 0 623 735157 -114018 0
0 0 0 622 735779 -113396 0
0 0 0 617 736396 -112779 0
0 0 0 620 737016 -112159 0
0 0 0 625 737641 -111534 0
0 0 0 633 738274 -110901 0
0 0 0 623 738897 -110278 0
0 0 0 628 739525 -109650 0
0 0 0 606 740131 -109044 0
0 0 0 603 740734 -108441 0
0 0 0 609 741343 -107832 0
0 0 0 647 741990 -107185 0
0 0 0 646 742636 -106539 0
0 0 0 632 743268 -105907 0
0 0 0 647 743915 -105260 0
0 0 0 681 744596 -104579 0
0 0 0 744 745340 -103835 0
0 0 0 703 746043 -103132 0
0 0 0 688 746731 -102444 0
0 0 0 698 747429 -101746 0
0 0 0 684 748113 -101062 0
0 0 0 649 748762 -100413 0
0 0 0 662 749424 -99751 0
0 0 0 674 750098 -99077 0
0 0 0 677 750775 -98400 0
0 0 0 671 751446 -97729 0
0 0 0 715 752161 -97014 0
0 0 0 719 752880 -96295 0
0 0 0 711 753591 -95584 0
0 0 0 736 754327 -94848 0
0 0 0 728 755055 -94120 0
0 0 0 734 755789 -93386 0
0 0 0 707 756496 -92679 0
0 0 0 712 757208 -91967 0
0 0 0 708 757916 -91259 0
0 0 0 703 758619 -90556 0
0 0 0 697 759316 -89859 0
0 0 0 684 760000 -89175 0
0 0 0 686 760686 -88489 0
0 0 0 680 761366 -87809 0
0 0 0 692 762058 -87117 0
0 0 0 679 762737 -86438 0
0 0 0 678 763415 -85760 0
0 0 0 695 764110 -85065 0
0 0 0 705 764815 -84360 0
0 0 0 743 765558 -83617 0
0 0 0 733 766291 -82884 0
0 0 0 766 767057 -82118 0
0 0 0 770 767827 -81348 0
0 0 0 793 768620 -80555 0
0 0 0 774 769394 -79781 0
0 0 0 743 770137 -79038 0
0 0 0 747 770884 -78291 0
0 0 0 743 771627 -77548 0
0 0 0 770 772397 -76778 0
0 0 0 754 773151 -76024 0
0 0 0 741 773892 -75283 0
0 0 0 753 774645 -74530 0
0 0 0 780 775425 -73750 0
0 0 0 784 776209 -72966 0
0 0 0 765 776974 -72201 0
0 0 0 759 777733 -71442 0
0 0 0 783 778516 -70659 0
0 0 0 799 779315 -69860 0
0 0 0 772 780087 -69088 0
0 0 0 782 780869 -68306 0
0 0 0 796 781665 -67510 0
0 0 0 803 782468 -66707 0
0 0 0 756 783224 -65951 0
0 0 0 736 783960 -65215 0
0 0 0 703 784663 -64512 0
0 0 0 692 785355 -63820 0
0 0 0 687 786042 -63133 0
0 0 0 709 786751 -62424 0
0 0 0 701 787452 -61723 0
0 0 0 715 788167 -61008 0
0 0 0 691 788858 -60317 0
0 0 0 690 789548 -59627 0
0 0 0 693 790241 -58934 0
0 0 0 716 790957 -58218 0
0 0 0 753 791710 -57465 0
0 0 0 713 792423 -56752 0
0 0 0 706 793129 -56046 0
0 0 0 698 793827 -55348 0
0 0 0 692 794519 -54656 0
0 0 0 686 795205 -53970 0
0 0 0 680 795885 -53290 0
0 0 0 680 796565 -52610 0
0 0 0 680 797245 -51930 0
0 0 0 681 797926 -51249 0
0 0 0 662 798588 -50587 0
0 0 0 662 799250 -49925 0
0 0 0 665 799915 -49260 0
0 0 0 671 800586 -48589 0
0 0 0 687 801273 -47902 0
0 0 0 656 801929 -47246 0
0 0 0 662 802591 -46584 0
0 0 0 658 803249 -45926 0
0 0 0 670 803919 -45256 0
0 0 0 665 804584 -44591 0
0 0 0 668 805252 -43923 0
0 0 0 667 805919 -43256 0
0 0 0 630 806549 -42626 0
0 0 0 623 807172 -42003 0
0 0 0 638 807810 -41365 0
0 0 0 620 808430 -40745 0
0 0 0 636 809066 -40109 0
0 0 0 637 809703 -39472 0
0 0 0 651 810354 -38821 0
0 0 0 648 811002 -38173 0
0 0 0 627 811629 -37546 0
0 0 0 646 812275 -36900 0
0 0 0 662 812937 -36238 0
0 0 0 636 813573 -35602 0
0 0 0 610 814183 -34992 0
0 0 0 598 814781 -34394 0
0 0 0 618 815399 -33776 0
0 0 0 612 816011 -33164 0
0 0 0 594 816605 -32570 1
0 0 0 599 817204 -31971 0
0 0 0 632 817836 -31339 0
0 0 0 666 818502 -30673 0
0 0 0 668 819170 -30005 0
0 0 0 693 819863 -29312 0
0 0 0 678 820541 -28634 0
0 0 0 674 821215 -27960 0
0 0 0 657 821872 -27303 0
0 0 0 653 822525 -26650 0
0 0 0 658 823183 -25992 0
0 0 0 629 823812 -25363 0
0 0 0 620 824432 -24743 0
0 0 0 624 825056 -24119 0
0 0 0 635 825691 -23484 0
0 0 0 674 826365 -22810 0
0 0 0 703 827068 -22107 0
0 0 0 702 827770 -21405 0
0 0 0 727 828497 -20678 0
0 0 0 767 829264 -19911 0
0 0 0 767 830031 -19144 0
0 0 0 777 830808 -18367 0
0 0 0 796 831604 -17571 0
0 0 0 792 832396 -16779 0
0 0 0 761 833157 -16018 0
0 0 0 799 833956 -15219 0
0 0 0 795 834751 -14424 0
0 0 0 764 835515 -13660 0
0 0 0 736 836251 -12924 0
0 0 0 725 836976 -12199 0
0 0 0 731 837707 -11468 0
0 0 0 722 838429 -10746 0
0 0 0 713 839142 -10033 0
0 0 0 718 839860 -9315 0
0 0 0 725 840585 -8590 0
0 0 0 721 841306 -7869 0
0 0 0 722 842028 -7147 0
0 0 0 741 842769 -6406 0
0 0 0 761 843530 -5645 0
0 0 0 754 844284 -4891 0
0 0 0 767 845051 -4124 0
0 0 0 750 845801 -3374 0
0 0 0 730 846531 -2644 0
41 1 S102 701 847232 -1943 0
41 1 S102 697 847929 -1246 0
41 1 S102 705 848634 -541 0
41 2 S102 698 849332 157 0
41 2 S102 675 850007 832 0
41 2 S102 691 850698 1523 0
41 2 S102 689 851387 2212 0
41 2 S102 696 852083 2908 0
41 2 S102 677 852760 3585 0
41 2 S102 675 853435 4260 0
41 2 S102 687 854122 4947 0
41 2 S102 711 854833 5658 0
41 2 S102 708 855541 6366 0
0 0 0 700 856241 -7573 0
0 0 0 711 856952 -6862 0
0 0 0 705 857657 -6157 0
0 0 0 720 858377 -5437 0
0 0 0 704 859081 -4733 0
0 0 0 687 859768 -4046 0
0 0 0 675 860443 -3371 0
0 0 0 666 861109 -2705 0
0 0 0 645 861754 -2060 0
42 1 S112 645 862399 -1415 0
42 1 S112 666 863065 -749 0
42 1 S112 697 863762 -52 0
42 2 S112 700 864462 648 0
42 2 S112 692 865154 1340 0
42 2 S112 734 865888 2074 0
42 2 S112 753 866641 2827 0
42 2 S112 737 867378 3564 0
42 2 S112 729 868107 4293 0
42 2 S112 723 868830 5016 0
42 2 S112 729 869559 5745 0
42 2 S112 729 870288 6474 0
0 0 0 694 870982 -10687 0
0 0 0 710 871692 -9977 0
0 0 0 728 872420 -9249 0
0 0 0 726 873146 -8523 0
0 0 0 711 873857 -7812 0
0 0 0 759 874616 -7053 0
0 0 0 742 875358 -6311 0
0 0 0 715 876073 -5596 0
0 0 0 704 876777 -4892 0
0 0 0 699 877476 -4193 0
0 0 0 701 878177 -3492 0
0 0 0 709 878886 -2783 0
0 0 0 679 879565 -2104 0
43 1 S116 684 880249 -1420 0
43 1 S116 694 880943 -726 0
43 1 S116 716 881659 -10 0
43 2 S116 698 882357 688 0
43 2 S116 746 883103 1434 0
43 2 S116 792 883895 2226 0
43 2 S116 863 884758 3089 1
43 2 S116 828 885586 3917 1
43 2 S116 837 886423 4754 1
43 2 S116 818 887241 5572 1
43 2 S116 778 888019 6350 0
0 0 0 746 888765 -7244 0
0 0 0 701 889466 -6543 0
0 0 0 684 890150 -5859 0
0 0 0 671 890821 -5188 0
0 0 0 676 891497 -4512 0
0 0 0 644 892141 -3868 0
0 0 0 633 892774 -3235 0
0 0 0 641 893415 -2594 0
44 1 S102 643 894058 -1951 0
44 1 S102 635 894693 -1316 0
44 1 S102 642 895335 -674 0
44 1 S102 662 895997 -12 0
44 2 S102 711 896708 699 0
44 2 S102 704 897412 1403 0
44 2 S102 713 898125 2116 0
44 2 S102 739 898864 2855 0
44 2 S102 754 899618 3609 0
44 2 S102 730 900348 4339 0
44 2 S102 708 901056 5047 0
44 2 S102 709 901765 5756 0
44 2 S102 723 902488 6479 0
0 0 0 705 903193 -9063 0
0 0 0 703 903896 -8360 0
0 0 0 719 904615 -7641 0
0 0 0 744 905359 -6897 0
0 0 0 699 906058 -6198 0
0 0 0 695 906753 -5503 0
0 0 0 708 907461 -4795 0
0 0 0 725 908186 -4070 0
0 0 0 707 908893 -3363 0
0 0 0 707 909600 -2656 0
45 1 S116 720 910320 -1936 0
45 1 S116 751 911071 -1185 0
45 1 S116 723 911794 -462 0
45 2 S116 722 912516 260 0
45 2 S116 727 913243 987 0
45 2 S116 751 913994 1738 0
45 2 S116 741 914735 2479 0
45 2 S116 741 915476 3220 0
45 2 S116 781 916257 4001 0
45 2 S116 761 917018 4762 0
45 2 S116 741 917759 5503 0
45 2 S116 738 918497 6241 0
45 2 S116 744 919241 6985 0
0 0 0 743 919984 -12166 0
0 0 0 763 920747 -11403 0
0 0 0 729 921476 -10674 0
0 0 0 749 922225 -9925 0
0 0 0 791 923016 -9134 0
0 0 0 809 923825 -8325 1
0 0 0 746 924571 -7579 0
0 0 0 760 925331 -6819 0
0 0 0 751 926082 -6068 0
0 0 0 757 926839 -5311 0
0 0 0 712 927551 -4599 0
0 0 0 709 928260 -3890 0
0 0 0 729 928989 -3161 0
0 0 0 719 929708 -2442 0
46 1 S102 699 930407 -1743 0
46 1 S102 697 931104 -1046 0
46 1 S102 702 931806 -344 0
46 2 S102 722 932528 378 0
46 2 S102 712 933240 1090 0
46 2 S102 696 933936 1786 0
46 2 S102 701 934637 2487 0
46 2 S102 713 935350 3200 0
46 2 S102 720 936070 3920 0
46 2 S102 694 936764 4614 0
46 2 S102 702 937466 5316 0
46 2 S102 709 938175 6025 0
46 2 S102 723 938898 6748 0
0 0 0 729 939627 -9101 0
0 0 0 705 940332 -8396 0
0 0 0 724 941056 -7672 0
0 0 0 735 941791 -6937 0
0 0 0 693 942484 -6244 0
0 0 0 683 943167 -5561 0
0 0 0 683 943850 -4878 0
0 0 0 694 944544 -4184 0
0 0 0 686 945230 -3498 0
0 0 0 692 945922 -2806 0
0 0 0 700 946622 -2106 0
47 1 S112 718 947340 -1388 0
47 1 S112 732 948072 -656 0
47 2 S112 692 948764 36 0
47 2 S112 693 949457 729 0
47 2 S112 708 950165 1437 0
47 2 S112 747 950912 2184 0
47 2 S112 728 951640 2912 0
47 2 S112 711 952351 3623 0
47 2 S112 739 953090 4362 0
47 2 S112 762 953852 5124 0
47 2 S112 746 954598 5870 0
47 2 S112 723 955321 6593 0
0 0 0 681 956002 -10880 0
0 0 0 691 956693 -10189 0
0 0 0 696 957389 -9493 0
0 0 0 714 958103 -8779 0
0 0 0 675 958778 -8104 0
0 0 0 661 959439 -7443 0
0 0 0 661 960100 -6782 0
0 0 0 660 960760 -6122 0
0 0 0 688 961448 -5434 0
0 0 0 638 962086 -4796 0
0 0 0 639 962725 -4157 0
0 0 0 663 963388 -3494 0
0 0 0 712 964100 -2782 0
0 0 0 737 964837 -2045 0
48 1 S116 675 965512 -1370 0
48 1 S116 667 966179 -703 0
48 1 S116 674 966853 -29 0
48 2 S116 692 967545 663 0
48 2 S116 668 968213 1331 0
48 2 S116 686 968899 2017 0
48 2 S116 705 969604 2722 0
48 2 S116 721 970325 3443 0
48 2 S116 685 971010 4128 0
48 2 S116 689 971699 4817 0
48 2 S116 702 972401 5519 0
48 2 S116 747 973148 6266 0
48 2 S116 700 973848 6966 0
0 0 0 700 974548 -6591 0
0 0 0 705 975253 -5886 0
0 0 0 745 975998 -5141 0
0 0 0 717 976715 -4424 0
0 0 0 685 977400 -3739 0
0 0 0 694 978094 -3045 0
0 0 0 695 978789 -2350 0
49 1 S112 699 979488 -1651 0
49 1 S112 669 980157 -982 0
49 1 S112 668 980825 -314 0
49 2 S112 676 981501 362 0
49 2 S112 678 982179 1040 0
49 2 S112 673 982852 1713 0
49 2 S112 706 983558 2419 0
49 2 S112 737 984295 3156 0
49 2 S112 755 985050 3911 0
49 2 S112 708 985758 4619 0
49 2 S112 710 986468 5329 0
49 2 S112 729 987197 6058 0
49 2 S112 731 987928 6789 0
0 0 0 717 988645 -11012 0
0 0 0 702 989347 -10310 0
0 0 0 712 990059 -9598 0
0 0 0 720 990779 -8878 0
0 0 0 685 991464 -8193 0
0 0 0 661 992125 -7532 0
0 0 0 664 992789 -6868 0
0 0 0 674 993463 -6194 0
0 0 0 692 994155 -5502 0
0 0 0 669 994824 -4833 0
0 0 0 672 995496 -4161 0
0 0 0 683 996179 -3478 0
0 0 0 725 996904 -2753 0
0 0 0 738 997642 -2015 0
50 1 S106 695 998337 -1320 0
50 1 S106 704 999041 -616 0
50 2 S106 705 999746 89 0
50 2 S106 739 1000485 828 0
50 2 S106 728 1001213 1556 0
50 2 S106 707 1001920 2263 0
50 2 S106 712 1002632 2975 0
50 2 S106 712 1003344 3687 0
50 2 S106 714 1004058 4401 0
50 2 S106 706 1004764 5107 0
50 2 S106 690 1005454 5797 0
50 2 S106 720 1006174 6517 0
0 0 0 719 1006893 -6491 0
0 0 0 718 1007611 -5773 0
0 0 0 686 1008297 -5087 0
0 0 0 681 1008978 -4406 0
0 0 0 675 1009653 -3731 0
0 0 0 684 1010337 -3047 0
0 0 0 661 1010998 -2386 0
51 1 S112 669 1011667 -1717 0
51 1 S112 686 1012353 -1031 0
51 1 S112 727 1013080 -304 0
51 2 S112 713 1013793 409 0
51 2 S112 704 1014497 1113 0
51 2 S112 727 1015224 1840 0
51 2 S112 730 1015954 2570 0
51 2 S112 713 1016667 3283 0
51 2 S112 693 1017360 3976 0
51 2 S112 709 1018069 4685 0
51 2 S112 725 1018794 5410 0
51 2 S112 719 1019513 6129 0
51 2 S112 708 1020221 6837 0
0 0 0 721 1020942 -7578 0
0 0 0 724 1021666 -6854 0
0 0 0 734 1022400 -6120 0
0 0 0 716 1023116 -5404 0
0 0 0 726 1023842 -4678 0
0 0 0 736 1024578 -3942 0
0 0 0 720 1025298 -3222 0
0 0 0 692 1025990 -2530 0
52 1 S116 673 1026663 -1857 0
52 1 S116 667 1027330 -1190 0
52 1 S116 653 1027983 -537 0
52 2 S116 666 1028649 129 0
52 2 S116 666 1029315 795 0
52 2 S116 688 1030003 1483 0
52 2 S116 741 1030744 2224 0
52 2 S116 745 1031489 2969 0
52 2 S116 746 1032235 3715 0
52 2 S116 731 1032966 4446 0
52 2 S116 747 1033713 5193 0
52 2 S116 746 1034459 5939 0
52 2 S116 751 1035210 6690 0
0 0 0 727 1035937 -8996 0
0 0 0 724 1036661 -8272 0
0 0 0 728 1037389 -7544 0
0 0 0 730 1038119 -6814 0
0 0 0 691 1038810 -6123 0
0 0 0 669 1039479 -5454 0
0 0 0 666 1040145 -4788 0
0 0 0 660 1040805 -4128 0
0 0 0 652 1041457 -3476 0
0 0 0 628 1042085 -2848 0
0 0 0 628 1042713 -2220 0
53 1 S106 632 1043345 -1588 0
53 1 S106 630 1043975 -958 0
53 1 S106 644 1044619 -314 0
53 2 S106 676 1045295 362 0
53 2 S106 707 1046002 1069 0
53 2 S106 681 1046683 1750 0
53 2 S106 679 1047362 2429 0
53 2 S106 685 1048047 3114 0
53 2 S106 710 1048757 3824 0
53 2 S106 729 1049486 4553 0
53 2 S106 711 1050197 5264 0
53 2 S106 731 1050928 5995 0
53 2 S106 779 1051707 6774 0
0 0 0 765 1052472 -6287 0
0 0 0 711 1053183 -5576 0
0 0 0 727 1053910 -4849 0
0 0 0 708 1054618 -4141 0
0 0 0 698 1055316 -3443 0
0 0 0 680 1055996 -2763 0
0 0 0 707 1056703 -2056 0
54 1 S102 712 1057415 -1344 0
54 1 S102 704 1058119 -640 0
54 2 S102 691 1058810 51 0
54 2 S102 706 1059516 757 0
54 2 S102 721 1060237 1478 0
54 2 S102 717 1060954 2195 0
54 2 S102 746 1061700 2941 0
54 2 S102 783 1062483 3724 0
54 2 S102 797 1063280 4521 0
54 2 S102 778 1064058 5299 0
54 2 S102 750 1064808 6049 0
54 2 S102 741 1065549 6790 0
0 0 0 741 1066290 -10341 0
0 0 0 730 1067020 -9611 0
0 0 0 686 1067706 -8925 0
0 0 0 682 1068388 -8243 0
0 0 0 667 1069055 -7576 0
0 0 0 679 1069734 -6897 0
0 0 0 693 1070427 -6204 0
0 0 0 710 1071137 -5494 0
0 0 0 733 1071870 -4761 0
0 0 0 728 1072598 -4033 0
0 0 0 702 1073300 -3331 0
0 0 0 701 1074001 -2630 0
55 1 S106 719 1074720 -1911 0
55 1 S106 727 1075447 -1184 0
55 1 S106 707 1076154 -477 0
55 2 S106 684 1076838 207 0
55 2 S106 697 1077535 904 0
55 2 S106 758 1078293 1662 0
55 2 S106 745 1079038 2407 0
55 2 S106 725 1079763 3132 0
55 2 S106 719 1080482 3851 0
55 2 S106 726 1081208 4577 0
55 2 S106 723 1081931 5300 0
55 2 S106 719 1082650 6019 0
55 2 S106 702 1083352 6721 0
0 0 0 717 1084069 -7283 0
0 0 0 720 1084789 -6563 0
0 0 0 695 1085484 -5868 0
0 0 0 683 1086167 -5185 0
0 0 0 691 1086858 -4494 0
0 0 0 673 1087531 -3821 0
0 0 0 667 1088198 -3154 0
0 0 0 664 1088862 -2490 0
56 1 S116 689 1089551 -1801 0
56 1 S116 702 1090253 -1099 0
56 1 S116 689 1090942 -410 0
56 2 S116 676 1091618 266 0
56 2 S116 676 1092294 942 0
56 2 S116 705 1092999 1647 0
56 2 S116 714 1093713 2361 0
56 2 S116 690 1094403 3051 0
56 2 S116 702 1095105 3753 0
56 2 S116 700 1095805 4453 0
56 2 S116 709 1096514 5162 0
56 2 S116 690 1097204 5852 0
56 2 S116 660 1097864 6512 0
0 0 0 663 1098527 -7878 0
0 0 0 669 1099196 -7209 0
0 0 0 671 1099867 -6538 0
0 0 0 679 1100546 -5859 0
0 0 0 686 1101232 -5173 0
0 0 0 690 1101922 -4483 0
0 0 0 670 1102592 -3813 0
0 0 0 654 1103246 -3159 0
0 0 0 634 1103880 -2525 0
57 1 S106 634 1104514 -1891 0
57 1 S106 645 1105159 -1246 0
57 1 S106 673 1105832 -573 0
57 2 S106 687 1106519 114 0
57 2 S106 674 1107193 788 0
57 2 S106 711 1107904 1499 0
57 2 S106 707 1108611 2206 0
57 2 S106 736 1109347 2942 0
57 2 S106 693 1110040 3635 0
57 2 S106 698 1110738 4333 0
57 2 S106 700 1111438 5033 0
57 2 S106 705 1112143 5738 0
57 2 S106 699 1112842 6437 0
0 0 0 680 1113522 -8815 0
0 0 0 697 1114219 -8118 0
0 0 0 681 1114900 -7437 0
0 0 0 708 1115608 -6729 0
0 0 0 671 1116279 -6058 0
0 0 0 658 1116937 -5400 0
0 0 0 670 1117607 -4730 0
0 0 0 721 1118328 -4009 0
0 0 0 727 1119055 -3282 0
0 0 0 708 1119763 -2574 0
58 1 S102 734 1120497 -1840 0
58 1 S102 729 1121226 -1111 0
58 1 S102 740 1121966 -371 0
58 2 S102 695 1122661 324 0
58 2 S102 697 1123358 1021 0
58 2 S102 688 1124046 1709 0
58 2 S102 701 1124747 2410 0
58 2 S102 684 1125431 3094 0
58 2 S102 707 1126138 3801 0
58 2 S102 720 1126858 4521 0
58 2 S102 733 1127591 5254 0
58 2 S102 696 1128287 5950 0
58 2 S102 686 1128973 6636 0
0 0 0 688 1129661 -7248 0
0 0 0 676 1130337 -6572 0
0 0 0 654 1130991 -5918 0
0 0 0 666 1131657 -5252 0
0 0 0 693 1132350 -4559 0
0 0 0 688 1133038 -3871 0
0 0 0 660 1133698 -3211 0
0 0 0 656 1134354 -2555 0
59 1 S112 666 1135020 -1889 0
59 1 S112 662 1135682 -1227 0
59 1 S112 638 1136320 -589 0
59 2 S112 645 1136965 56 0
59 2 S112 660 1137625 716 0
59 2 S112 686 1138311 1402 0
59 2 S112 680 1138991 2082 0
59 2 S112 667 1139658 2749 0
59 2 S112 675 1140333 3424 0
59 2 S112 663 1140996 4087 0
59 2 S112 666 1141662 4753 0
59 2 S112 658 1142320 5411 0
59 2 S112 637 1142957 6048 0
59 2 S112 640 1143597 6688 0
0 0 0 663 1144260 -8648 0
0 0 0 693 1144953 -7955 0
0 0 0 683 1145636 -7272 0
0 0 0 675 1146311 -6597 0
0 0 0 678 1146989 -5919 0
0 0 0 782 1147771 -5137 0
0 0 0 733 1148504 -4404 0
0 0 0 706 1149210 -3698 0
0 0 0 726 1149936 -2972 0
0 0 0 719 1150655 -2253 0
60 1 S102 720 1151375 -1533 0
60 1 S102 690 1152065 -843 0
60 1 S102 687 1152752 -156 0
60 2 S102 695 1153447 539 0
60 2 S102 713 1154160 1252 0
60 2 S102 711 1154871 1963 0
60 2 S102 679 1155550 2642 0
60 2 S102 688 1156238 3330 0
60 2 S102 689 1156927 4019 0
60 2 S102 702 1157629 4721 0
60 2 S102 705 1158334 5426 0
60 2 S102 695 1159029 6121 0
60 2 S102 691 1159720 6812 0
0 0 0 707 1160427 -10435 0
0 0 0 704 1161131 -9731 0
0 0 0 708 1161839 -9023 0
0 0 0 692 1162531 -8331 0
0 0 0 685 1163216 -7646 0
0 0 0 698 1163914 -6948 0
0 0 0 722 1164636 -6226 0
0 0 0 671 1165307 -5555 0
0 0 0 676 1165983 -4879 0
0 0 0 664 1166647 -4215 0
0 0 0 664 1167311 -3551 0
0 0 0 639 1167950 -2912 0
0 0 0 623 1168573 -2289 0
61 1 S106 621 1169194 -1668 0
61 1 S106 623 1169817 -1045 0
61 1 S106 629 1170446 -416 0
61 2 S106 626 1171072 210 0
61 2 S106 645 1171717 855 0
61 2 S106 630 1172347 1485 0
61 2 S106 730 1173077 2215 0
61 2 S106 742 1173819 2957 0
61 2 S106 710 1174529 3667 0
61 2 S106 676 1175205 4343 0
61 2 S106 651 1175856 4994 0
61 2 S106 646 1176502 5640 0
61 2 S106 638 1177140 6278 0
61 2 S106 655 1177795 6933 0
0 0 0 658 1178453 -7711 0
0 0 0 691 1179144 -7020 0
0 0 0 713 1179857 -6307 0
0 0 0 723 1180580 -5584 0
0 0 0 676 1181256 -4908 0
0 0 0 673 1181929 -4235 0
0 0 0 703 1182632 -3532 0
0 0 0 701 1183333 -2831 0
0 0 0 687 1184020 -2144 0
62 1 S112 671 1184691 -1473 0
62 1 S112 685 1185376 -788 0
62 1 S112 692 1186068 -96 0
62 2 S112 737 1186805 641 0
62 2 S112 754 1187559 1395 0
62 2 S112 720 1188279 2115 0
62 2 S112 735 1189014 2850 0
62 2 S112 740 1189754 3590 0
62 2 S112 786 1190540 4376 0
62 2 S112 773 1191313 5149 0
62 2 S112 745 1192058 5894 0
62 2 S112 757 1192815 6651 0
0 0 0 759 1193574 -10876 0
0 0 0 757 1194331 -10119 0
0 0 0 711 1195042 -9408 0
0 0 0 711 1195753 -8697 0
0 0 0 689 1196442 -8008 0
0 0 0 678 1197120 -7330 0
0 0 0 666 1197786 -6664 0
0 0 0 654 1198440 -6010 0
0 0 0 649 1199089 -5361 0
0 0 0 639 1199728 -4722 0
0 0 0 627 1200355 -4095 0
0 0 0 657 1201012 -3438 0
0 0 0 674 1201686 -2764 0
0 0 0 657 1202343 -2107 0
63 1 S102 673 1203016 -1434 0
63 1 S102 683 1203699 -751 0
63 1 S102 715 1204414 -36 0
63 2 S102 714 1205128 678 0
63 2 S102 715 1205843 1393 0
63 2 S102 716 1206559 2109 0
63 2 S102 728 1207287 2837 0
63 2 S102 739 1208026 3576 0
63 2 S102 726 1208752 4302 0
63 2 S102 702 1209454 5004 0
63 2 S102 720 1210174 5724 0
63 2 S102 737 1210911 6461 0
0 0 0 751 1211662 -9366 0
0 0 0 729 1212391 -8637 0
0 0 0 721 1213112 -7916 0
0 0 0 737 1213849 -7179 0
0 0 0 739 1214588 -6440 0
0 0 0 696 1215284 -5744 0
0 0 0 696 1215980 -5048 0
0 0 0 694 1216674 -4354 0
0 0 0 700 1217374 -3654 0
0 0 0 674 1218048 -2980 0
0 0 0 684 1218732 -2296 0
64 1 S112 697 1219429 -1599 0
64 1 S112 709 1220138 -890 0
64 1 S112 690 1220828 -200 0
64 2 S112 683 1221511 483 0
64 2 S112 694 1222205 1177 0
64 2 S112 740 1222945 1917 0
64 2 S112 734 1223679 2651 0
64 2 S112 707 1224386 3358 0
64 2 S112 687 1225073 4045 0
64 2 S112 681 1225754 4726 0
64 2 S112 673 1226427 5399 0
64 2 S112 668 1227095 6067 0
64 2 S112 649 1227744 6716 0
0 0 0 654 1228398 -7949 0
0 0 0 670 1229068 -7279 0
0 0 0 694 1229762 -6585 0
0 0 0 694 1230456 -5891 0
0 0 0 696 1231152 -5195 0
0 0 0 706 1231858 -4489 0
0 0 0 693 1232551 -3796 0
0 0 0 681 1233232 -3115 0
0 0 0 661 1233893 -2454 0
65 1 S106 654 1234547 -1800 0
65 1 S106 663 1235210 -1137 0
65 1 S106 663 1235873 -474 0
65 2 S106 678 1236551 204 0
65 2 S106 707 1237258 911 0
65 2 S106 735 1237993 1646 0
65 2 S106 752 1238745 2398 0
65 2 S106 704 1239449 3102 0
65 2 S106 714 1240163 3816 0
65 2 S106 713 1240876 4529 0
65 2 S106 716 1241592 5245 0
65 2 S106 722 1242314 5967 0
65 2 S106 703 1243017 6670 0
0 0 0 724 1243741 -7858 0
0 0 0 743 1244484 -7115 0
0 0 0 709 1245193 -6406 0
0 0 0 696 1245889 -5710 0
0 0 0 740 1246629 -4970 0
0 0 0 734 1247363 -4236 0
0 0 0 709 1248072 -3527 0
0 0 0 687 1248759 -2840 0
0 0 0 682 1249441 -2158 0
66 1 S116 693 1250134 -1465 0
66 1 S116 677 1250811 -788 0
66 1 S116 689 1251500 -99 0
66 2 S116 700 1252200 601 0
66 2 S116 717 1252917 1318 0
66 2 S116 722 1253639 2040 0
66 2 S116 723 1254362 2763 0
66 2 S116 769 1255131 3532 0
66 2 S116 801 1255932 4333 0
66 2 S116 749 1256681 5082 0
66 2 S116 728 1257409 5810 0
66 2 S116 689 1258098 6499 0
0 0 0 660 1258758 -11757 0
0 0 0 669 1259427 -11088 0
0 0 0 673 1260100 -10415 0
0 0 0 673 1260773 -9742 0
0 0 0 632 1261405 -9110 0
0 0 0 631 1262036 -8479 0
0 0 0 639 1262675 -7840 0
0 0 0 634 1263309 -7206 0
0 0 0 632 1263941 -6574 0
0 0 0 648 1264589 -5926 0
0 0 0 672 1265261 -5254 0
0 0 0 705 1265966 -4549 0
0 0 0 683 1266649 -3866 0
0 0 0 704 1267353 -3162 0
0 0 0 734 1268087 -2428 0
67 1 S102 752 1268839 -1676 0
67 1 S102 717 1269556 -959 0
67 1 S102 710 1270266 -249 0
67 2 S102 719 1270985 470 0
67 2 S102 721 1271706 1191 0
67 2 S102 688 1272394 1879 0
67 2 S102 698 1273092 2577 0
67 2 S102 723 1273815 3300 0
67 2 S102 747 1274562 4047 0
67 2 S102 704 1275266 4751 0
67 2 S102 707 1275973 5458 0
67 2 S102 723 1276696 6181 0
67 2 S102 735 1277431 6916 0
0 0 0 728 1278159 -6862 0
0 0 0 721 1278880 -6141 0
0 0 0 749 1279629 -5392 0
0 0 0 752 1280381 -4640 0
0 0 0 701 1281082 -3939 0
0 0 0 690 1281772 -3249 0
0 0 0 693 1282465 -2556 0
68 1 S106 706 1283171 -1850 0
68 1 S106 715 1283886 -1135 0
68 1 S106 708 1284594 -427 0
68 2 S106 734 1285328 307 0
68 2 S106 778 1286106 1085 0
68 2 S106 743 1286849 1828 0
68 2 S106 723 1287572 2551 0
68 2 S106 725 1288297 3276 0
68 2 S106 729 1289026 4005 0
68 2 S106 737 1289763 4742 0
68 2 S106 697 1290460 5439 0
68 2 S106 697 1291157 6136 0
68 2 S106 703 1291860 6839 0
0 0 0 715 1292575 -12108 0
0 0 0 715 1293290 -11393 0
0 0 0 702 1293992 -10691 0
0 0 0 740 1294732 -9951 0
0 0 0 756 1295488 -9195 0
0 0 0 736 1296224 -8459 0
0 0 0 713 1296937 -7746 0
0 0 0 729 1297666 -7017 0
0 0 0 751 1298417 -6266 0
0 0 0 779 1299196 -5487 0
0 0 0 738 1299934 -4749 0
0 0 0 730 1300664 -4019 0
0 0 0 738 1301402 -3281 0
0 0 0 757 1302159 -2524 0
69 1 S102 754 1302913 -1770 0
69 1 S102 739 1303652 -1031 0
69 1 S102 754 1304406 -277 0
69 2 S102 741 1305147 464 0
69 2 S102 773 1305920 1237 0
69 2 S102 716 1306636 1953 0
69 2 S102 719 1307355 2672 0
69 2 S102 719 1308074 3391 0
69 2 S102 722 1308796 4113 0
69 2 S102 716 1309512 4829 0
69 2 S102 719 1310231 5548 0
69 2 S102 737 1310968 6285 0
0 0 0 751 1311719 -9459 0
0 0 0 718 1312437 -8741 0
0 0 0 704 1313141 -8037 0
0 0 0 721 1313862 -7316 0
0 0 0 725 1314587 -6591 0
0 0 0 675 1315262 -5916 0
0 0 0 679 1315941 -5237 0
0 0 0 684 1316625 -4553 0
0 0 0 693 1317318 -3860 0
0 0 0 693 1318011 -3167 0
0 0 0 678 1318689 -2489 0
70 1 S112 699 1319388 -1790 0
70 1 S112 725 1320113 -1065 0
70 1 S112 711 1320824 -354 0
70 2 S112 685 1321509 331 0
70 2 S112 673 1322182 1004 0
70 2 S112 697 1322879 1701 0
70 2 S112 717 1323596 2418 0
70 2 S112 721 1324317 3139 0
70 2 S112 697 1325014 3836 0
70 2 S112 700 1325714 4536 0
70 2 S112 716 1326430 5252 0
70 2 S112 736 1327166 5988 0
70 2 S112 730 1327896 6718 0
0 0 0 706 1328602 -11028 0
0 0 0 705 1329307 -10323 0
0 0 0 715 1330022 -9608 0
0 0 0 703 1330725 -8905 0
0 0 0 666 1331391 -8239 0
0 0 0 669 1332060 -7570 0
0 0 0 674 1332734 -6896 0
0 0 0 672 1333406 -6224 0
0 0 0 647 1334053 -5577 0
0 0 0 644 1334697 -4933 0
0 0 0 655 1335352 -4278 0
0 0 0 663 1336015 -3615 0
0 0 0 665 1336680 -2950 0
0 0 0 652 1337332 -2298 0
71 1 S116 663 1337995 -1635 0
71 1 S116 657 1338652 -978 0
71 1 S116 659 1339311 -319 0
71 2 S116 638 1339949 319 0
71 2 S116 633 1340582 952 0
71 2 S116 652 1341234 1604 0
71 2 S116 660 1341894 2264 0
71 2 S116 620 1342514 2884 0
71 2 S116 613 1343127 3497 0
71 2 S116 624 1343751 4121 0
71 2 S116 638 1344389 4759 0
71 2 S116 638 1345027 5397 0
71 2 S116 650 1345677 6047 0
71 2 S116 659 1346336 6706 0
0 0 0 688 1347024 -9400 0
0 0 0 680 1347704 -8720 0
0 0 0 661 1348365 -8059 0
0 0 0 669 1349034 -7390 0
0 0 0 675 1349709 -6715 0
0 0 0 691 1350400 -6024 0
0 0 0 694 1351094 -5330 0
0 0 0 680 1351774 -4650 0
0 0 0 693 1352467 -3957 0
0 0 0 710 1353177 -3247 0
0 0 0 711 1353888 -2536 0
72 1 S102 682 1354570 -1854 0
72 1 S102 683 1355253 -1171 0
72 1 S102 686 1355939 -485 0
72 2 S102 664 1356603 179 0
72 2 S102 642 1357245 821 0
72 2 S102 637 1357882 1458 0
72 2 S102 637 1358519 2095 0
72 2 S102 643 1359162 2738 0
72 2 S102 664 1359826 3402 0
72 2 S102 655 1360481 4057 0
72 2 S102 653 1361134 4710 0
72 2 S102 681 1361815 5391 0
72 2 S102 705 1362520 6096 0
72 2 S102 686 1363206 6782 0
0 0 0 640 1363846 -6636 0
0 0 0 635 1364481 -6001 0
0 0 0 641 1365122 -5360 0
0 0 0 629 1365751 -4731 0
0 0 0 630 1366381 -4101 0
0 0 0 644 1367025 -3457 0
0 0 0 698 1367723 -2759 0
0 0 0 753 1368476 -2006 0
73 1 S116 709 1369185 -1297 0
73 1 S116 710 1369895 -587 0
73 2 S116 731 1370626 144 0
73 2 S116 768 1371394 912 0
73 2 S116 778 1372172 1690 0
73 2 S116 756 1372928 2446 0
73 2 S116 786 1373714 3232 0
73 2 S116 823 1374537 4055 1
73 2 S116 819 1375356 4874 1
73 2 S116 784 1376140 5658 0
73 2 S116 770 1376910 6428 0
0 0 0 786 1377696 -10508 0
0 0 0 804 1378500 -9704 0
0 0 0 759 1379259 -8945 0
0 0 0 722 1379981 -8223 0
0 0 0 731 1380712 -7492 0
0 0 0 744 1381456 -6748 0
0 0 0 747 1382203 -6001 0
0 0 0 724 1382927 -5277 0
0 0 0 742 1383669 -4535 0
0 0 0 739 1384408 -3796 0
0 0 0 722 1385130 -3074 0
0 0 0 684 1385814 -2390 0
74 1 S106 684 1386498 -1706 0
74 1 S106 690 1387188 -1016 0
74 1 S106 689 1387877 -327 0
74 2 S106 676 1388553 349 0
74 2 S106 691 1389244 1040 0
74 2 S106 711 1389955 1751 0
74 2 S106 725 1390680 2476 0
74 2 S106 693 1391373 3169 0
74 2 S106 705 1392078 3874 0
74 2 S106 745 1392823 4619 0
74 2 S106 739 1393562 5358 0
74 2 S106 760 1394322 6118 0
74 2 S106 711 1395033 6829 0
0 0 0 708 1395741 -6389 0
0 0 0 718 1396459 -5671 0
0 0 0 697 1397156 -4974 0
0 0 0 680 1397836 -4294 0
0 0 0 672 1398508 -3622 0
0 0 0 690 1399198 -2932 0
0 0 0 727 1399925 -2205 0
75 1 S112 731 1400656 -1474 0
75 1 S112 721 1401377 -753 0
75 1 S112 747 1402124 -6 0
75 2 S112 766 1402890 760 0
75 2 S112 749 1403639 1509 0
75 2 S112 716 1404355 2225 0
75 2 S112 716 1405071 2941 0
75 2 S112 721 1405792 3662 0
75 2 S112 708 1406500 4370 0
75 2 S112 689 1407189 5059 0
75 2 S112 692 1407881 5751 0
75 2 S112 695 1408576 6446 0
0 0 0 700 1409276 -7510 0
0 0 0 688 1409964 -6822 0
0 0 0 671 1410635 -6151 0
0 0 0 681 1411316 -5470 0
0 0 0 712 1412028 -4758 0
0 0 0 703 1412731 -4055 0
0 0 0 664 1413395 -3391 0
0 0 0 661 1414056 -2730 0
0 0 0 660 1414716 -2070 0
76 1 S116 653 1415369 -1417 0
76 1 S116 675 1416044 -742 0
76 1 S116 669 1416713 -73 0
76 2 S116 675 1417388 602 0
76 2 S116 704 1418092 1306 0
76 2 S116 712 1418804 2018 0
76 2 S116 683 1419487 2701 0
76 2 S116 692 1420179 3393 0
76 2 S116 690 1420869 4083 0
76 2 S116 695 1421564 4778 0
76 2 S116 662 1422226 5440 0
76 2 S116 658 1422884 6098 0
76 2 S116 672 1423556 6770 0
0 0 0 693 1424249 -5948 0
0 0 0 720 1424969 -5228 0
0 0 0 697 1425666 -4531 0
0 0 0 698 1426364 -3833 0
0 0 0 714 1427078 -3119 0
0 0 0 715 1427793 -2404 0
77 1 S106 669 1428462 -1735 0
77 1 S106 669 1429131 -1066 0
77 1 S106 671 1429802 -395 0
77 2 S106 679 1430481 284 0
77 2 S106 659 1431140 943 0
77 2 S106 662 1431802 1605 0
77 2 S106 680 1432482 2285 0
77 2 S106 694 1433176 2979 0
77 2 S106 677 1433853 3656 0
77 2 S106 682 1434535 4338 0
77 2 S106 708 1435243 5046 0
77 2 S106 701 1435944 5747 0
77 2 S106 686 1436630 6433 0
0 0 0 678 1437308 -8523 0
0 0 0 717 1438025 -7806 0
0 0 0 700 1438725 -7106 0
0 0 0 695 1439420 -6411 0
0 0 0 671 1440091 -5740 0
0 0 0 660 1440751 -5080 0
0 0 0 674 1441425 -4406 0
0 0 0 679 1442104 -3727 0
0 0 0 674 1442778 -3053 0
0 0 0 694 1443472 -2359 0
78 1 S112 711 1444183 -1648 0
78 1 S112 712 1444895 -936 0
78 1 S112 694 1445589 -242 0
78 2 S112 680 1446269 438 0
78 2 S112 699 1446968 1137 0
78 2 S112 694 1447662 1831 0
78 2 S112 678 1448340 2509 0
78 2 S112 646 1448986 3155 0
78 2 S112 643 1449629 3798 0
78 2 S112 634 1450263 4432 0
78 2 S112 627 1450890 5059 0
78 2 S112 609 1451499 5668 0
78 2 S112 606 1452105 6274 0
78 2 S112 616 1452721 6890 0
0 0 0 628 1453349 -10718 0
0 0 0 657 1454006 -10061 0
0 0 0 650 1454656 -9411 0
0 0 0 667 1455323 -8744 0
0 0 0 648 1455971 -8096 0
0 0 0 638 1456609 -7458 0
0 0 0 617 1457226 -6841 0
0 0 0 596 1457822 -6245 0
0 0 0 596 1458418 -5649 0
0 0 0 614 1459032 -5035 0
0 0 0 645 1459677 -4390 0
0 0 0 661 1460338 -3729 0
0 0 0 635 1460973 -3094 0
0 0 0 638 1461611 -2456 0
79 1 S102 653 1462264 -1803 0
79 1 S102 666 1462930 -1137 0
79 1 S102 677 1463607 -460 0
79 2 S102 672 1464279 212 0
79 2 S102 679 1464958 891 0
79 2 S102 696 1465654 1587 0
79 2 S102 721 1466375 2308 0
79 2 S102 704 1467079 3012 0
79 2 S102 696 1467775 3708 0
79 2 S102 699 1468474 4407 0
79 2 S102 724 1469198 5131 0
79 2 S102 731 1469929 5862 0
79 2 S102 718 1470647 6580 0
0 0 0 740 1471387 -10087 0
0 0 0 735 1472122 -9352 0
0 0 0 739 1472861 -8613 0
0 0 0 703 1473564 -7910 0
0 0 0 731 1474295 -7179 0
0 0 0 727 1475022 -6452 0
0 0 0 710 1475732 -5742 0
0 0 0 690 1476422 -5052 0
0 0 0 708 1477130 -4344 0
0 0 0 729 1477859 -3615 0
0 0 0 720 1478579 -2895 0
0 0 0 694 1479273 -2201 0
80 1 S116 720 1479993 -1481 0
80 1 S116 723 1480716 -758 0
80 1 S116 719 1481435 -39 0
80 2 S116 672 1482107 633 0
80 2 S116 679 1482786 1312 0
80 2 S116 693 1483479 2005 0
80 2 S116 725 1484204 2730 0
80 2 S116 704 1484908 3434 0
80 2 S116 689 1485597 4123 0
80 2 S116 683 1486280 4806 0
80 2 S116 695 1486975 5501 0
80 2 S116 701 1487676 6202 0
80 2 S116 699 1488375 6901 0
