T_0094
BeatCount Mean SD BeatCountNoOutliers MeanNoOutliers SDNoOutliers
1805 864,442105263158 90,3642702088438 1775 863,052957746479 83,7709010557256

Trial TrialStatus Trialtype IBI AbsPosition RelPosition Outlier
0 0 0 725 1027 -14830 0
0 0 0 834 1861 -13996 0
0 0 0 918 2779 -13078 0
0 0 0 956 3735 -12122 0
0 0 0 890 4625 -11232 0
0 0 0 828 5453 -10404 0
0 0 0 769 6222 -9635 0
0 0 0 764 6986 -8871 0
0 0 0 773 7759 -8098 0
0 0 0 835 8594 -7263 0
0 0 0 946 9540 -6317 0
0 0 0 879 10419 -5438 0
0 0 0 899 11318 -4539 0
0 0 0 984 12302 -3555 0
0 0 0 1009 13311 -2546 0
1 1 S112 970 14281 -1576 0
1 1 S112 880 15161 -696 0
1 2 S112 898 16059 202 0
1 2 S112 993 17052 1195 0
1 2 S112 933 17985 2128 0
1 2 S112 873 18858 3001 0
1 2 S112 824 19682 3825 0
1 2 S112 874 20556 4699 0
1 2 S112 1097 21653 5796 0
1 2 S112 1080 22733 6876 0
0 0 0 1038 23771 -10737 0
0 0 0 894 24665 -9843 0
0 0 0 910 25575 -8933 0
0 0 0 872 26447 -8061 0
0 0 0 812 27259 -7249 0
0 0 0 968 28227 -6281 0
0 0 0 1023 29250 -5258 0
0 0 0 983 30233 -4275 0
0 0 0 912 31145 -3363 0
0 0 0 985 32130 -2378 0
2 1 S102 940 33070 -1438 0
2 1 S102 852 33922 -586 0
2 2 S102 868 34790 282 0
2 2 S102 957 35747 1239 0
2 2 S102 930 36677 2169 0
2 2 S102 900 37577 3069 0
2 2 S102 865 38442 3934 0
2 2 S102 971 39413 4905 0
2 2 S102 965 40378 5870 0
2 2 S102 878 41256 6748 0
0 0 0 891 42147 -9685 0
0 0 0 901 43048 -8784 0
0 0 0 920 43968 -7864 0
0 0 0 901 44869 -6963 0
0 0 0 930 45799 -6033 0
0 0 0 938 46737 -5095 0
0 0 0 891 47628 -4204 0
0 0 0 947 48575 -3257 0
0 0 0 934 49509 -2323 0
3 1 S116 900 50409 -1423 0
3 1 S116 812 51221 -611 0
3 2 S116 841 52062 230 0
3 2 S116 876 52938 1106 0
3 2 S116 916 53854 2022 0
3 2 S116 810 54664 2832 0
3 2 S116 818 55482 3650 0
3 2 S116 888 56370 4538 0
3 2 S116 980 57350 5518 0
3 2 S116 1039 58389 6557 0
0 0 0 1023 59412 -11602 0
0 0 0 918 60330 -10684 0
0 0 0 889 61219 -9795 0
0 0 0 944 62163 -8851 0
0 0 0 860 63023 -7991 0
0 0 0 813 63836 -7178 0
0 0 0 881 64717 -6297 0
0 0 0 988 65705 -5309 0
0 0 0 1081 66786 -4228 0
0 0 0 992 67778 -3236 0
0 0 0 892 68670 -2344 0
4 1 S106 953 69623 -1391 0
4 1 S106 967 70590 -424 0
4 2 S106 885 71475 461 0
4 2 S106 854 72329 1315 0
4 2 S106 934 73263 2249 0
4 2 S106 970 74233 3219 0
4 2 S106 969 75202 4188 0
4 2 S106 908 76110 5096 0
4 2 S106 898 77008 5994 0
4 2 S106 934 77942 6928 0
0 0 0 952 78894 -7156 0
0 0 0 854 79748 -6302 0
0 0 0 821 80569 -5481 0
0 0 0 906 81475 -4575 0
0 0 0 905 82380 -3670 0
0 0 0 888 83268 -2782 0
5 1 S116 844 84112 -1938 0
5 1 S116 957 85069 -981 0
5 1 S116 973 86042 -8 0
5 2 S116 1006 87048 998 0
5 2 S116 909 87957 1907 0
5 2 S116 825 88782 2732 0
5 2 S116 813 89595 3545 0
5 2 S116 889 90484 4434 0
5 2 S116 1031 91515 5465 0
5 2 S116 1118 92633 6583 1
0 0 0 1097 93730 -10341 0
0 0 0 968 94698 -9373 0
0 0 0 871 95569 -8502 0
0 0 0 901 96470 -7601 0
0 0 0 947 97417 -6654 0
0 0 0 824 98241 -5830 0
0 0 0 802 99043 -5028 0
0 0 0 873 99916 -4155 0
0 0 0 952 100868 -3203 0
0 0 0 965 101833 -2238 0
6 1 S106 875 102708 -1363 0
6 1 S106 866 103574 -497 0
6 2 S106 906 104480 409 0
6 2 S106 892 105372 1301 0
6 2 S106 878 106250 2179 0
6 2 S106 775 107025 2954 0
6 2 S106 818 107843 3772 0
6 2 S106 872 108715 4644 0
6 2 S106 987 109702 5631 0
6 2 S106 1093 110795 6724 0
0 0 0 979 111774 -10782 0
0 0 0 911 112685 -9871 0
0 0 0 915 113600 -8956 0
0 0 0 904 114504 -8052 0
0 0 0 833 115337 -7219 0
0 0 0 779 116116 -6440 0
0 0 0 829 116945 -5611 0
0 0 0 875 117820 -4736 0
0 0 0 856 118676 -3880 0
0 0 0 809 119485 -3071 0
0 0 0 872 120357 -2199 0
7 1 S102 920 121277 -1279 0
7 1 S102 790 122067 -489 0
7 2 S102 785 122852 296 0
7 2 S102 787 123639 1083 0
7 2 S102 779 124418 1862 0
7 2 S102 725 125143 2587 0
7 2 S102 703 125846 3290 0
7 2 S102 721 126567 4011 0
7 2 S102 754 127321 4765 0
7 2 S102 848 128169 5613 0
7 2 S102 919 129088 6532 0
0 0 0 831 129919 -9099 0
0 0 0 858 130777 -8241 0
0 0 0 945 131722 -7296 0
0 0 0 949 132671 -6347 0
0 0 0 874 133545 -5473 0
0 0 0 852 134397 -4621 0
0 0 0 916 135313 -3705 0
0 0 0 980 136293 -2725 0
8 1 S112 1016 137309 -1709 0
8 1 S112 934 138243 -775 0
8 2 S112 853 139096 78 0
8 2 S112 944 140040 1022 0
8 2 S112 964 141004 1986 0
8 2 S112 985 141989 2971 0
8 2 S112 896 142885 3867 0
8 2 S112 976 143861 4843 0
8 2 S112 1083 144944 5926 0
8 2 S112 1017 145961 6943 0
0 0 0 856 146817 -7702 0
0 0 0 816 147633 -6886 0
0 0 0 890 148523 -5996 0
0 0 0 1009 149532 -4987 0
0 0 0 883 150415 -4104 0
0 0 0 933 151348 -3171 0
0 0 0 1013 152361 -2158 0
9 1 S116 899 153260 -1259 0
9 1 S116 874 154134 -385 0
9 2 S116 897 155031 512 0
9 2 S116 927 155958 1439 0
9 2 S116 884 156842 2323 0
9 2 S116 855 157697 3178 0
9 2 S116 927 158624 4105 0
9 2 S116 1010 159634 5115 0
9 2 S116 927 160561 6042 0
9 2 S116 848 161409 6890 0
0 0 0 845 162254 -11993 0
0 0 0 890 163144 -11103 0
0 0 0 809 163953 -10294 0
0 0 0 851 164804 -9443 0
0 0 0 966 165770 -8477 0
0 0 0 937 166707 -7540 0
0 0 0 839 167546 -6701 0
0 0 0 876 168422 -5825 0
0 0 0 1019 169441 -4806 0
0 0 0 969 170410 -3837 0
0 0 0 907 171317 -2930 0
0 0 0 835 172152 -2095 0
10 1 S102 934 173086 -1161 0
10 1 S102 951 174037 -210 0
10 2 S102 909 174946 699 0
10 2 S102 889 175835 1588 0
10 2 S102 900 176735 2488 0
10 2 S102 994 177729 3482 0
10 2 S102 910 178639 4392 0
10 2 S102 836 179475 5228 0
10 2 S102 809 180284 6037 0
10 2 S102 853 181137 6890 0
0 0 0 929 182066 -11793 0
0 0 0 899 182965 -10894 0
0 0 0 884 183849 -10010 0
0 0 0 975 184824 -9035 0
0 0 0 941 185765 -8094 0
0 0 0 855 186620 -7239 0
0 0 0 821 187441 -6418 0
0 0 0 838 188279 -5580 0
0 0 0 889 189168 -4691 0
0 0 0 840 190008 -3851 0
0 0 0 795 190803 -3056 0
0 0 0 836 191639 -2220 0
11 1 S112 866 192505 -1354 0
11 1 S112 879 193384 -475 0
11 2 S112 844 194228 369 0
11 2 S112 907 195135 1276 0
11 2 S112 959 196094 2235 0
11 2 S112 896 196990 3131 0
11 2 S112 886 197876 4017 0
11 2 S112 938 198814 4955 0
11 2 S112 942 199756 5897 0
11 2 S112 869 200625 6766 0
0 0 0 810 201435 -8323 0
0 0 0 825 202260 -7498 0
0 0 0 931 203191 -6567 0
0 0 0 933 204124 -5634 0
0 0 0 1010 205134 -4624 0
0 0 0 987 206121 -3637 0
0 0 0 910 207031 -2727 0
12 1 S116 826 207857 -1901 0
12 1 S116 842 208699 -1059 0
12 1 S116 883 209582 -176 0
12 2 S116 835 210417 659 0
12 2 S116 812 211229 1471 0
12 2 S116 859 212088 2330 0
12 2 S116 927 213015 3257 0
12 2 S116 946 213961 4203 0
12 2 S116 904 214865 5107 0
12 2 S116 898 215763 6005 0
12 2 S116 960 216723 6965 0
0 0 0 971 217694 -11958 0
0 0 0 884 218578 -11074 0
0 0 0 863 219441 -10211 0
0 0 0 933 220374 -9278 0
0 0 0 922 221296 -8356 0
0 0 0 867 222163 -7489 0
0 0 0 816 222979 -6673 0
0 0 0 844 223823 -5829 0
0 0 0 908 224731 -4921 0
0 0 0 925 225656 -3996 0
0 0 0 833 226489 -3163 0
0 0 0 859 227348 -2304 0
13 1 S112 903 228251 -1401 0
13 1 S112 918 229169 -483 0
13 2 S112 883 230052 400 0
13 2 S112 864 230916 1264 0
13 2 S112 914 231830 2178 0
13 2 S112 920 232750 3098 0
13 2 S112 891 233641 3989 0
13 2 S112 862 234503 4851 0
13 2 S112 857 235360 5708 0
13 2 S112 946 236306 6654 0
0 0 0 988 237294 -12219 0
0 0 0 998 238292 -11221 0
0 0 0 876 239168 -10345 0
0 0 0 868 240036 -9477 0
0 0 0 943 240979 -8534 0
0 0 0 861 241840 -7673 0
0 0 0 821 242661 -6852 0
0 0 0 808 243469 -6044 0
0 0 0 882 244351 -5162 0
0 0 0 960 245311 -4202 0
0 0 0 925 246236 -3277 0
0 0 0 838 247074 -2439 0
14 1 S106 848 247922 -1591 0
14 1 S106 922 248844 -669 0
14 2 S106 930 249774 261 0
14 2 S106 845 250619 1106 0
14 2 S106 845 251464 1951 0
14 2 S106 924 252388 2875 0
14 2 S106 965 253353 3840 0
14 2 S106 1064 254417 4904 0
14 2 S106 1014 255431 5918 0
14 2 S106 942 256373 6860 0
0 0 0 948 257321 -10893 0
0 0 0 938 258259 -9955 0
0 0 0 877 259136 -9078 0
0 0 0 822 259958 -8256 0
0 0 0 959 260917 -7297 0
0 0 0 972 261889 -6325 0
0 0 0 958 262847 -5367 0
0 0 0 890 263737 -4477 0
0 0 0 857 264594 -3620 0
0 0 0 934 265528 -2686 0
15 1 S116 990 266518 -1696 0
15 1 S116 926 267444 -770 0
15 2 S116 874 268318 104 0
15 2 S116 910 269228 1014 0
15 2 S116 866 270094 1880 0
15 2 S116 810 270904 2690 0
15 2 S116 833 271737 3523 0
15 2 S116 926 272663 4449 0
15 2 S116 955 273618 5404 0
15 2 S116 870 274488 6274 0
0 0 0 843 275331 -9759 0
0 0 0 970 276301 -8789 0
0 0 0 919 277220 -7870 0
0 0 0 850 278070 -7020 0
0 0 0 834 278904 -6186 0
0 0 0 998 279902 -5188 0
0 0 0 993 280895 -4195 0
0 0 0 899 281794 -3296 0
0 0 0 894 282688 -2402 0
16 1 S116 929 283617 -1473 0
16 1 S116 992 284609 -481 0
16 2 S116 859 285468 378 0
16 2 S116 802 286270 1180 0
16 2 S116 832 287102 2012 0
16 2 S116 940 288042 2952 0
16 2 S116 1025 289067 3977 0
16 2 S116 1175 290242 5152 1
16 2 S116 1188 291430 6340 1
0 0 0 1166 292596 -10482 1
0 0 0 1043 293639 -9439 0
0 0 0 894 294533 -8545 0
0 0 0 881 295414 -7664 0
0 0 0 948 296362 -6716 0
0 0 0 865 297227 -5851 0
0 0 0 828 298055 -5023 0
0 0 0 941 298996 -4082 0
0 0 0 1009 300005 -3073 0
0 0 0 943 300948 -2130 0
17 1 S106 927 301875 -1203 0
17 1 S106 966 302841 -237 0
17 2 S106 940 303781 703 0
17 2 S106 850 304631 1553 0
17 2 S106 810 305441 2363 0
17 2 S106 834 306275 3197 0
17 2 S106 889 307164 4086 0
17 2 S106 823 307987 4909 0
17 2 S106 804 308791 5713 0
17 2 S106 835 309626 6548 0
0 0 0 940 310566 -12837 0
0 0 0 1006 311572 -11831 0
0 0 0 928 312500 -10903 0
0 0 0 937 313437 -9966 0
0 0 0 945 314382 -9021 0
0 0 0 805 315187 -8216 0
0 0 0 754 315941 -7462 0
0 0 0 749 316690 -6713 0
0 0 0 787 317477 -5926 0
0 0 0 817 318294 -5109 0
0 0 0 759 319053 -4350 0
0 0 0 849 319902 -3501 0
0 0 0 961 320863 -2540 0
18 1 S102 988 321851 -1552 0
18 1 S102 866 322717 -686 0
18 2 S102 961 323678 275 0
18 2 S102 932 324610 1207 0
18 2 S102 904 325514 2111 0
18 2 S102 812 326326 2923 0
18 2 S102 795 327121 3718 0
18 2 S102 834 327955 4552 0
18 2 S102 858 328813 5410 0
18 2 S102 791 329604 6201 0
0 0 0 839 330443 -8544 0
0 0 0 911 331354 -7633 0
0 0 0 973 332327 -6660 0
0 0 0 904 333231 -5756 0
0 0 0 980 334211 -4776 0
0 0 0 949 335160 -3827 0
0 0 0 874 336034 -2953 0
0 0 0 799 336833 -2154 0
19 1 S106 785 337618 -1369 0
19 1 S106 867 338485 -502 0
19 2 S106 979 339464 477 0
19 2 S106 947 340411 1424 0
19 2 S106 907 341318 2331 0
19 2 S106 995 342313 3326 0
19 2 S106 994 343307 4320 0
19 2 S106 953 344260 5273 0
19 2 S106 821 345081 6094 0
19 2 S106 846 345927 6940 0
0 0 0 955 346882 -11634 0
0 0 0 959 347841 -10675 0
0 0 0 881 348722 -9794 0
0 0 0 903 349625 -8891 0
0 0 0 972 350597 -7919 0
0 0 0 1013 351610 -6906 0
0 0 0 908 352518 -5998 0
0 0 0 855 353373 -5143 0
0 0 0 880 354253 -4263 0
0 0 0 923 355176 -3340 0
0 0 0 952 356128 -2388 0
20 1 S112 873 357001 -1515 0
20 1 S112 827 357828 -688 0
20 2 S112 885 358713 197 0
20 2 S112 928 359641 1125 0
20 2 S112 851 360492 1976 0
20 2 S112 799 361291 2775 0
20 2 S112 792 362083 3567 0
20 2 S112 854 362937 4421 0
20 2 S112 972 363909 5393 0
20 2 S112 986 364895 6379 0
0 0 0 937 365832 -10174 0
0 0 0 852 366684 -9322 0
0 0 0 882 367566 -8440 0
0 0 0 976 368542 -7464 0
0 0 0 876 369418 -6588 0
0 0 0 805 370223 -5783 0
0 0 0 801 371024 -4982 0
0 0 0 835 371859 -4147 0
0 0 0 781 372640 -3366 0
0 0 0 753 373393 -2613 0
21 1 S106 791 374184 -1822 0
21 1 S106 808 374992 -1014 0
21 1 S106 907 375899 -107 0
21 2 S106 807 376706 700 0
21 2 S106 906 377612 1606 0
21 2 S106 945 378557 2551 0
21 2 S106 1017 379574 3568 0
21 2 S106 1036 380610 4604 0
21 2 S106 957 381567 5561 0
21 2 S106 892 382459 6453 0
0 0 0 872 383331 -11525 0
0 0 0 933 384264 -10592 0
0 0 0 878 385142 -9714 0
0 0 0 862 386004 -8852 0
0 0 0 836 386840 -8016 0
0 0 0 1050 387890 -6966 0
0 0 0 1087 388977 -5879 0
0 0 0 978 389955 -4901 0
0 0 0 914 390869 -3987 0
0 0 0 937 391806 -3050 0
0 0 0 995 392801 -2055 0
22 1 S116 909 393710 -1146 0
22 1 S116 835 394545 -311 0
22 2 S116 857 395402 546 0
22 2 S116 969 396371 1515 0
22 2 S116 984 397355 2499 0
22 2 S116 990 398345 3489 0
22 2 S116 911 399256 4400 0
22 2 S116 907 400163 5307 0
22 2 S116 930 401093 6237 0
0 0 0 911 402004 -11453 0
0 0 0 832 402836 -10621 0
0 0 0 829 403665 -9792 0
0 0 0 877 404542 -8915 0
0 0 0 837 405379 -8078 0
0 0 0 855 406234 -7223 0
0 0 0 905 407139 -6318 0
0 0 0 926 408065 -5392 0
0 0 0 940 409005 -4452 0
0 0 0 887 409892 -3565 0
0 0 0 871 410763 -2694 0
23 1 S112 912 411675 -1782 0
23 1 S112 899 412574 -883 0
23 1 S112 810 413384 -73 0
23 2 S112 810 414194 737 0
23 2 S112 874 415068 1611 0
23 2 S112 896 415964 2507 0
23 2 S112 818 416782 3325 0
23 2 S112 815 417597 4140 0
23 2 S112 923 418520 5063 0
23 2 S112 940 419460 6003 0
23 2 S112 902 420362 6905 0
0 0 0 856 421218 -9447 0
0 0 0 891 422109 -8556 0
0 0 0 941 423050 -7615 0
0 0 0 869 423919 -6746 0
0 0 0 788 424707 -5958 0
0 0 0 803 425510 -5155 0
0 0 0 860 426370 -4295 0
0 0 0 838 427208 -3457 0
0 0 0 794 428002 -2663 0
24 1 S106 792 428794 -1871 0
24 1 S106 842 429636 -1029 0
24 1 S106 874 430510 -155 0
24 2 S106 884 431394 729 0
24 2 S106 811 432205 1540 0
24 2 S106 783 432988 2323 0
24 2 S106 788 433776 3111 0
24 2 S106 847 434623 3958 0
24 2 S106 895 435518 4853 0
24 2 S106 1014 436532 5867 0
24 2 S106 1062 437594 6929 0
0 0 0 1043 438637 -9021 0
0 0 0 890 439527 -8131 0
0 0 0 796 440323 -7335 0
0 0 0 773 441096 -6562 0
0 0 0 830 441926 -5732 0
0 0 0 1121 443047 -4611 1
0 0 0 1160 444207 -3451 1
0 0 0 1053 445260 -2398 0
25 1 S102 887 446147 -1511 0
25 1 S102 828 446975 -683 0
25 2 S102 899 447874 216 0
25 2 S102 952 448826 1168 0
25 2 S102 848 449674 2016 0
25 2 S102 881 450555 2897 0
25 2 S102 947 451502 3844 0
25 2 S102 941 452443 4785 0
25 2 S102 922 453365 5707 0
25 2 S102 843 454208 6550 0
0 0 0 830 455038 -7988 0
0 0 0 840 455878 -7148 0
0 0 0 823 456701 -6325 0
0 0 0 782 457483 -5543 0
0 0 0 802 458285 -4741 0
0 0 0 821 459106 -3920 0
0 0 0 905 460011 -3015 0
0 0 0 882 460893 -2133 0
26 1 S116 857 461750 -1276 0
26 1 S116 906 462656 -370 0
26 2 S116 895 463551 525 0
26 2 S116 854 464405 1379 0
26 2 S116 803 465208 2182 0
26 2 S116 815 466023 2997 0
26 2 S116 909 466932 3906 0
26 2 S116 1024 467956 4930 0
26 2 S116 998 468954 5928 0
26 2 S116 905 469859 6833 0
0 0 0 894 470753 -8172 0
0 0 0 966 471719 -7206 0
0 0 0 951 472670 -6255 0
0 0 0 899 473569 -5356 0
0 0 0 852 474421 -4504 0
0 0 0 857 475278 -3647 0
0 0 0 956 476234 -2691 0
27 1 S106 853 477087 -1838 0
27 1 S106 854 477941 -984 0
27 1 S106 944 478885 -40 0
27 2 S106 1026 479911 986 0
27 2 S106 1071 480982 2057 0
27 2 S106 963 481945 3020 0
27 2 S106 881 482826 3901 0
27 2 S106 956 483782 4857 0
27 2 S106 1042 484824 5899 0
27 2 S106 1077 485901 6976 0
0 0 0 1060 486961 -6520 0
0 0 0 924 487885 -5596 0
0 0 0 791 488676 -4805 0
0 0 0 764 489440 -4041 0
0 0 0 802 490242 -3239 0
28 1 S102 1242 491484 -1997 1
28 1 S102 1114 492598 -883 1
28 2 S102 1038 493636 155 0
28 2 S102 961 494597 1116 0
28 2 S102 942 495539 2058 0
28 2 S102 942 496481 3000 0
28 2 S102 894 497375 3894 0
28 2 S102 819 498194 4713 0
28 2 S102 814 499008 5527 0
28 2 S102 951 499959 6478 0
0 0 0 1015 500974 -11506 0
0 0 0 944 501918 -10562 0
0 0 0 848 502766 -9714 0
0 0 0 889 503655 -8825 0
0 0 0 880 504535 -7945 0
0 0 0 852 505387 -7093 0
0 0 0 783 506170 -6310 0
0 0 0 774 506944 -5536 0
0 0 0 816 507760 -4720 0
0 0 0 945 508705 -3775 0
0 0 0 926 509631 -2849 0
29 1 S112 851 510482 -1998 0
29 1 S112 965 511447 -1033 0
29 1 S112 968 512415 -65 0
29 2 S112 910 513325 845 0
29 2 S112 823 514148 1668 0
29 2 S112 799 514947 2467 0
29 2 S112 834 515781 3301 0
29 2 S112 883 516664 4184 0
29 2 S112 866 517530 5050 0
29 2 S112 821 518351 5871 0
29 2 S112 927 519278 6798 0
0 0 0 918 520196 -8149 0
0 0 0 968 521164 -7181 0
0 0 0 867 522031 -6314 0
0 0 0 866 522897 -5448 0
0 0 0 944 523841 -4504 0
0 0 0 937 524778 -3567 0
0 0 0 888 525666 -2679 0
30 1 S112 821 526487 -1858 0
30 1 S112 846 527333 -1012 0
30 1 S112 909 528242 -103 0
30 2 S112 932 529174 829 0
30 2 S112 863 530037 1692 0
30 2 S112 874 530911 2566 0
30 2 S112 985 531896 3551 0
30 2 S112 1012 532908 4563 0
30 2 S112 982 533890 5545 0
30 2 S112 916 534806 6461 0
0 0 0 933 535739 -10080 0
0 0 0 953 536692 -9127 0
0 0 0 868 537560 -8259 0
0 0 0 807 538367 -7452 0
0 0 0 838 539205 -6614 0
0 0 0 859 540064 -5755 0
0 0 0 803 540867 -4952 0
0 0 0 765 541632 -4187 0
0 0 0 781 542413 -3406 0
0 0 0 832 543245 -2574 0
31 1 S106 930 544175 -1644 0
31 1 S106 834 545009 -810 0
31 2 S106 846 545855 36 0
31 2 S106 866 546721 902 0
31 2 S106 900 547621 1802 0
31 2 S106 805 548426 2607 0
31 2 S106 768 549194 3375 0
31 2 S106 824 550018 4199 0
31 2 S106 890 550908 5089 0
31 2 S106 965 551873 6054 0
31 2 S106 959 552832 7013 0
0 0 0 893 553725 -9534 0
0 0 0 897 554622 -8637 0
0 0 0 903 555525 -7734 0
0 0 0 955 556480 -6779 0
0 0 0 889 557369 -5890 0
0 0 0 802 558171 -5088 0
0 0 0 778 558949 -4310 0
0 0 0 852 559801 -3458 0
0 0 0 1130 560931 -2328 1
32 1 S102 1162 562093 -1166 1
32 1 S102 1058 563151 -108 0
32 2 S102 893 564044 785 0
32 2 S102 823 564867 1608 0
32 2 S102 832 565699 2440 0
32 2 S102 915 566614 3355 0
32 2 S102 956 567570 4311 0
32 2 S102 944 568514 5255 0
32 2 S102 917 569431 6172 0
0 0 0 973 570404 -12053 0
0 0 0 1035 571439 -11018 0
0 0 0 898 572337 -10120 0
0 0 0 845 573182 -9275 0
0 0 0 898 574080 -8377 0
0 0 0 872 574952 -7505 0
0 0 0 826 575778 -6679 0
0 0 0 817 576595 -5862 0
0 0 0 894 577489 -4968 0
0 0 0 950 578439 -4018 0
0 0 0 948 579387 -3070 0
0 0 0 876 580263 -2194 0
33 1 S112 876 581139 -1318 0
33 1 S112 878 582017 -440 0
33 2 S112 919 582936 479 0
33 2 S112 862 583798 1341 0
33 2 S112 798 584596 2139 0
33 2 S112 791 585387 2930 0
33 2 S112 853 586240 3783 0
33 2 S112 985 587225 4768 0
33 2 S112 1101 588326 5869 1
33 2 S112 1038 589364 6907 0
0 0 0 1050 590414 -10992 0
0 0 0 979 591393 -10013 0
0 0 0 836 592229 -9177 0
0 0 0 766 592995 -8411 0
0 0 0 754 593749 -7657 0
0 0 0 747 594496 -6910 0
0 0 0 754 595250 -6156 0
0 0 0 743 595993 -5413 0
0 0 0 781 596774 -4632 0
0 0 0 895 597669 -3737 0
0 0 0 1126 598795 -2611 1
34 1 S106 1084 599879 -1527 0
34 1 S106 968 600847 -559 0
34 2 S106 926 601773 367 0
34 2 S106 1046 602819 1413 0
34 2 S106 1049 603868 2462 0
34 2 S106 914 604782 3376 0
34 2 S106 883 605665 4259 0
34 2 S106 935 606600 5194 0
34 2 S106 967 607567 6161 0
0 0 0 926 608493 -10486 0
0 0 0 849 609342 -9637 0
0 0 0 895 610237 -8742 0
0 0 0 1081 611318 -7661 0
0 0 0 974 612292 -6687 0
0 0 0 889 613181 -5798 0
0 0 0 972 614153 -4826 0
0 0 0 981 615134 -3845 0
0 0 0 862 615996 -2983 0
0 0 0 846 616842 -2137 0
35 1 S102 921 617763 -1216 0
35 1 S102 1021 618784 -195 0
35 2 S102 1014 619798 819 0
35 2 S102 887 620685 1706 0
35 2 S102 874 621559 2580 0
35 2 S102 892 622451 3472 0
35 2 S102 939 623390 4411 0
35 2 S102 843 624233 5254 0
35 2 S102 802 625035 6056 0
35 2 S102 836 625871 6892 0
0 0 0 904 626775 -7506 0
0 0 0 963 627738 -6543 0
0 0 0 837 628575 -5706 0
0 0 0 930 629505 -4776 0
0 0 0 945 630450 -3831 0
0 0 0 975 631425 -2856 0
36 1 S106 856 632281 -2000 0
36 1 S106 813 633094 -1187 0
36 1 S106 842 633936 -345 0
36 2 S106 944 634880 599 0
36 2 S106 988 635868 1587 0
36 2 S106 899 636767 2486 0
36 2 S106 843 637610 3329 0
36 2 S106 870 638480 4199 0
36 2 S106 1017 639497 5216 0
36 2 S106 1070 640567 6286 0
0 0 0 996 641563 -9727 0
0 0 0 875 642438 -8852 0
0 0 0 822 643260 -8030 0
0 0 0 850 644110 -7180 0
0 0 0 832 644942 -6348 0
0 0 0 796 645738 -5552 0
0 0 0 779 646517 -4773 0
0 0 0 858 647375 -3915 0
0 0 0 1073 648448 -2842 0
37 1 S116 999 649447 -1843 0
37 1 S116 868 650315 -975 0
37 1 S116 840 651155 -135 0
37 2 S116 820 651975 685 0
37 2 S116 858 652833 1543 0
37 2 S116 806 653639 2349 0
37 2 S116 770 654409 3119 0
37 2 S116 785 655194 3904 0
37 2 S116 855 656049 4759 0
37 2 S116 964 657013 5723 0
37 2 S116 915 657928 6638 0
0 0 0 847 658775 -12774 0
0 0 0 896 659671 -11878 0
0 0 0 903 660574 -10975 0
0 0 0 841 661415 -10134 0
0 0 0 824 662239 -9310 0
0 0 0 846 663085 -8464 0
0 0 0 838 663923 -7626 0
0 0 0 851 664774 -6775 0
0 0 0 819 665593 -5956 0
0 0 0 778 666371 -5178 0
0 0 0 828 667199 -4350 0
0 0 0 905 668104 -3445 0
0 0 0 1013 669117 -2432 0
38 1 S102 937 670054 -1495 0
38 1 S102 849 670903 -646 0
38 2 S102 862 671765 216 0
38 2 S102 975 672740 1191 0
38 2 S102 928 673668 2119 0
38 2 S102 870 674538 2989 0
38 2 S102 850 675388 3839 0
38 2 S102 913 676301 4752 0
38 2 S102 992 677293 5744 0
38 2 S102 907 678200 6651 0
0 0 0 842 679042 -9699 0
0 0 0 854 679896 -8845 0
0 0 0 876 680772 -7969 0
0 0 0 834 681606 -7135 0
0 0 0 774 682380 -6361 0
0 0 0 786 683166 -5575 0
0 0 0 846 684012 -4729 0
0 0 0 923 684935 -3806 0
0 0 0 857 685792 -2949 0
0 0 0 808 686600 -2141 0
39 1 S116 841 687441 -1300 0
39 1 S116 844 688285 -456 0
39 2 S116 879 689164 423 0
39 2 S116 802 689966 1225 0
39 2 S116 795 690761 2020 0
39 2 S116 845 691606 2865 0
39 2 S116 896 692502 3761 0
39 2 S116 1038 693540 4799 0
39 2 S116 1018 694558 5817 0
39 2 S116 941 695499 6758 0
0 0 0 936 696435 -7343 0
0 0 0 929 697364 -6414 0
0 0 0 887 698251 -5527 0
0 0 0 811 699062 -4716 0
0 0 0 728 699790 -3988 0
0 0 0 696 700486 -3292 0
0 0 0 675 701161 -2617 0
40 1 S112 743 701904 -1874 0
40 1 S112 937 702841 -937 0
40 1 S112 885 703726 -52 0
40 2 S112 795 704521 743 0
40 2 S112 752 705273 1495 0
40 2 S112 757 706030 2252 0
40 2 S112 750 706780 3002 0
40 2 S112 744 707524 3746 0
40 2 S112 759 708283 4505 0
40 2 S112 772 709055 5277 0
40 2 S112 783 709838 6060 0
40 2 S112 791 710629 6851 0
0 0 0 777 711406 -186720 0
0 0 0 709 712115 -186011 0
0 0 0 681 712796 -185330 0
0 0 0 661 713457 -184669 0
0 0 0 667 714124 -184002 0
0 0 0 634 714758 -183368 0
0 0 0 620 715378 -182748 1
0 0 0 605 715983 -182143 1
0 0 0 601 716584 -181542 1
0 0 0 599 717183 -180943 1
0 0 0 598 717781 -180345 1
0 0 0 597 718378 -179748 1
0 0 0 599 718977 -179149 1
0 0 0 600 719577 -178549 1
0 0 0 604 720181 -177945 1
0 0 0 605 720786 -177340 1
0 0 0 608 721394 -176732 1
0 0 0 670 722064 -176062 0
0 0 0 765 722829 -175297 0
0 0 0 742 723571 -174555 0
0 0 0 717 724288 -173838 0
0 0 0 695 724983 -173143 0
0 0 0 680 725663 -172463 0
0 0 0 667 726330 -171796 0
0 0 0 657 726987 -171139 0
0 0 0 647 727634 -170492 0
0 0 0 658 728292 -169834 0
0 0 0 675 728967 -169159 0
0 0 0 710 729677 -168449 0
0 0 0 747 730424 -167702 0
0 0 0 764 731188 -166938 0
0 0 0 780 731968 -166158 0
0 0 0 744 732712 -165414 0
0 0 0 728 733440 -164686 0
0 0 0 702 734142 -163984 0
0 0 0 703 734845 -163281 0
0 0 0 693 735538 -162588 0
0 0 0 703 736241 -161885 0
0 0 0 750 736991 -161135 0
0 0 0 951 737942 -160184 0
0 0 0 861 738803 -159323 0
0 0 0 791 739594 -158532 0
0 0 0 769 740363 -157763 0
0 0 0 766 741129 -156997 0
0 0 0 765 741894 -156232 0
0 0 0 739 742633 -155493 0
0 0 0 697 743330 -154796 0
0 0 0 672 744002 -154124 0
0 0 0 671 744673 -153453 0
0 0 0 679 745352 -152774 0
0 0 0 783 746135 -151991 0
0 0 0 1175 747310 -150816 1
0 0 0 1081 748391 -149735 0
0 0 0 1047 749438 -148688 0
0 0 0 976 750414 -147712 0
0 0 0 860 751274 -146852 0
0 0 0 775 752049 -146077 0
0 0 0 771 752820 -145306 0
0 0 0 815 753635 -144491 0
0 0 0 968 754603 -143523 0
0 0 0 953 755556 -142570 0
0 0 0 965 756521 -141605 0
0 0 0 899 757420 -140706 0
0 0 0 852 758272 -139854 0
0 0 0 810 759082 -139044 0
0 0 0 806 759888 -138238 0
0 0 0 862 760750 -137376 0
0 0 0 1051 761801 -136325 0
0 0 0 1030 762831 -135295 0
0 0 0 1007 763838 -134288 0
0 0 0 904 764742 -133384 0
0 0 0 864 765606 -132520 0
0 0 0 799 766405 -131721 0
0 0 0 775 767180 -130946 0
0 0 0 758 767938 -130188 0
0 0 0 762 768700 -129426 0
0 0 0 854 769554 -128572 0
0 0 0 1053 770607 -127519 0
0 0 0 1096 771703 -126423 0
0 0 0 1040 772743 -125383 0
0 0 0 900 773643 -124483 0
0 0 0 806 774449 -123677 0
0 0 0 745 775194 -122932 0
0 0 0 712 775906 -122220 0
0 0 0 697 776603 -121523 0
0 0 0 711 777314 -120812 0
0 0 0 776 778090 -120036 0
0 0 0 971 779061 -119065 0
0 0 0 927 779988 -118138 0
0 0 0 874 780862 -117264 0
0 0 0 821 781683 -116443 0
0 0 0 757 782440 -115686 0
0 0 0 751 783191 -114935 0
0 0 0 756 783947 -114179 0
0 0 0 774 784721 -113405 0
0 0 0 783 785504 -112622 0
0 0 0 798 786302 -111824 0
0 0 0 759 787061 -111065 0
0 0 0 744 787805 -110321 0
0 0 0 721 788526 -109600 0
0 0 0 738 789264 -108862 0
0 0 0 784 790048 -108078 0
0 0 0 864 790912 -107214 0
0 0 0 861 791773 -106353 0
0 0 0 832 792605 -105521 0
0 0 0 749 793354 -104772 0
0 0 0 729 794083 -104043 0
0 0 0 693 794776 -103350 0
0 0 0 672 795448 -102678 0
0 0 0 658 796106 -102020 0
0 0 0 662 796768 -101358 0
0 0 0 677 797445 -100681 0
0 0 0 702 798147 -99979 0
0 0 0 689 798836 -99290 0
0 0 0 705 799541 -98585 0
0 0 0 742 800283 -97843 0
0 0 0 788 801071 -97055 0
0 0 0 838 801909 -96217 0
0 0 0 842 802751 -95375 0
0 0 0 789 803540 -94586 0
0 0 0 749 804289 -93837 0
0 0 0 715 805004 -93122 0
0 0 0 688 805692 -92434 0
0 0 0 673 806365 -91761 0
0 0 0 680 807045 -91081 0
0 0 0 739 807784 -90342 0
0 0 0 1129 808913 -89213 1
0 0 0 1098 810011 -88115 1
0 0 0 1057 811068 -87058 0
0 0 0 915 811983 -86143 0
0 0 0 772 812755 -85371 0
0 0 0 742 813497 -84629 0
0 0 0 746 814243 -83883 0
0 0 0 785 815028 -83098 0
0 0 0 901 815929 -82197 0
0 0 0 992 816921 -81205 0
0 0 0 894 817815 -80311 0
0 0 0 825 818640 -79486 0
0 0 0 799 819439 -78687 0
0 0 0 794 820233 -77893 0
0 0 0 838 821071 -77055 0
0 0 0 824 821895 -76231 0
0 0 0 801 822696 -75430 0
0 0 0 760 823456 -74670 0
0 0 0 743 824199 -73927 0
0 0 0 733 824932 -73194 0
0 0 0 731 825663 -72463 0
0 0 0 706 826369 -71757 0
0 0 0 678 827047 -71079 0
0 0 0 657 827704 -70422 0
0 0 0 652 828356 -69770 0
0 0 0 648 829004 -69122 0
0 0 0 661 829665 -68461 0
0 0 0 712 830377 -67749 0
0 0 0 819 831196 -66930 0
0 0 0 930 832126 -66000 0
0 0 0 868 832994 -65132 0
0 0 0 785 833779 -64347 0
0 0 0 754 834533 -63593 0
0 0 0 759 835292 -62834 0
0 0 0 806 836098 -62028 0
0 0 0 845 836943 -61183 0
0 0 0 900 837843 -60283 0
0 0 0 924 838767 -59359 0
0 0 0 839 839606 -58520 0
0 0 0 785 840391 -57735 0
0 0 0 783 841174 -56952 0
0 0 0 824 841998 -56128 0
0 0 0 851 842849 -55277 0
0 0 0 838 843687 -54439 0
0 0 0 787 844474 -53652 0
0 0 0 743 845217 -52909 0
0 0 0 716 845933 -52193 0
0 0 0 683 846616 -51510 0
0 0 0 707 847323 -50803 0
0 0 0 774 848097 -50029 0
0 0 0 761 848858 -49268 0
0 0 0 746 849604 -48522 0
0 0 0 741 850345 -47781 0
0 0 0 707 851052 -47074 0
0 0 0 686 851738 -46388 0
0 0 0 670 852408 -45718 0
0 0 0 651 853059 -45067 0
0 0 0 641 853700 -44426 0
0 0 0 641 854341 -43785 0
0 0 0 641 854982 -43144 0
0 0 0 653 855635 -42491 0
0 0 0 668 856303 -41823 0
0 0 0 674 856977 -41149 0
0 0 0 684 857661 -40465 0
0 0 0 682 858343 -39783 0
0 0 0 670 859013 -39113 0
0 0 0 670 859683 -38443 0
0 0 0 681 860364 -37762 0
0 0 0 713 861077 -37049 0
0 0 0 807 861884 -36242 0
0 0 0 802 862686 -35440 0
0 0 0 809 863495 -34631 0
0 0 0 860 864355 -33771 0
0 0 0 950 865305 -32821 0
0 0 0 926 866231 -31895 0
0 0 0 870 867101 -31025 0
0 0 0 816 867917 -30209 0
0 0 0 809 868726 -29400 0
0 0 0 775 869501 -28625 0
0 0 0 756 870257 -27869 0
0 0 0 696 870953 -27173 0
0 0 0 675 871628 -26498 0
0 0 0 680 872308 -25818 0
0 0 0 672 872980 -25146 0
0 0 0 710 873690 -24436 0
0 0 0 786 874476 -23650 0
0 0 0 915 875391 -22735 0
0 0 0 785 876176 -21950 0
0 0 0 747 876923 -21203 0
0 0 0 767 877690 -20436 0
0 0 0 798 878488 -19638 0
0 0 0 832 879320 -18806 0
0 0 0 818 880138 -17988 0
0 0 0 826 880964 -17162 0
0 0 0 896 881860 -16266 0
0 0 0 895 882755 -15371 0
0 0 0 802 883557 -14569 0
0 0 0 819 884376 -13750 0
0 0 0 870 885246 -12880 0
0 0 0 905 886151 -11975 0
0 0 0 870 887021 -11105 0
0 0 0 831 887852 -10274 0
0 0 0 904 888756 -9370 0
0 0 0 1003 889759 -8367 0
0 0 0 931 890690 -7436 0
0 0 0 852 891542 -6584 0
0 0 0 865 892407 -5719 0
0 0 0 862 893269 -4857 0
0 0 0 863 894132 -3994 0
0 0 0 779 894911 -3215 0
0 0 0 744 895655 -2471 0
41 1 S102 763 896418 -1708 0
41 1 S102 801 897219 -907 0
41 1 S102 858 898077 -49 0
41 2 S102 806 898883 757 0
41 2 S102 825 899708 1582 0
41 2 S102 899 900607 2481 0
41 2 S102 928 901535 3409 0
41 2 S102 851 902386 4260 0
41 2 S102 807 903193 5067 0
41 2 S102 817 904010 5884 0
41 2 S102 819 904829 6703 0
0 0 0 788 905617 -6916 0
0 0 0 746 906363 -6170 0
0 0 0 718 907081 -5452 0
0 0 0 735 907816 -4717 0
0 0 0 745 908561 -3972 0
0 0 0 806 909367 -3166 0
0 0 0 816 910183 -2350 0
42 1 S112 857 911040 -1493 0
42 1 S112 926 911966 -567 0
42 2 S112 941 912907 374 0
42 2 S112 848 913755 1222 0
42 2 S112 855 914610 2077 0
42 2 S112 915 915525 2992 0
42 2 S112 896 916421 3888 0
42 2 S112 813 917234 4701 0
42 2 S112 820 918054 5521 0
42 2 S112 868 918922 6389 0
0 0 0 963 919885 -9922 0
0 0 0 917 920802 -9005 0
0 0 0 863 921665 -8142 0
0 0 0 922 922587 -7220 0
0 0 0 868 923455 -6352 0
0 0 0 860 924315 -5492 0
0 0 0 838 925153 -4654 0
0 0 0 899 926052 -3755 0
0 0 0 887 926939 -2868 0
0 0 0 827 927766 -2041 0
43 1 S116 831 928597 -1210 0
43 1 S116 874 929471 -336 0
43 2 S116 915 930386 579 0
43 2 S116 846 931232 1425 0
43 2 S116 816 932048 2241 0
43 2 S116 829 932877 3070 0
43 2 S116 972 933849 4042 0
43 2 S116 1084 934933 5126 0
43 2 S116 1070 936003 6196 0
0 0 0 972 936975 -9013 0
0 0 0 863 937838 -8150 0
0 0 0 845 938683 -7305 0
0 0 0 885 939568 -6420 0
0 0 0 899 940467 -5521 0
0 0 0 905 941372 -4616 0
0 0 0 869 942241 -3747 0
0 0 0 897 943138 -2850 0
0 0 0 849 943987 -2001 0
44 1 S102 843 944830 -1158 0
44 1 S102 920 945750 -238 0
44 2 S102 902 946652 664 0
44 2 S102 870 947522 1534 0
44 2 S102 823 948345 2357 0
44 2 S102 857 949202 3214 0
44 2 S102 902 950104 4116 0
44 2 S102 940 951044 5056 0
44 2 S102 863 951907 5919 0
44 2 S102 839 952746 6758 0
0 0 0 930 953676 -8774 0
0 0 0 870 954546 -7904 0
0 0 0 893 955439 -7011 0
0 0 0 805 956244 -6206 0
0 0 0 804 957048 -5402 0
0 0 0 848 957896 -4554 0
0 0 0 868 958764 -3686 0
0 0 0 842 959606 -2844 0
0 0 0 802 960408 -2042 0
45 1 S116 871 961279 -1171 0
45 1 S116 887 962166 -284 0
45 2 S116 843 963009 559 0
45 2 S116 808 963817 1367 0
45 2 S116 820 964637 2187 0
45 2 S116 842 965479 3029 0
45 2 S116 853 966332 3882 0
45 2 S116 829 967161 4711 0
45 2 S116 784 967945 5495 0
45 2 S116 845 968790 6340 0
0 0 0 864 969654 -11961 0
0 0 0 923 970577 -11038 0
0 0 0 814 971391 -10224 0
0 0 0 834 972225 -9390 0
0 0 0 861 973086 -8529 0
0 0 0 814 973900 -7715 0
0 0 0 740 974640 -6975 0
0 0 0 754 975394 -6221 0
0 0 0 775 976169 -5446 0
0 0 0 850 977019 -4596 0
0 0 0 857 977876 -3739 0
0 0 0 824 978700 -2915 0
0 0 0 886 979586 -2029 0
46 1 S102 887 980473 -1142 0
46 1 S102 884 981357 -258 0
46 2 S102 780 982137 522 0
46 2 S102 789 982926 1311 0
46 2 S102 831 983757 2142 0
46 2 S102 853 984610 2995 0
46 2 S102 895 985505 3890 0
46 2 S102 855 986360 4745 0
46 2 S102 911 987271 5656 0
46 2 S102 951 988222 6607 0
0 0 0 921 989143 -9780 0
0 0 0 841 989984 -8939 0
0 0 0 847 990831 -8092 0
0 0 0 850 991681 -7242 0
0 0 0 793 992474 -6449 0
0 0 0 743 993217 -5706 0
0 0 0 737 993954 -4969 0
0 0 0 756 994710 -4213 0
0 0 0 857 995567 -3356 0
0 0 0 841 996408 -2515 0
47 1 S112 849 997257 -1666 0
47 1 S112 909 998166 -757 0
47 2 S112 906 999072 149 0
47 2 S112 831 999903 980 0
47 2 S112 850 1000753 1830 0
47 2 S112 855 1001608 2685 0
47 2 S112 948 1002556 3633 0
47 2 S112 992 1003548 4625 0
47 2 S112 950 1004498 5575 0
47 2 S112 936 1005434 6511 0
0 0 0 885 1006319 -12166 0
0 0 0 926 1007245 -11240 0
0 0 0 938 1008183 -10302 0
0 0 0 850 1009033 -9452 0
0 0 0 851 1009884 -8601 0
0 0 0 819 1010703 -7782 0
0 0 0 783 1011486 -6999 0
0 0 0 725 1012211 -6274 0
0 0 0 729 1012940 -5545 0
0 0 0 735 1013675 -4810 0
0 0 0 734 1014409 -4076 0
0 0 0 729 1015138 -3347 0
0 0 0 720 1015858 -2627 0
48 1 S116 730 1016588 -1897 0
48 1 S116 736 1017324 -1161 0
48 1 S116 720 1018044 -441 0
48 2 S116 691 1018735 250 0
48 2 S116 678 1019413 928 0
48 2 S116 684 1020097 1612 0
48 2 S116 698 1020795 2310 0
48 2 S116 710 1021505 3020 0
48 2 S116 739 1022244 3759 0
48 2 S116 752 1022996 4511 0
48 2 S116 754 1023750 5265 0
48 2 S116 836 1024586 6101 0
0 0 0 935 1025521 -8896 0
0 0 0 1028 1026549 -7868 0
0 0 0 1000 1027549 -6868 0
0 0 0 940 1028489 -5928 0
0 0 0 935 1029424 -4993 0
0 0 0 882 1030306 -4111 0
0 0 0 866 1031172 -3245 0
0 0 0 821 1031993 -2424 0
49 1 S112 838 1032831 -1586 0
49 1 S112 913 1033744 -673 0
49 2 S112 867 1034611 194 0
49 2 S112 845 1035456 1039 0
49 2 S112 855 1036311 1894 0
49 2 S112 1007 1037318 2901 0
49 2 S112 978 1038296 3879 0
49 2 S112 897 1039193 4776 0
49 2 S112 915 1040108 5691 0
49 2 S112 941 1041049 6632 0
0 0 0 967 1042016 -11383 0
0 0 0 820 1042836 -10563 0
0 0 0 808 1043644 -9755 0
0 0 0 893 1044537 -8862 0
0 0 0 952 1045489 -7910 0
0 0 0 831 1046320 -7079 0
0 0 0 829 1047149 -6250 0
0 0 0 868 1048017 -5382 0
0 0 0 1006 1049023 -4376 0
0 0 0 869 1049892 -3507 0
0 0 0 869 1050761 -2638 0
50 1 S106 924 1051685 -1714 0
50 1 S106 925 1052610 -789 0
50 2 S106 841 1053451 52 0
50 2 S106 821 1054272 873 0
50 2 S106 868 1055140 1741 0
50 2 S106 912 1056052 2653 0
50 2 S106 892 1056944 3545 0
50 2 S106 895 1057839 4440 0
50 2 S106 945 1058784 5385 0
50 2 S106 953 1059737 6338 0
0 0 0 1033 1060770 -7649 0
0 0 0 964 1061734 -6685 0
0 0 0 860 1062594 -5825 0
0 0 0 860 1063454 -4965 0
0 0 0 850 1064304 -4115 0
0 0 0 883 1065187 -3232 0
0 0 0 844 1066031 -2388 0
51 1 S112 811 1066842 -1577 0
51 1 S112 886 1067728 -691 0
51 2 S112 917 1068645 226 0
51 2 S112 900 1069545 1126 0
51 2 S112 854 1070399 1980 0
51 2 S112 852 1071251 2832 0
51 2 S112 872 1072123 3704 0
51 2 S112 868 1072991 4572 0
51 2 S112 826 1073817 5398 0
51 2 S112 804 1074621 6202 0
0 0 0 840 1075461 -8343 0
0 0 0 846 1076307 -7497 0
0 0 0 804 1077111 -6693 0
0 0 0 813 1077924 -5880 0
0 0 0 952 1078876 -4928 0
0 0 0 879 1079755 -4049 0
0 0 0 851 1080606 -3198 0
0 0 0 807 1081413 -2391 0
52 1 S116 805 1082218 -1586 0
52 1 S116 866 1083084 -720 0
52 2 S116 887 1083971 167 0
52 2 S116 855 1084826 1022 0
52 2 S116 861 1085687 1883 0
52 2 S116 910 1086597 2793 0
52 2 S116 963 1087560 3756 0
52 2 S116 984 1088544 4740 0
52 2 S116 954 1089498 5694 0
52 2 S116 892 1090390 6586 0
0 0 0 883 1091273 -9524 0
0 0 0 911 1092184 -8613 0
0 0 0 896 1093080 -7717 0
0 0 0 850 1093930 -6867 0
0 0 0 776 1094706 -6091 0
0 0 0 795 1095501 -5296 0
0 0 0 853 1096354 -4443 0
0 0 0 1001 1097355 -3442 0
0 0 0 913 1098268 -2529 0
53 1 S106 862 1099130 -1667 0
53 1 S106 896 1100026 -771 0
53 2 S106 938 1100964 167 0
53 2 S106 850 1101814 1017 0
53 2 S106 849 1102663 1866 0
53 2 S106 837 1103500 2703 0
53 2 S106 915 1104415 3618 0
53 2 S106 930 1105345 4548 0
53 2 S106 882 1106227 5430 0
53 2 S106 855 1107082 6285 0
0 0 0 844 1107926 -7062 0
0 0 0 910 1108836 -6152 0
0 0 0 862 1109698 -5290 0
0 0 0 808 1110506 -4482 0
0 0 0 786 1111292 -3696 0
0 0 0 819 1112111 -2877 0
0 0 0 867 1112978 -2010 0
54 1 S102 848 1113826 -1162 0
54 1 S102 865 1114691 -297 0
54 2 S102 905 1115596 608 0
54 2 S102 909 1116505 1517 0
54 2 S102 850 1117355 2367 0
54 2 S102 791 1118146 3158 0
54 2 S102 802 1118948 3960 0
54 2 S102 826 1119774 4786 0
54 2 S102 869 1120643 5655 0
54 2 S102 815 1121458 6470 0
0 0 0 817 1122275 -11795 0
0 0 0 853 1123128 -10942 0
0 0 0 900 1124028 -10042 0
0 0 0 826 1124854 -9216 0
0 0 0 804 1125658 -8412 0
0 0 0 804 1126462 -7608 0
0 0 0 833 1127295 -6775 0
0 0 0 826 1128121 -5949 0
0 0 0 785 1128906 -5164 0
0 0 0 811 1129717 -4353 0
0 0 0 893 1130610 -3460 0
0 0 0 870 1131480 -2590 0
55 1 S106 829 1132309 -1761 0
55 1 S106 835 1133144 -926 0
55 1 S106 853 1133997 -73 0
55 2 S106 915 1134912 842 0
55 2 S106 855 1135767 1697 0
55 2 S106 828 1136595 2525 0
55 2 S106 857 1137452 3382 0
55 2 S106 925 1138377 4307 0
55 2 S106 956 1139333 5263 0
55 2 S106 953 1140286 6216 0
0 0 0 888 1141174 -7932 0
0 0 0 813 1141987 -7119 0
0 0 0 807 1142794 -6312 0
0 0 0 860 1143654 -5452 0
0 0 0 828 1144482 -4624 0
0 0 0 753 1145235 -3871 0
0 0 0 741 1145976 -3130 0
0 0 0 736 1146712 -2394 0
56 1 S116 824 1147536 -1570 0
56 1 S116 854 1148390 -716 0
56 2 S116 867 1149257 151 0
56 2 S116 918 1150175 1069 0
56 2 S116 960 1151135 2029 0
56 2 S116 895 1152030 2924 0
56 2 S116 830 1152860 3754 0
56 2 S116 803 1153663 4557 0
56 2 S116 809 1154472 5366 0
56 2 S116 822 1155294 6188 0
0 0 0 882 1156176 -8497 0
0 0 0 847 1157023 -7650 0
0 0 0 788 1157811 -6862 0
0 0 0 858 1158669 -6004 0
0 0 0 975 1159644 -5029 0
0 0 0 850 1160494 -4179 0
0 0 0 833 1161327 -3346 0
0 0 0 863 1162190 -2483 0
57 1 S106 961 1163151 -1522 0
57 1 S106 885 1164036 -637 0
57 2 S106 873 1164909 236 0
57 2 S106 885 1165794 1121 0
57 2 S106 924 1166718 2045 0
57 2 S106 943 1167661 2988 0
57 2 S106 854 1168515 3842 0
57 2 S106 850 1169365 4692 0
57 2 S106 856 1170221 5548 0
57 2 S106 933 1171154 6481 0
0 0 0 871 1172025 -10023 0
0 0 0 847 1172872 -9176 0
0 0 0 934 1173806 -8242 0
0 0 0 970 1174776 -7272 0
0 0 0 885 1175661 -6387 0
0 0 0 792 1176453 -5595 0
0 0 0 803 1177256 -4792 0
0 0 0 802 1178058 -3990 0
0 0 0 787 1178845 -3203 0
0 0 0 752 1179597 -2451 0
58 1 S102 770 1180367 -1681 0
58 1 S102 831 1181198 -850 0
58 2 S102 916 1182114 66 0
58 2 S102 934 1183048 1000 0
58 2 S102 840 1183888 1840 0
58 2 S102 852 1184740 2692 0
58 2 S102 881 1185621 3573 0
58 2 S102 882 1186503 4455 0
58 2 S102 833 1187336 5288 0
58 2 S102 804 1188140 6092 0
58 2 S102 842 1188982 6934 0
0 0 0 927 1189909 -7308 0
0 0 0 874 1190783 -6434 0
0 0 0 843 1191626 -5591 0
0 0 0 877 1192503 -4714 0
0 0 0 843 1193346 -3871 0
0 0 0 857 1194203 -3014 0
0 0 0 785 1194988 -2229 0
59 1 S112 777 1195765 -1452 0
59 1 S112 871 1196636 -581 0
59 2 S112 996 1197632 415 0
59 2 S112 933 1198565 1348 0
59 2 S112 837 1199402 2185 0
59 2 S112 858 1200260 3043 0
59 2 S112 862 1201122 3905 0
59 2 S112 856 1201978 4761 0
59 2 S112 811 1202789 5572 0
59 2 S112 775 1203564 6347 0
0 0 0 803 1204367 -9229 0
0 0 0 885 1205252 -8344 0
0 0 0 899 1206151 -7445 0
0 0 0 818 1206969 -6627 0
0 0 0 819 1207788 -5808 0
0 0 0 832 1208620 -4976 0
0 0 0 805 1209425 -4171 0
0 0 0 751 1210176 -3420 0
0 0 0 767 1210943 -2653 0
60 1 S102 810 1211753 -1843 0
60 1 S102 856 1212609 -987 0
60 1 S102 796 1213405 -191 0
60 2 S102 882 1214287 691 0
60 2 S102 923 1215210 1614 0
60 2 S102 919 1216129 2533 0
60 2 S102 830 1216959 3363 0
60 2 S102 798 1217757 4161 0
60 2 S102 819 1218576 4980 0
60 2 S102 876 1219452 5856 0
60 2 S102 891 1220343 6747 0
0 0 0 824 1221167 -11130 0
0 0 0 805 1221972 -10325 0
0 0 0 851 1222823 -9474 0
0 0 0 836 1223659 -8638 0
0 0 0 771 1224430 -7867 0
0 0 0 771 1225201 -7096 0
0 0 0 876 1226077 -6220 0
0 0 0 920 1226997 -5300 0
0 0 0 948 1227945 -4352 0
0 0 0 848 1228793 -3504 0
0 0 0 845 1229638 -2659 0
61 1 S106 872 1230510 -1787 0
61 1 S106 853 1231363 -934 0
61 1 S106 822 1232185 -112 0
61 2 S106 775 1232960 663 0
61 2 S106 769 1233729 1432 0
61 2 S106 817 1234546 2249 0
61 2 S106 977 1235523 3226 0
61 2 S106 1001 1236524 4227 0
61 2 S106 958 1237482 5185 0
61 2 S106 887 1238369 6072 0
61 2 S106 877 1239246 6949 0
0 0 0 911 1240157 -6281 0
0 0 0 858 1241015 -5423 0
0 0 0 795 1241810 -4628 0
0 0 0 726 1242536 -3902 0
0 0 0 715 1243251 -3187 0
0 0 0 725 1243976 -2462 0
62 1 S112 743 1244719 -1719 0
62 1 S112 770 1245489 -949 0
62 1 S112 794 1246283 -155 0
62 2 S112 914 1247197 759 0
62 2 S112 1029 1248226 1788 0
62 2 S112 1026 1249252 2814 0
62 2 S112 900 1250152 3714 0
62 2 S112 816 1250968 4530 0
62 2 S112 808 1251776 5338 0
62 2 S112 829 1252605 6167 0
0 0 0 866 1253471 -11270 0
0 0 0 811 1254282 -10459 0
0 0 0 792 1255074 -9667 0
0 0 0 854 1255928 -8813 0
0 0 0 877 1256805 -7936 0
0 0 0 861 1257666 -7075 0
0 0 0 813 1258479 -6262 0
0 0 0 829 1259308 -5433 0
0 0 0 838 1260146 -4595 0
0 0 0 835 1260981 -3760 0
0 0 0 793 1261774 -2967 0
0 0 0 758 1262532 -2209 0
63 1 S102 780 1263312 -1429 0
63 1 S102 842 1264154 -587 0
63 2 S102 877 1265031 290 0
63 2 S102 832 1265863 1122 0
63 2 S102 909 1266772 2031 0
63 2 S102 940 1267712 2971 0
63 2 S102 1044 1268756 4015 0
63 2 S102 930 1269686 4945 0
63 2 S102 904 1270590 5849 0
63 2 S102 940 1271530 6789 0
0 0 0 951 1272481 -9352 0
0 0 0 820 1273301 -8532 0
0 0 0 830 1274131 -7702 0
0 0 0 927 1275058 -6775 0
0 0 0 838 1275896 -5937 0
0 0 0 796 1276692 -5141 0
0 0 0 820 1277512 -4321 0
0 0 0 907 1278419 -3414 0
0 0 0 872 1279291 -2542 0
64 1 S112 827 1280118 -1715 0
64 1 S112 849 1280967 -866 0
64 2 S112 931 1281898 65 0
64 2 S112 923 1282821 988 0
64 2 S112 845 1283666 1833 0
64 2 S112 815 1284481 2648 0
64 2 S112 865 1285346 3513 0
64 2 S112 920 1286266 4433 0
64 2 S112 885 1287151 5318 0
64 2 S112 844 1287995 6162 0
0 0 0 899 1288894 -7047 0
0 0 0 918 1289812 -6129 0
0 0 0 925 1290737 -5204 0
0 0 0 810 1291547 -4394 0
0 0 0 790 1292337 -3604 0
0 0 0 832 1293169 -2772 0
65 1 S106 864 1294033 -1908 0
65 1 S106 862 1294895 -1046 0
65 1 S106 770 1295665 -276 0
65 2 S106 815 1296480 539 0
65 2 S106 939 1297419 1478 0
65 2 S106 979 1298398 2457 0
65 2 S106 931 1299329 3388 0
65 2 S106 863 1300192 4251 0
65 2 S106 827 1301019 5078 0
65 2 S106 848 1301867 5926 0
65 2 S106 904 1302771 6830 0
0 0 0 969 1303740 -6309 0
0 0 0 863 1304603 -5446 0
0 0 0 798 1305401 -4648 0
0 0 0 736 1306137 -3912 0
0 0 0 711 1306848 -3201 0
0 0 0 778 1307626 -2423 0
66 1 S116 1222 1308848 -1201 1
66 1 S116 1103 1309951 -98 1
66 2 S116 1131 1311082 1033 1
66 2 S116 1081 1312163 2114 0
66 2 S116 1036 1313199 3150 0
66 2 S116 950 1314149 4100 0
66 2 S116 958 1315107 5058 0
66 2 S116 940 1316047 5998 0
66 2 S116 885 1316932 6883 0
0 0 0 824 1317756 -10894 0
0 0 0 761 1318517 -10133 0
0 0 0 765 1319282 -9368 0
0 0 0 761 1320043 -8607 0
0 0 0 781 1320824 -7826 0
0 0 0 767 1321591 -7059 0
0 0 0 744 1322335 -6315 0
0 0 0 789 1323124 -5526 0
0 0 0 864 1323988 -4662 0
0 0 0 985 1324973 -3677 0
0 0 0 920 1325893 -2757 0
67 1 S102 867 1326760 -1890 0
67 1 S102 903 1327663 -987 0
67 1 S102 953 1328616 -34 0
67 2 S102 936 1329552 902 0
67 2 S102 840 1330392 1742 0
67 2 S102 813 1331205 2555 0
67 2 S102 839 1332044 3394 0
67 2 S102 948 1332992 4342 0
67 2 S102 895 1333887 5237 0
67 2 S102 887 1334774 6124 0
0 0 0 975 1335749 -7822 0
0 0 0 994 1336743 -6828 0
0 0 0 873 1337616 -5955 0
0 0 0 814 1338430 -5141 0
0 0 0 798 1339228 -4343 0
0 0 0 790 1340018 -3553 0
0 0 0 785 1340803 -2768 0
0 0 0 746 1341549 -2022 0
68 1 S106 817 1342366 -1205 0
68 1 S106 924 1343290 -281 0
68 2 S106 966 1344256 685 0
68 2 S106 869 1345125 1554 0
68 2 S106 884 1346009 2438 0
68 2 S106 928 1346937 3366 0
68 2 S106 990 1347927 4356 0
68 2 S106 931 1348858 5287 0
68 2 S106 838 1349696 6125 0
68 2 S106 799 1350495 6924 0
0 0 0 811 1351306 -11612 0
0 0 0 828 1352134 -10784 0
0 0 0 814 1352948 -9970 0
0 0 0 836 1353784 -9134 0
0 0 0 849 1354633 -8285 0
0 0 0 882 1355515 -7403 0
0 0 0 869 1356384 -6534 0
0 0 0 815 1357199 -5719 0
0 0 0 861 1358060 -4858 0
0 0 0 942 1359002 -3916 0
0 0 0 908 1359910 -3008 0
0 0 0 833 1360743 -2175 0
69 1 S102 803 1361546 -1372 0
69 1 S102 834 1362380 -538 0
69 2 S102 822 1363202 284 0
69 2 S102 790 1363992 1074 0
69 2 S102 777 1364769 1851 0
69 2 S102 837 1365606 2688 0
69 2 S102 896 1366502 3584 0
69 2 S102 931 1367433 4515 0
69 2 S102 848 1368281 5363 0
69 2 S102 897 1369178 6260 0
0 0 0 930 1370108 -9040 0
0 0 0 919 1371027 -8121 0
0 0 0 816 1371843 -7305 0
0 0 0 772 1372615 -6533 0
0 0 0 754 1373369 -5779 0
0 0 0 744 1374113 -5035 0
0 0 0 743 1374856 -4292 0
0 0 0 706 1375562 -3586 0
0 0 0 692 1376254 -2894 0
0 0 0 721 1376975 -2173 0
70 1 S112 765 1377740 -1408 0
70 1 S112 895 1378635 -513 0
70 2 S112 940 1379575 427 0
70 2 S112 967 1380542 1394 0
70 2 S112 848 1381390 2242 0
70 2 S112 859 1382249 3101 0
70 2 S112 845 1383094 3946 0
70 2 S112 813 1383907 4759 0
70 2 S112 756 1384663 5515 0
70 2 S112 740 1385403 6255 0
70 2 S112 753 1386156 7008 0
0 0 0 809 1386965 -10734 0
0 0 0 823 1387788 -9911 0
0 0 0 778 1388566 -9133 0
0 0 0 828 1389394 -8305 0
0 0 0 873 1390267 -7432 0
0 0 0 896 1391163 -6536 0
0 0 0 822 1391985 -5714 0
0 0 0 781 1392766 -4933 0
0 0 0 794 1393560 -4139 0
0 0 0 826 1394386 -3313 0
0 0 0 864 1395250 -2449 0
71 1 S116 833 1396083 -1616 0
71 1 S116 823 1396906 -793 0
71 2 S116 913 1397819 120 0
71 2 S116 892 1398711 1012 0
71 2 S116 1058 1399769 2070 0
71 2 S116 1039 1400808 3109 0
71 2 S116 934 1401742 4043 0
71 2 S116 919 1402661 4962 0
71 2 S116 956 1403617 5918 0
71 2 S116 980 1404597 6898 0
0 0 0 1009 1405606 -9700 0
0 0 0 859 1406465 -8841 0
0 0 0 815 1407280 -8026 0
0 0 0 925 1408205 -7101 0
0 0 0 964 1409169 -6137 0
0 0 0 955 1410124 -5182 0
0 0 0 910 1411034 -4272 0
0 0 0 994 1412028 -3278 0
0 0 0 1019 1413047 -2259 0
72 1 S102 892 1413939 -1367 0
72 1 S102 840 1414779 -527 0
72 2 S102 834 1415613 307 0
72 2 S102 860 1416473 1167 0
72 2 S102 816 1417289 1983 0
72 2 S102 785 1418074 2768 0
72 2 S102 819 1418893 3587 0
72 2 S102 956 1419849 4543 0
72 2 S102 976 1420825 5519 0
72 2 S102 928 1421753 6447 0
0 0 0 877 1422630 -7977 0
0 0 0 890 1423520 -7087 0
0 0 0 867 1424387 -6220 0
0 0 0 834 1425221 -5386 0
0 0 0 803 1426024 -4583 0
0 0 0 799 1426823 -3784 0
0 0 0 818 1427641 -2966 0
0 0 0 795 1428436 -2171 0
73 1 S116 779 1429215 -1392 0
73 1 S116 878 1430093 -514 0
73 2 S116 956 1431049 442 0
73 2 S116 892 1431941 1334 0
73 2 S116 884 1432825 2218 0
73 2 S116 938 1433763 3156 0
73 2 S116 949 1434712 4105 0
73 2 S116 918 1435630 5023 0
73 2 S116 875 1436505 5898 0
73 2 S116 877 1437382 6775 0
0 0 0 950 1438332 -9484 0
0 0 0 953 1439285 -8531 0
0 0 0 868 1440153 -7663 0
0 0 0 832 1440985 -6831 0
0 0 0 833 1441818 -5998 0
0 0 0 869 1442687 -5129 0
0 0 0 823 1443510 -4306 0
0 0 0 757 1444267 -3549 0
0 0 0 767 1445034 -2782 0
74 1 S106 785 1445819 -1997 0
74 1 S106 852 1446671 -1145 0
74 1 S106 805 1447476 -340 0
74 2 S106 795 1448271 455 0
74 2 S106 822 1449093 1277 0
74 2 S106 885 1449978 2162 0
74 2 S106 866 1450844 3028 0
74 2 S106 837 1451681 3865 0
74 2 S106 801 1452482 4666 0
74 2 S106 774 1453256 5440 0
74 2 S106 846 1454102 6286 0
0 0 0 947 1455049 -7289 0
0 0 0 955 1456004 -6334 0
0 0 0 948 1456952 -5386 0
0 0 0 832 1457784 -4554 0
0 0 0 768 1458552 -3786 0
0 0 0 782 1459334 -3004 0
0 0 0 809 1460143 -2195 0
75 1 S112 902 1461045 -1293 0
75 1 S112 888 1461933 -405 0
75 2 S112 955 1462888 550 0
75 2 S112 892 1463780 1442 0
75 2 S112 879 1464659 2321 0
75 2 S112 871 1465530 3192 0
75 2 S112 844 1466374 4036 0
75 2 S112 815 1467189 4851 0
75 2 S112 765 1467954 5616 0
75 2 S112 760 1468714 6376 0
0 0 0 797 1469511 -7847 0
0 0 0 868 1470379 -6979 0
0 0 0 840 1471219 -6139 0
0 0 0 809 1472028 -5330 0
0 0 0 841 1472869 -4489 0
0 0 0 828 1473697 -3661 0
0 0 0 795 1474492 -2866 0
0 0 0 770 1475262 -2096 0
76 1 S116 776 1476038 -1320 0
76 1 S116 806 1476844 -514 0
76 2 S116 824 1477668 310 0
76 2 S116 828 1478496 1138 0
76 2 S116 842 1479338 1980 0
76 2 S116 953 1480291 2933 0
76 2 S116 1039 1481330 3972 0
76 2 S116 1072 1482402 5044 0
76 2 S116 1010 1483412 6054 0
76 2 S116 895 1484307 6949 0
0 0 0 841 1485148 -7413 0
0 0 0 814 1485962 -6599 0
0 0 0 824 1486786 -5775 0
0 0 0 812 1487598 -4963 0
0 0 0 745 1488343 -4218 0
0 0 0 760 1489103 -3458 0
0 0 0 864 1489967 -2594 0
77 1 S106 1102 1491069 -1492 1
77 1 S106 1012 1492081 -480 0
77 2 S106 884 1492965 404 0
77 2 S106 833 1493798 1237 0
77 2 S106 859 1494657 2096 0
77 2 S106 908 1495565 3004 0
77 2 S106 865 1496430 3869 0
77 2 S106 816 1497246 4685 0
77 2 S106 813 1498059 5498 0
77 2 S106 876 1498935 6374 0
0 0 0 998 1499933 -8858 0
0 0 0 914 1500847 -7944 0
0 0 0 822 1501669 -7122 0
0 0 0 746 1502415 -6376 0
0 0 0 750 1503165 -5626 0
0 0 0 749 1503914 -4877 0
0 0 0 796 1504710 -4081 0
0 0 0 847 1505557 -3234 0
0 0 0 999 1506556 -2235 0
78 1 S112 886 1507442 -1349 0
78 1 S112 912 1508354 -437 0
78 2 S112 937 1509291 500 0
78 2 S112 908 1510199 1408 0
78 2 S112 817 1511016 2225 0
78 2 S112 755 1511771 2980 0
78 2 S112 759 1512530 3739 0
78 2 S112 778 1513308 4517 0
78 2 S112 828 1514136 5345 0
78 2 S112 891 1515027 6236 0
0 0 0 827 1515854 -12400 0
0 0 0 876 1516730 -11524 0
0 0 0 872 1517602 -10652 0
0 0 0 966 1518568 -9686 0
0 0 0 926 1519494 -8760 0
0 0 0 803 1520297 -7957 0
0 0 0 721 1521018 -7236 0
0 0 0 700 1521718 -6536 0
0 0 0 703 1522421 -5833 0
0 0 0 724 1523145 -5109 0
0 0 0 757 1523902 -4352 0
0 0 0 748 1524650 -3604 0
0 0 0 716 1525366 -2888 0
0 0 0 744 1526110 -2144 0
79 1 S102 799 1526909 -1345 0
79 1 S102 898 1527807 -447 0
79 2 S102 900 1528707 453 0
79 2 S102 797 1529504 1250 0
79 2 S102 773 1530277 2023 0
79 2 S102 767 1531044 2790 0
79 2 S102 767 1531811 3557 0
79 2 S102 741 1532552 4298 0
79 2 S102 716 1533268 5014 0
79 2 S102 740 1534008 5754 0
79 2 S102 796 1534804 6550 0
0 0 0 928 1535732 -9482 0
0 0 0 898 1536630 -8584 0
0 0 0 800 1537430 -7784 0
0 0 0 840 1538270 -6944 0
0 0 0 799 1539069 -6145 0
0 0 0 791 1539860 -5354 0
0 0 0 745 1540605 -4609 0
0 0 0 746 1541351 -3863 0
0 0 0 786 1542137 -3077 0
0 0 0 987 1543124 -2090 0
80 1 S116 1020 1544144 -1070 0
80 1 S116 878 1545022 -192 0
80 2 S116 844 1545866 652 0
80 2 S116 852 1546718 1504 0
80 2 S116 863 1547581 2367 0
80 2 S116 829 1548410 3196 0
80 2 S116 826 1549236 4022 0
80 2 S116 864 1550100 4886 0
80 2 S116 999 1551099 5885 0
80 2 S116 1011 1552110 6896 0
