T_0016
BeatCount Mean SD BeatCountNoOutliers MeanNoOutliers SDNoOutliers
2590 573,773745173745 40,3305931734342 2563 571,923136948888 34,297167014439

Trial TrialStatus Trialtype IBI AbsPosition RelPosition Outlier
0 0 0 586 1176 -15471 0
0 0 0 585 1761 -14886 0
0 0 0 583 2344 -14303 0
0 0 0 588 2932 -13715 0
0 0 0 578 3510 -13137 0
0 0 0 596 4106 -12541 0
0 0 0 566 4672 -11975 0
0 0 0 555 5227 -11420 0
0 0 0 551 5778 -10869 0
0 0 0 561 6339 -10308 0
0 0 0 572 6911 -9736 0
0 0 0 603 7514 -9133 0
0 0 0 590 8104 -8543 0
0 0 0 582 8686 -7961 0
0 0 0 571 9257 -7390 0
0 0 0 577 9834 -6813 0
0 0 0 591 10425 -6222 0
0 0 0 631 11056 -5591 0
0 0 0 647 11703 -4944 0
0 0 0 647 12350 -4297 0
0 0 0 612 12962 -3685 0
0 0 0 575 13537 -3110 0
0 0 0 557 14094 -2553 0
0 0 0 550 14644 -2003 0
1 1 S112 556 15200 -1447 0
1 1 S112 559 15759 -888 0
1 1 S112 569 16328 -319 0
1 2 S112 584 16912 265 0
1 2 S112 566 17478 831 0
1 2 S112 571 18049 1402 0
1 2 S112 577 18626 1979 0
1 2 S112 611 19237 2590 0
1 2 S112 646 19883 3236 0
1 2 S112 648 20531 3884 0
1 2 S112 613 21144 4497 0
1 2 S112 601 21745 5098 0
1 2 S112 587 22332 5685 0
1 2 S112 595 22927 6280 0
1 2 S112 580 23507 6860 0
0 0 0 572 24079 -10672 0
0 0 0 550 24629 -10122 0
0 0 0 550 25179 -9572 0
0 0 0 549 25728 -9023 0
0 0 0 546 26274 -8477 0
0 0 0 542 26816 -7935 0
0 0 0 529 27345 -7406 0
0 0 0 524 27869 -6882 0
0 0 0 526 28395 -6356 0
0 0 0 536 28931 -5820 0
0 0 0 552 29483 -5268 0
0 0 0 562 30045 -4706 0
0 0 0 560 30605 -4146 0
0 0 0 550 31155 -3596 0
0 0 0 555 31710 -3041 0
0 0 0 556 32266 -2485 0
2 1 S102 564 32830 -1921 0
2 1 S102 577 33407 -1344 0
2 1 S102 566 33973 -778 0
2 1 S102 550 34523 -228 0
2 2 S102 539 35062 311 0
2 2 S102 551 35613 862 0
2 2 S102 559 36172 1421 0
2 2 S102 578 36750 1999 0
2 2 S102 576 37326 2575 0
2 2 S102 553 37879 3128 0
2 2 S102 551 38430 3679 0
2 2 S102 548 38978 4227 0
2 2 S102 551 39529 4778 0
2 2 S102 559 40088 5337 0
2 2 S102 568 40656 5905 0
2 2 S102 564 41220 6469 0
2 2 S102 552 41772 7021 0
0 0 0 538 42310 -9019 0
0 0 0 552 42862 -8467 0
0 0 0 562 43424 -7905 0
0 0 0 572 43996 -7333 0
0 0 0 568 44564 -6765 0
0 0 0 540 45104 -6225 0
0 0 0 536 45640 -5689 0
0 0 0 541 46181 -5148 0
0 0 0 542 46723 -4606 0
0 0 0 555 47278 -4051 0
0 0 0 552 47830 -3499 0
0 0 0 542 48372 -2957 0
0 0 0 539 48911 -2418 0
3 1 S116 550 49461 -1868 0
3 1 S116 555 50016 -1313 0
3 1 S116 578 50594 -735 0
3 1 S116 580 51174 -155 0
3 2 S116 573 51747 418 0
3 2 S116 558 52305 976 0
3 2 S116 572 52877 1548 0
3 2 S116 587 53464 2135 0
3 2 S116 607 54071 2742 0
3 2 S116 615 54686 3357 0
3 2 S116 612 55298 3969 0
3 2 S116 586 55884 4555 0
3 2 S116 585 56469 5140 0
3 2 S116 598 57067 5738 0
3 2 S116 599 57666 6337 0
3 2 S116 614 58280 6951 0
0 0 0 619 58899 -11330 0
0 0 0 606 59505 -10724 0
0 0 0 576 60081 -10148 0
0 0 0 585 60666 -9563 0
0 0 0 577 61243 -8986 0
0 0 0 588 61831 -8398 0
0 0 0 582 62413 -7816 0
0 0 0 579 62992 -7237 0
0 0 0 555 63547 -6682 0
0 0 0 545 64092 -6137 0
0 0 0 554 64646 -5583 0
0 0 0 564 65210 -5019 0
0 0 0 571 65781 -4448 0
0 0 0 589 66370 -3859 0
0 0 0 577 66947 -3282 0
0 0 0 583 67530 -2699 0
0 0 0 585 68115 -2114 0
4 1 S106 618 68733 -1496 0
4 1 S106 661 69394 -835 0
4 1 S106 745 70139 -90 1
4 2 S106 629 70768 539 0
4 2 S106 629 71397 1168 0
4 2 S106 600 71997 1768 0
4 2 S106 612 72609 2380 0
4 2 S106 615 73224 2995 0
4 2 S106 632 73856 3627 0
4 2 S106 625 74481 4252 0
4 2 S106 596 75077 4848 0
4 2 S106 591 75668 5439 0
4 2 S106 611 76279 6050 0
4 2 S106 635 76914 6685 0
0 0 0 661 77575 -6165 0
0 0 0 657 78232 -5508 0
0 0 0 612 78844 -4896 0
0 0 0 586 79430 -4310 0
0 0 0 580 80010 -3730 0
0 0 0 585 80595 -3145 0
0 0 0 601 81196 -2544 0
5 1 S116 586 81782 -1958 0
5 1 S116 572 82354 -1386 0
5 1 S116 564 82918 -822 0
5 1 S116 578 83496 -244 0
5 2 S116 586 84082 342 0
5 2 S116 601 84683 943 0
5 2 S116 592 85275 1535 0
5 2 S116 575 85850 2110 0
5 2 S116 598 86448 2708 0
5 2 S116 614 87062 3322 0
5 2 S116 622 87684 3944 0
5 2 S116 640 88324 4584 0
5 2 S116 612 88936 5196 0
5 2 S116 590 89526 5786 0
5 2 S116 578 90104 6364 0
5 2 S116 597 90701 6961 0
0 0 0 615 91316 -9533 0
0 0 0 636 91952 -8897 0
0 0 0 636 92588 -8261 0
0 0 0 617 93205 -7644 0
0 0 0 624 93829 -7020 0
0 0 0 620 94449 -6400 0
0 0 0 624 95073 -5776 0
0 0 0 617 95690 -5159 0
0 0 0 578 96268 -4581 0
0 0 0 562 96830 -4019 0
0 0 0 564 97394 -3455 0
0 0 0 573 97967 -2882 0
0 0 0 580 98547 -2302 0
6 1 S106 580 99127 -1722 0
6 1 S106 567 99694 -1155 0
6 1 S106 547 100241 -608 0
6 1 S106 543 100784 -65 0
6 2 S106 553 101337 488 0
6 2 S106 588 101925 1076 0
6 2 S106 646 102571 1722 0
6 2 S106 661 103232 2383 0
6 2 S106 626 103858 3009 0
6 2 S106 627 104485 3636 0
6 2 S106 642 105127 4278 0
6 2 S106 643 105770 4921 0
6 2 S106 640 106410 5561 0
6 2 S106 610 107020 6171 0
6 2 S106 581 107601 6752 0
0 0 0 577 108178 -11371 0
0 0 0 600 108778 -10771 0
0 0 0 615 109393 -10156 0
0 0 0 620 110013 -9536 0
0 0 0 600 110613 -8936 0
0 0 0 587 111200 -8349 0
0 0 0 594 111794 -7755 0
0 0 0 592 112386 -7163 0
0 0 0 584 112970 -6579 0
0 0 0 561 113531 -6018 0
0 0 0 548 114079 -5470 0
0 0 0 546 114625 -4924 0
0 0 0 547 115172 -4377 0
0 0 0 564 115736 -3813 0
0 0 0 579 116315 -3234 0
0 0 0 591 116906 -2643 0
0 0 0 562 117468 -2081 0
7 1 S102 560 118028 -1521 0
7 1 S102 579 118607 -942 0
7 1 S102 589 119196 -353 0
7 2 S102 604 119800 251 0
7 2 S102 587 120387 838 0
7 2 S102 580 120967 1418 0
7 2 S102 582 121549 2000 0
7 2 S102 597 122146 2597 0
7 2 S102 612 122758 3209 0
7 2 S102 615 123373 3824 0
7 2 S102 586 123959 4410 0
7 2 S102 569 124528 4979 0
7 2 S102 570 125098 5549 0
7 2 S102 576 125674 6125 0
7 2 S102 598 126272 6723 0
0 0 0 622 126894 -8836 0
0 0 0 596 127490 -8240 0
0 0 0 587 128077 -7653 0
0 0 0 586 128663 -7067 0
0 0 0 594 129257 -6473 0
0 0 0 591 129848 -5882 0
0 0 0 583 130431 -5299 0
0 0 0 558 130989 -4741 0
0 0 0 548 131537 -4193 0
0 0 0 552 132089 -3641 0
0 0 0 551 132640 -3090 0
0 0 0 556 133196 -2534 0
8 1 S112 556 133752 -1978 0
8 1 S112 535 134287 -1443 0
8 1 S112 536 134823 -907 0
8 1 S112 531 135354 -376 0
8 2 S112 536 135890 160 0
8 2 S112 550 136440 710 0
8 2 S112 593 137033 1303 0
8 2 S112 598 137631 1901 0
8 2 S112 578 138209 2479 0
8 2 S112 574 138783 3053 0
8 2 S112 588 139371 3641 0
8 2 S112 587 139958 4228 0
8 2 S112 580 140538 4808 0
8 2 S112 559 141097 5367 0
8 2 S112 544 141641 5911 0
8 2 S112 543 142184 6454 0
8 2 S112 543 142727 6997 0
0 0 0 544 143271 -6683 0
0 0 0 551 143822 -6132 0
0 0 0 560 144382 -5572 0
0 0 0 544 144926 -5028 0
0 0 0 534 145460 -4494 0
0 0 0 535 145995 -3959 0
0 0 0 541 146536 -3418 0
0 0 0 544 147080 -2874 0
0 0 0 552 147632 -2322 0
9 1 S116 555 148187 -1767 0
9 1 S116 552 148739 -1215 0
9 1 S116 553 149292 -662 0
9 1 S116 566 149858 -96 0
9 2 S116 589 150447 493 0
9 2 S116 631 151078 1124 0
9 2 S116 662 151740 1786 0
9 2 S116 626 152366 2412 0
9 2 S116 607 152973 3019 0
9 2 S116 622 153595 3641 0
9 2 S116 609 154204 4250 0
9 2 S116 609 154813 4859 0
9 2 S116 614 155427 5473 0
9 2 S116 598 156025 6071 0
9 2 S116 585 156610 6656 0
0 0 0 575 157185 -10309 0
0 0 0 600 157785 -9709 0
0 0 0 615 158400 -9094 0
0 0 0 620 159020 -8474 0
0 0 0 606 159626 -7868 0
0 0 0 584 160210 -7284 0
0 0 0 563 160773 -6721 0
0 0 0 565 161338 -6156 0
0 0 0 571 161909 -5585 0
0 0 0 573 162482 -5012 0
0 0 0 574 163056 -4438 0
0 0 0 561 163617 -3877 0
0 0 0 545 164162 -3332 0
0 0 0 544 164706 -2788 0
0 0 0 546 165252 -2242 0
10 1 S102 559 165811 -1683 0
10 1 S102 589 166400 -1094 0
10 1 S102 608 167008 -486 0
10 2 S102 583 167591 97 0
10 2 S102 574 168165 671 0
10 2 S102 596 168761 1267 0
10 2 S102 638 169399 1905 0
10 2 S102 663 170062 2568 0
10 2 S102 692 170754 3260 1
10 2 S102 641 171395 3901 0
10 2 S102 605 172000 4506 0
10 2 S102 577 172577 5083 0
10 2 S102 573 173150 5656 0
10 2 S102 575 173725 6231 0
10 2 S102 573 174298 6804 0
0 0 0 571 174869 -9999 0
0 0 0 565 175434 -9434 0
0 0 0 559 175993 -8875 0
0 0 0 552 176545 -8323 0
0 0 0 552 177097 -7771 0
0 0 0 553 177650 -7218 0
0 0 0 562 178212 -6656 0
0 0 0 555 178767 -6101 0
0 0 0 548 179315 -5553 0
0 0 0 549 179864 -5004 0
0 0 0 552 180416 -4452 0
0 0 0 561 180977 -3891 0
0 0 0 578 181555 -3313 0
0 0 0 573 182128 -2740 0
0 0 0 544 182672 -2196 0
11 1 S112 539 183211 -1657 0
11 1 S112 538 183749 -1119 0
11 1 S112 543 184292 -576 0
11 1 S112 543 184835 -33 0
11 2 S112 559 185394 526 0
11 2 S112 579 185973 1105 0
11 2 S112 591 186564 1696 0
11 2 S112 583 187147 2279 0
11 2 S112 591 187738 2870 0
11 2 S112 617 188355 3487 0
11 2 S112 620 188975 4107 0
11 2 S112 629 189604 4736 0
11 2 S112 601 190205 5337 0
11 2 S112 584 190789 5921 0
11 2 S112 570 191359 6491 0
0 0 0 568 191927 -6950 0
0 0 0 571 192498 -6379 0
0 0 0 586 193084 -5793 0
0 0 0 576 193660 -5217 0
0 0 0 560 194220 -4657 0
0 0 0 555 194775 -4102 0
0 0 0 561 195336 -3541 0
0 0 0 574 195910 -2967 0
0 0 0 574 196484 -2393 0
12 1 S116 558 197042 -1835 0
12 1 S116 547 197589 -1288 0
12 1 S116 559 198148 -729 0
12 1 S116 566 198714 -163 0
12 2 S116 575 199289 412 0
12 2 S116 591 199880 1003 0
12 2 S116 587 200467 1590 0
12 2 S116 569 201036 2159 0
12 2 S116 572 201608 2731 0
12 2 S116 584 202192 3315 0
12 2 S116 592 202784 3907 0
12 2 S116 598 203382 4505 0
12 2 S116 594 203976 5099 0
12 2 S116 577 204553 5676 0
12 2 S116 568 205121 6244 0
12 2 S116 567 205688 6811 0
0 0 0 583 206271 -11058 0
0 0 0 594 206865 -10464 0
0 0 0 612 207477 -9852 0
0 0 0 609 208086 -9243 0
0 0 0 570 208656 -8673 0
0 0 0 558 209214 -8115 0
0 0 0 558 209772 -7557 0
0 0 0 557 210329 -7000 0
0 0 0 550 210879 -6450 0
0 0 0 542 211421 -5908 0
0 0 0 536 211957 -5372 0
0 0 0 534 212491 -4838 0
0 0 0 536 213027 -4302 0
0 0 0 552 213579 -3750 0
0 0 0 569 214148 -3181 0
0 0 0 585 214733 -2596 0
0 0 0 571 215304 -2025 0
13 1 S112 559 215863 -1466 0
13 1 S112 555 216418 -911 0
13 1 S112 573 216991 -338 0
13 2 S112 584 217575 246 0
13 2 S112 628 218203 874 0
13 2 S112 651 218854 1525 0
13 2 S112 621 219475 2146 0
13 2 S112 606 220081 2752 0
13 2 S112 594 220675 3346 0
13 2 S112 597 221272 3943 0
13 2 S112 600 221872 4543 0
13 2 S112 620 222492 5163 0
13 2 S112 618 223110 5781 0
13 2 S112 593 223703 6374 0
13 2 S112 590 224293 6964 0
0 0 0 610 224903 -11226 0
0 0 0 643 225546 -10583 0
0 0 0 652 226198 -9931 0
0 0 0 650 226848 -9281 0
0 0 0 620 227468 -8661 0
0 0 0 628 228096 -8033 0
0 0 0 634 228730 -7399 0
0 0 0 639 229369 -6760 0
0 0 0 620 229989 -6140 0
0 0 0 594 230583 -5546 0
0 0 0 575 231158 -4971 0
0 0 0 579 231737 -4392 0
0 0 0 577 232314 -3815 0
0 0 0 573 232887 -3242 0
0 0 0 566 233453 -2676 0
0 0 0 553 234006 -2123 0
14 1 S106 551 234557 -1572 0
14 1 S106 547 235104 -1025 0
14 1 S106 554 235658 -471 0
14 2 S106 567 236225 96 0
14 2 S106 568 236793 664 0
14 2 S106 562 237355 1226 0
14 2 S106 578 237933 1804 0
14 2 S106 619 238552 2423 0
14 2 S106 682 239234 3105 1
14 2 S106 669 239903 3774 0
14 2 S106 646 240549 4420 0
14 2 S106 619 241168 5039 0
14 2 S106 625 241793 5664 0
14 2 S106 624 242417 6288 0
14 2 S106 614 243031 6902 0
0 0 0 606 243637 -11524 0
0 0 0 573 244210 -10951 0
0 0 0 551 244761 -10400 0
0 0 0 543 245304 -9857 0
0 0 0 547 245851 -9310 0
0 0 0 560 246411 -8750 0
0 0 0 555 246966 -8195 0
0 0 0 551 247517 -7644 0
0 0 0 545 248062 -7099 0
0 0 0 531 248593 -6568 0
0 0 0 529 249122 -6039 0
0 0 0 533 249655 -5506 0
0 0 0 523 250178 -4983 0
0 0 0 519 250697 -4464 0
0 0 0 521 251218 -3943 0
0 0 0 529 251747 -3414 0
0 0 0 562 252309 -2852 0
0 0 0 612 252921 -2240 0
15 1 S116 679 253600 -1561 1
15 1 S116 661 254261 -900 0
15 1 S116 655 254916 -245 0
15 2 S116 659 255575 414 0
15 2 S116 653 256228 1067 0
15 2 S116 662 256890 1729 0
15 2 S116 650 257540 2379 0
15 2 S116 615 258155 2994 0
15 2 S116 604 258759 3598 0
15 2 S116 588 259347 4186 0
15 2 S116 606 259953 4792 0
15 2 S116 604 260557 5396 0
15 2 S116 621 261178 6017 0
15 2 S116 616 261794 6633 0
0 0 0 590 262384 -9753 0
0 0 0 570 262954 -9183 0
0 0 0 578 263532 -8605 0
0 0 0 604 264136 -8001 0
0 0 0 643 264779 -7358 0
0 0 0 651 265430 -6707 0
0 0 0 599 266029 -6108 0
0 0 0 585 266614 -5523 0
0 0 0 588 267202 -4935 0
0 0 0 613 267815 -4322 0
0 0 0 600 268415 -3722 0
0 0 0 590 269005 -3132 0
0 0 0 565 269570 -2567 0
0 0 0 555 270125 -2012 0
16 1 S116 556 270681 -1456 0
16 1 S116 570 271251 -886 0
16 1 S116 590 271841 -296 0
16 2 S116 603 272444 307 0
16 2 S116 593 273037 900 0
16 2 S116 587 273624 1487 0
16 2 S116 604 274228 2091 0
16 2 S116 605 274833 2696 0
16 2 S116 593 275426 3289 0
16 2 S116 570 275996 3859 0
16 2 S116 549 276545 4408 0
16 2 S116 549 277094 4957 0
16 2 S116 551 277645 5508 0
16 2 S116 557 278202 6065 0
16 2 S116 563 278765 6628 0
0 0 0 547 279312 -9072 0
0 0 0 537 279849 -8535 0
0 0 0 538 280387 -7997 0
0 0 0 549 280936 -7448 0
0 0 0 565 281501 -6883 0
0 0 0 561 282062 -6322 0
0 0 0 557 282619 -5765 0
0 0 0 545 283164 -5220 0
0 0 0 546 283710 -4674 0
0 0 0 547 284257 -4127 0
0 0 0 552 284809 -3575 0
0 0 0 563 285372 -3012 0
0 0 0 562 285934 -2450 0
17 1 S106 553 286487 -1897 0
17 1 S106 536 287023 -1361 0
17 1 S106 531 287554 -830 0
17 1 S106 527 288081 -303 0
17 2 S106 523 288604 220 0
17 2 S106 532 289136 752 0
17 2 S106 546 289682 1298 0
17 2 S106 569 290251 1867 0
17 2 S106 572 290823 2439 0
17 2 S106 558 291381 2997 0
17 2 S106 544 291925 3541 0
17 2 S106 555 292480 4096 0
17 2 S106 561 293041 4657 0
17 2 S106 575 293616 5232 0
17 2 S106 601 294217 5833 0
17 2 S106 615 294832 6448 0
0 0 0 584 295416 -10673 0
0 0 0 565 295981 -10108 0
0 0 0 573 296554 -9535 0
0 0 0 575 297129 -8960 0
0 0 0 567 297696 -8393 0
0 0 0 549 298245 -7844 0
0 0 0 534 298779 -7310 0
0 0 0 531 299310 -6779 0
0 0 0 531 299841 -6248 0
0 0 0 536 300377 -5712 0
0 0 0 541 300918 -5171 0
0 0 0 526 301444 -4645 0
0 0 0 521 301965 -4124 0
0 0 0 523 302488 -3601 0
0 0 0 532 303020 -3069 0
0 0 0 556 303576 -2513 0
18 1 S102 580 304156 -1933 0
18 1 S102 630 304786 -1303 0
18 1 S102 629 305415 -674 0
18 1 S102 598 306013 -76 0
18 2 S102 598 306611 522 0
18 2 S102 626 307237 1148 0
18 2 S102 631 307868 1779 0
18 2 S102 624 308492 2403 0
18 2 S102 589 309081 2992 0
18 2 S102 570 309651 3562 0
18 2 S102 569 310220 4131 0
18 2 S102 565 310785 4696 0
18 2 S102 564 311349 5260 0
18 2 S102 558 311907 5818 0
18 2 S102 553 312460 6371 0
18 2 S102 549 313009 6920 0
0 0 0 565 313574 -6375 0
0 0 0 592 314166 -5783 0
0 0 0 623 314789 -5160 0
0 0 0 603 315392 -4557 0
0 0 0 565 315957 -3992 0
0 0 0 551 316508 -3441 0
0 0 0 551 317059 -2890 0
0 0 0 555 317614 -2335 0
19 1 S106 554 318168 -1781 0
19 1 S106 556 318724 -1225 0
19 1 S106 548 319272 -677 0
19 1 S106 537 319809 -140 0
19 2 S106 535 320344 395 0
19 2 S106 541 320885 936 0
19 2 S106 563 321448 1499 0
19 2 S106 573 322021 2072 0
19 2 S106 579 322600 2651 0
19 2 S106 565 323165 3216 0
19 2 S106 561 323726 3777 0
19 2 S106 580 324306 4357 0
19 2 S106 593 324899 4950 0
19 2 S106 608 325507 5558 0
19 2 S106 612 326119 6170 0
19 2 S106 586 326705 6756 0
0 0 0 570 327275 -9716 0
0 0 0 574 327849 -9142 0
0 0 0 580 328429 -8562 0
0 0 0 563 328992 -7999 0
0 0 0 559 329551 -7440 0
0 0 0 541 330092 -6899 0
0 0 0 535 330627 -6364 0
0 0 0 531 331158 -5833 0
0 0 0 531 331689 -5302 0
0 0 0 521 332210 -4781 0
0 0 0 527 332737 -4254 0
0 0 0 537 333274 -3717 0
0 0 0 545 333819 -3172 0
0 0 0 531 334350 -2641 0
0 0 0 526 334876 -2115 0
20 1 S112 538 335414 -1577 0
20 1 S112 554 335968 -1023 0
20 1 S112 572 336540 -451 0
20 2 S112 600 337140 149 0
20 2 S112 626 337766 775 0
20 2 S112 667 338433 1442 0
20 2 S112 651 339084 2093 0
20 2 S112 622 339706 2715 0
20 2 S112 592 340298 3307 0
20 2 S112 587 340885 3894 0
20 2 S112 595 341480 4489 0
20 2 S112 589 342069 5078 0
20 2 S112 597 342666 5675 0
20 2 S112 578 343244 6253 0
20 2 S112 554 343798 6807 0
0 0 0 546 344344 -9375 0
0 0 0 553 344897 -8822 0
0 0 0 570 345467 -8252 0
0 0 0 597 346064 -7655 0
0 0 0 634 346698 -7021 0
0 0 0 648 347346 -6373 0
0 0 0 635 347981 -5738 0
0 0 0 607 348588 -5131 0
0 0 0 568 349156 -4563 0
0 0 0 553 349709 -4010 0
0 0 0 546 350255 -3464 0
0 0 0 553 350808 -2911 0
0 0 0 561 351369 -2350 0
21 1 S106 585 351954 -1765 0
21 1 S106 586 352540 -1179 0
21 1 S106 557 353097 -622 0
21 1 S106 546 353643 -76 0
21 2 S106 543 354186 467 0
21 2 S106 551 354737 1018 0
21 2 S106 568 355305 1586 0
21 2 S106 584 355889 2170 0
21 2 S106 582 356471 2752 0
21 2 S106 575 357046 3327 0
21 2 S106 598 357644 3925 0
21 2 S106 607 358251 4532 0
21 2 S106 623 358874 5155 0
21 2 S106 627 359501 5782 0
21 2 S106 597 360098 6379 0
21 2 S106 581 360679 6960 0
0 0 0 589 361268 -10140 0
0 0 0 610 361878 -9530 0
0 0 0 594 362472 -8936 0
0 0 0 582 363054 -8354 0
0 0 0 562 363616 -7792 0
0 0 0 542 364158 -7250 0
0 0 0 540 364698 -6710 0
0 0 0 542 365240 -6168 0
0 0 0 542 365782 -5626 0
0 0 0 548 366330 -5078 0
0 0 0 536 366866 -4542 0
0 0 0 531 367397 -4011 0
0 0 0 528 367925 -3483 0
0 0 0 528 368453 -2955 0
0 0 0 530 368983 -2425 0
22 1 S116 535 369518 -1890 0
22 1 S116 530 370048 -1360 0
22 1 S116 546 370594 -814 0
22 1 S116 561 371155 -253 0
22 2 S116 550 371705 297 0
22 2 S116 547 372252 844 0
22 2 S116 562 372814 1406 0
22 2 S116 569 373383 1975 0
22 2 S116 583 373966 2558 0
22 2 S116 593 374559 3151 0
22 2 S116 584 375143 3735 0
22 2 S116 563 375706 4298 0
22 2 S116 578 376284 4876 0
22 2 S116 590 376874 5466 0
22 2 S116 616 377490 6082 0
22 2 S116 638 378128 6720 0
0 0 0 627 378755 -9712 0
0 0 0 597 379352 -9115 0
0 0 0 609 379961 -8506 0
0 0 0 608 380569 -7898 0
0 0 0 624 381193 -7274 0
0 0 0 601 381794 -6673 0
0 0 0 584 382378 -6089 0
0 0 0 565 382943 -5524 0
0 0 0 533 383476 -4991 0
0 0 0 524 384000 -4467 0
0 0 0 517 384517 -3950 0
0 0 0 512 385029 -3438 0
0 0 0 509 385538 -2929 0
0 0 0 517 386055 -2412 0
23 1 S112 522 386577 -1890 0
23 1 S112 533 387110 -1357 0
23 1 S112 541 387651 -816 0
23 1 S112 557 388208 -259 0
23 2 S112 553 388761 294 0
23 2 S112 542 389303 836 0
23 2 S112 545 389848 1381 0
23 2 S112 568 390416 1949 0
23 2 S112 616 391032 2565 0
23 2 S112 685 391717 3250 1
23 2 S112 634 392351 3884 0
23 2 S112 614 392965 4498 0
23 2 S112 608 393573 5106 0
23 2 S112 605 394178 5711 0
23 2 S112 605 394783 6316 0
23 2 S112 586 395369 6902 0
0 0 0 564 395933 -9428 0
0 0 0 554 396487 -8874 0
0 0 0 559 397046 -8315 0
0 0 0 566 397612 -7749 0
0 0 0 581 398193 -7168 0
0 0 0 572 398765 -6596 0
0 0 0 544 399309 -6052 0
0 0 0 534 399843 -5518 0
0 0 0 528 400371 -4990 0
0 0 0 524 400895 -4466 0
0 0 0 525 401420 -3941 0
0 0 0 518 401938 -3423 0
0 0 0 531 402469 -2892 0
0 0 0 537 403006 -2355 0
24 1 S106 538 403544 -1817 0
24 1 S106 524 404068 -1293 0
24 1 S106 534 404602 -759 0
24 1 S106 540 405142 -219 0
24 2 S106 545 405687 326 0
24 2 S106 569 406256 895 0
24 2 S106 555 406811 1450 0
24 2 S106 546 407357 1996 0
24 2 S106 549 407906 2545 0
24 2 S106 555 408461 3100 0
24 2 S106 564 409025 3664 0
24 2 S106 578 409603 4242 0
24 2 S106 567 410170 4809 0
24 2 S106 554 410724 5363 0
24 2 S106 555 411279 5918 0
24 2 S106 573 411852 6491 0
0 0 0 598 412450 -8677 0
0 0 0 645 413095 -8032 0
0 0 0 675 413770 -7357 0
0 0 0 604 414374 -6753 0
0 0 0 571 414945 -6182 0
0 0 0 566 415511 -5616 0
0 0 0 561 416072 -5055 0
0 0 0 562 416634 -4493 0
0 0 0 551 417185 -3942 0
0 0 0 535 417720 -3407 0
0 0 0 532 418252 -2875 0
0 0 0 534 418786 -2341 0
25 1 S102 541 419327 -1800 0
25 1 S102 554 419881 -1246 0
25 1 S102 576 420457 -670 0
25 1 S102 567 421024 -103 0
25 2 S102 566 421590 463 0
25 2 S102 608 422198 1071 0
25 2 S102 647 422845 1718 0
25 2 S102 676 423521 2394 0
25 2 S102 665 424186 3059 0
25 2 S102 621 424807 3680 0
25 2 S102 624 425431 4304 0
25 2 S102 611 426042 4915 0
25 2 S102 596 426638 5511 0
25 2 S102 596 427234 6107 0
25 2 S102 561 427795 6668 0
0 0 0 549 428344 -6576 0
0 0 0 555 428899 -6021 0
0 0 0 583 429482 -5438 0
0 0 0 598 430080 -4840 0
0 0 0 579 430659 -4261 0
0 0 0 557 431216 -3704 0
0 0 0 537 431753 -3167 0
0 0 0 539 432292 -2628 0
0 0 0 537 432829 -2091 0
26 1 S116 531 433360 -1560 0
26 1 S116 523 433883 -1037 0
26 1 S116 535 434418 -502 0
26 2 S116 546 434964 44 0
26 2 S116 570 435534 614 0
26 2 S116 568 436102 1182 0
26 2 S116 565 436667 1747 0
26 2 S116 584 437251 2331 0
26 2 S116 600 437851 2931 0
26 2 S116 620 438471 3551 0
26 2 S116 602 439073 4153 0
26 2 S116 584 439657 4737 0
26 2 S116 589 440246 5326 0
26 2 S116 603 440849 5929 0
26 2 S116 614 441463 6543 0
0 0 0 620 442083 -6282 0
0 0 0 618 442701 -5664 0
0 0 0 595 443296 -5069 0
0 0 0 578 443874 -4491 0
0 0 0 578 444452 -3913 0
0 0 0 568 445020 -3345 0
0 0 0 569 445589 -2776 0
0 0 0 554 446143 -2222 0
27 1 S106 545 446688 -1677 0
27 1 S106 536 447224 -1141 0
27 1 S106 542 447766 -599 0
27 1 S106 550 448316 -49 0
27 2 S106 568 448884 519 0
27 2 S106 585 449469 1104 0
27 2 S106 596 450065 1700 0
27 2 S106 568 450633 2268 0
27 2 S106 564 451197 2832 0
27 2 S106 576 451773 3408 0
27 2 S106 576 452349 3984 0
27 2 S106 586 452935 4570 0
27 2 S106 580 453515 5150 0
27 2 S106 560 454075 5710 0
27 2 S106 551 454626 6261 0
27 2 S106 562 455188 6823 0
0 0 0 578 455766 -6342 0
0 0 0 606 456372 -5736 0
0 0 0 636 457008 -5100 0
0 0 0 620 457628 -4480 0
0 0 0 585 458213 -3895 0
0 0 0 563 458776 -3332 0
0 0 0 570 459346 -2762 0
0 0 0 573 459919 -2189 0
28 1 S102 581 460500 -1608 0
28 1 S102 594 461094 -1014 0
28 1 S102 605 461699 -409 0
28 2 S102 584 462283 175 0
28 2 S102 559 462842 734 0
28 2 S102 567 463409 1301 0
28 2 S102 561 463970 1862 0
28 2 S102 575 464545 2437 0
28 2 S102 592 465137 3029 0
28 2 S102 587 465724 3616 0
28 2 S102 572 466296 4188 0
28 2 S102 574 466870 4762 0
28 2 S102 584 467454 5346 0
28 2 S102 607 468061 5953 0
28 2 S102 624 468685 6577 0
0 0 0 626 469311 -11432 0
0 0 0 595 469906 -10837 0
0 0 0 600 470506 -10237 0
0 0 0 595 471101 -9642 0
0 0 0 620 471721 -9022 0
0 0 0 606 472327 -8416 0
0 0 0 571 472898 -7845 0
0 0 0 553 473451 -7292 0
0 0 0 549 474000 -6743 0
0 0 0 548 474548 -6195 0
0 0 0 541 475089 -5654 0
0 0 0 545 475634 -5109 0
0 0 0 538 476172 -4571 0
0 0 0 536 476708 -4035 0
0 0 0 538 477246 -3497 0
0 0 0 541 477787 -2956 0
0 0 0 534 478321 -2422 0
29 1 S112 546 478867 -1876 0
29 1 S112 572 479439 -1304 0
29 1 S112 585 480024 -719 0
29 1 S112 584 480608 -135 0
29 2 S112 570 481178 435 0
29 2 S112 553 481731 988 0
29 2 S112 562 482293 1550 0
29 2 S112 560 482853 2110 0
29 2 S112 576 483429 2686 0
29 2 S112 586 484015 3272 0
29 2 S112 583 484598 3855 0
29 2 S112 572 485170 4427 0
29 2 S112 585 485755 5012 0
29 2 S112 603 486358 5615 0
29 2 S112 620 486978 6235 0
29 2 S112 668 487646 6903 0
0 0 0 661 488307 -7522 0
0 0 0 625 488932 -6897 0
0 0 0 627 489559 -6270 0
0 0 0 623 490182 -5647 0
0 0 0 648 490830 -4999 0
0 0 0 628 491458 -4371 0
0 0 0 598 492056 -3773 0
0 0 0 559 492615 -3214 0
0 0 0 541 493156 -2673 0
0 0 0 531 493687 -2142 0
30 1 S112 531 494218 -1611 0
30 1 S112 532 494750 -1079 0
30 1 S112 537 495287 -542 0
30 2 S112 546 495833 4 0
30 2 S112 559 496392 563 0
30 2 S112 557 496949 1120 0
30 2 S112 551 497500 1671 0
30 2 S112 562 498062 2233 0
30 2 S112 584 498646 2817 0
30 2 S112 618 499264 3435 0
30 2 S112 665 499929 4100 0
30 2 S112 671 500600 4771 0
30 2 S112 633 501233 5404 0
30 2 S112 600 501833 6004 0
30 2 S112 593 502426 6597 0
0 0 0 596 503022 -8822 0
0 0 0 612 503634 -8210 0
0 0 0 609 504243 -7601 0
0 0 0 578 504821 -7023 0
0 0 0 560 505381 -6463 0
0 0 0 566 505947 -5897 0
0 0 0 568 506515 -5329 0
0 0 0 584 507099 -4745 0
0 0 0 599 507698 -4146 0
0 0 0 560 508258 -3586 0
0 0 0 550 508808 -3036 0
0 0 0 556 509364 -2480 0
31 1 S106 557 509921 -1923 0
31 1 S106 572 510493 -1351 0
31 1 S106 563 511056 -788 0
31 1 S106 549 511605 -239 0
31 2 S106 546 512151 307 0
31 2 S106 534 512685 841 0
31 2 S106 532 513217 1373 0
31 2 S106 538 513755 1911 0
31 2 S106 545 514300 2456 0
31 2 S106 559 514859 3015 0
31 2 S106 573 515432 3588 0
31 2 S106 561 515993 4149 0
31 2 S106 558 516551 4707 0
31 2 S106 576 517127 5283 0
31 2 S106 598 517725 5881 0
31 2 S106 627 518352 6508 0
0 0 0 604 518956 -8571 0
0 0 0 587 519543 -7984 0
0 0 0 589 520132 -7395 0
0 0 0 592 520724 -6803 0
0 0 0 576 521300 -6227 0
0 0 0 567 521867 -5660 0
0 0 0 545 522412 -5115 0
0 0 0 535 522947 -4580 0
0 0 0 529 523476 -4051 0
0 0 0 533 524009 -3518 0
0 0 0 544 524553 -2974 0
0 0 0 575 525128 -2399 0
32 1 S102 591 525719 -1808 0
32 1 S102 574 526293 -1234 0
32 1 S102 569 526862 -665 0
32 1 S102 557 527419 -108 0
32 2 S102 572 527991 464 0
32 2 S102 592 528583 1056 0
32 2 S102 608 529191 1664 0
32 2 S102 604 529795 2268 0
32 2 S102 582 530377 2850 0
32 2 S102 590 530967 3440 0
32 2 S102 609 531576 4049 0
32 2 S102 607 532183 4656 0
32 2 S102 617 532800 5273 0
32 2 S102 588 533388 5861 0
32 2 S102 583 533971 6444 0
0 0 0 590 534561 -11235 0
0 0 0 605 535166 -10630 0
0 0 0 613 535779 -10017 0
0 0 0 590 536369 -9427 0
0 0 0 571 536940 -8856 0
0 0 0 577 537517 -8279 0
0 0 0 568 538085 -7711 0
0 0 0 560 538645 -7151 0
0 0 0 543 539188 -6608 0
0 0 0 534 539722 -6074 0
0 0 0 529 540251 -5545 0
0 0 0 530 540781 -5015 0
0 0 0 524 541305 -4491 0
0 0 0 531 541836 -3960 0
0 0 0 518 542354 -3442 0
0 0 0 528 542882 -2914 0
0 0 0 538 543420 -2376 0
33 1 S112 543 543963 -1833 0
33 1 S112 529 544492 -1304 0
33 1 S112 525 545017 -779 0
33 1 S112 539 545556 -240 0
33 2 S112 545 546101 305 0
33 2 S112 577 546678 882 0
33 2 S112 606 547284 1488 0
33 2 S112 622 547906 2110 0
33 2 S112 609 548515 2719 0
33 2 S112 627 549142 3346 0
33 2 S112 637 549779 3983 0
33 2 S112 637 550416 4620 0
33 2 S112 649 551065 5269 0
33 2 S112 610 551675 5879 0
33 2 S112 601 552276 6480 0
0 0 0 608 552884 -11712 0
0 0 0 615 553499 -11097 0
0 0 0 611 554110 -10486 0
0 0 0 605 554715 -9881 0
0 0 0 575 555290 -9306 0
0 0 0 573 555863 -8733 0
0 0 0 563 556426 -8170 0
0 0 0 567 556993 -7603 0
0 0 0 562 557555 -7041 0
0 0 0 546 558101 -6495 0
0 0 0 545 558646 -5950 0
0 0 0 552 559198 -5398 0
0 0 0 557 559755 -4841 0
0 0 0 575 560330 -4266 0
0 0 0 576 560906 -3690 0
0 0 0 562 561468 -3128 0
0 0 0 547 562015 -2581 0
0 0 0 550 562565 -2031 0
34 1 S106 560 563125 -1471 0
34 1 S106 577 563702 -894 0
34 1 S106 593 564295 -301 0
34 2 S106 587 564882 286 0
34 2 S106 571 565453 857 0
34 2 S106 584 566037 1441 0
34 2 S106 587 566624 2028 0
34 2 S106 610 567234 2638 0
34 2 S106 598 567832 3236 0
34 2 S106 595 568427 3831 0
34 2 S106 561 568988 4392 0
34 2 S106 553 569541 4945 0
34 2 S106 560 570101 5505 0
34 2 S106 565 570666 6070 0
34 2 S106 579 571245 6649 0
0 0 0 599 571844 -8800 0
0 0 0 584 572428 -8216 0
0 0 0 573 573001 -7643 0
0 0 0 576 573577 -7067 0
0 0 0 571 574148 -6496 0
0 0 0 555 574703 -5941 0
0 0 0 547 575250 -5394 0
0 0 0 535 575785 -4859 0
0 0 0 521 576306 -4338 0
0 0 0 515 576821 -3823 0
0 0 0 510 577331 -3313 0
0 0 0 509 577840 -2804 0
0 0 0 513 578353 -2291 0
35 1 S102 522 578875 -1769 0
35 1 S102 539 579414 -1230 0
35 1 S102 561 579975 -669 0
35 1 S102 568 580543 -101 0
35 2 S102 553 581096 452 0
35 2 S102 580 581676 1032 0
35 2 S102 607 582283 1639 0
35 2 S102 631 582914 2270 0
35 2 S102 636 583550 2906 0
35 2 S102 627 584177 3533 0
35 2 S102 591 584768 4124 0
35 2 S102 573 585341 4697 0
35 2 S102 568 585909 5265 0
35 2 S102 574 586483 5839 0
35 2 S102 576 587059 6415 0
35 2 S102 574 587633 6989 0
0 0 0 551 588184 -6701 0
0 0 0 544 588728 -6157 0
0 0 0 551 589279 -5606 0
0 0 0 550 589829 -5056 0
0 0 0 558 590387 -4498 0
0 0 0 547 590934 -3951 0
0 0 0 531 591465 -3420 0
0 0 0 527 591992 -2893 0
0 0 0 525 592517 -2368 0
36 1 S106 533 593050 -1835 0
36 1 S106 537 593587 -1298 0
36 1 S106 543 594130 -755 0
36 1 S106 550 594680 -205 0
36 2 S106 542 595222 337 0
36 2 S106 558 595780 895 0
36 2 S106 593 596373 1488 0
36 2 S106 611 596984 2099 0
36 2 S106 614 597598 2713 0
36 2 S106 613 598211 3326 0
36 2 S106 585 598796 3911 0
36 2 S106 566 599362 4477 0
36 2 S106 582 599944 5059 0
36 2 S106 587 600531 5646 0
36 2 S106 595 601126 6241 0
36 2 S106 580 601706 6821 0
0 0 0 564 602270 -9143 0
0 0 0 552 602822 -8591 0
0 0 0 565 603387 -8026 0
0 0 0 588 603975 -7438 0
0 0 0 598 604573 -6840 0
0 0 0 579 605152 -6261 0
0 0 0 559 605711 -5702 0
0 0 0 545 606256 -5157 0
0 0 0 546 606802 -4611 0
0 0 0 544 607346 -4067 0
0 0 0 556 607902 -3511 0
0 0 0 563 608465 -2948 0
0 0 0 558 609023 -2390 0
37 1 S116 541 609564 -1849 0
37 1 S116 535 610099 -1314 0
37 1 S116 540 610639 -774 0
37 1 S116 554 611193 -220 0
37 2 S116 562 611755 342 0
37 2 S116 572 612327 914 0
37 2 S116 573 612900 1487 0
37 2 S116 557 613457 2044 0
37 2 S116 548 614005 2592 0
37 2 S116 557 614562 3149 0
37 2 S116 562 615124 3711 0
37 2 S116 578 615702 4289 0
37 2 S116 583 616285 4872 0
37 2 S116 560 616845 5432 0
37 2 S116 560 617405 5992 0
37 2 S116 582 617987 6574 0
0 0 0 612 618599 -10570 0
0 0 0 618 619217 -9952 0
0 0 0 607 619824 -9345 0
0 0 0 575 620399 -8770 0
0 0 0 554 620953 -8216 0
0 0 0 547 621500 -7669 0
0 0 0 547 622047 -7122 0
0 0 0 547 622594 -6575 0
0 0 0 550 623144 -6025 0
0 0 0 542 623686 -5483 0
0 0 0 532 624218 -4951 0
0 0 0 539 624757 -4412 0
0 0 0 548 625305 -3864 0
0 0 0 570 625875 -3294 0
0 0 0 601 626476 -2693 0
0 0 0 604 627080 -2089 0
38 1 S102 589 627669 -1500 0
38 1 S102 601 628270 -899 0
38 1 S102 614 628884 -285 0
38 2 S102 626 629510 341 0
38 2 S102 617 630127 958 0
38 2 S102 600 630727 1558 0
38 2 S102 582 631309 2140 0
38 2 S102 584 631893 2724 0
38 2 S102 586 632479 3310 0
38 2 S102 589 633068 3899 0
38 2 S102 590 633658 4489 0
38 2 S102 562 634220 5051 0
38 2 S102 551 634771 5602 0
38 2 S102 555 635326 6157 0
38 2 S102 561 635887 6718 0
0 0 0 579 636466 -8718 0
0 0 0 590 637056 -8128 0
0 0 0 579 637635 -7549 0
0 0 0 586 638221 -6963 0
0 0 0 587 638808 -6376 0
0 0 0 574 639382 -5802 0
0 0 0 572 639954 -5230 0
0 0 0 552 640506 -4678 0
0 0 0 550 641056 -4128 0
0 0 0 557 641613 -3571 0
0 0 0 579 642192 -2992 0
0 0 0 586 642778 -2406 0
39 1 S116 573 643351 -1833 0
39 1 S116 577 643928 -1256 0
39 1 S116 581 644509 -675 0
39 1 S116 591 645100 -84 0
39 2 S116 583 645683 499 0
39 2 S116 576 646259 1075 0
39 2 S116 564 646823 1639 0
39 2 S116 571 647394 2210 0
39 2 S116 582 647976 2792 0
39 2 S116 579 648555 3371 0
39 2 S116 594 649149 3965 0
39 2 S116 574 649723 4539 0
39 2 S116 573 650296 5112 0
39 2 S116 579 650875 5691 0
39 2 S116 595 651470 6286 0
39 2 S116 613 652083 6899 0
0 0 0 598 652681 -6677 0
0 0 0 601 653282 -6076 0
0 0 0 614 653896 -5462 0
0 0 0 616 654512 -4846 0
0 0 0 592 655104 -4254 0
0 0 0 573 655677 -3681 0
0 0 0 553 656230 -3128 0
0 0 0 548 656778 -2580 0
0 0 0 555 657333 -2025 0
40 1 S112 551 657884 -1474 0
40 1 S112 541 658425 -933 0
40 1 S112 528 658953 -405 0
40 2 S112 534 659487 129 0
40 2 S112 531 660018 660 0
40 2 S112 542 660560 1202 0
40 2 S112 547 661107 1749 0
40 2 S112 546 661653 2295 0
40 2 S112 571 662224 2866 0
40 2 S112 597 662821 3463 0
40 2 S112 628 663449 4091 0
40 2 S112 638 664087 4729 0
40 2 S112 598 664685 5327 0
40 2 S112 587 665272 5914 0
40 2 S112 590 665862 6504 0
0 0 0 599 666461 -186897 0
0 0 0 607 667068 -186290 0
0 0 0 590 667658 -185700 0
0 0 0 582 668240 -185118 0
0 0 0 560 668800 -184558 0
0 0 0 569 669369 -183989 0
0 0 0 560 669929 -183429 0
0 0 0 531 670460 -182898 0
0 0 0 540 671000 -182358 0
0 0 0 564 671564 -181794 0
0 0 0 550 672114 -181244 0
0 0 0 540 672654 -180704 0
0 0 0 539 673193 -180165 0
0 0 0 525 673718 -179640 0
0 0 0 532 674250 -179108 0
0 0 0 530 674780 -178578 0
0 0 0 522 675302 -178056 0
0 0 0 517 675819 -177539 0
0 0 0 512 676331 -177027 0
0 0 0 507 676838 -176520 0
0 0 0 500 677338 -176020 0
0 0 0 984 678322 -175036 1
0 0 0 983 679305 -174053 1
0 0 0 504 679809 -173549 0
0 0 0 515 680324 -173034 0
0 0 0 547 680871 -172487 0
0 0 0 581 681452 -171906 0
0 0 0 582 682034 -171324 0
0 0 0 590 682624 -170734 0
0 0 0 598 683222 -170136 0
0 0 0 600 683822 -169536 0
0 0 0 578 684400 -168958 0
0 0 0 581 684981 -168377 0
0 0 0 544 685525 -167833 0
0 0 0 545 686070 -167288 0
0 0 0 538 686608 -166750 0
0 0 0 527 687135 -166223 0
0 0 0 540 687675 -165683 0
0 0 0 535 688210 -165148 0
0 0 0 512 688722 -164636 0
0 0 0 519 689241 -164117 0
0 0 0 503 689744 -163614 0
0 0 0 513 690257 -163101 0
0 0 0 503 690760 -162598 0
0 0 0 500 691260 -162098 0
0 0 0 501 691761 -161597 0
0 0 0 491 692252 -161106 0
0 0 0 487 692739 -160619 0
0 0 0 480 693219 -160139 0
0 0 0 495 693714 -159644 0
0 0 0 488 694202 -159156 0
0 0 0 490 694692 -158666 0
0 0 0 497 695189 -158169 0
0 0 0 510 695699 -157659 0
0 0 0 512 696211 -157147 0
0 0 0 518 696729 -156629 0
0 0 0 514 697243 -156115 0
0 0 0 504 697747 -155611 0
0 0 0 513 698260 -155098 0
0 0 0 524 698784 -154574 0
0 0 0 557 699341 -154017 0
0 0 0 565 699906 -153452 0
0 0 0 564 700470 -152888 0
0 0 0 560 701030 -152328 0
0 0 0 542 701572 -151786 0
0 0 0 522 702094 -151264 0
0 0 0 519 702613 -150745 0
0 0 0 510 703123 -150235 0
0 0 0 505 703628 -149730 0
0 0 0 509 704137 -149221 0
0 0 0 516 704653 -148705 0
0 0 0 514 705167 -148191 0
0 0 0 508 705675 -147683 0
0 0 0 500 706175 -147183 0
0 0 0 992 707167 -146191 1
0 0 0 994 708161 -145197 1
0 0 0 502 708663 -144695 0
0 0 0 515 709178 -144180 0
0 0 0 556 709734 -143624 0
0 0 0 629 710363 -142995 0
0 0 0 603 710966 -142392 0
0 0 0 592 711558 -141800 0
0 0 0 582 712140 -141218 0
0 0 0 555 712695 -140663 0
0 0 0 519 713214 -140144 0
0 0 0 514 713728 -139630 0
0 0 0 507 714235 -139123 0
0 0 0 508 714743 -138615 0
0 0 0 508 715251 -138107 0
0 0 0 506 715757 -137601 0
0 0 0 523 716280 -137078 0
0 0 0 542 716822 -136536 0
0 0 0 552 717374 -135984 0
0 0 0 555 717929 -135429 0
0 0 0 547 718476 -134882 0
0 0 0 555 719031 -134327 0
0 0 0 566 719597 -133761 0
0 0 0 602 720199 -133159 0
0 0 0 620 720819 -132539 0
0 0 0 653 721472 -131886 0
0 0 0 681 722153 -131205 1
0 0 0 642 722795 -130563 0
0 0 0 651 723446 -129912 0
0 0 0 611 724057 -129301 0
0 0 0 582 724639 -128719 0
0 0 0 557 725196 -128162 0
0 0 0 545 725741 -127617 0
0 0 0 546 726287 -127071 0
0 0 0 547 726834 -126524 0
0 0 0 562 727396 -125962 0
0 0 0 595 727991 -125367 0
0 0 0 610 728601 -124757 0
0 0 0 662 729263 -124095 0
0 0 0 628 729891 -123467 0
0 0 0 604 730495 -122863 0
0 0 0 583 731078 -122280 0
0 0 0 585 731663 -121695 0
0 0 0 588 732251 -121107 0
0 0 0 602 732853 -120505 0
0 0 0 600 733453 -119905 0
0 0 0 613 734066 -119292 0
0 0 0 588 734654 -118704 0
0 0 0 564 735218 -118140 0
0 0 0 552 735770 -117588 0
0 0 0 551 736321 -117037 0
0 0 0 543 736864 -116494 0
0 0 0 551 737415 -115943 0
0 0 0 557 737972 -115386 0
0 0 0 562 738534 -114824 0
0 0 0 561 739095 -114263 0
0 0 0 566 739661 -113697 0
0 0 0 566 740227 -113131 0
0 0 0 551 740778 -112580 0
0 0 0 553 741331 -112027 0
0 0 0 546 741877 -111481 0
0 0 0 550 742427 -110931 0
0 0 0 549 742976 -110382 0
0 0 0 550 743526 -109832 0
0 0 0 553 744079 -109279 0
0 0 0 562 744641 -108717 0
0 0 0 568 745209 -108149 0
0 0 0 579 745788 -107570 0
0 0 0 577 746365 -106993 0
0 0 0 568 746933 -106425 0
0 0 0 557 747490 -105868 0
0 0 0 555 748045 -105313 0
0 0 0 574 748619 -104739 0
0 0 0 601 749220 -104138 0
0 0 0 597 749817 -103541 0
0 0 0 594 750411 -102947 0
0 0 0 578 750989 -102369 0
0 0 0 564 751553 -101805 0
0 0 0 564 752117 -101241 0
0 0 0 566 752683 -100675 0
0 0 0 567 753250 -100108 0
0 0 0 573 753823 -99535 0
0 0 0 569 754392 -98966 0
0 0 0 568 754960 -98398 0
0 0 0 553 755513 -97845 0
0 0 0 548 756061 -97297 0
0 0 0 553 756614 -96744 0
0 0 0 572 757186 -96172 0
0 0 0 618 757804 -95554 0
0 0 0 635 758439 -94919 0
0 0 0 639 759078 -94280 0
0 0 0 631 759709 -93649 0
0 0 0 605 760314 -93044 0
0 0 0 603 760917 -92441 0
0 0 0 589 761506 -91852 0
0 0 0 582 762088 -91270 0
0 0 0 583 762671 -90687 0
0 0 0 562 763233 -90125 0
0 0 0 543 763776 -89582 0
0 0 0 535 764311 -89047 0
0 0 0 531 764842 -88516 0
0 0 0 531 765373 -87985 0
0 0 0 530 765903 -87455 0
0 0 0 535 766438 -86920 0
0 0 0 548 766986 -86372 0
0 0 0 580 767566 -85792 0
0 0 0 621 768187 -85171 0
0 0 0 639 768826 -84532 0
0 0 0 657 769483 -83875 0
0 0 0 647 770130 -83228 0
0 0 0 618 770748 -82610 0
0 0 0 601 771349 -82009 0
0 0 0 588 771937 -81421 0
0 0 0 552 772489 -80869 0
0 0 0 542 773031 -80327 0
0 0 0 533 773564 -79794 0
0 0 0 525 774089 -79269 0
0 0 0 518 774607 -78751 0
0 0 0 511 775118 -78240 0
0 0 0 505 775623 -77735 0
0 0 0 500 776123 -77235 0
0 0 0 496 776619 -76739 0
0 0 0 500 777119 -76239 0
0 0 0 489 777608 -75750 0
0 0 0 509 778117 -75241 0
0 0 0 536 778653 -74705 0
0 0 0 535 779188 -74170 0
0 0 0 570 779758 -73600 0
0 0 0 564 780322 -73036 0
0 0 0 584 780906 -72452 0
0 0 0 597 781503 -71855 0
0 0 0 626 782129 -71229 0
0 0 0 676 782805 -70553 0
0 0 0 675 783480 -69878 0
0 0 0 669 784149 -69209 0
0 0 0 610 784759 -68599 0
0 0 0 571 785330 -68028 0
0 0 0 570 785900 -67458 0
0 0 0 542 786442 -66916 0
0 0 0 530 786972 -66386 0
0 0 0 521 787493 -65865 0
0 0 0 517 788010 -65348 0
0 0 0 513 788523 -64835 0
0 0 0 508 789031 -64327 0
0 0 0 509 789540 -63818 0
0 0 0 502 790042 -63316 0
0 0 0 999 791041 -62317 1
0 0 0 493 791534 -61824 0
0 0 0 495 792029 -61329 0
0 0 0 494 792523 -60835 0
0 0 0 501 793024 -60334 0
0 0 0 509 793533 -59825 0
0 0 0 504 794037 -59321 0
0 0 0 493 794530 -58828 0
0 0 0 502 795032 -58326 0
0 0 0 506 795538 -57820 0
0 0 0 517 796055 -57303 0
0 0 0 565 796620 -56738 0
0 0 0 649 797269 -56089 0
0 0 0 662 797931 -55427 0
0 0 0 666 798597 -54761 0
0 0 0 667 799264 -54094 0
0 0 0 603 799867 -53491 0
0 0 0 553 800420 -52938 0
0 0 0 580 801000 -52358 0
0 0 0 553 801553 -51805 0
0 0 0 531 802084 -51274 0
0 0 0 527 802611 -50747 0
0 0 0 520 803131 -50227 0
0 0 0 521 803652 -49706 0
0 0 0 537 804189 -49169 0
0 0 0 576 804765 -48593 0
0 0 0 596 805361 -47997 0
0 0 0 600 805961 -47397 0
0 0 0 645 806606 -46752 0
0 0 0 657 807263 -46095 0
0 0 0 641 807904 -45454 0
0 0 0 620 808524 -44834 0
0 0 0 583 809107 -44251 0
0 0 0 576 809683 -43675 0
0 0 0 578 810261 -43097 0
0 0 0 573 810834 -42524 0
0 0 0 570 811404 -41954 0
0 0 0 571 811975 -41383 0
0 0 0 582 812557 -40801 0
0 0 0 613 813170 -40188 0
0 0 0 622 813792 -39566 0
0 0 0 607 814399 -38959 0
0 0 0 560 814959 -38399 0
0 0 0 552 815511 -37847 0
0 0 0 543 816054 -37304 0
0 0 0 545 816599 -36759 0
0 0 0 535 817134 -36224 0
0 0 0 541 817675 -35683 0
0 0 0 563 818238 -35120 0
0 0 0 577 818815 -34543 0
0 0 0 581 819396 -33962 0
0 0 0 588 819984 -33374 0
0 0 0 626 820610 -32748 0
0 0 0 615 821225 -32133 0
0 0 0 687 821912 -31446 1
0 0 0 610 822522 -30836 0
0 0 0 611 823133 -30225 0
0 0 0 629 823762 -29596 0
0 0 0 617 824379 -28979 0
0 0 0 619 824998 -28360 0
0 0 0 617 825615 -27743 0
0 0 0 605 826220 -27138 0
0 0 0 603 826823 -26535 0
0 0 0 597 827420 -25938 0
0 0 0 597 828017 -25341 0
0 0 0 604 828621 -24737 0
0 0 0 604 829225 -24133 0
0 0 0 626 829851 -23507 0
0 0 0 648 830499 -22859 0
0 0 0 639 831138 -22220 0
0 0 0 640 831778 -21580 0
0 0 0 626 832404 -20954 0
0 0 0 587 832991 -20367 0
0 0 0 575 833566 -19792 0
0 0 0 559 834125 -19233 0
0 0 0 560 834685 -18673 0
0 0 0 562 835247 -18111 0
0 0 0 565 835812 -17546 0
0 0 0 565 836377 -16981 0
0 0 0 571 836948 -16410 0
0 0 0 573 837521 -15837 0
0 0 0 580 838101 -15257 0
0 0 0 574 838675 -14683 0
0 0 0 565 839240 -14118 0
0 0 0 532 839772 -13586 0
0 0 0 530 840302 -13056 0
0 0 0 527 840829 -12529 0
0 0 0 524 841353 -12005 0
0 0 0 526 841879 -11479 0
0 0 0 529 842408 -10950 0
0 0 0 525 842933 -10425 0
0 0 0 525 843458 -9900 0
0 0 0 526 843984 -9374 0
0 0 0 516 844500 -8858 0
0 0 0 514 845014 -8344 0
0 0 0 511 845525 -7833 0
0 0 0 508 846033 -7325 0
0 0 0 511 846544 -6814 0
0 0 0 512 847056 -6302 0
0 0 0 544 847600 -5758 0
0 0 0 593 848193 -5165 0
0 0 0 606 848799 -4559 0
0 0 0 691 849490 -3868 1
0 0 0 618 850108 -3250 0
0 0 0 644 850752 -2606 0
41 1 S102 620 851372 -1986 0
41 1 S102 615 851987 -1371 0
41 1 S102 600 852587 -771 0
41 1 S102 555 853142 -216 0
41 2 S102 541 853683 325 0
41 2 S102 544 854227 869 0
41 2 S102 561 854788 1430 0
41 2 S102 581 855369 2011 0
41 2 S102 620 855989 2631 0
41 2 S102 677 856666 3308 0
41 2 S102 636 857302 3944 0
41 2 S102 600 857902 4544 0
41 2 S102 579 858481 5123 0
41 2 S102 582 859063 5705 0
41 2 S102 588 859651 6293 0
41 2 S102 579 860230 6872 0
0 0 0 587 860817 -6699 0
0 0 0 567 861384 -6132 0
0 0 0 564 861948 -5568 0
0 0 0 567 862515 -5001 0
0 0 0 558 863073 -4443 0
0 0 0 549 863622 -3894 0
0 0 0 540 864162 -3354 0
0 0 0 529 864691 -2825 0
0 0 0 520 865211 -2305 0
42 1 S112 514 865725 -1791 0
42 1 S112 512 866237 -1279 0
42 1 S112 521 866758 -758 0
42 1 S112 540 867298 -218 0
42 2 S112 552 867850 334 0
42 2 S112 592 868442 926 0
42 2 S112 612 869054 1538 0
42 2 S112 608 869662 2146 0
42 2 S112 669 870331 2815 0
42 2 S112 672 871003 3487 0
42 2 S112 682 871685 4169 1
42 2 S112 678 872363 4847 1
42 2 S112 603 872966 5450 0
42 2 S112 575 873541 6025 0
42 2 S112 569 874110 6594 0
0 0 0 580 874690 -8559 0
0 0 0 588 875278 -7971 0
0 0 0 603 875881 -7368 0
0 0 0 589 876470 -6779 0
0 0 0 556 877026 -6223 0
0 0 0 543 877569 -5680 0
0 0 0 540 878109 -5140 0
0 0 0 552 878661 -4588 0
0 0 0 563 879224 -4025 0
0 0 0 573 879797 -3452 0
0 0 0 575 880372 -2877 0
0 0 0 558 880930 -2319 0
43 1 S116 553 881483 -1766 0
43 1 S116 565 882048 -1201 0
43 1 S116 578 882626 -623 0
43 2 S116 634 883260 11 0
43 2 S116 630 883890 641 0
43 2 S116 637 884527 1278 0
43 2 S116 633 885160 1911 0
43 2 S116 639 885799 2550 0
43 2 S116 613 886412 3163 0
43 2 S116 583 886995 3746 0
43 2 S116 573 887568 4319 0
43 2 S116 589 888157 4908 0
43 2 S116 599 888756 5507 0
43 2 S116 603 889359 6110 0
43 2 S116 597 889956 6707 0
0 0 0 583 890539 -5873 0
0 0 0 596 891135 -5277 0
0 0 0 610 891745 -4667 0
0 0 0 609 892354 -4058 0
0 0 0 626 892980 -3432 0
0 0 0 615 893595 -2817 0
0 0 0 584 894179 -2233 0
44 1 S102 585 894764 -1648 0
44 1 S102 586 895350 -1062 0
44 1 S102 593 895943 -469 0
44 2 S102 588 896531 119 0
44 2 S102 575 897106 694 0
44 2 S102 559 897665 1253 0
44 2 S102 542 898207 1795 0
44 2 S102 546 898753 2341 0
44 2 S102 556 899309 2897 0
44 2 S102 561 899870 3458 0
44 2 S102 573 900443 4031 0
44 2 S102 596 901039 4627 0
44 2 S102 588 901627 5215 0
44 2 S102 569 902196 5784 0
44 2 S102 571 902767 6355 0
44 2 S102 591 903358 6946 0
0 0 0 606 903964 -8678 0
0 0 0 627 904591 -8051 0
0 0 0 637 905228 -7414 0
0 0 0 609 905837 -6805 0
0 0 0 575 906412 -6230 0
0 0 0 573 906985 -5657 0
0 0 0 566 907551 -5091 0
0 0 0 561 908112 -4530 0
0 0 0 540 908652 -3990 0
0 0 0 533 909185 -3457 0
0 0 0 533 909718 -2924 0
0 0 0 545 910263 -2379 0
45 1 S116 551 910814 -1828 0
45 1 S116 555 911369 -1273 0
45 1 S116 541 911910 -732 0
45 1 S116 536 912446 -196 0
45 2 S116 538 912984 342 0
45 2 S116 545 913529 887 0
45 2 S116 591 914120 1478 0
45 2 S116 616 914736 2094 0
45 2 S116 647 915383 2741 0
45 2 S116 646 916029 3387 0
45 2 S116 610 916639 3997 0
45 2 S116 585 917224 4582 0
45 2 S116 575 917799 5157 0
45 2 S116 577 918376 5734 0
45 2 S116 575 918951 6309 0
45 2 S116 577 919528 6886 0
0 0 0 560 920088 -11835 0
0 0 0 555 920643 -11280 0
0 0 0 562 921205 -10718 0
0 0 0 591 921796 -10127 0
0 0 0 638 922434 -9489 0
0 0 0 640 923074 -8849 0
0 0 0 603 923677 -8246 0
0 0 0 574 924251 -7672 0
0 0 0 554 924805 -7118 0
0 0 0 549 925354 -6569 0
0 0 0 551 925905 -6018 0
0 0 0 548 926453 -5470 0
0 0 0 546 926999 -4924 0
0 0 0 532 927531 -4392 0
0 0 0 537 928068 -3855 0
0 0 0 545 928613 -3310 0
0 0 0 558 929171 -2752 0
0 0 0 552 929723 -2200 0
46 1 S102 539 930262 -1661 0
46 1 S102 538 930800 -1123 0
46 1 S102 550 931350 -573 0
46 2 S102 574 931924 1 0
46 2 S102 594 932518 595 0
46 2 S102 641 933159 1236 0
46 2 S102 632 933791 1868 0
46 2 S102 609 934400 2477 0
46 2 S102 578 934978 3055 0
46 2 S102 575 935553 3630 0
46 2 S102 576 936129 4206 0
46 2 S102 577 936706 4783 0
46 2 S102 585 937291 5368 0
46 2 S102 591 937882 5959 0
46 2 S102 584 938466 6543 0
0 0 0 584 939050 -8241 0
0 0 0 567 939617 -7674 0
0 0 0 566 940183 -7108 0
0 0 0 566 940749 -6542 0
0 0 0 564 941313 -5978 0
0 0 0 559 941872 -5419 0
0 0 0 556 942428 -4863 0
0 0 0 546 942974 -4317 0
0 0 0 536 943510 -3781 0
0 0 0 524 944034 -3257 0
0 0 0 529 944563 -2728 0
0 0 0 536 945099 -2192 0
47 1 S112 522 945621 -1670 0
47 1 S112 518 946139 -1152 0
47 1 S112 512 946651 -640 0
47 1 S112 511 947162 -129 0
47 2 S112 514 947676 385 0
47 2 S112 523 948199 908 0
47 2 S112 574 948773 1482 0
47 2 S112 581 949354 2063 0
47 2 S112 611 949965 2674 0
47 2 S112 608 950573 3282 0
47 2 S112 588 951161 3870 0
47 2 S112 570 951731 4440 0
47 2 S112 547 952278 4987 0
47 2 S112 549 952827 5536 0
47 2 S112 548 953375 6084 0
47 2 S112 551 953926 6635 0
0 0 0 541 954467 -10132 0
0 0 0 550 955017 -9582 0
0 0 0 562 955579 -9020 0
0 0 0 550 956129 -8470 0
0 0 0 532 956661 -7938 0
0 0 0 529 957190 -7409 0
0 0 0 519 957709 -6890 0
0 0 0 516 958225 -6374 0
0 0 0 514 958739 -5860 0
0 0 0 511 959250 -5349 0
0 0 0 513 959763 -4836 0
0 0 0 524 960287 -4312 0
0 0 0 539 960826 -3773 0
0 0 0 571 961397 -3202 0
0 0 0 626 962023 -2576 0
48 1 S116 673 962696 -1903 0
48 1 S116 683 963379 -1220 1
48 1 S116 686 964065 -534 1
48 2 S116 647 964712 113 0
48 2 S116 625 965337 738 0
48 2 S116 628 965965 1366 0
48 2 S116 605 966570 1971 0
48 2 S116 594 967164 2565 0
48 2 S116 590 967754 3155 0
48 2 S116 585 968339 3740 0
48 2 S116 568 968907 4308 0
48 2 S116 552 969459 4860 0
48 2 S116 552 970011 5412 0
48 2 S116 556 970567 5968 0
48 2 S116 557 971124 6525 0
0 0 0 568 971692 -7131 0
0 0 0 589 972281 -6542 0
0 0 0 599 972880 -5943 0
0 0 0 585 973465 -5358 0
0 0 0 582 974047 -4776 0
0 0 0 591 974638 -4185 0
0 0 0 596 975234 -3589 0
0 0 0 607 975841 -2982 0
0 0 0 597 976438 -2385 0
49 1 S112 603 977041 -1782 0
49 1 S112 581 977622 -1201 0
49 1 S112 566 978188 -635 0
49 1 S112 563 978751 -72 0
49 2 S112 570 979321 498 0
49 2 S112 580 979901 1078 0
49 2 S112 603 980504 1681 0
49 2 S112 618 981122 2299 0
49 2 S112 619 981741 2918 0
49 2 S112 595 982336 3513 0
49 2 S112 591 982927 4104 0
49 2 S112 596 983523 4700 0
49 2 S112 603 984126 5303 0
49 2 S112 625 984751 5928 0
49 2 S112 624 985375 6552 0
0 0 0 596 985971 -11238 0
0 0 0 586 986557 -10652 0
0 0 0 600 987157 -10052 0
0 0 0 613 987770 -9439 0
0 0 0 615 988385 -8824 0
0 0 0 589 988974 -8235 0
0 0 0 570 989544 -7665 0
0 0 0 557 990101 -7108 0
0 0 0 556 990657 -6552 0
0 0 0 559 991216 -5993 0
0 0 0 566 991782 -5427 0
0 0 0 567 992349 -4860 0
0 0 0 576 992925 -4284 0
0 0 0 567 993492 -3717 0
0 0 0 557 994049 -3160 0
0 0 0 551 994600 -2609 0
0 0 0 560 995160 -2049 0
50 1 S106 579 995739 -1470 0
50 1 S106 593 996332 -877 0
50 1 S106 610 996942 -267 0
50 2 S106 602 997544 335 0
50 2 S106 595 998139 930 0
50 2 S106 599 998738 1529 0
50 2 S106 606 999344 2135 0
50 2 S106 612 999956 2747 0
50 2 S106 607 1000563 3354 0
50 2 S106 593 1001156 3947 0
50 2 S106 577 1001733 4524 0
50 2 S106 567 1002300 5091 0
50 2 S106 566 1002866 5657 0
50 2 S106 567 1003433 6224 0
50 2 S106 573 1004006 6797 0
0 0 0 586 1004592 -5913 0
0 0 0 580 1005172 -5333 0
0 0 0 573 1005745 -4760 0
0 0 0 565 1006310 -4195 0
0 0 0 559 1006869 -3636 0
0 0 0 575 1007444 -3061 0
0 0 0 585 1008029 -2476 0
51 1 S112 602 1008631 -1874 0
51 1 S112 614 1009245 -1260 0
51 1 S112 593 1009838 -667 0
51 1 S112 584 1010422 -83 0
51 2 S112 595 1011017 512 0
51 2 S112 605 1011622 1117 0
51 2 S112 616 1012238 1733 0
51 2 S112 605 1012843 2338 0
51 2 S112 590 1013433 2928 0
51 2 S112 565 1013998 3493 0
51 2 S112 559 1014557 4052 0
51 2 S112 565 1015122 4617 0
51 2 S112 574 1015696 5191 0
51 2 S112 579 1016275 5770 0
51 2 S112 597 1016872 6367 0
51 2 S112 589 1017461 6956 0
0 0 0 586 1018047 -6781 0
0 0 0 610 1018657 -6171 0
0 0 0 645 1019302 -5526 0
0 0 0 635 1019937 -4891 0
0 0 0 621 1020558 -4270 0
0 0 0 607 1021165 -3663 0
0 0 0 575 1021740 -3088 0
0 0 0 561 1022301 -2527 0
52 1 S116 558 1022859 -1969 0
52 1 S116 559 1023418 -1410 0
52 1 S116 559 1023977 -851 0
52 1 S116 553 1024530 -298 0
52 2 S116 541 1025071 243 0
52 2 S116 537 1025608 780 0
52 2 S116 546 1026154 1326 0
52 2 S116 560 1026714 1886 0
52 2 S116 575 1027289 2461 0
52 2 S116 614 1027903 3075 0
52 2 S116 623 1028526 3698 0
52 2 S116 653 1029179 4351 0
52 2 S116 628 1029807 4979 0
52 2 S116 606 1030413 5585 0
52 2 S116 595 1031008 6180 0
52 2 S116 601 1031609 6781 0
0 0 0 612 1032221 -7976 0
0 0 0 616 1032837 -7360 0
0 0 0 596 1033433 -6764 0
0 0 0 563 1033996 -6201 0
0 0 0 548 1034544 -5653 0
0 0 0 539 1035083 -5114 0
0 0 0 533 1035616 -4581 0
0 0 0 528 1036144 -4053 0
0 0 0 521 1036665 -3532 0
0 0 0 519 1037184 -3013 0
0 0 0 527 1037711 -2486 0
53 1 S106 530 1038241 -1956 0
53 1 S106 521 1038762 -1435 0
53 1 S106 520 1039282 -915 0
53 1 S106 518 1039800 -397 0
53 2 S106 530 1040330 133 0
53 2 S106 565 1040895 698 0
53 2 S106 637 1041532 1335 0
53 2 S106 666 1042198 2001 0
53 2 S106 686 1042884 2687 1
53 2 S106 643 1043527 3330 0
53 2 S106 651 1044178 3981 0
53 2 S106 664 1044842 4645 0
53 2 S106 669 1045511 5314 0
53 2 S106 665 1046176 5979 0
53 2 S106 602 1046778 6581 0
0 0 0 576 1047354 -6569 0
0 0 0 580 1047934 -5989 0
0 0 0 585 1048519 -5404 0
0 0 0 587 1049106 -4817 0
0 0 0 566 1049672 -4251 0
0 0 0 546 1050218 -3705 0
0 0 0 543 1050761 -3162 0
0 0 0 542 1051303 -2620 0
0 0 0 551 1051854 -2069 0
54 1 S102 555 1052409 -1514 0
54 1 S102 562 1052971 -952 0
54 1 S102 571 1053542 -381 0
54 2 S102 584 1054126 203 0
54 2 S102 563 1054689 766 0
54 2 S102 561 1055250 1327 0
54 2 S102 577 1055827 1904 0
54 2 S102 588 1056415 2492 0
54 2 S102 594 1057009 3086 0
54 2 S102 603 1057612 3689 0
54 2 S102 600 1058212 4289 0
54 2 S102 587 1058799 4876 0
54 2 S102 588 1059387 5464 0
54 2 S102 607 1059994 6071 0
54 2 S102 603 1060597 6674 0
0 0 0 607 1061204 -10773 0
0 0 0 583 1061787 -10190 0
0 0 0 591 1062378 -9599 0
0 0 0 584 1062962 -9015 0
0 0 0 561 1063523 -8454 0
0 0 0 572 1064095 -7882 0
0 0 0 580 1064675 -7302 0
0 0 0 581 1065256 -6721 0
0 0 0 576 1065832 -6145 0
0 0 0 568 1066400 -5577 0
0 0 0 562 1066962 -5015 0
0 0 0 544 1067506 -4471 0
0 0 0 536 1068042 -3935 0
0 0 0 528 1068570 -3407 0
0 0 0 524 1069094 -2883 0
0 0 0 530 1069624 -2353 0
55 1 S106 537 1070161 -1816 0
55 1 S106 541 1070702 -1275 0
55 1 S106 535 1071237 -740 0
55 1 S106 533 1071770 -207 0
55 2 S106 542 1072312 335 0
55 2 S106 555 1072867 890 0
55 2 S106 591 1073458 1481 0
55 2 S106 621 1074079 2102 0
55 2 S106 646 1074725 2748 0
55 2 S106 656 1075381 3404 0
55 2 S106 669 1076050 4073 0
55 2 S106 668 1076718 4741 0
55 2 S106 641 1077359 5382 0
55 2 S106 598 1077957 5980 0
55 2 S106 579 1078536 6559 0
0 0 0 579 1079115 -6788 0
0 0 0 588 1079703 -6200 0
0 0 0 607 1080310 -5593 0
0 0 0 612 1080922 -4981 0
0 0 0 603 1081525 -4378 0
0 0 0 579 1082104 -3799 0
0 0 0 566 1082670 -3233 0
0 0 0 564 1083234 -2669 0
0 0 0 553 1083787 -2116 0
56 1 S116 560 1084347 -1556 0
56 1 S116 556 1084903 -1000 0
56 1 S116 545 1085448 -455 0
56 2 S116 540 1085988 85 0
56 2 S116 547 1086535 632 0
56 2 S116 553 1087088 1185 0
56 2 S116 559 1087647 1744 0
56 2 S116 547 1088194 2291 0
56 2 S116 544 1088738 2835 0
56 2 S116 550 1089288 3385 0
56 2 S116 566 1089854 3951 0
56 2 S116 606 1090460 4557 0
56 2 S116 666 1091126 5223 0
56 2 S116 683 1091809 5906 1
56 2 S116 718 1092527 6624 1
0 0 0 692 1093219 -6776 1
0 0 0 649 1093868 -6127 0
0 0 0 617 1094485 -5510 0
0 0 0 602 1095087 -4908 0
0 0 0 570 1095657 -4338 0
0 0 0 567 1096224 -3771 0
0 0 0 568 1096792 -3203 0
0 0 0 568 1097360 -2635 0
0 0 0 571 1097931 -2064 0
57 1 S106 558 1098489 -1506 0
57 1 S106 548 1099037 -958 0
57 1 S106 558 1099595 -400 0
57 2 S106 567 1100162 167 0
57 2 S106 582 1100744 749 0
57 2 S106 590 1101334 1339 0
57 2 S106 585 1101919 1924 0
57 2 S106 575 1102494 2499 0
57 2 S106 569 1103063 3068 0
57 2 S106 568 1103631 3636 0
57 2 S106 576 1104207 4212 0
57 2 S106 582 1104789 4794 0
57 2 S106 570 1105359 5364 0
57 2 S106 558 1105917 5922 0
57 2 S106 563 1106480 6485 0
0 0 0 583 1107063 -9411 0
0 0 0 620 1107683 -8791 0
0 0 0 642 1108325 -8149 0
0 0 0 677 1109002 -7472 0
0 0 0 633 1109635 -6839 0
0 0 0 593 1110228 -6246 0
0 0 0 571 1110799 -5675 0
0 0 0 562 1111361 -5113 0
0 0 0 556 1111917 -4557 0
0 0 0 549 1112466 -4008 0
0 0 0 538 1113004 -3470 0
0 0 0 532 1113536 -2938 0
0 0 0 535 1114071 -2403 0
58 1 S102 539 1114610 -1864 0
58 1 S102 556 1115166 -1308 0
58 1 S102 566 1115732 -742 0
58 1 S102 558 1116290 -184 0
58 2 S102 547 1116837 363 0
58 2 S102 558 1117395 921 0
58 2 S102 575 1117970 1496 0
58 2 S102 596 1118566 2092 0
58 2 S102 612 1119178 2704 0
58 2 S102 617 1119795 3321 0
58 2 S102 593 1120388 3914 0
58 2 S102 580 1120968 4494 0
58 2 S102 587 1121555 5081 0
58 2 S102 591 1122146 5672 0
58 2 S102 597 1122743 6269 0
58 2 S102 605 1123348 6874 0
0 0 0 582 1123930 -6221 0
0 0 0 586 1124516 -5635 0
0 0 0 589 1125105 -5046 0
0 0 0 572 1125677 -4474 0
0 0 0 567 1126244 -3907 0
0 0 0 550 1126794 -3357 0
0 0 0 541 1127335 -2816 0
0 0 0 541 1127876 -2275 0
59 1 S112 550 1128426 -1725 0
59 1 S112 561 1128987 -1164 0
59 1 S112 558 1129545 -606 0
59 1 S112 553 1130098 -53 0
59 2 S112 555 1130653 502 0
59 2 S112 558 1131211 1060 0
59 2 S112 558 1131769 1618 0
59 2 S112 558 1132327 2176 0
59 2 S112 561 1132888 2737 0
59 2 S112 558 1133446 3295 0
59 2 S112 543 1133989 3838 0
59 2 S112 540 1134529 4378 0
59 2 S112 550 1135079 4928 0
59 2 S112 559 1135638 5487 0
59 2 S112 586 1136224 6073 0
59 2 S112 609 1136833 6682 0
0 0 0 601 1137434 -9047 0
0 0 0 572 1138006 -8475 0
0 0 0 575 1138581 -7900 0
0 0 0 593 1139174 -7307 0
0 0 0 587 1139761 -6720 0
0 0 0 576 1140337 -6144 0
0 0 0 568 1140905 -5576 0
0 0 0 543 1141448 -5033 0
0 0 0 536 1141984 -4497 0
0 0 0 527 1142511 -3970 0
0 0 0 532 1143043 -3438 0
0 0 0 539 1143582 -2899 0
0 0 0 545 1144127 -2354 0
60 1 S102 546 1144673 -1808 0
60 1 S102 548 1145221 -1260 0
60 1 S102 568 1145789 -692 0
60 1 S102 589 1146378 -103 0
60 2 S102 610 1146988 507 0
60 2 S102 627 1147615 1134 0
60 2 S102 627 1148242 1761 0
60 2 S102 640 1148882 2401 0
60 2 S102 600 1149482 3001 0
60 2 S102 572 1150054 3573 0
60 2 S102 561 1150615 4134 0
60 2 S102 572 1151187 4706 0
60 2 S102 585 1151772 5291 0
60 2 S102 581 1152353 5872 0
60 2 S102 578 1152931 6450 0
60 2 S102 558 1153489 7008 0
0 0 0 553 1154042 -10874 0
0 0 0 563 1154605 -10311 0
0 0 0 588 1155193 -9723 0
0 0 0 626 1155819 -9097 0
0 0 0 637 1156456 -8460 0
0 0 0 593 1157049 -7867 0
0 0 0 568 1157617 -7299 0
0 0 0 563 1158180 -6736 0
0 0 0 567 1158747 -6169 0
0 0 0 553 1159300 -5616 0
0 0 0 549 1159849 -5067 0
0 0 0 550 1160399 -4517 0
0 0 0 538 1160937 -3979 0
0 0 0 541 1161478 -3438 0
0 0 0 549 1162027 -2889 0
0 0 0 551 1162578 -2338 0
61 1 S106 547 1163125 -1791 0
61 1 S106 536 1163661 -1255 0
61 1 S106 543 1164204 -712 0
61 1 S106 556 1164760 -156 0
61 2 S106 575 1165335 419 0
61 2 S106 605 1165940 1024 0
61 2 S106 641 1166581 1665 0
61 2 S106 684 1167265 2349 1
61 2 S106 617 1167882 2966 0
61 2 S106 586 1168468 3552 0
61 2 S106 603 1169071 4155 0
61 2 S106 603 1169674 4758 0
61 2 S106 625 1170299 5383 0
61 2 S106 639 1170938 6022 0
61 2 S106 634 1171572 6656 0
0 0 0 593 1172165 -6958 0
0 0 0 581 1172746 -6377 0
0 0 0 584 1173330 -5793 0
0 0 0 597 1173927 -5196 0
0 0 0 588 1174515 -4608 0
0 0 0 567 1175082 -4041 0
0 0 0 550 1175632 -3491 0
0 0 0 548 1176180 -2943 0
0 0 0 552 1176732 -2391 0
62 1 S112 557 1177289 -1834 0
62 1 S112 573 1177862 -1261 0
62 1 S112 580 1178442 -681 0
62 1 S112 567 1179009 -114 0
62 2 S112 553 1179562 439 0
62 2 S112 563 1180125 1002 0
62 2 S112 576 1180701 1578 0
62 2 S112 588 1181289 2166 0
62 2 S112 605 1181894 2771 0
62 2 S112 584 1182478 3355 0
62 2 S112 573 1183051 3928 0
62 2 S112 581 1183632 4509 0
62 2 S112 584 1184216 5093 0
62 2 S112 600 1184816 5693 0
62 2 S112 598 1185414 6291 0
62 2 S112 582 1185996 6873 0
0 0 0 577 1186573 -10886 0
0 0 0 590 1187163 -10296 0
0 0 0 594 1187757 -9702 0
0 0 0 587 1188344 -9115 0
0 0 0 586 1188930 -8529 0
0 0 0 596 1189526 -7933 0
0 0 0 556 1190082 -7377 0
0 0 0 540 1190622 -6837 0
0 0 0 537 1191159 -6300 0
0 0 0 532 1191691 -5768 0
0 0 0 527 1192218 -5241 0
0 0 0 530 1192748 -4711 0
0 0 0 534 1193282 -4177 0
0 0 0 524 1193806 -3653 0
0 0 0 522 1194328 -3131 0
0 0 0 526 1194854 -2605 0
0 0 0 530 1195384 -2075 0
63 1 S102 546 1195930 -1529 0
63 1 S102 564 1196494 -965 0
63 1 S102 571 1197065 -394 0
63 2 S102 584 1197649 190 0
63 2 S102 578 1198227 768 0
63 2 S102 569 1198796 1337 0
63 2 S102 556 1199352 1893 0
63 2 S102 560 1199912 2453 0
63 2 S102 561 1200473 3014 0
63 2 S102 560 1201033 3574 0
63 2 S102 555 1201588 4129 0
63 2 S102 564 1202152 4693 0
63 2 S102 549 1202701 5242 0
63 2 S102 543 1203244 5785 0
63 2 S102 544 1203788 6329 0
63 2 S102 548 1204336 6877 0
0 0 0 544 1204880 -8262 0
0 0 0 555 1205435 -7707 0
0 0 0 566 1206001 -7141 0
0 0 0 548 1206549 -6593 0
0 0 0 538 1207087 -6055 0
0 0 0 544 1207631 -5511 0
0 0 0 538 1208169 -4973 0
0 0 0 537 1208706 -4436 0
0 0 0 532 1209238 -3904 0
0 0 0 521 1209759 -3383 0
0 0 0 520 1210279 -2863 0
0 0 0 519 1210798 -2344 0
64 1 S112 527 1211325 -1817 0
64 1 S112 547 1211872 -1270 0
64 1 S112 565 1212437 -705 0
64 1 S112 610 1213047 -95 0
64 2 S112 653 1213700 558 0
64 2 S112 580 1214280 1138 0
64 2 S112 575 1214855 1713 0
64 2 S112 576 1215431 2289 0
64 2 S112 572 1216003 2861 0
64 2 S112 579 1216582 3440 0
64 2 S112 581 1217163 4021 0
64 2 S112 595 1217758 4616 0
64 2 S112 596 1218354 5212 0
64 2 S112 595 1218949 5807 0
64 2 S112 603 1219552 6410 0
64 2 S112 585 1220137 6995 0
0 0 0 577 1220714 -5890 0
0 0 0 564 1221278 -5326 0
0 0 0 539 1221817 -4787 0
0 0 0 530 1222347 -4257 0
0 0 0 519 1222866 -3738 0
0 0 0 515 1223381 -3223 0
0 0 0 511 1223892 -2712 0
0 0 0 514 1224406 -2198 0
65 1 S106 531 1224937 -1667 0
65 1 S106 541 1225478 -1126 0
65 1 S106 600 1226078 -526 0
65 2 S106 652 1226730 126 0
65 2 S106 687 1227417 813 1
65 2 S106 714 1228131 1527 1
65 2 S106 709 1228840 2236 1
65 2 S106 642 1229482 2878 0
65 2 S106 625 1230107 3503 0
65 2 S106 619 1230726 4122 0
65 2 S106 585 1231311 4707 0
65 2 S106 574 1231885 5281 0
65 2 S106 566 1232451 5847 0
65 2 S106 547 1232998 6394 0
65 2 S106 543 1233541 6937 0
0 0 0 554 1234095 -6965 0
0 0 0 568 1234663 -6397 0
0 0 0 585 1235248 -5812 0
0 0 0 611 1235859 -5201 0
0 0 0 582 1236441 -4619 0
0 0 0 559 1237000 -4060 0
0 0 0 554 1237554 -3506 0
0 0 0 553 1238107 -2953 0
0 0 0 559 1238666 -2394 0
66 1 S116 574 1239240 -1820 0
66 1 S116 561 1239801 -1259 0
66 1 S116 539 1240340 -720 0
66 1 S116 537 1240877 -183 0
66 2 S116 542 1241419 359 0
66 2 S116 549 1241968 908 0
66 2 S116 577 1242545 1485 0
66 2 S116 602 1243147 2087 0
66 2 S116 602 1243749 2689 0
66 2 S116 590 1244339 3279 0
66 2 S116 605 1244944 3884 0
66 2 S116 610 1245554 4494 0
66 2 S116 600 1246154 5094 0
66 2 S116 599 1246753 5693 0
66 2 S116 586 1247339 6279 0
66 2 S116 572 1247911 6851 0
0 0 0 565 1248476 -11135 0
0 0 0 573 1249049 -10562 0
0 0 0 580 1249629 -9982 0
0 0 0 592 1250221 -9390 0
0 0 0 595 1250816 -8795 0
0 0 0 574 1251390 -8221 0
0 0 0 558 1251948 -7663 0
0 0 0 555 1252503 -7108 0
0 0 0 554 1253057 -6554 0
0 0 0 567 1253624 -5987 0
0 0 0 568 1254192 -5419 0
0 0 0 563 1254755 -4856 0
0 0 0 540 1255295 -4316 0
0 0 0 544 1255839 -3772 0
0 0 0 547 1256386 -3225 0
0 0 0 559 1256945 -2666 0
0 0 0 573 1257518 -2093 0
67 1 S102 577 1258095 -1516 0
67 1 S102 607 1258702 -909 0
67 1 S102 597 1259299 -312 0
67 2 S102 584 1259883 272 0
67 2 S102 574 1260457 846 0
67 2 S102 596 1261053 1442 0
67 2 S102 599 1261652 2041 0
67 2 S102 609 1262261 2650 0
67 2 S102 589 1262850 3239 0
67 2 S102 565 1263415 3804 0
67 2 S102 563 1263978 4367 0
67 2 S102 568 1264546 4935 0
67 2 S102 573 1265119 5508 0
67 2 S102 575 1265694 6083 0
67 2 S102 586 1266280 6669 0
0 0 0 570 1266850 -7234 0
0 0 0 573 1267423 -6661 0
0 0 0 582 1268005 -6079 0
0 0 0 583 1268588 -5496 0
0 0 0 573 1269161 -4923 0
0 0 0 553 1269714 -4370 0
0 0 0 536 1270250 -3834 0
0 0 0 530 1270780 -3304 0
0 0 0 524 1271304 -2780 0
0 0 0 518 1271822 -2262 0
68 1 S106 521 1272343 -1741 0
68 1 S106 524 1272867 -1217 0
68 1 S106 522 1273389 -695 0
68 1 S106 555 1273944 -140 0
68 2 S106 571 1274515 431 0
68 2 S106 604 1275119 1035 0
68 2 S106 614 1275733 1649 0
68 2 S106 587 1276320 2236 0
68 2 S106 576 1276896 2812 0
68 2 S106 573 1277469 3385 0
68 2 S106 572 1278041 3957 0
68 2 S106 572 1278613 4529 0
68 2 S106 559 1279172 5088 0
68 2 S106 537 1279709 5625 0
68 2 S106 528 1280237 6153 0
68 2 S106 526 1280763 6679 0
0 0 0 522 1281285 -11185 0
0 0 0 529 1281814 -10656 0
0 0 0 534 1282348 -10122 0
0 0 0 529 1282877 -9593 0
0 0 0 515 1283392 -9078 0
0 0 0 519 1283911 -8559 0
0 0 0 513 1284424 -8046 0
0 0 0 508 1284932 -7538 0
0 0 0 513 1285445 -7025 0
0 0 0 521 1285966 -6504 0
0 0 0 528 1286494 -5976 0
0 0 0 532 1287026 -5444 0
0 0 0 525 1287551 -4919 0
0 0 0 517 1288068 -4402 0
0 0 0 518 1288586 -3884 0
0 0 0 518 1289104 -3366 0
0 0 0 534 1289638 -2832 0
0 0 0 539 1290177 -2293 0
69 1 S102 556 1290733 -1737 0
69 1 S102 547 1291280 -1190 0
69 1 S102 544 1291824 -646 0
69 1 S102 532 1292356 -114 0
69 2 S102 525 1292881 411 0
69 2 S102 520 1293401 931 0
69 2 S102 525 1293926 1456 0
69 2 S102 532 1294458 1988 0
69 2 S102 536 1294994 2524 0
69 2 S102 543 1295537 3067 0
69 2 S102 543 1296080 3610 0
69 2 S102 547 1296627 4157 0
69 2 S102 530 1297157 4687 0
69 2 S102 525 1297682 5212 0
69 2 S102 521 1298203 5733 0
69 2 S102 522 1298725 6255 0
69 2 S102 524 1299249 6779 0
0 0 0 529 1299778 -8773 0
0 0 0 527 1300305 -8246 0
0 0 0 544 1300849 -7702 0
0 0 0 546 1301395 -7156 0
0 0 0 524 1301919 -6632 0
0 0 0 518 1302437 -6114 0
0 0 0 517 1302954 -5597 0
0 0 0 515 1303469 -5082 0
0 0 0 509 1303978 -4573 0
0 0 0 506 1304484 -4067 0
0 0 0 508 1304992 -3559 0
0 0 0 511 1305503 -3048 0
0 0 0 508 1306011 -2540 0
0 0 0 503 1306514 -2037 0
70 1 S112 500 1307014 -1537 0
70 1 S112 501 1307515 -1036 0
70 1 S112 513 1308028 -523 0
70 2 S112 530 1308558 7 0
70 2 S112 545 1309103 552 0
70 2 S112 583 1309686 1135 0
70 2 S112 594 1310280 1729 0
70 2 S112 558 1310838 2287 0
70 2 S112 555 1311393 2842 0
70 2 S112 557 1311950 3399 0
70 2 S112 583 1312533 3982 0
70 2 S112 597 1313130 4579 0
70 2 S112 600 1313730 5179 0
70 2 S112 579 1314309 5758 0
70 2 S112 558 1314867 6316 0
70 2 S112 547 1315414 6863 0
0 0 0 553 1315967 -11118 0
0 0 0 568 1316535 -10550 0
0 0 0 596 1317131 -9954 0
0 0 0 600 1317731 -9354 0
0 0 0 582 1318313 -8772 0
0 0 0 563 1318876 -8209 0
0 0 0 545 1319421 -7664 0
0 0 0 543 1319964 -7121 0
0 0 0 539 1320503 -6582 0
0 0 0 567 1321070 -6015 0
0 0 0 581 1321651 -5434 0
0 0 0 609 1322260 -4825 0
0 0 0 572 1322832 -4253 0
0 0 0 565 1323397 -3688 0
0 0 0 575 1323972 -3113 0
0 0 0 581 1324553 -2532 0
71 1 S116 601 1325154 -1931 0
71 1 S116 589 1325743 -1342 0
71 1 S116 573 1326316 -769 0
71 1 S116 544 1326860 -225 0
71 2 S116 540 1327400 315 0
71 2 S116 539 1327939 854 0
71 2 S116 553 1328492 1407 0
71 2 S116 570 1329062 1977 0
71 2 S116 593 1329655 2570 0
71 2 S116 594 1330249 3164 0
71 2 S116 576 1330825 3740 0
71 2 S116 584 1331409 4324 0
71 2 S116 593 1332002 4917 0
71 2 S116 610 1332612 5527 0
71 2 S116 628 1333240 6155 0
71 2 S116 613 1333853 6768 0
0 0 0 586 1334439 -9540 0
0 0 0 579 1335018 -8961 0
0 0 0 581 1335599 -8380 0
0 0 0 593 1336192 -7787 0
0 0 0 628 1336820 -7159 0
0 0 0 595 1337415 -6564 0
0 0 0 560 1337975 -6004 0
0 0 0 547 1338522 -5457 0
0 0 0 543 1339065 -4914 0
0 0 0 542 1339607 -4372 0
0 0 0 544 1340151 -3828 0
0 0 0 547 1340698 -3281 0
0 0 0 538 1341236 -2743 0
0 0 0 545 1341781 -2198 0
72 1 S102 567 1342348 -1631 0
72 1 S102 592 1342940 -1039 0
72 1 S102 648 1343588 -391 0
72 2 S102 656 1344244 265 0
72 2 S102 618 1344862 883 0
72 2 S102 599 1345461 1482 0
72 2 S102 608 1346069 2090 0
72 2 S102 594 1346663 2684 0
72 2 S102 579 1347242 3263 0
72 2 S102 559 1347801 3822 0
72 2 S102 551 1348352 4373 0
72 2 S102 538 1348890 4911 0
72 2 S102 539 1349429 5450 0
72 2 S102 545 1349974 5995 0
72 2 S102 555 1350529 6550 0
0 0 0 570 1351099 -7104 0
0 0 0 587 1351686 -6517 0
0 0 0 602 1352288 -5915 0
0 0 0 587 1352875 -5328 0
0 0 0 561 1353436 -4767 0
0 0 0 551 1353987 -4216 0
0 0 0 551 1354538 -3665 0
0 0 0 560 1355098 -3105 0
0 0 0 571 1355669 -2534 0
73 1 S116 587 1356256 -1947 0
73 1 S116 568 1356824 -1379 0
73 1 S116 560 1357384 -819 0
73 1 S116 553 1357937 -266 0
73 2 S116 541 1358478 275 0
73 2 S116 526 1359004 801 0
73 2 S116 519 1359523 1320 0
73 2 S116 514 1360037 1834 0
73 2 S116 513 1360550 2347 0
73 2 S116 522 1361072 2869 0
73 2 S116 540 1361612 3409 0
73 2 S116 558 1362170 3967 0
73 2 S116 543 1362713 4510 0
73 2 S116 542 1363255 5052 0
73 2 S116 544 1363799 5596 0
73 2 S116 558 1364357 6154 0
73 2 S116 575 1364932 6729 0
0 0 0 584 1365516 -9017 0
0 0 0 582 1366098 -8435 0
0 0 0 568 1366666 -7867 0
0 0 0 569 1367235 -7298 0
0 0 0 579 1367814 -6719 0
0 0 0 566 1368380 -6153 0
0 0 0 561 1368941 -5592 0
0 0 0 538 1369479 -5054 0
0 0 0 528 1370007 -4526 0
0 0 0 524 1370531 -4002 0
0 0 0 516 1371047 -3486 0
0 0 0 510 1371557 -2976 0
0 0 0 507 1372064 -2469 0
74 1 S106 513 1372577 -1956 0
74 1 S106 532 1373109 -1424 0
74 1 S106 544 1373653 -880 0
74 1 S106 553 1374206 -327 0
74 2 S106 564 1374770 237 0
74 2 S106 567 1375337 804 0
74 2 S106 545 1375882 1349 0
74 2 S106 555 1376437 1904 0
74 2 S106 565 1377002 2469 0
74 2 S106 578 1377580 3047 0
74 2 S106 584 1378164 3631 0
74 2 S106 593 1378757 4224 0
74 2 S106 590 1379347 4814 0
74 2 S106 593 1379940 5407 0
74 2 S106 558 1380498 5965 0
74 2 S106 557 1381055 6522 0
0 0 0 564 1381619 -7105 0
0 0 0 566 1382185 -6539 0
0 0 0 568 1382753 -5971 0
0 0 0 584 1383337 -5387 0
0 0 0 558 1383895 -4829 0
0 0 0 542 1384437 -4287 0
0 0 0 543 1384980 -3744 0
0 0 0 561 1385541 -3183 0
0 0 0 575 1386116 -2608 0
0 0 0 588 1386704 -2020 0
75 1 S112 561 1387265 -1459 0
75 1 S112 548 1387813 -911 0
75 1 S112 542 1388355 -369 0
75 2 S112 542 1388897 173 0
75 2 S112 544 1389441 717 0
75 2 S112 565 1390006 1282 0
75 2 S112 579 1390585 1861 0
75 2 S112 570 1391155 2431 0
75 2 S112 561 1391716 2992 0
75 2 S112 553 1392269 3545 0
75 2 S112 572 1392841 4117 0
75 2 S112 586 1393427 4703 0
75 2 S112 595 1394022 5298 0
75 2 S112 603 1394625 5901 0
75 2 S112 597 1395222 6498 0
0 0 0 569 1395791 -7058 0
0 0 0 547 1396338 -6511 0
0 0 0 542 1396880 -5969 0
0 0 0 553 1397433 -5416 0
0 0 0 559 1397992 -4857 0
0 0 0 565 1398557 -4292 0
0 0 0 569 1399126 -3723 0
0 0 0 544 1399670 -3179 0
0 0 0 537 1400207 -2642 0
0 0 0 531 1400738 -2111 0
76 1 S116 534 1401272 -1577 0
76 1 S116 564 1401836 -1013 0
76 1 S116 556 1402392 -457 0
76 2 S116 552 1402944 95 0
76 2 S116 556 1403500 651 0
76 2 S116 575 1404075 1226 0
76 2 S116 575 1404650 1801 0
76 2 S116 606 1405256 2407 0
76 2 S116 617 1405873 3024 0
76 2 S116 600 1406473 3624 0
76 2 S116 584 1407057 4208 0
76 2 S116 585 1407642 4793 0
76 2 S116 594 1408236 5387 0
76 2 S116 606 1408842 5993 0
76 2 S116 621 1409463 6614 0
0 0 0 631 1410094 -6697 0
0 0 0 595 1410689 -6102 0
0 0 0 585 1411274 -5517 0
0 0 0 566 1411840 -4951 0
0 0 0 548 1412388 -4403 0
0 0 0 546 1412934 -3857 0
0 0 0 543 1413477 -3314 0
0 0 0 531 1414008 -2783 0
0 0 0 532 1414540 -2251 0
77 1 S106 516 1415056 -1735 0
77 1 S106 516 1415572 -1219 0
77 1 S106 516 1416088 -703 0
77 1 S106 517 1416605 -186 0
77 2 S106 534 1417139 348 0
77 2 S106 577 1417716 925 0
77 2 S106 640 1418356 1565 0
77 2 S106 696 1419052 2261 1
77 2 S106 659 1419711 2920 0
77 2 S106 632 1420343 3552 0
77 2 S106 601 1420944 4153 0
77 2 S106 581 1421525 4734 0
77 2 S106 596 1422121 5330 0
77 2 S106 595 1422716 5925 0
77 2 S106 587 1423303 6512 0
0 0 0 588 1423891 -8633 0
0 0 0 571 1424462 -8062 0
0 0 0 566 1425028 -7496 0
0 0 0 560 1425588 -6936 0
0 0 0 559 1426147 -6377 0
0 0 0 558 1426705 -5819 0
0 0 0 556 1427261 -5263 0
0 0 0 556 1427817 -4707 0
0 0 0 547 1428364 -4160 0
0 0 0 543 1428907 -3617 0
0 0 0 547 1429454 -3070 0
0 0 0 555 1430009 -2515 0
78 1 S112 570 1430579 -1945 0
78 1 S112 590 1431169 -1355 0
78 1 S112 613 1431782 -742 0
78 1 S112 579 1432361 -163 0
78 2 S112 567 1432928 404 0
78 2 S112 576 1433504 980 0
78 2 S112 591 1434095 1571 0
78 2 S112 606 1434701 2177 0
78 2 S112 616 1435317 2793 0
78 2 S112 629 1435946 3422 0
78 2 S112 599 1436545 4021 0
78 2 S112 578 1437123 4599 0
78 2 S112 568 1437691 5167 0
78 2 S112 580 1438271 5747 0
78 2 S112 599 1438870 6346 0
78 2 S112 626 1439496 6972 0
0 0 0 665 1440161 -11146 0
0 0 0 743 1440904 -10403 1
0 0 0 670 1441574 -9733 0
0 0 0 656 1442230 -9077 0
0 0 0 609 1442839 -8468 0
0 0 0 570 1443409 -7898 0
0 0 0 562 1443971 -7336 0
0 0 0 566 1444537 -6770 0
0 0 0 561 1445098 -6209 0
0 0 0 561 1445659 -5648 0
0 0 0 563 1446222 -5085 0
0 0 0 566 1446788 -4519 0
0 0 0 555 1447343 -3964 0
0 0 0 537 1447880 -3427 0
0 0 0 535 1448415 -2892 0
0 0 0 539 1448954 -2353 0
79 1 S102 558 1449512 -1795 0
79 1 S102 586 1450098 -1209 0
79 1 S102 620 1450718 -589 0
79 2 S102 593 1451311 4 0
79 2 S102 587 1451898 591 0
79 2 S102 600 1452498 1191 0
79 2 S102 629 1453127 1820 0
79 2 S102 637 1453764 2457 0
79 2 S102 635 1454399 3092 0
79 2 S102 625 1455024 3717 0
79 2 S102 606 1455630 4323 0
79 2 S102 585 1456215 4908 0
79 2 S102 594 1456809 5502 0
79 2 S102 574 1457383 6076 0
79 2 S102 575 1457958 6651 0
0 0 0 566 1458524 -9610 0
0 0 0 553 1459077 -9057 0
0 0 0 551 1459628 -8506 0
0 0 0 562 1460190 -7944 0
0 0 0 604 1460794 -7340 0
0 0 0 607 1461401 -6733 0
0 0 0 604 1462005 -6129 0
0 0 0 565 1462570 -5564 0
0 0 0 545 1463115 -5019 0
0 0 0 538 1463653 -4481 0
0 0 0 535 1464188 -3946 0
0 0 0 540 1464728 -3406 0
0 0 0 535 1465263 -2871 0
0 0 0 531 1465794 -2340 0
80 1 S116 546 1466340 -1794 0
80 1 S116 557 1466897 -1237 0
80 1 S116 553 1467450 -684 0
80 1 S116 537 1467987 -147 0
80 2 S116 529 1468516 382 0
80 2 S116 525 1469041 907 0
80 2 S116 535 1469576 1442 0
80 2 S116 544 1470120 1986 0
80 2 S116 555 1470675 2541 0
80 2 S116 570 1471245 3111 0
80 2 S116 592 1471837 3703 0
80 2 S116 588 1472425 4291 0
80 2 S116 566 1472991 4857 0
80 2 S116 561 1473552 5418 0
80 2 S116 564 1474116 5982 0
80 2 S116 565 1474681 6547 0
