T_0006
BeatCount Mean SD BeatCountNoOutliers MeanNoOutliers SDNoOutliers
2238 696,561662198391 49,0781764893267 2201 696,586551567469 45,8865256782395

Trial TrialStatus Trialtype IBI AbsPosition RelPosition Outlier
0 0 0 761 1204 -17998 0
0 0 0 719 1923 -17279 0
0 0 0 697 2620 -16582 0
0 0 0 691 3311 -15891 0
0 0 0 671 3982 -15220 0
0 0 0 671 4653 -14549 0
0 0 0 670 5323 -13879 0
0 0 0 676 5999 -13203 0
0 0 0 677 6676 -12526 0
0 0 0 651 7327 -11875 0
0 0 0 609 7936 -11266 0
0 0 0 608 8544 -10658 0
0 0 0 627 9171 -10031 0
0 0 0 730 9901 -9301 0
0 0 0 807 10708 -8494 0
0 0 0 836 11544 -7658 1
0 0 0 809 12353 -6849 0
0 0 0 765 13118 -6084 0
0 0 0 765 13883 -5319 0
0 0 0 765 14648 -4554 0
0 0 0 768 15416 -3786 0
0 0 0 769 16185 -3017 0
0 0 0 803 16988 -2214 0
1 1 S112 756 17744 -1458 0
1 1 S112 708 18452 -750 0
1 1 S112 708 19160 -42 0
1 2 S112 721 19881 679 0
1 2 S112 697 20578 1376 0
1 2 S112 678 21256 2054 0
1 2 S112 663 21919 2717 0
1 2 S112 683 22602 3400 0
1 2 S112 724 23326 4124 0
1 2 S112 775 24101 4899 0
1 2 S112 763 24864 5662 0
1 2 S112 732 25596 6394 0
0 0 0 745 26341 -11429 0
0 0 0 760 27101 -10669 0
0 0 0 731 27832 -9938 0
0 0 0 705 28537 -9233 0
0 0 0 709 29246 -8524 0
0 0 0 710 29956 -7814 0
0 0 0 720 30676 -7094 0
0 0 0 707 31383 -6387 0
0 0 0 675 32058 -5712 0
0 0 0 666 32724 -5046 0
0 0 0 675 33399 -4371 0
0 0 0 687 34086 -3684 0
0 0 0 673 34759 -3011 0
0 0 0 665 35424 -2346 0
2 1 S102 669 36093 -1677 0
2 1 S102 662 36755 -1015 0
2 1 S102 673 37428 -342 0
2 2 S102 667 38095 325 0
2 2 S102 659 38754 984 0
2 2 S102 668 39422 1652 0
2 2 S102 688 40110 2340 0
2 2 S102 703 40813 3043 0
2 2 S102 703 41516 3746 0
2 2 S102 696 42212 4442 0
2 2 S102 695 42907 5137 0
2 2 S102 707 43614 5844 0
2 2 S102 712 44326 6556 0
0 0 0 729 45055 -9111 0
0 0 0 715 45770 -8396 0
0 0 0 709 46479 -7687 0
0 0 0 738 47217 -6949 0
0 0 0 704 47921 -6245 0
0 0 0 700 48621 -5545 0
0 0 0 680 49301 -4865 0
0 0 0 662 49963 -4203 0
0 0 0 670 50633 -3533 0
0 0 0 679 51312 -2854 0
0 0 0 685 51997 -2169 0
3 1 S116 712 52709 -1457 0
3 1 S116 689 53398 -768 0
3 1 S116 682 54080 -86 0
3 2 S116 690 54770 604 0
3 2 S116 689 55459 1293 0
3 2 S116 708 56167 2001 0
3 2 S116 706 56873 2707 0
3 2 S116 715 57588 3422 0
3 2 S116 723 58311 4145 0
3 2 S116 721 59032 4866 0
3 2 S116 716 59748 5582 0
3 2 S116 711 60459 6293 0
3 2 S116 717 61176 7010 0
0 0 0 722 61898 -11250 0
0 0 0 714 62612 -10536 0
0 0 0 703 63315 -9833 0
0 0 0 705 64020 -9128 0
0 0 0 708 64728 -8420 0
0 0 0 707 65435 -7713 0
0 0 0 719 66154 -6994 0
0 0 0 703 66857 -6291 0
0 0 0 680 67537 -5611 0
0 0 0 676 68213 -4935 0
0 0 0 672 68885 -4263 0
0 0 0 669 69554 -3594 0
0 0 0 649 70203 -2945 0
0 0 0 628 70831 -2317 0
4 1 S106 645 71476 -1672 0
4 1 S106 655 72131 -1017 0
4 1 S106 674 72805 -343 0
4 2 S106 704 73509 361 0
4 2 S106 750 74259 1111 0
4 2 S106 754 75013 1865 0
4 2 S106 731 75744 2596 0
4 2 S106 719 76463 3315 0
4 2 S106 702 77165 4017 0
4 2 S106 691 77856 4708 0
4 2 S106 680 78536 5388 0
4 2 S106 676 79212 6064 0
4 2 S106 682 79894 6746 0
0 0 0 693 80587 -7531 0
0 0 0 716 81303 -6815 0
0 0 0 767 82070 -6048 0
0 0 0 790 82860 -5258 0
0 0 0 793 83653 -4465 0
0 0 0 757 84410 -3708 0
0 0 0 706 85116 -3002 0
0 0 0 688 85804 -2314 0
5 1 S116 665 86469 -1649 0
5 1 S116 659 87128 -990 0
5 1 S116 657 87785 -333 0
5 2 S116 633 88418 300 0
5 2 S116 630 89048 930 0
5 2 S116 646 89694 1576 0
5 2 S116 676 90370 2252 0
5 2 S116 726 91096 2978 0
5 2 S116 743 91839 3721 0
5 2 S116 768 92607 4489 0
5 2 S116 763 93370 5252 0
5 2 S116 724 94094 5976 0
5 2 S116 716 94810 6692 0
0 0 0 700 95510 -9336 0
0 0 0 701 96211 -8635 0
0 0 0 721 96932 -7914 0
0 0 0 720 97652 -7194 0
0 0 0 709 98361 -6485 0
0 0 0 670 99031 -5815 0
0 0 0 648 99679 -5167 0
0 0 0 636 100315 -4531 0
0 0 0 645 100960 -3886 0
0 0 0 669 101629 -3217 0
0 0 0 714 102343 -2503 0
6 1 S106 734 103077 -1769 0
6 1 S106 707 103784 -1062 0
6 1 S106 681 104465 -381 0
6 2 S106 671 105136 290 0
6 2 S106 678 105814 968 0
6 2 S106 719 106533 1687 0
6 2 S106 728 107261 2415 0
6 2 S106 707 107968 3122 0
6 2 S106 716 108684 3838 0
6 2 S106 720 109404 4558 0
6 2 S106 721 110125 5279 0
6 2 S106 707 110832 5986 0
6 2 S106 685 111517 6671 0
0 0 0 684 112201 -11726 0
0 0 0 694 112895 -11032 0
0 0 0 710 113605 -10322 0
0 0 0 744 114349 -9578 0
0 0 0 766 115115 -8812 0
0 0 0 725 115840 -8087 0
0 0 0 678 116518 -7409 0
0 0 0 643 117161 -6766 0
0 0 0 601 117762 -6165 0
0 0 0 582 118344 -5583 0
0 0 0 567 118911 -5016 1
0 0 0 589 119500 -4427 0
0 0 0 669 120169 -3758 0
0 0 0 756 120925 -3002 0
0 0 0 757 121682 -2245 0
7 1 S102 756 122438 -1489 0
7 1 S102 697 123135 -792 0
7 1 S102 672 123807 -120 0
7 2 S102 686 124493 566 0
7 2 S102 715 125208 1281 0
7 2 S102 731 125939 2012 0
7 2 S102 697 126636 2709 0
7 2 S102 707 127343 3416 0
7 2 S102 723 128066 4139 0
7 2 S102 732 128798 4871 0
7 2 S102 747 129545 5618 0
7 2 S102 722 130267 6340 0
0 0 0 704 130971 -9087 0
0 0 0 715 131686 -8372 0
0 0 0 737 132423 -7635 0
0 0 0 742 133165 -6893 0
0 0 0 735 133900 -6158 0
0 0 0 696 134596 -5462 0
0 0 0 688 135284 -4774 0
0 0 0 687 135971 -4087 0
0 0 0 707 136678 -3380 0
0 0 0 719 137397 -2661 0
8 1 S112 686 138083 -1975 0
8 1 S112 652 138735 -1323 0
8 1 S112 629 139364 -694 0
8 1 S112 628 139992 -66 0
8 2 S112 661 140653 595 0
8 2 S112 754 141407 1349 0
8 2 S112 737 142144 2086 0
8 2 S112 712 142856 2798 0
8 2 S112 693 143549 3491 0
8 2 S112 717 144266 4208 0
8 2 S112 716 144982 4924 0
8 2 S112 709 145691 5633 0
8 2 S112 689 146380 6322 0
8 2 S112 660 147040 6982 0
0 0 0 666 147706 -7041 0
0 0 0 678 148384 -6363 0
0 0 0 698 149082 -5665 0
0 0 0 721 149803 -4944 0
0 0 0 689 150492 -4255 0
0 0 0 645 151137 -3610 0
0 0 0 630 151767 -2980 0
0 0 0 630 152397 -2350 0
9 1 S116 634 153031 -1716 0
9 1 S116 652 153683 -1064 0
9 1 S116 648 154331 -416 0
9 2 S116 647 154978 231 0
9 2 S116 678 155656 909 0
9 2 S116 739 156395 1648 0
9 2 S116 761 157156 2409 0
9 2 S116 783 157939 3192 0
9 2 S116 791 158730 3983 0
9 2 S116 767 159497 4750 0
9 2 S116 713 160210 5463 0
9 2 S116 693 160903 6156 0
9 2 S116 693 161596 6849 0
0 0 0 702 162298 -11746 0
0 0 0 743 163041 -11003 0
0 0 0 750 163791 -10253 0
0 0 0 752 164543 -9501 0
0 0 0 734 165277 -8767 0
0 0 0 732 166009 -8035 0
0 0 0 721 166730 -7314 0
0 0 0 709 167439 -6605 0
0 0 0 667 168106 -5938 0
0 0 0 669 168775 -5269 0
0 0 0 660 169435 -4609 0
0 0 0 668 170103 -3941 0
0 0 0 670 170773 -3271 0
0 0 0 646 171419 -2625 0
10 1 S102 628 172047 -1997 0
10 1 S102 639 172686 -1358 0
10 1 S102 669 173355 -689 0
10 2 S102 722 174077 33 0
10 2 S102 750 174827 783 0
10 2 S102 740 175567 1523 0
10 2 S102 744 176311 2267 0
10 2 S102 744 177055 3011 0
10 2 S102 739 177794 3750 0
10 2 S102 709 178503 4459 0
10 2 S102 673 179176 5132 0
10 2 S102 674 179850 5806 0
10 2 S102 691 180541 6497 0
0 0 0 716 181257 -12532 0
0 0 0 746 182003 -11786 0
0 0 0 719 182722 -11067 0
0 0 0 725 183447 -10342 0
0 0 0 761 184208 -9581 0
0 0 0 776 184984 -8805 0
0 0 0 752 185736 -8053 0
0 0 0 709 186445 -7344 0
0 0 0 685 187130 -6659 0
0 0 0 677 187807 -5982 0
0 0 0 680 188487 -5302 0
0 0 0 675 189162 -4627 0
0 0 0 669 189831 -3958 0
0 0 0 654 190485 -3304 0
0 0 0 668 191153 -2636 0
11 1 S112 674 191827 -1962 0
11 1 S112 698 192525 -1264 0
11 1 S112 702 193227 -562 0
11 2 S112 675 193902 113 0
11 2 S112 666 194568 779 0
11 2 S112 703 195271 1482 0
11 2 S112 727 195998 2209 0
11 2 S112 750 196748 2959 0
11 2 S112 744 197492 3703 0
11 2 S112 706 198198 4409 0
11 2 S112 702 198900 5111 0
11 2 S112 707 199607 5818 0
11 2 S112 718 200325 6536 0
0 0 0 730 201055 -8500 0
0 0 0 707 201762 -7793 0
0 0 0 705 202467 -7088 0
0 0 0 709 203176 -6379 0
0 0 0 728 203904 -5651 0
0 0 0 750 204654 -4901 0
0 0 0 715 205369 -4186 0
0 0 0 673 206042 -3513 0
0 0 0 653 206695 -2860 0
0 0 0 655 207350 -2205 0
12 1 S116 662 208012 -1543 0
12 1 S116 671 208683 -872 0
12 1 S116 659 209342 -213 0
12 2 S116 654 209996 441 0
12 2 S116 674 210670 1115 0
12 2 S116 702 211372 1817 0
12 2 S116 725 212097 2542 0
12 2 S116 732 212829 3274 0
12 2 S116 716 213545 3990 0
12 2 S116 692 214237 4682 0
12 2 S116 676 214913 5358 0
12 2 S116 681 215594 6039 0
12 2 S116 686 216280 6725 0
0 0 0 688 216968 -12282 0
0 0 0 678 217646 -11604 0
0 0 0 694 218340 -10910 0
0 0 0 718 219058 -10192 0
0 0 0 731 219789 -9461 0
0 0 0 739 220528 -8722 0
0 0 0 705 221233 -8017 0
0 0 0 666 221899 -7351 0
0 0 0 645 222544 -6706 0
0 0 0 634 223178 -6072 0
0 0 0 648 223826 -5424 0
0 0 0 688 224514 -4736 0
0 0 0 684 225198 -4052 0
0 0 0 657 225855 -3395 0
0 0 0 654 226509 -2741 0
0 0 0 678 227187 -2063 0
13 1 S112 716 227903 -1347 0
13 1 S112 730 228633 -617 0
13 2 S112 708 229341 91 0
13 2 S112 682 230023 773 0
13 2 S112 713 230736 1486 0
13 2 S112 740 231476 2226 0
13 2 S112 768 232244 2994 0
13 2 S112 750 232994 3744 0
13 2 S112 707 233701 4451 0
13 2 S112 690 234391 5141 0
13 2 S112 689 235080 5830 0
13 2 S112 684 235764 6514 0
0 0 0 694 236458 -12354 0
0 0 0 690 237148 -11664 0
0 0 0 722 237870 -10942 0
0 0 0 745 238615 -10197 0
0 0 0 764 239379 -9433 0
0 0 0 761 240140 -8672 0
0 0 0 715 240855 -7957 0
0 0 0 689 241544 -7268 0
0 0 0 687 242231 -6581 0
0 0 0 682 242913 -5899 0
0 0 0 697 243610 -5202 0
0 0 0 669 244279 -4533 0
0 0 0 673 244952 -3860 0
0 0 0 677 245629 -3183 0
0 0 0 692 246321 -2491 0
14 1 S106 713 247034 -1778 0
14 1 S106 691 247725 -1087 0
14 1 S106 688 248413 -399 0
14 2 S106 695 249108 296 0
14 2 S106 706 249814 1002 0
14 2 S106 732 250546 1734 0
14 2 S106 712 251258 2446 0
14 2 S106 687 251945 3133 0
14 2 S106 691 252636 3824 0
14 2 S106 698 253334 4522 0
14 2 S106 705 254039 5227 0
14 2 S106 704 254743 5931 0
14 2 S106 701 255444 6632 0
0 0 0 684 256128 -11783 0
0 0 0 682 256810 -11101 0
0 0 0 699 257509 -10402 0
0 0 0 735 258244 -9667 0
0 0 0 763 259007 -8904 0
0 0 0 744 259751 -8160 0
0 0 0 688 260439 -7472 0
0 0 0 677 261116 -6795 0
0 0 0 666 261782 -6129 0
0 0 0 652 262434 -5477 0
0 0 0 647 263081 -4830 0
0 0 0 635 263716 -4195 0
0 0 0 634 264350 -3561 0
0 0 0 641 264991 -2920 0
0 0 0 663 265654 -2257 0
15 1 S116 704 266358 -1553 0
15 1 S116 699 267057 -854 0
15 1 S116 675 267732 -179 0
15 2 S116 670 268402 491 0
15 2 S116 694 269096 1185 0
15 2 S116 727 269823 1912 0
15 2 S116 736 270559 2648 0
15 2 S116 755 271314 3403 0
15 2 S116 709 272023 4112 0
15 2 S116 698 272721 4810 0
15 2 S116 690 273411 5500 0
15 2 S116 680 274091 6180 0
15 2 S116 666 274757 6846 0
0 0 0 651 275408 -9910 0
0 0 0 676 276084 -9234 0
0 0 0 683 276767 -8551 0
0 0 0 722 277489 -7829 0
0 0 0 752 278241 -7077 0
0 0 0 730 278971 -6347 0
0 0 0 661 279632 -5686 0
0 0 0 631 280263 -5055 0
0 0 0 622 280885 -4433 0
0 0 0 621 281506 -3812 0
0 0 0 634 282140 -3178 0
0 0 0 618 282758 -2560 0
16 1 S116 623 283381 -1937 0
16 1 S116 608 283989 -1329 0
16 1 S116 585 284574 -744 0
16 1 S116 600 285174 -144 0
16 2 S116 649 285823 505 0
16 2 S116 694 286517 1199 0
16 2 S116 667 287184 1866 0
16 2 S116 662 287846 2528 0
16 2 S116 665 288511 3193 0
16 2 S116 665 289176 3858 0
16 2 S116 680 289856 4538 0
16 2 S116 658 290514 5196 0
16 2 S116 646 291160 5842 0
16 2 S116 659 291819 6501 0
0 0 0 669 292488 -9773 0
0 0 0 705 293193 -9068 0
0 0 0 725 293918 -8343 0
0 0 0 706 294624 -7637 0
0 0 0 709 295333 -6928 0
0 0 0 705 296038 -6223 0
0 0 0 708 296746 -5515 0
0 0 0 667 297413 -4848 0
0 0 0 644 298057 -4204 0
0 0 0 640 298697 -3564 0
0 0 0 642 299339 -2922 0
0 0 0 673 300012 -2249 0
17 1 S106 684 300696 -1565 0
17 1 S106 663 301359 -902 0
17 1 S106 656 302015 -246 0
17 2 S106 674 302689 428 0
17 2 S106 710 303399 1138 0
17 2 S106 755 304154 1893 0
17 2 S106 769 304923 2662 0
17 2 S106 722 305645 3384 0
17 2 S106 711 306356 4095 0
17 2 S106 706 307062 4801 0
17 2 S106 705 307767 5506 0
17 2 S106 682 308449 6188 0
17 2 S106 657 309106 6845 0
0 0 0 653 309759 -11750 0
0 0 0 662 310421 -11088 0
0 0 0 698 311119 -10390 0
0 0 0 742 311861 -9648 0
0 0 0 728 312589 -8920 0
0 0 0 706 313295 -8214 0
0 0 0 715 314010 -7499 0
0 0 0 716 314726 -6783 0
0 0 0 696 315422 -6087 0
0 0 0 667 316089 -5420 0
0 0 0 670 316759 -4750 0
0 0 0 680 317439 -4070 0
0 0 0 692 318131 -3378 0
0 0 0 696 318827 -2682 0
18 1 S102 699 319526 -1983 0
18 1 S102 720 320246 -1263 0
18 1 S102 740 320986 -523 0
18 2 S102 727 321713 204 0
18 2 S102 697 322410 901 0
18 2 S102 694 323104 1595 0
18 2 S102 692 323796 2287 0
18 2 S102 706 324502 2993 0
18 2 S102 689 325191 3682 0
18 2 S102 658 325849 4340 0
18 2 S102 661 326510 5001 0
18 2 S102 674 327184 5675 0
18 2 S102 690 327874 6365 0
0 0 0 709 328583 -6868 0
0 0 0 686 329269 -6182 0
0 0 0 699 329968 -5483 0
0 0 0 706 330674 -4777 0
0 0 0 702 331376 -4075 0
0 0 0 679 332055 -3396 0
0 0 0 646 332701 -2750 0
0 0 0 642 333343 -2108 0
19 1 S106 651 333994 -1457 0
19 1 S106 661 334655 -796 0
19 1 S106 696 335351 -100 0
19 2 S106 666 336017 566 0
19 2 S106 656 336673 1222 0
19 2 S106 688 337361 1910 0
19 2 S106 694 338055 2604 0
19 2 S106 722 338777 3326 0
19 2 S106 713 339490 4039 0
19 2 S106 687 340177 4726 0
19 2 S106 679 340856 5405 0
19 2 S106 682 341538 6087 0
19 2 S106 680 342218 6767 0
0 0 0 682 342900 -11351 0
0 0 0 669 343569 -10682 0
0 0 0 679 344248 -10003 0
0 0 0 702 344950 -9301 0
0 0 0 715 345665 -8586 0
0 0 0 704 346369 -7882 0
0 0 0 669 347038 -7213 0
0 0 0 653 347691 -6560 0
0 0 0 633 348324 -5927 0
0 0 0 668 348992 -5259 0
0 0 0 653 349645 -4606 0
0 0 0 677 350322 -3929 0
0 0 0 693 351015 -3236 0
0 0 0 645 351660 -2591 0
20 1 S112 614 352274 -1977 0
20 1 S112 606 352880 -1371 0
20 1 S112 617 353497 -754 0
20 1 S112 643 354140 -111 0
20 2 S112 679 354819 568 0
20 2 S112 720 355539 1288 0
20 2 S112 705 356244 1993 0
20 2 S112 682 356926 2675 0
20 2 S112 684 357610 3359 0
20 2 S112 676 358286 4035 0
20 2 S112 675 358961 4710 0
20 2 S112 661 359622 5371 0
20 2 S112 680 360302 6051 0
20 2 S112 702 361004 6753 0
0 0 0 729 361733 -9428 0
0 0 0 723 362456 -8705 0
0 0 0 696 363152 -8009 0
0 0 0 712 363864 -7297 0
0 0 0 717 364581 -6580 0
0 0 0 687 365268 -5893 0
0 0 0 657 365925 -5236 0
0 0 0 611 366536 -4625 0
0 0 0 582 367118 -4043 0
0 0 0 566 367684 -3477 1
0 0 0 553 368237 -2924 1
0 0 0 545 368782 -2379 1
21 1 S106 551 369333 -1828 1
21 1 S106 575 369908 -1253 0
21 1 S106 708 370616 -545 0
21 2 S106 797 371413 252 0
21 2 S106 846 372259 1098 1
21 2 S106 853 373112 1951 1
21 2 S106 836 373948 2787 1
21 2 S106 812 374760 3599 0
21 2 S106 781 375541 4380 0
21 2 S106 745 376286 5125 0
21 2 S106 687 376973 5812 0
21 2 S106 684 377657 6496 0
0 0 0 682 378339 -11340 0
0 0 0 714 379053 -10626 0
0 0 0 748 379801 -9878 0
0 0 0 783 380584 -9095 0
0 0 0 762 381346 -8333 0
0 0 0 724 382070 -7609 0
0 0 0 696 382766 -6913 0
0 0 0 695 383461 -6218 0
0 0 0 700 384161 -5518 0
0 0 0 705 384866 -4813 0
0 0 0 697 385563 -4116 0
0 0 0 687 386250 -3429 0
0 0 0 692 386942 -2737 0
0 0 0 715 387657 -2022 0
22 1 S116 741 388398 -1281 0
22 1 S116 753 389151 -528 0
22 2 S116 745 389896 217 0
22 2 S116 710 390606 927 0
22 2 S116 729 391335 1656 0
22 2 S116 746 392081 2402 0
22 2 S116 735 392816 3137 0
22 2 S116 696 393512 3833 0
22 2 S116 677 394189 4510 0
22 2 S116 634 394823 5144 0
22 2 S116 634 395457 5778 0
22 2 S116 639 396096 6417 0
0 0 0 648 396744 -9944 0
0 0 0 737 397481 -9207 0
0 0 0 820 398301 -8387 0
0 0 0 870 399171 -7517 1
0 0 0 870 400041 -6647 1
0 0 0 832 400873 -5815 1
0 0 0 792 401665 -5023 0
0 0 0 781 402446 -4242 0
0 0 0 770 403216 -3472 0
0 0 0 749 403965 -2723 0
0 0 0 699 404664 -2024 0
23 1 S112 694 405358 -1330 0
23 1 S112 686 406044 -644 0
23 2 S112 697 406741 53 0
23 2 S112 700 407441 753 0
23 2 S112 691 408132 1444 0
23 2 S112 667 408799 2111 0
23 2 S112 679 409478 2790 0
23 2 S112 683 410161 3473 0
23 2 S112 721 410882 4194 0
23 2 S112 731 411613 4925 0
23 2 S112 699 412312 5624 0
23 2 S112 706 413018 6330 0
0 0 0 718 413736 -9928 0
0 0 0 740 414476 -9188 0
0 0 0 751 415227 -8437 0
0 0 0 714 415941 -7723 0
0 0 0 718 416659 -7005 0
0 0 0 697 417356 -6308 0
0 0 0 680 418036 -5628 0
0 0 0 651 418687 -4977 0
0 0 0 631 419318 -4346 0
0 0 0 634 419952 -3712 0
0 0 0 647 420599 -3065 0
0 0 0 670 421269 -2395 0
24 1 S106 673 421942 -1722 0
24 1 S106 659 422601 -1063 0
24 1 S106 662 423263 -401 0
24 2 S106 682 423945 281 0
24 2 S106 718 424663 999 0
24 2 S106 738 425401 1737 0
24 2 S106 729 426130 2466 0
24 2 S106 705 426835 3171 0
24 2 S106 698 427533 3869 0
24 2 S106 701 428234 4570 0
24 2 S106 695 428929 5265 0
24 2 S106 700 429629 5965 0
24 2 S106 693 430322 6658 0
0 0 0 670 430992 -9068 0
0 0 0 696 431688 -8372 0
0 0 0 721 432409 -7651 0
0 0 0 763 433172 -6888 0
0 0 0 750 433922 -6138 0
0 0 0 708 434630 -5430 0
0 0 0 687 435317 -4743 0
0 0 0 679 435996 -4064 0
0 0 0 685 436681 -3379 0
0 0 0 686 437367 -2693 0
0 0 0 669 438036 -2024 0
25 1 S102 649 438685 -1375 0
25 1 S102 651 439336 -724 0
25 1 S102 671 440007 -53 0
25 2 S102 701 440708 648 0
25 2 S102 736 441444 1384 0
25 2 S102 728 442172 2112 0
25 2 S102 702 442874 2814 0
25 2 S102 694 443568 3508 0
25 2 S102 696 444264 4204 0
25 2 S102 695 444959 4899 0
25 2 S102 711 445670 5610 0
25 2 S102 705 446375 6315 0
25 2 S102 674 447049 6989 0
0 0 0 672 447721 -7791 0
0 0 0 694 448415 -7097 0
0 0 0 725 449140 -6372 0
0 0 0 749 449889 -5623 0
0 0 0 751 450640 -4872 0
0 0 0 714 451354 -4158 0
0 0 0 721 452075 -3437 0
0 0 0 713 452788 -2724 0
0 0 0 690 453478 -2034 0
26 1 S116 662 454140 -1372 0
26 1 S116 640 454780 -732 0
26 1 S116 647 455427 -85 0
26 2 S116 679 456106 594 0
26 2 S116 763 456869 1357 0
26 2 S116 784 457653 2141 0
26 2 S116 738 458391 2879 0
26 2 S116 677 459068 3556 0
26 2 S116 668 459736 4224 0
26 2 S116 667 460403 4891 0
26 2 S116 677 461080 5568 0
26 2 S116 673 461753 6241 0
26 2 S116 661 462414 6902 0
0 0 0 658 463072 -6481 0
0 0 0 699 463771 -5782 0
0 0 0 772 464543 -5010 0
0 0 0 779 465322 -4231 0
0 0 0 741 466063 -3490 0
0 0 0 716 466779 -2774 0
0 0 0 708 467487 -2066 0
27 1 S106 696 468183 -1370 0
27 1 S106 675 468858 -695 0
27 1 S106 647 469505 -48 0
27 2 S106 650 470155 602 0
27 2 S106 658 470813 1260 0
27 2 S106 677 471490 1937 0
27 2 S106 685 472175 2622 0
27 2 S106 667 472842 3289 0
27 2 S106 657 473499 3946 0
27 2 S106 668 474167 4614 0
27 2 S106 698 474865 5312 0
27 2 S106 716 475581 6028 0
27 2 S106 694 476275 6722 0
0 0 0 681 476956 -6855 0
0 0 0 697 477653 -6158 0
0 0 0 717 478370 -5441 0
0 0 0 712 479082 -4729 0
0 0 0 686 479768 -4043 0
0 0 0 650 480418 -3393 0
0 0 0 653 481071 -2740 0
0 0 0 660 481731 -2080 0
28 1 S102 676 482407 -1404 0
28 1 S102 679 483086 -725 0
28 1 S102 649 483735 -76 0
28 2 S102 643 484378 567 0
28 2 S102 656 485034 1223 0
28 2 S102 684 485718 1907 0
28 2 S102 706 486424 2613 0
28 2 S102 708 487132 3321 0
28 2 S102 674 487806 3995 0
28 2 S102 657 488463 4652 0
28 2 S102 660 489123 5312 0
28 2 S102 677 489800 5989 0
28 2 S102 724 490524 6713 0
0 0 0 726 491250 -12024 0
0 0 0 704 491954 -11320 0
0 0 0 700 492654 -10620 0
0 0 0 728 493382 -9892 0
0 0 0 742 494124 -9150 0
0 0 0 724 494848 -8426 0
0 0 0 670 495518 -7756 0
0 0 0 647 496165 -7109 0
0 0 0 646 496811 -6463 0
0 0 0 650 497461 -5813 0
0 0 0 658 498119 -5155 0
0 0 0 631 498750 -4524 0
0 0 0 638 499388 -3886 0
0 0 0 657 500045 -3229 0
0 0 0 685 500730 -2544 0
29 1 S112 695 501425 -1849 0
29 1 S112 658 502083 -1191 0
29 1 S112 638 502721 -553 0
29 2 S112 636 503357 83 0
29 2 S112 643 504000 726 0
29 2 S112 678 504678 1404 0
29 2 S112 676 505354 2080 0
29 2 S112 656 506010 2736 0
29 2 S112 637 506647 3373 0
29 2 S112 652 507299 4025 0
29 2 S112 675 507974 4700 0
29 2 S112 699 508673 5399 0
29 2 S112 679 509352 6078 0
29 2 S112 664 510016 6742 0
0 0 0 693 510709 -8049 0
0 0 0 710 511419 -7339 0
0 0 0 737 512156 -6602 0
0 0 0 711 512867 -5891 0
0 0 0 701 513568 -5190 0
0 0 0 697 514265 -4493 0
0 0 0 684 514949 -3809 0
0 0 0 667 515616 -3142 0
0 0 0 634 516250 -2508 0
30 1 S112 638 516888 -1870 0
30 1 S112 634 517522 -1236 0
30 1 S112 656 518178 -580 0
30 2 S112 649 518827 69 0
30 2 S112 625 519452 694 0
30 2 S112 609 520061 1303 0
30 2 S112 590 520651 1893 0
30 2 S112 588 521239 2481 0
30 2 S112 606 521845 3087 0
30 2 S112 664 522509 3751 0
30 2 S112 751 523260 4502 0
30 2 S112 764 524024 5266 0
30 2 S112 756 524780 6022 0
30 2 S112 726 525506 6748 0
0 0 0 669 526175 -10239 0
0 0 0 636 526811 -9603 0
0 0 0 643 527454 -8960 0
0 0 0 644 528098 -8316 0
0 0 0 635 528733 -7681 0
0 0 0 636 529369 -7045 0
0 0 0 633 530002 -6412 0
0 0 0 646 530648 -5766 0
0 0 0 638 531286 -5128 0
0 0 0 632 531918 -4496 0
0 0 0 640 532558 -3856 0
0 0 0 653 533211 -3203 0
0 0 0 673 533884 -2530 0
31 1 S106 685 534569 -1845 0
31 1 S106 667 535236 -1178 0
31 1 S106 676 535912 -502 0
31 2 S106 685 536597 183 0
31 2 S106 688 537285 871 0
31 2 S106 720 538005 1591 0
31 2 S106 683 538688 2274 0
31 2 S106 652 539340 2926 0
31 2 S106 660 540000 3586 0
31 2 S106 673 540673 4259 0
31 2 S106 691 541364 4950 0
31 2 S106 716 542080 5666 0
31 2 S106 703 542783 6369 0
0 0 0 680 543463 -9745 0
0 0 0 697 544160 -9048 0
0 0 0 737 544897 -8311 0
0 0 0 747 545644 -7564 0
0 0 0 750 546394 -6814 0
0 0 0 712 547106 -6102 0
0 0 0 669 547775 -5433 0
0 0 0 664 548439 -4769 0
0 0 0 654 549093 -4115 0
0 0 0 648 549741 -3467 0
0 0 0 629 550370 -2838 0
0 0 0 615 550985 -2223 0
32 1 S102 629 551614 -1594 0
32 1 S102 655 552269 -939 0
32 1 S102 712 552981 -227 0
32 2 S102 711 553692 484 0
32 2 S102 693 554385 1177 0
32 2 S102 707 555092 1884 0
32 2 S102 724 555816 2608 0
32 2 S102 743 556559 3351 0
32 2 S102 713 557272 4064 0
32 2 S102 674 557946 4738 0
32 2 S102 664 558610 5402 0
32 2 S102 667 559277 6069 0
32 2 S102 691 559968 6760 0
0 0 0 727 560695 -12208 0
0 0 0 707 561402 -11501 0
0 0 0 693 562095 -10808 0
0 0 0 738 562833 -10070 0
0 0 0 743 563576 -9327 0
0 0 0 736 564312 -8591 0
0 0 0 689 565001 -7902 0
0 0 0 668 565669 -7234 0
0 0 0 655 566324 -6579 0
0 0 0 658 566982 -5921 0
0 0 0 683 567665 -5238 0
0 0 0 679 568344 -4559 0
0 0 0 640 568984 -3919 0
0 0 0 637 569621 -3282 0
0 0 0 634 570255 -2648 0
0 0 0 640 570895 -2008 0
33 1 S112 658 571553 -1350 0
33 1 S112 635 572188 -715 0
33 1 S112 621 572809 -94 0
33 2 S112 634 573443 540 0
33 2 S112 659 574102 1199 0
33 2 S112 688 574790 1887 0
33 2 S112 675 575465 2562 0
33 2 S112 648 576113 3210 0
33 2 S112 646 576759 3856 0
33 2 S112 663 577422 4519 0
33 2 S112 675 578097 5194 0
33 2 S112 673 578770 5867 0
33 2 S112 657 579427 6524 0
0 0 0 651 580078 -11409 0
0 0 0 668 580746 -10741 0
0 0 0 700 581446 -10041 0
0 0 0 725 582171 -9316 0
0 0 0 688 582859 -8628 0
0 0 0 659 583518 -7969 0
0 0 0 646 584164 -7323 0
0 0 0 649 584813 -6674 0
0 0 0 652 585465 -6022 0
0 0 0 639 586104 -5383 0
0 0 0 623 586727 -4760 0
0 0 0 634 587361 -4126 0
0 0 0 655 588016 -3471 0
0 0 0 685 588701 -2786 0
0 0 0 734 589435 -2052 0
34 1 S106 719 590154 -1333 0
34 1 S106 731 590885 -602 0
34 2 S106 740 591625 138 0
34 2 S106 750 592375 888 0
34 2 S106 759 593134 1647 0
34 2 S106 708 593842 2355 0
34 2 S106 691 594533 3046 0
34 2 S106 689 595222 3735 0
34 2 S106 707 595929 4442 0
34 2 S106 723 596652 5165 0
34 2 S106 708 597360 5873 0
34 2 S106 680 598040 6553 0
0 0 0 693 598733 -9349 0
0 0 0 715 599448 -8634 0
0 0 0 741 600189 -7893 0
0 0 0 742 600931 -7151 0
0 0 0 696 601627 -6455 0
0 0 0 679 602306 -5776 0
0 0 0 663 602969 -5113 0
0 0 0 661 603630 -4452 0
0 0 0 680 604310 -3772 0
0 0 0 654 604964 -3118 0
0 0 0 639 605603 -2479 0
35 1 S102 652 606255 -1827 0
35 1 S102 674 606929 -1153 0
35 1 S102 715 607644 -438 0
35 2 S102 706 608350 268 0
35 2 S102 695 609045 963 0
35 2 S102 701 609746 1664 0
35 2 S102 696 610442 2360 0
35 2 S102 687 611129 3047 0
35 2 S102 676 611805 3723 0
35 2 S102 665 612470 4388 0
35 2 S102 667 613137 5055 0
35 2 S102 680 613817 5735 0
35 2 S102 694 614511 6429 0
0 0 0 676 615187 -7368 0
0 0 0 653 615840 -6715 0
0 0 0 666 616506 -6049 0
0 0 0 683 617189 -5366 0
0 0 0 692 617881 -4674 0
0 0 0 677 618558 -3997 0
0 0 0 658 619216 -3339 0
0 0 0 662 619878 -2677 0
0 0 0 653 620531 -2024 0
36 1 S106 655 621186 -1369 0
36 1 S106 645 621831 -724 0
36 1 S106 621 622452 -103 0
36 2 S106 624 623076 521 0
36 2 S106 643 623719 1164 0
36 2 S106 692 624411 1856 0
36 2 S106 725 625136 2581 0
36 2 S106 696 625832 3277 0
36 2 S106 659 626491 3936 0
36 2 S106 637 627128 4573 0
36 2 S106 640 627768 5213 0
36 2 S106 651 628419 5864 0
36 2 S106 679 629098 6543 0
0 0 0 701 629799 -10628 0
0 0 0 672 630471 -9956 0
0 0 0 692 631163 -9264 0
0 0 0 720 631883 -8544 0
0 0 0 744 632627 -7800 0
0 0 0 757 633384 -7043 0
0 0 0 691 634075 -6352 0
0 0 0 652 634727 -5700 0
0 0 0 645 635372 -5055 0
0 0 0 644 636016 -4411 0
0 0 0 642 636658 -3769 0
0 0 0 631 637289 -3138 0
0 0 0 626 637915 -2512 0
37 1 S116 627 638542 -1885 0
37 1 S116 654 639196 -1231 0
37 1 S116 718 639914 -513 0
37 2 S116 737 640651 224 0
37 2 S116 735 641386 959 0
37 2 S116 708 642094 1667 0
37 2 S116 710 642804 2377 0
37 2 S116 712 643516 3089 0
37 2 S116 715 644231 3804 0
37 2 S116 705 644936 4509 0
37 2 S116 673 645609 5182 0
37 2 S116 646 646255 5828 0
37 2 S116 636 646891 6464 0
0 0 0 650 647541 -11255 0
0 0 0 683 648224 -10572 0
0 0 0 733 648957 -9839 0
0 0 0 718 649675 -9121 0
0 0 0 701 650376 -8420 0
0 0 0 683 651059 -7737 0
0 0 0 672 651731 -7065 0
0 0 0 645 652376 -6420 0
0 0 0 618 652994 -5802 0
0 0 0 607 653601 -5195 0
0 0 0 617 654218 -4578 0
0 0 0 670 654888 -3908 0
0 0 0 759 655647 -3149 0
0 0 0 776 656423 -2373 0
38 1 S102 758 657181 -1615 0
38 1 S102 728 657909 -887 0
38 1 S102 720 658629 -167 0
38 2 S102 709 659338 542 0
38 2 S102 720 660058 1262 0
38 2 S102 700 660758 1962 0
38 2 S102 667 661425 2629 0
38 2 S102 660 662085 3289 0
38 2 S102 661 662746 3950 0
38 2 S102 683 663429 4633 0
38 2 S102 700 664129 5333 0
38 2 S102 685 664814 6018 0
38 2 S102 663 665477 6681 0
0 0 0 690 666167 -9820 0
0 0 0 708 666875 -9112 0
0 0 0 729 667604 -8383 0
0 0 0 731 668335 -7652 0
0 0 0 712 669047 -6940 0
0 0 0 699 669746 -6241 0
0 0 0 681 670427 -5560 0
0 0 0 663 671090 -4897 0
0 0 0 628 671718 -4269 0
0 0 0 619 672337 -3650 0
0 0 0 619 672956 -3031 0
0 0 0 630 673586 -2401 0
39 1 S116 683 674269 -1718 0
39 1 S116 727 674996 -991 0
39 1 S116 715 675711 -276 0
39 2 S116 701 676412 425 0
39 2 S116 724 677136 1149 0
39 2 S116 760 677896 1909 0
39 2 S116 773 678669 2682 0
39 2 S116 762 679431 3444 0
39 2 S116 711 680142 4155 0
39 2 S116 700 680842 4855 0
39 2 S116 700 681542 5555 0
39 2 S116 688 682230 6243 0
39 2 S116 698 682928 6941 0
0 0 0 668 683596 -6483 0
0 0 0 664 684260 -5819 0
0 0 0 697 684957 -5122 0
0 0 0 702 685659 -4420 0
0 0 0 709 686368 -3711 0
0 0 0 670 687038 -3041 0
0 0 0 643 687681 -2398 0
40 1 S112 645 688326 -1753 0
40 1 S112 655 688981 -1098 0
40 1 S112 682 689663 -416 0
40 2 S112 708 690371 292 0
40 2 S112 675 691046 967 0
40 2 S112 667 691713 1634 0
40 2 S112 684 692397 2318 0
40 2 S112 693 693090 3011 0
40 2 S112 697 693787 3708 0
40 2 S112 683 694470 4391 0
40 2 S112 669 695139 5060 0
40 2 S112 677 695816 5737 0
40 2 S112 709 696525 6446 0
0 0 0 749 697274 -186523 0
0 0 0 734 698008 -185789 0
0 0 0 698 698706 -185091 0
0 0 0 720 699426 -184371 0
0 0 0 724 700150 -183647 0
0 0 0 730 700880 -182917 0
0 0 0 693 701573 -182224 0
0 0 0 640 702213 -181584 0
0 0 0 608 702821 -180976 0
0 0 0 584 703405 -180392 0
0 0 0 580 703985 -179812 0
0 0 0 575 704560 -179237 0
0 0 0 578 705138 -178659 0
0 0 0 601 705739 -178058 0
0 0 0 649 706388 -177409 0
0 0 0 679 707067 -176730 0
0 0 0 680 707747 -176050 0
0 0 0 619 708366 -175431 0
0 0 0 595 708961 -174836 0
0 0 0 589 709550 -174247 0
0 0 0 584 710134 -173663 0
0 0 0 579 710713 -173084 0
0 0 0 580 711293 -172504 0
0 0 0 576 711869 -171928 0
0 0 0 555 712424 -171373 1
0 0 0 551 712975 -170822 1
0 0 0 548 713523 -170274 1
0 0 0 551 714074 -169723 1
0 0 0 563 714637 -169160 1
0 0 0 579 715216 -168581 0
0 0 0 590 715806 -167991 0
0 0 0 591 716397 -167400 0
0 0 0 581 716978 -166819 0
0 0 0 570 717548 -166249 0
0 0 0 567 718115 -165682 1
0 0 0 578 718693 -165104 0
0 0 0 627 719320 -164477 0
0 0 0 699 720019 -163778 0
0 0 0 700 720719 -163078 0
0 0 0 644 721363 -162434 0
0 0 0 640 722003 -161794 0
0 0 0 659 722662 -161135 0
0 0 0 622 723284 -160513 0
0 0 0 619 723903 -159894 0
0 0 0 592 724495 -159302 0
0 0 0 591 725086 -158711 0
0 0 0 592 725678 -158119 0
0 0 0 581 726259 -157538 0
0 0 0 583 726842 -156955 0
0 0 0 602 727444 -156353 0
0 0 0 632 728076 -155721 0
0 0 0 702 728778 -155019 0
0 0 0 701 729479 -154318 0
0 0 0 669 730148 -153649 0
0 0 0 639 730787 -153010 0
0 0 0 638 731425 -152372 0
0 0 0 657 732082 -151715 0
0 0 0 630 732712 -151085 0
0 0 0 606 733318 -150479 0
0 0 0 587 733905 -149892 0
0 0 0 585 734490 -149307 0
0 0 0 593 735083 -148714 0
0 0 0 629 735712 -148085 0
0 0 0 672 736384 -147413 0
0 0 0 673 737057 -146740 0
0 0 0 663 737720 -146077 0
0 0 0 639 738359 -145438 0
0 0 0 632 738991 -144806 0
0 0 0 614 739605 -144192 0
0 0 0 605 740210 -143587 0
0 0 0 590 740800 -142997 0
0 0 0 573 741373 -142424 0
0 0 0 565 741938 -141859 1
0 0 0 573 742511 -141286 0
0 0 0 602 743113 -140684 0
0 0 0 640 743753 -140044 0
0 0 0 670 744423 -139374 0
0 0 0 679 745102 -138695 0
0 0 0 653 745755 -138042 0
0 0 0 640 746395 -137402 0
0 0 0 627 747022 -136775 0
0 0 0 656 747678 -136119 0
0 0 0 724 748402 -135395 0
0 0 0 760 749162 -134635 0
0 0 0 789 749951 -133846 0
0 0 0 789 750740 -133057 0
0 0 0 747 751487 -132310 0
0 0 0 714 752201 -131596 0
0 0 0 738 752939 -130858 0
0 0 0 710 753649 -130148 0
0 0 0 677 754326 -129471 0
0 0 0 635 754961 -128836 0
0 0 0 617 755578 -128219 0
0 0 0 619 756197 -127600 0
0 0 0 602 756799 -126998 0
0 0 0 605 757404 -126393 0
0 0 0 642 758046 -125751 0
0 0 0 747 758793 -125004 0
0 0 0 783 759576 -124221 0
0 0 0 776 760352 -123445 0
0 0 0 797 761149 -122648 0
0 0 0 808 761957 -121840 0
0 0 0 801 762758 -121039 0
0 0 0 758 763516 -120281 0
0 0 0 705 764221 -119576 0
0 0 0 621 764842 -118955 0
0 0 0 592 765434 -118363 0
0 0 0 582 766016 -117781 0
0 0 0 575 766591 -117206 0
0 0 0 579 767170 -116627 0
0 0 0 610 767780 -116017 0
0 0 0 715 768495 -115302 0
0 0 0 781 769276 -114521 0
0 0 0 805 770081 -113716 0
0 0 0 775 770856 -112941 0
0 0 0 729 771585 -112212 0
0 0 0 694 772279 -111518 0
0 0 0 657 772936 -110861 0
0 0 0 705 773641 -110156 0
0 0 0 719 774360 -109437 0
0 0 0 676 775036 -108761 0
0 0 0 700 775736 -108061 0
0 0 0 715 776451 -107346 0
0 0 0 735 777186 -106611 0
0 0 0 744 777930 -105867 0
0 0 0 724 778654 -105143 0
0 0 0 698 779352 -104445 0
0 0 0 690 780042 -103755 0
0 0 0 669 780711 -103086 0
0 0 0 675 781386 -102411 0
0 0 0 674 782060 -101737 0
0 0 0 711 782771 -101026 0
0 0 0 756 783527 -100270 0
0 0 0 793 784320 -99477 0
0 0 0 796 785116 -98681 0
0 0 0 767 785883 -97914 0
0 0 0 717 786600 -97197 0
0 0 0 716 787316 -96481 0
0 0 0 714 788030 -95767 0
0 0 0 715 788745 -95052 0
0 0 0 743 789488 -94309 0
0 0 0 744 790232 -93565 0
0 0 0 712 790944 -92853 0
0 0 0 681 791625 -92172 0
0 0 0 675 792300 -91497 0
0 0 0 699 792999 -90798 0
0 0 0 720 793719 -90078 0
0 0 0 699 794418 -89379 0
0 0 0 743 795161 -88636 0
0 0 0 746 795907 -87890 0
0 0 0 739 796646 -87151 0
0 0 0 701 797347 -86450 0
0 0 0 680 798027 -85770 0
0 0 0 648 798675 -85122 0
0 0 0 641 799316 -84481 0
0 0 0 645 799961 -83836 0
0 0 0 679 800640 -83157 0
0 0 0 693 801333 -82464 0
0 0 0 638 801971 -81826 0
0 0 0 656 802627 -81170 0
0 0 0 632 803259 -80538 0
0 0 0 687 803946 -79851 0
0 0 0 768 804714 -79083 0
0 0 0 764 805478 -78319 0
0 0 0 781 806259 -77538 0
0 0 0 813 807072 -76725 0
0 0 0 768 807840 -75957 0
0 0 0 714 808554 -75243 0
0 0 0 755 809309 -74488 0
0 0 0 746 810055 -73742 0
0 0 0 749 810804 -72993 0
0 0 0 768 811572 -72225 0
0 0 0 779 812351 -71446 0
0 0 0 760 813111 -70686 0
0 0 0 694 813805 -69992 0
0 0 0 675 814480 -69317 0
0 0 0 644 815124 -68673 0
0 0 0 653 815777 -68020 0
0 0 0 665 816442 -67355 0
0 0 0 627 817069 -66728 0
0 0 0 597 817666 -66131 0
0 0 0 584 818250 -65547 0
0 0 0 584 818834 -64963 0
0 0 0 622 819456 -64341 0
0 0 0 827 820283 -63514 1
0 0 0 828 821111 -62686 1
0 0 0 843 821954 -61843 1
0 0 0 818 822772 -61025 0
0 0 0 728 823500 -60297 0
0 0 0 691 824191 -59606 0
0 0 0 730 824921 -58876 0
0 0 0 775 825696 -58101 0
0 0 0 815 826511 -57286 0
0 0 0 829 827340 -56457 1
0 0 0 776 828116 -55681 0
0 0 0 769 828885 -54912 0
0 0 0 769 829654 -54143 0
0 0 0 772 830426 -53371 0
0 0 0 766 831192 -52605 0
0 0 0 755 831947 -51850 0
0 0 0 774 832721 -51076 0
0 0 0 792 833513 -50284 0
0 0 0 808 834321 -49476 0
0 0 0 790 835111 -48686 0
0 0 0 738 835849 -47948 0
0 0 0 730 836579 -47218 0
0 0 0 727 837306 -46491 0
0 0 0 739 838045 -45752 0
0 0 0 760 838805 -44992 0
0 0 0 732 839537 -44260 0
0 0 0 728 840265 -43532 0
0 0 0 742 841007 -42790 0
0 0 0 778 841785 -42012 0
0 0 0 776 842561 -41236 0
0 0 0 732 843293 -40504 0
0 0 0 742 844035 -39762 0
0 0 0 744 844779 -39018 0
0 0 0 764 845543 -38254 0
0 0 0 765 846308 -37489 0
0 0 0 740 847048 -36749 0
0 0 0 726 847774 -36023 0
0 0 0 747 848521 -35276 0
0 0 0 744 849265 -34532 0
0 0 0 759 850024 -33773 0
0 0 0 725 850749 -33048 0
0 0 0 681 851430 -32367 0
0 0 0 628 852058 -31739 0
0 0 0 597 852655 -31142 0
0 0 0 572 853227 -30570 0
0 0 0 566 853793 -30004 1
0 0 0 559 854352 -29445 1
0 0 0 555 854907 -28890 1
0 0 0 551 855458 -28339 1
0 0 0 548 856006 -27791 1
0 0 0 552 856558 -27239 1
0 0 0 558 857116 -26681 1
0 0 0 602 857718 -26079 0
0 0 0 679 858397 -25400 0
0 0 0 670 859067 -24730 0
0 0 0 652 859719 -24078 0
0 0 0 615 860334 -23463 0
0 0 0 614 860948 -22849 0
0 0 0 633 861581 -22216 0
0 0 0 660 862241 -21556 0
0 0 0 678 862919 -20878 0
0 0 0 693 863612 -20185 0
0 0 0 718 864330 -19467 0
0 0 0 729 865059 -18738 0
0 0 0 717 865776 -18021 0
0 0 0 706 866482 -17315 0
0 0 0 716 867198 -16599 0
0 0 0 733 867931 -15866 0
0 0 0 776 868707 -15090 0
0 0 0 815 869522 -14275 0
0 0 0 837 870359 -13438 1
0 0 0 833 871192 -12605 1
0 0 0 816 872008 -11789 0
0 0 0 804 872812 -10985 0
0 0 0 795 873607 -10190 0
0 0 0 771 874378 -9419 0
0 0 0 753 875131 -8666 0
0 0 0 761 875892 -7905 0
0 0 0 792 876684 -7113 0
0 0 0 813 877497 -6300 0
0 0 0 808 878305 -5492 0
0 0 0 785 879090 -4707 0
0 0 0 805 879895 -3902 0
0 0 0 742 880637 -3160 0
0 0 0 670 881307 -2490 0
41 1 S102 640 881947 -1850 0
41 1 S102 599 882546 -1251 0
41 1 S102 586 883132 -665 0
41 1 S102 590 883722 -75 0
41 2 S102 612 884334 537 0
41 2 S102 614 884948 1151 0
41 2 S102 613 885561 1764 0
41 2 S102 619 886180 2383 0
41 2 S102 641 886821 3024 0
41 2 S102 658 887479 3682 0
41 2 S102 689 888168 4371 0
41 2 S102 672 888840 5043 0
41 2 S102 640 889480 5683 0
41 2 S102 622 890102 6305 0
41 2 S102 615 890717 6920 0
0 0 0 619 891336 -6520 0
0 0 0 642 891978 -5878 0
0 0 0 688 892666 -5190 0
0 0 0 676 893342 -4514 0
0 0 0 658 894000 -3856 0
0 0 0 655 894655 -3201 0
0 0 0 664 895319 -2537 0
42 1 S112 679 895998 -1858 0
42 1 S112 655 896653 -1203 0
42 1 S112 645 897298 -558 0
42 2 S112 658 897956 100 0
42 2 S112 685 898641 785 0
42 2 S112 730 899371 1515 0
42 2 S112 735 900106 2250 0
42 2 S112 695 900801 2945 0
42 2 S112 660 901461 3605 0
42 2 S112 667 902128 4272 0
42 2 S112 681 902809 4953 0
42 2 S112 706 903515 5659 0
42 2 S112 696 904211 6355 0
42 2 S112 666 904877 7021 0
0 0 0 646 905523 -8712 0
0 0 0 658 906181 -8054 0
0 0 0 679 906860 -7375 0
0 0 0 696 907556 -6679 0
0 0 0 660 908216 -6019 0
0 0 0 619 908835 -5400 0
0 0 0 608 909443 -4792 0
0 0 0 619 910062 -4173 0
0 0 0 631 910693 -3542 0
0 0 0 653 911346 -2889 0
0 0 0 666 912012 -2223 0
43 1 S116 667 912679 -1556 0
43 1 S116 685 913364 -871 0
43 1 S116 686 914050 -185 0
43 2 S116 702 914752 517 0
43 2 S116 724 915476 1241 0
43 2 S116 736 916212 1977 0
43 2 S116 725 916937 2702 0
43 2 S116 685 917622 3387 0
43 2 S116 692 918314 4079 0
43 2 S116 690 919004 4769 0
43 2 S116 713 919717 5482 0
43 2 S116 734 920451 6216 0
43 2 S116 715 921166 6931 0
0 0 0 701 921867 -6576 0
0 0 0 722 922589 -5854 0
0 0 0 751 923340 -5103 0
0 0 0 746 924086 -4357 0
0 0 0 707 924793 -3650 0
0 0 0 679 925472 -2971 0
0 0 0 673 926145 -2298 0
44 1 S102 668 926813 -1630 0
44 1 S102 679 927492 -951 0
44 1 S102 696 928188 -255 0
44 2 S102 689 928877 434 0
44 2 S102 670 929547 1104 0
44 2 S102 680 930227 1784 0
44 2 S102 725 930952 2509 0
44 2 S102 758 931710 3267 0
44 2 S102 768 932478 4035 0
44 2 S102 728 933206 4763 0
44 2 S102 701 933907 5464 0
44 2 S102 694 934601 6158 0
44 2 S102 714 935315 6872 0
0 0 0 732 936047 -8792 0
0 0 0 734 936781 -8058 0
0 0 0 715 937496 -7343 0
0 0 0 726 938222 -6617 0
0 0 0 698 938920 -5919 0
0 0 0 688 939608 -5231 0
0 0 0 658 940266 -4573 0
0 0 0 640 940906 -3933 0
0 0 0 643 941549 -3290 0
0 0 0 650 942199 -2640 0
45 1 S116 687 942886 -1953 0
45 1 S116 685 943571 -1268 0
45 1 S116 710 944281 -558 0
45 2 S116 740 945021 182 0
45 2 S116 762 945783 944 0
45 2 S116 788 946571 1732 0
45 2 S116 764 947335 2496 0
45 2 S116 721 948056 3217 0
45 2 S116 711 948767 3928 0
45 2 S116 699 949466 4627 0
45 2 S116 699 950165 5326 0
45 2 S116 708 950873 6034 0
45 2 S116 690 951563 6724 0
0 0 0 667 952230 -10795 0
0 0 0 681 952911 -10114 0
0 0 0 694 953605 -9420 0
0 0 0 729 954334 -8691 0
0 0 0 727 955061 -7964 0
0 0 0 685 955746 -7279 0
0 0 0 668 956414 -6611 0
0 0 0 664 957078 -5947 0
0 0 0 676 957754 -5271 0
0 0 0 682 958436 -4589 0
0 0 0 664 959100 -3925 0
0 0 0 644 959744 -3281 0
0 0 0 656 960400 -2625 0
46 1 S102 666 961066 -1959 0
46 1 S102 684 961750 -1275 0
46 1 S102 680 962430 -595 0
46 2 S102 662 963092 67 0
46 2 S102 675 963767 742 0
46 2 S102 698 964465 1440 0
46 2 S102 731 965196 2171 0
46 2 S102 752 965948 2923 0
46 2 S102 709 966657 3632 0
46 2 S102 692 967349 4324 0
46 2 S102 700 968049 5024 0
46 2 S102 717 968766 5741 0
46 2 S102 718 969484 6459 0
0 0 0 693 970177 -9559 0
0 0 0 671 970848 -8888 0
0 0 0 698 971546 -8190 0
0 0 0 728 972274 -7462 0
0 0 0 764 973038 -6698 0
0 0 0 737 973775 -5961 0
0 0 0 688 974463 -5273 0
0 0 0 690 975153 -4583 0
0 0 0 707 975860 -3876 0
0 0 0 719 976579 -3157 0
0 0 0 746 977325 -2411 0
47 1 S112 723 978048 -1688 0
47 1 S112 714 978762 -974 0
47 1 S112 734 979496 -240 0
47 2 S112 754 980250 514 0
47 2 S112 744 980994 1258 0
47 2 S112 740 981734 1998 0
47 2 S112 695 982429 2693 0
47 2 S112 654 983083 3347 0
47 2 S112 626 983709 3973 0
47 2 S112 634 984343 4607 0
47 2 S112 669 985012 5276 0
47 2 S112 665 985677 5941 0
47 2 S112 659 986336 6600 0
0 0 0 701 987037 -10886 0
0 0 0 774 987811 -10112 0
0 0 0 823 988634 -9289 0
0 0 0 776 989410 -8513 0
0 0 0 756 990166 -7757 0
0 0 0 758 990924 -6999 0
0 0 0 728 991652 -6271 0
0 0 0 693 992345 -5578 0
0 0 0 657 993002 -4921 0
0 0 0 629 993631 -4292 0
0 0 0 635 994266 -3657 0
0 0 0 702 994968 -2955 0
0 0 0 845 995813 -2110 1
48 1 S116 864 996677 -1246 1
48 1 S116 836 997513 -410 1
48 2 S116 785 998298 375 0
48 2 S116 796 999094 1171 0
48 2 S116 801 999895 1972 0
48 2 S116 791 1000686 2763 0
48 2 S116 763 1001449 3526 0
48 2 S116 714 1002163 4240 0
48 2 S116 697 1002860 4937 0
48 2 S116 694 1003554 5631 0
48 2 S116 712 1004266 6343 0
0 0 0 714 1004980 -7217 0
0 0 0 695 1005675 -6522 0
0 0 0 720 1006395 -5802 0
0 0 0 761 1007156 -5041 0
0 0 0 769 1007925 -4272 0
0 0 0 753 1008678 -3519 0
0 0 0 724 1009402 -2795 0
0 0 0 710 1010112 -2085 0
49 1 S112 720 1010832 -1365 0
49 1 S112 715 1011547 -650 0
49 2 S112 737 1012284 87 0
49 2 S112 706 1012990 793 0
49 2 S112 683 1013673 1476 0
49 2 S112 687 1014360 2163 0
49 2 S112 693 1015053 2856 0
49 2 S112 720 1015773 3576 0
49 2 S112 718 1016491 4294 0
49 2 S112 693 1017184 4987 0
49 2 S112 703 1017887 5690 0
49 2 S112 728 1018615 6418 0
0 0 0 755 1019370 -11063 0
0 0 0 760 1020130 -10303 0
0 0 0 727 1020857 -9576 0
0 0 0 737 1021594 -8839 0
0 0 0 709 1022303 -8130 0
0 0 0 701 1023004 -7429 0
0 0 0 667 1023671 -6762 0
0 0 0 661 1024332 -6101 0
0 0 0 673 1025005 -5428 0
0 0 0 706 1025711 -4722 0
0 0 0 750 1026461 -3972 0
0 0 0 782 1027243 -3190 0
0 0 0 766 1028009 -2424 0
50 1 S106 790 1028799 -1634 0
50 1 S106 799 1029598 -835 0
50 1 S106 811 1030409 -24 0
50 2 S106 803 1031212 779 0
50 2 S106 755 1031967 1534 0
50 2 S106 741 1032708 2275 0
50 2 S106 733 1033441 3008 0
50 2 S106 731 1034172 3739 0
50 2 S106 737 1034909 4476 0
50 2 S106 737 1035646 5213 0
50 2 S106 715 1036361 5928 0
50 2 S106 719 1037080 6647 0
0 0 0 741 1037821 -6836 0
0 0 0 777 1038598 -6059 0
0 0 0 816 1039414 -5243 0
0 0 0 796 1040210 -4447 0
0 0 0 741 1040951 -3706 0
0 0 0 720 1041671 -2986 0
0 0 0 702 1042373 -2284 0
51 1 S112 691 1043064 -1593 0
51 1 S112 693 1043757 -900 0
51 1 S112 663 1044420 -237 0
51 2 S112 652 1045072 415 0
51 2 S112 665 1045737 1080 0
51 2 S112 706 1046443 1786 0
51 2 S112 779 1047222 2565 0
51 2 S112 819 1048041 3384 0
51 2 S112 814 1048855 4198 0
51 2 S112 753 1049608 4951 0
51 2 S112 773 1050381 5724 0
51 2 S112 780 1051161 6504 0
0 0 0 789 1051950 -8606 0
0 0 0 761 1052711 -7845 0
0 0 0 709 1053420 -7136 0
0 0 0 707 1054127 -6429 0
0 0 0 713 1054840 -5716 0
0 0 0 765 1055605 -4951 0
0 0 0 752 1056357 -4199 0
0 0 0 696 1057053 -3503 0
0 0 0 701 1057754 -2802 0
0 0 0 701 1058455 -2101 0
52 1 S116 731 1059186 -1370 0
52 1 S116 726 1059912 -644 0
52 2 S116 688 1060600 44 0
52 2 S116 695 1061295 739 0
52 2 S116 706 1062001 1445 0
52 2 S116 724 1062725 2169 0
52 2 S116 696 1063421 2865 0
52 2 S116 673 1064094 3538 0
52 2 S116 673 1064767 4211 0
52 2 S116 689 1065456 4900 0
52 2 S116 715 1066171 5615 0
52 2 S116 729 1066900 6344 0
0 0 0 725 1067625 -9592 0
0 0 0 708 1068333 -8884 0
0 0 0 736 1069069 -8148 0
0 0 0 746 1069815 -7402 0
0 0 0 750 1070565 -6652 0
0 0 0 699 1071264 -5953 0
0 0 0 655 1071919 -5298 0
0 0 0 616 1072535 -4682 0
0 0 0 594 1073129 -4088 0
0 0 0 582 1073711 -3506 0
0 0 0 597 1074308 -2909 0
0 0 0 642 1074950 -2267 0
53 1 S106 666 1075616 -1601 0
53 1 S106 676 1076292 -925 0
53 1 S106 664 1076956 -261 0
53 2 S106 677 1077633 416 0
53 2 S106 695 1078328 1111 0
53 2 S106 733 1079061 1844 0
53 2 S106 760 1079821 2604 0
53 2 S106 748 1080569 3352 0
53 2 S106 694 1081263 4046 0
53 2 S106 694 1081957 4740 0
53 2 S106 700 1082657 5440 0
53 2 S106 703 1083360 6143 0
53 2 S106 711 1084071 6854 0
0 0 0 704 1084775 -7562 0
0 0 0 693 1085468 -6869 0
0 0 0 725 1086193 -6144 0
0 0 0 752 1086945 -5392 0
0 0 0 761 1087706 -4631 0
0 0 0 708 1088414 -3923 0
0 0 0 685 1089099 -3238 0
0 0 0 704 1089803 -2534 0
54 1 S102 705 1090508 -1829 0
54 1 S102 704 1091212 -1125 0
54 1 S102 681 1091893 -444 0
54 2 S102 670 1092563 226 0
54 2 S102 687 1093250 913 0
54 2 S102 732 1093982 1645 0
54 2 S102 777 1094759 2422 0
54 2 S102 742 1095501 3164 0
54 2 S102 721 1096222 3885 0
54 2 S102 726 1096948 4611 0
54 2 S102 721 1097669 5332 0
54 2 S102 727 1098396 6059 0
54 2 S102 708 1099104 6767 0
0 0 0 676 1099780 -11539 0
0 0 0 688 1100468 -10851 0
0 0 0 716 1101184 -10135 0
0 0 0 760 1101944 -9375 0
0 0 0 773 1102717 -8602 0
0 0 0 724 1103441 -7878 0
0 0 0 679 1104120 -7199 0
0 0 0 661 1104781 -6538 0
0 0 0 658 1105439 -5880 0
0 0 0 667 1106106 -5213 0
0 0 0 666 1106772 -4547 0
0 0 0 643 1107415 -3904 0
0 0 0 665 1108080 -3239 0
0 0 0 704 1108784 -2535 0
55 1 S106 734 1109518 -1801 0
55 1 S106 769 1110287 -1032 0
55 1 S106 778 1111065 -254 0
55 2 S106 766 1111831 512 0
55 2 S106 792 1112623 1304 0
55 2 S106 780 1113403 2084 0
55 2 S106 775 1114178 2859 0
55 2 S106 721 1114899 3580 0
55 2 S106 691 1115590 4271 0
55 2 S106 677 1116267 4948 0
55 2 S106 675 1116942 5623 0
55 2 S106 690 1117632 6313 0
55 2 S106 713 1118345 7026 0
0 0 0 688 1119033 -7422 0
0 0 0 713 1119746 -6709 0
0 0 0 737 1120483 -5972 0
0 0 0 786 1121269 -5186 0
0 0 0 785 1122054 -4401 0
0 0 0 732 1122786 -3669 0
0 0 0 717 1123503 -2952 0
0 0 0 710 1124213 -2242 0
56 1 S116 694 1124907 -1548 0
56 1 S116 668 1125575 -880 0
56 1 S116 654 1126229 -226 0
56 2 S116 630 1126859 404 0
56 2 S116 636 1127495 1040 0
56 2 S116 691 1128186 1731 0
56 2 S116 798 1128984 2529 0
56 2 S116 793 1129777 3322 0
56 2 S116 752 1130529 4074 0
56 2 S116 718 1131247 4792 0
56 2 S116 723 1131970 5515 0
56 2 S116 726 1132696 6241 0
56 2 S116 730 1133426 6971 0
0 0 0 719 1134145 -6882 0
0 0 0 684 1134829 -6198 0
0 0 0 688 1135517 -5510 0
0 0 0 693 1136210 -4817 0
0 0 0 723 1136933 -4094 0
0 0 0 747 1137680 -3347 0
0 0 0 726 1138406 -2621 0
57 1 S106 714 1139120 -1907 0
57 1 S106 727 1139847 -1180 0
57 1 S106 742 1140589 -438 0
57 2 S106 745 1141334 307 0
57 2 S106 699 1142033 1006 0
57 2 S106 691 1142724 1697 0
57 2 S106 707 1143431 2404 0
57 2 S106 718 1144149 3122 0
57 2 S106 731 1144880 3853 0
57 2 S106 712 1145592 4565 0
57 2 S106 680 1146272 5245 0
57 2 S106 694 1146966 5939 0
57 2 S106 706 1147672 6645 0
0 0 0 735 1148407 -9099 0
0 0 0 760 1149167 -8339 0
0 0 0 745 1149912 -7594 0
0 0 0 754 1150666 -6840 0
0 0 0 743 1151409 -6097 0
0 0 0 731 1152140 -5366 0
0 0 0 723 1152863 -4643 0
0 0 0 682 1153545 -3961 0
0 0 0 672 1154217 -3289 0
0 0 0 675 1154892 -2614 0
58 1 S102 700 1155592 -1914 0
58 1 S102 710 1156302 -1204 0
58 1 S102 688 1156990 -516 0
58 2 S102 699 1157689 183 0
58 2 S102 733 1158422 916 0
58 2 S102 760 1159182 1676 0
58 2 S102 787 1159969 2463 0
58 2 S102 768 1160737 3231 0
58 2 S102 721 1161458 3952 0
58 2 S102 703 1162161 4655 0
58 2 S102 699 1162860 5354 0
58 2 S102 707 1163567 6061 0
58 2 S102 707 1164274 6768 0
0 0 0 682 1164956 -6178 0
0 0 0 683 1165639 -5495 0
0 0 0 699 1166338 -4796 0
0 0 0 709 1167047 -4087 0
0 0 0 708 1167755 -3379 0
0 0 0 670 1168425 -2709 0
0 0 0 666 1169091 -2043 0
59 1 S112 669 1169760 -1374 0
59 1 S112 690 1170450 -684 0
59 2 S112 701 1171151 17 0
59 2 S112 670 1171821 687 0
59 2 S112 673 1172494 1360 0
59 2 S112 691 1173185 2051 0
59 2 S112 706 1173891 2757 0
59 2 S112 709 1174600 3466 0
59 2 S112 682 1175282 4148 0
59 2 S112 678 1175960 4826 0
59 2 S112 686 1176646 5512 0
59 2 S112 714 1177360 6226 0
59 2 S112 732 1178092 6958 0
0 0 0 699 1178791 -8788 0
0 0 0 686 1179477 -8102 0
0 0 0 711 1180188 -7391 0
0 0 0 722 1180910 -6669 0
0 0 0 715 1181625 -5954 0
0 0 0 676 1182301 -5278 0
0 0 0 671 1182972 -4607 0
0 0 0 672 1183644 -3935 0
0 0 0 683 1184327 -3252 0
0 0 0 690 1185017 -2562 0
60 1 S102 656 1185673 -1906 0
60 1 S102 652 1186325 -1254 0
60 1 S102 671 1186996 -583 0
60 2 S102 699 1187695 116 0
60 2 S102 712 1188407 828 0
60 2 S102 706 1189113 1534 0
60 2 S102 698 1189811 2232 0
60 2 S102 710 1190521 2942 0
60 2 S102 717 1191238 3659 0
60 2 S102 746 1191984 4405 0
60 2 S102 746 1192730 5151 0
60 2 S102 706 1193436 5857 0
60 2 S102 701 1194137 6558 0
0 0 0 712 1194849 -12011 0
0 0 0 729 1195578 -11282 0
0 0 0 741 1196319 -10541 0
0 0 0 713 1197032 -9828 0
0 0 0 721 1197753 -9107 0
0 0 0 717 1198470 -8390 0
0 0 0 722 1199192 -7668 0
0 0 0 684 1199876 -6984 0
0 0 0 652 1200528 -6332 0
0 0 0 627 1201155 -5705 0
0 0 0 616 1201771 -5089 0
0 0 0 603 1202374 -4486 0
0 0 0 626 1203000 -3860 0
0 0 0 660 1203660 -3200 0
0 0 0 676 1204336 -2524 0
61 1 S106 649 1204985 -1875 0
61 1 S106 640 1205625 -1235 0
61 1 S106 659 1206284 -576 0
61 2 S106 680 1206964 104 0
61 2 S106 713 1207677 817 0
61 2 S106 740 1208417 1557 0
61 2 S106 715 1209132 2272 0
61 2 S106 682 1209814 2954 0
61 2 S106 674 1210488 3628 0
61 2 S106 681 1211169 4309 0
61 2 S106 698 1211867 5007 0
61 2 S106 725 1212592 5732 0
61 2 S106 729 1213321 6461 0
0 0 0 693 1214014 -8131 0
0 0 0 696 1214710 -7435 0
0 0 0 695 1215405 -6740 0
0 0 0 711 1216116 -6029 0
0 0 0 750 1216866 -5279 0
0 0 0 694 1217560 -4585 0
0 0 0 645 1218205 -3940 0
0 0 0 608 1218813 -3332 0
0 0 0 586 1219399 -2746 0
0 0 0 589 1219988 -2157 0
62 1 S112 599 1220587 -1558 0
62 1 S112 685 1221272 -873 0
62 1 S112 813 1222085 -60 0
62 2 S112 811 1222896 751 0
62 2 S112 837 1223733 1588 1
62 2 S112 785 1224518 2373 0
62 2 S112 702 1225220 3075 0
62 2 S112 681 1225901 3756 0
62 2 S112 683 1226584 4439 0
62 2 S112 683 1227267 5122 0
62 2 S112 670 1227937 5792 0
62 2 S112 673 1228610 6465 0
0 0 0 690 1229300 -12076 0
0 0 0 739 1230039 -11337 0
0 0 0 789 1230828 -10548 0
0 0 0 819 1231647 -9729 0
0 0 0 787 1232434 -8942 0
0 0 0 785 1233219 -8157 0
0 0 0 762 1233981 -7395 0
0 0 0 718 1234699 -6677 0
0 0 0 694 1235393 -5983 0
0 0 0 702 1236095 -5281 0
0 0 0 702 1236797 -4579 0
0 0 0 721 1237518 -3858 0
0 0 0 713 1238231 -3145 0
0 0 0 719 1238950 -2426 0
63 1 S102 755 1239705 -1671 0
63 1 S102 800 1240505 -871 0
63 1 S102 812 1241317 -59 0
63 2 S102 815 1242132 756 0
63 2 S102 809 1242941 1565 0
63 2 S102 789 1243730 2354 0
63 2 S102 741 1244471 3095 0
63 2 S102 696 1245167 3791 0
63 2 S102 677 1245844 4468 0
63 2 S102 668 1246512 5136 0
63 2 S102 674 1247186 5810 0
63 2 S102 706 1247892 6516 0
0 0 0 735 1248627 -9294 0
0 0 0 778 1249405 -8516 0
0 0 0 777 1250182 -7739 0
0 0 0 766 1250948 -6973 0
0 0 0 768 1251716 -6205 0
0 0 0 773 1252489 -5432 0
0 0 0 764 1253253 -4668 0
0 0 0 710 1253963 -3958 0
0 0 0 705 1254668 -3253 0
0 0 0 694 1255362 -2559 0
64 1 S112 690 1256052 -1869 0
64 1 S112 683 1256735 -1186 0
64 1 S112 658 1257393 -528 0
64 2 S112 650 1258043 122 0
64 2 S112 666 1258709 788 0
64 2 S112 736 1259445 1524 0
64 2 S112 791 1260236 2315 0
64 2 S112 763 1260999 3078 0
64 2 S112 737 1261736 3815 0
64 2 S112 748 1262484 4563 0
64 2 S112 736 1263220 5299 0
64 2 S112 713 1263933 6012 0
64 2 S112 680 1264613 6692 0
0 0 0 678 1265291 -7999 0
0 0 0 696 1265987 -7303 0
0 0 0 718 1266705 -6585 0
0 0 0 716 1267421 -5869 0
0 0 0 717 1268138 -5152 0
0 0 0 727 1268865 -4425 0
0 0 0 708 1269573 -3717 0
0 0 0 682 1270255 -3035 0
0 0 0 661 1270916 -2374 0
65 1 S106 656 1271572 -1718 0
65 1 S106 666 1272238 -1052 0
65 1 S106 683 1272921 -369 0
65 2 S106 682 1273603 313 0
65 2 S106 670 1274273 983 0
65 2 S106 710 1274983 1693 0
65 2 S106 735 1275718 2428 0
65 2 S106 761 1276479 3189 0
65 2 S106 741 1277220 3930 0
65 2 S106 702 1277922 4632 0
65 2 S106 686 1278608 5318 0
65 2 S106 681 1279289 5999 0
65 2 S106 683 1279972 6682 0
0 0 0 694 1280666 -6748 0
0 0 0 708 1281374 -6040 0
0 0 0 694 1282068 -5346 0
0 0 0 695 1282763 -4651 0
0 0 0 691 1283454 -3960 0
0 0 0 705 1284159 -3255 0
0 0 0 678 1284837 -2577 0
66 1 S116 659 1285496 -1918 0
66 1 S116 664 1286160 -1254 0
66 1 S116 663 1286823 -591 0
66 2 S116 691 1287514 100 0
66 2 S116 714 1288228 814 0
66 2 S116 698 1288926 1512 0
66 2 S116 719 1289645 2231 0
66 2 S116 729 1290374 2960 0
66 2 S116 725 1291099 3685 0
66 2 S116 715 1291814 4400 0
66 2 S116 685 1292499 5085 0
66 2 S116 688 1293187 5773 0
66 2 S116 708 1293895 6481 0
0 0 0 736 1294631 -12860 0
0 0 0 728 1295359 -12132 0
0 0 0 687 1296046 -11445 0
0 0 0 688 1296734 -10757 0
0 0 0 705 1297439 -10052 0
0 0 0 733 1298172 -9319 0
0 0 0 716 1298888 -8603 0
0 0 0 675 1299563 -7928 0
0 0 0 653 1300216 -7275 0
0 0 0 657 1300873 -6618 0
0 0 0 668 1301541 -5950 0
0 0 0 681 1302222 -5269 0
0 0 0 664 1302886 -4605 0
0 0 0 667 1303553 -3938 0
0 0 0 677 1304230 -3261 0
0 0 0 697 1304927 -2564 0
67 1 S102 713 1305640 -1851 0
67 1 S102 702 1306342 -1149 0
67 1 S102 699 1307041 -450 0
67 2 S102 722 1307763 272 0
67 2 S102 728 1308491 1000 0
67 2 S102 743 1309234 1743 0
67 2 S102 722 1309956 2465 0
67 2 S102 686 1310642 3151 0
67 2 S102 687 1311329 3838 0
67 2 S102 707 1312036 4545 0
67 2 S102 737 1312773 5282 0
67 2 S102 757 1313530 6039 0
67 2 S102 736 1314266 6775 0
0 0 0 754 1315020 -7524 0
0 0 0 766 1315786 -6758 0
0 0 0 775 1316561 -5983 0
0 0 0 778 1317339 -5205 0
0 0 0 713 1318052 -4492 0
0 0 0 704 1318756 -3788 0
0 0 0 697 1319453 -3091 0
0 0 0 701 1320154 -2390 0
68 1 S106 685 1320839 -1705 0
68 1 S106 681 1321520 -1024 0
68 1 S106 703 1322223 -321 0
68 2 S106 737 1322960 416 0
68 2 S106 775 1323735 1191 0
68 2 S106 783 1324518 1974 0
68 2 S106 762 1325280 2736 0
68 2 S106 789 1326069 3525 0
68 2 S106 788 1326857 4313 0
68 2 S106 787 1327644 5100 0
68 2 S106 734 1328378 5834 0
68 2 S106 731 1329109 6565 0
0 0 0 721 1329830 -10320 0
0 0 0 733 1330563 -9587 0
0 0 0 745 1331308 -8842 0
0 0 0 692 1332000 -8150 0
0 0 0 668 1332668 -7482 0
0 0 0 674 1333342 -6808 0
0 0 0 691 1334033 -6117 0
0 0 0 729 1334762 -5388 0
0 0 0 724 1335486 -4664 0
0 0 0 708 1336194 -3956 0
0 0 0 732 1336926 -3224 0
0 0 0 737 1337663 -2487 0
69 1 S102 749 1338412 -1738 0
69 1 S102 736 1339148 -1002 0
69 1 S102 699 1339847 -303 0
69 2 S102 709 1340556 406 0
69 2 S102 730 1341286 1136 0
69 2 S102 747 1342033 1883 0
69 2 S102 731 1342764 2614 0
69 2 S102 682 1343446 3296 0
69 2 S102 676 1344122 3972 0
69 2 S102 684 1344806 4656 0
69 2 S102 706 1345512 5362 0
69 2 S102 720 1346232 6082 0
69 2 S102 694 1346926 6776 0
0 0 0 693 1347619 -9192 0
0 0 0 720 1348339 -8472 0
0 0 0 733 1349072 -7739 0
0 0 0 759 1349831 -6980 0
0 0 0 704 1350535 -6276 0
0 0 0 686 1351221 -5590 0
0 0 0 674 1351895 -4916 0
0 0 0 694 1352589 -4222 0
0 0 0 676 1353265 -3546 0
0 0 0 647 1353912 -2899 0
0 0 0 622 1354534 -2277 0
70 1 S112 601 1355135 -1676 0
70 1 S112 592 1355727 -1084 0
70 1 S112 587 1356314 -497 0
70 2 S112 580 1356894 83 0
70 2 S112 625 1357519 708 0
70 2 S112 762 1358281 1470 0
70 2 S112 779 1359060 2249 0
70 2 S112 737 1359797 2986 0
70 2 S112 685 1360482 3671 0
70 2 S112 668 1361150 4339 0
70 2 S112 663 1361813 5002 0
70 2 S112 682 1362495 5684 0
70 2 S112 684 1363179 6368 0
70 2 S112 661 1363840 7029 0
0 0 0 674 1364514 -12390 0
0 0 0 701 1365215 -11689 0
0 0 0 745 1365960 -10944 0
0 0 0 755 1366715 -10189 0
0 0 0 732 1367447 -9457 0
0 0 0 742 1368189 -8715 0
0 0 0 740 1368929 -7975 0
0 0 0 742 1369671 -7233 0
0 0 0 714 1370385 -6519 0
0 0 0 683 1371068 -5836 0
0 0 0 689 1371757 -5147 0
0 0 0 691 1372448 -4456 0
0 0 0 721 1373169 -3735 0
0 0 0 728 1373897 -3007 0
0 0 0 697 1374594 -2310 0
71 1 S116 722 1375316 -1588 0
71 1 S116 753 1376069 -835 0
71 1 S116 762 1376831 -73 0
71 2 S116 719 1377550 646 0
71 2 S116 699 1378249 1345 0
71 2 S116 719 1378968 2064 0
71 2 S116 718 1379686 2782 0
71 2 S116 721 1380407 3503 0
71 2 S116 733 1381140 4236 0
71 2 S116 699 1381839 4935 0
71 2 S116 695 1382534 5630 0
71 2 S116 711 1383245 6341 0
0 0 0 745 1383990 -10753 0
0 0 0 783 1384773 -9970 0
0 0 0 757 1385530 -9213 0
0 0 0 755 1386285 -8458 0
0 0 0 761 1387046 -7697 0
0 0 0 778 1387824 -6919 0
0 0 0 745 1388569 -6174 0
0 0 0 705 1389274 -5469 0
0 0 0 699 1389973 -4770 0
0 0 0 678 1390651 -4092 0
0 0 0 665 1391316 -3427 0
0 0 0 660 1391976 -2767 0
0 0 0 656 1392632 -2111 0
72 1 S102 677 1393309 -1434 0
72 1 S102 692 1394001 -742 0
72 1 S102 727 1394728 -15 0
72 2 S102 711 1395439 696 0
72 2 S102 708 1396147 1404 0
72 2 S102 729 1396876 2133 0
72 2 S102 758 1397634 2891 0
72 2 S102 769 1398403 3660 0
72 2 S102 720 1399123 4380 0
72 2 S102 709 1399832 5089 0
72 2 S102 717 1400549 5806 0
72 2 S102 740 1401289 6546 0
0 0 0 714 1402003 -8091 0
0 0 0 686 1402689 -7405 0
0 0 0 714 1403403 -6691 0
0 0 0 717 1404120 -5974 0
0 0 0 755 1404875 -5219 0
0 0 0 727 1405602 -4492 0
0 0 0 691 1406293 -3801 0
0 0 0 684 1406977 -3117 0
0 0 0 687 1407664 -2430 0
73 1 S116 702 1408366 -1728 0
73 1 S116 696 1409062 -1032 0
73 1 S116 660 1409722 -372 0
73 2 S116 644 1410366 272 0
73 2 S116 652 1411018 924 0
73 2 S116 694 1411712 1618 0
73 2 S116 727 1412439 2345 0
73 2 S116 720 1413159 3065 0
73 2 S116 693 1413852 3758 0
73 2 S116 682 1414534 4440 0
73 2 S116 714 1415248 5154 0
73 2 S116 732 1415980 5886 0
73 2 S116 756 1416736 6642 0
0 0 0 723 1417459 -10241 0
0 0 0 694 1418153 -9547 0
0 0 0 698 1418851 -8849 0
0 0 0 690 1419541 -8159 0
0 0 0 708 1420249 -7451 0
0 0 0 723 1420972 -6728 0
0 0 0 695 1421667 -6033 0
0 0 0 657 1422324 -5376 0
0 0 0 629 1422953 -4747 0
0 0 0 628 1423581 -4119 0
0 0 0 643 1424224 -3476 0
0 0 0 678 1424902 -2798 0
0 0 0 675 1425577 -2123 0
74 1 S106 640 1426217 -1483 0
74 1 S106 616 1426833 -867 0
74 1 S106 619 1427452 -248 0
74 2 S106 626 1428078 378 0
74 2 S106 653 1428731 1031 0
74 2 S106 665 1429396 1696 0
74 2 S106 684 1430080 2380 0
74 2 S106 693 1430773 3073 0
74 2 S106 686 1431459 3759 0
74 2 S106 655 1432114 4414 0
74 2 S106 646 1432760 5060 0
74 2 S106 634 1433394 5694 0
74 2 S106 630 1434024 6324 0
74 2 S106 648 1434672 6972 0
0 0 0 682 1435354 -7764 0
0 0 0 690 1436044 -7074 0
0 0 0 689 1436733 -6385 0
0 0 0 719 1437452 -5666 0
0 0 0 742 1438194 -4924 0
0 0 0 739 1438933 -4185 0
0 0 0 706 1439639 -3479 0
0 0 0 662 1440301 -2817 0
0 0 0 618 1440919 -2199 0
75 1 S112 595 1441514 -1604 0
75 1 S112 591 1442105 -1013 0
75 1 S112 598 1442703 -415 0
75 2 S112 668 1443371 253 0
75 2 S112 800 1444171 1053 0
75 2 S112 809 1444980 1862 0
75 2 S112 809 1445789 2671 0
75 2 S112 807 1446596 3478 0
75 2 S112 775 1447371 4253 0
75 2 S112 706 1448077 4959 0
75 2 S112 663 1448740 5622 0
75 2 S112 655 1449395 6277 0
75 2 S112 656 1450051 6933 0
0 0 0 658 1450709 -7214 0
0 0 0 669 1451378 -6545 0
0 0 0 664 1452042 -5881 0
0 0 0 698 1452740 -5183 0
0 0 0 728 1453468 -4455 0
0 0 0 753 1454221 -3702 0
0 0 0 744 1454965 -2958 0
0 0 0 705 1455670 -2253 0
76 1 S116 696 1456366 -1557 0
76 1 S116 703 1457069 -854 0
76 1 S116 719 1457788 -135 0
76 2 S116 723 1458511 588 0
76 2 S116 735 1459246 1323 0
76 2 S116 733 1459979 2056 0
76 2 S116 727 1460706 2783 0
76 2 S116 723 1461429 3506 0
76 2 S116 728 1462157 4234 0
76 2 S116 715 1462872 4949 0
76 2 S116 677 1463549 5626 0
76 2 S116 667 1464216 6293 0
76 2 S116 668 1464884 6961 0
0 0 0 688 1465572 -7271 0
0 0 0 734 1466306 -6537 0
0 0 0 753 1467059 -5784 0
0 0 0 743 1467802 -5041 0
0 0 0 729 1468531 -4312 0
0 0 0 713 1469244 -3599 0
0 0 0 701 1469945 -2898 0
0 0 0 683 1470628 -2215 0
77 1 S106 664 1471292 -1551 0
77 1 S106 675 1471967 -876 0
77 1 S106 683 1472650 -193 0
77 2 S106 708 1473358 515 0
77 2 S106 739 1474097 1254 0
77 2 S106 726 1474823 1980 0
77 2 S106 715 1475538 2695 0
77 2 S106 724 1476262 3419 0
77 2 S106 750 1477012 4169 0
77 2 S106 742 1477754 4911 0
77 2 S106 717 1478471 5628 0
77 2 S106 695 1479166 6323 0
77 2 S106 695 1479861 7018 0
0 0 0 683 1480544 -9093 0
0 0 0 697 1481241 -8396 0
0 0 0 708 1481949 -7688 0
0 0 0 680 1482629 -7008 0
0 0 0 685 1483314 -6323 0
0 0 0 679 1483993 -5644 0
0 0 0 690 1484683 -4954 0
0 0 0 676 1485359 -4278 0
0 0 0 666 1486025 -3612 0
0 0 0 677 1486702 -2935 0
0 0 0 682 1487384 -2253 0
78 1 S112 710 1488094 -1543 0
78 1 S112 710 1488804 -833 0
78 1 S112 682 1489486 -151 0
78 2 S112 663 1490149 512 0
78 2 S112 682 1490831 1194 0
78 2 S112 715 1491546 1909 0
78 2 S112 714 1492260 2623 0
78 2 S112 679 1492939 3302 0
78 2 S112 658 1493597 3960 0
78 2 S112 669 1494266 4629 0
78 2 S112 688 1494954 5317 0
78 2 S112 696 1495650 6013 0
78 2 S112 698 1496348 6711 0
0 0 0 678 1497026 -11229 0
0 0 0 694 1497720 -10535 0
0 0 0 712 1498432 -9823 0
0 0 0 756 1499188 -9067 0
0 0 0 746 1499934 -8321 0
0 0 0 706 1500640 -7615 0
0 0 0 685 1501325 -6930 0
0 0 0 677 1502002 -6253 0
0 0 0 674 1502676 -5579 0
0 0 0 691 1503367 -4888 0
0 0 0 656 1504023 -4232 0
0 0 0 630 1504653 -3602 0
0 0 0 598 1505251 -3004 0
0 0 0 582 1505833 -2422 0
79 1 S102 593 1506426 -1829 0
79 1 S102 632 1507058 -1197 0
79 1 S102 738 1507796 -459 0
79 2 S102 730 1508526 271 0
79 2 S102 679 1509205 950 0
79 2 S102 666 1509871 1616 0
79 2 S102 691 1510562 2307 0
79 2 S102 672 1511234 2979 0
79 2 S102 659 1511893 3638 0
79 2 S102 667 1512560 4305 0
79 2 S102 670 1513230 4975 0
79 2 S102 698 1513928 5673 0
79 2 S102 700 1514628 6373 0
0 0 0 674 1515302 -8338 0
0 0 0 683 1515985 -7655 0
0 0 0 698 1516683 -6957 0
0 0 0 702 1517385 -6255 0
0 0 0 713 1518098 -5542 0
0 0 0 679 1518777 -4863 0
0 0 0 676 1519453 -4187 0
0 0 0 691 1520144 -3496 0
0 0 0 733 1520877 -2763 0
80 1 S116 767 1521644 -1996 0
80 1 S116 785 1522429 -1211 0
80 1 S116 747 1523176 -464 0
80 2 S116 738 1523914 274 0
80 2 S116 749 1524663 1023 0
80 2 S116 743 1525406 1766 0
80 2 S116 745 1526151 2511 0
80 2 S116 718 1526869 3229 0
80 2 S116 689 1527558 3918 0
80 2 S116 712 1528270 4630 0
80 2 S116 715 1528985 5345 0
80 2 S116 733 1529718 6078 0
80 2 S116 716 1530434 6794 0
