T_0079
BeatCount Mean SD BeatCountNoOutliers MeanNoOutliers SDNoOutliers
2438 636,39376538146 65,2559368479206 2398 632,424520433695 57,6220045776607

Trial TrialStatus Trialtype IBI AbsPosition RelPosition Outlier
0 0 0 628 826 -14721 0
0 0 0 613 1439 -14108 0
0 0 0 606 2045 -13502 0
0 0 0 567 2612 -12935 0
0 0 0 528 3140 -12407 0
0 0 0 495 3635 -11912 0
0 0 0 494 4129 -11418 0
0 0 0 495 4624 -10923 0
0 0 0 556 5180 -10367 0
0 0 0 667 5847 -9700 0
0 0 0 730 6577 -8970 0
0 0 0 683 7260 -8287 0
0 0 0 642 7902 -7645 0
0 0 0 604 8506 -7041 0
0 0 0 622 9128 -6419 0
0 0 0 591 9719 -5828 0
0 0 0 602 10321 -5226 0
0 0 0 601 10922 -4625 0
0 0 0 613 11535 -4012 0
0 0 0 585 12120 -3427 0
0 0 0 568 12688 -2859 0
0 0 0 528 13216 -2331 0
1 1 S112 561 13777 -1770 0
1 1 S112 568 14345 -1202 0
1 1 S112 677 15022 -525 0
1 2 S112 714 15736 189 0
1 2 S112 697 16433 886 0
1 2 S112 676 17109 1562 0
1 2 S112 672 17781 2234 0
1 2 S112 654 18435 2888 0
1 2 S112 611 19046 3499 0
1 2 S112 580 19626 4079 0
1 2 S112 573 20199 4652 0
1 2 S112 561 20760 5213 0
1 2 S112 590 21350 5803 0
1 2 S112 620 21970 6423 0
0 0 0 657 22627 -11852 0
0 0 0 660 23287 -11192 0
0 0 0 611 23898 -10581 0
0 0 0 593 24491 -9988 0
0 0 0 585 25076 -9403 0
0 0 0 601 25677 -8802 0
0 0 0 621 26298 -8181 0
0 0 0 605 26903 -7576 0
0 0 0 564 27467 -7012 0
0 0 0 572 28039 -6440 0
0 0 0 585 28624 -5855 0
0 0 0 585 29209 -5270 0
0 0 0 591 29800 -4679 0
0 0 0 612 30412 -4067 0
0 0 0 700 31112 -3367 0
0 0 0 718 31830 -2649 0
2 1 S102 717 32547 -1932 0
2 1 S102 644 33191 -1288 0
2 1 S102 617 33808 -671 0
2 1 S102 571 34379 -100 0
2 2 S102 545 34924 445 0
2 2 S102 545 35469 990 0
2 2 S102 552 36021 1542 0
2 2 S102 630 36651 2172 0
2 2 S102 833 37484 3005 1
2 2 S102 810 38294 3815 1
2 2 S102 781 39075 4596 0
2 2 S102 710 39785 5306 0
2 2 S102 701 40486 6007 0
2 2 S102 689 41175 6696 0
0 0 0 735 41910 -9181 0
0 0 0 698 42608 -8483 0
0 0 0 674 43282 -7809 0
0 0 0 610 43892 -7199 0
0 0 0 623 44515 -6576 0
0 0 0 605 45120 -5971 0
0 0 0 643 45763 -5328 0
0 0 0 610 46373 -4718 0
0 0 0 588 46961 -4130 0
0 0 0 565 47526 -3565 0
0 0 0 579 48105 -2986 0
0 0 0 566 48671 -2420 0
3 1 S116 600 49271 -1820 0
3 1 S116 634 49905 -1186 0
3 1 S116 654 50559 -532 0
3 2 S116 607 51166 75 0
3 2 S116 588 51754 663 0
3 2 S116 592 52346 1255 0
3 2 S116 599 52945 1854 0
3 2 S116 605 53550 2459 0
3 2 S116 650 54200 3109 0
3 2 S116 660 54860 3769 0
3 2 S116 648 55508 4417 0
3 2 S116 611 56119 5028 0
3 2 S116 594 56713 5622 0
3 2 S116 610 57323 6232 0
3 2 S116 643 57966 6875 0
0 0 0 667 58633 -11954 0
0 0 0 647 59280 -11307 0
0 0 0 599 59879 -10708 0
0 0 0 604 60483 -10104 0
0 0 0 604 61087 -9500 0
0 0 0 615 61702 -8885 0
0 0 0 617 62319 -8268 0
0 0 0 601 62920 -7667 0
0 0 0 586 63506 -7081 0
0 0 0 586 64092 -6495 0
0 0 0 588 64680 -5907 0
0 0 0 601 65281 -5306 0
0 0 0 585 65866 -4721 0
0 0 0 570 66436 -4151 0
0 0 0 556 66992 -3595 0
0 0 0 547 67539 -3048 0
0 0 0 565 68104 -2483 0
4 1 S106 645 68749 -1838 0
4 1 S106 747 69496 -1091 0
4 1 S106 791 70287 -300 0
4 2 S106 779 71066 479 0
4 2 S106 720 71786 1199 0
4 2 S106 664 72450 1863 0
4 2 S106 660 73110 2523 0
4 2 S106 659 73769 3182 0
4 2 S106 651 74420 3833 0
4 2 S106 623 75043 4456 0
4 2 S106 599 75642 5055 0
4 2 S106 613 76255 5668 0
4 2 S106 602 76857 6270 0
4 2 S106 622 77479 6892 0
0 0 0 619 78098 -8620 0
0 0 0 610 78708 -8010 0
0 0 0 587 79295 -7423 0
0 0 0 590 79885 -6833 0
0 0 0 639 80524 -6194 0
0 0 0 729 81253 -5465 0
0 0 0 696 81949 -4769 0
0 0 0 682 82631 -4087 0
0 0 0 628 83259 -3459 0
0 0 0 641 83900 -2818 0
0 0 0 617 84517 -2201 0
5 1 S116 601 85118 -1600 0
5 1 S116 573 85691 -1027 0
5 1 S116 582 86273 -445 0
5 2 S116 594 86867 149 0
5 2 S116 586 87453 735 0
5 2 S116 566 88019 1301 0
5 2 S116 570 88589 1871 0
5 2 S116 564 89153 2435 0
5 2 S116 607 89760 3042 0
5 2 S116 663 90423 3705 0
5 2 S116 704 91127 4409 0
5 2 S116 676 91803 5085 0
5 2 S116 635 92438 5720 0
5 2 S116 692 93130 6412 0
0 0 0 678 93808 -10383 0
0 0 0 679 94487 -9704 0
0 0 0 647 95134 -9057 0
0 0 0 601 95735 -8456 0
0 0 0 595 96330 -7861 0
0 0 0 597 96927 -7264 0
0 0 0 608 97535 -6656 0
0 0 0 623 98158 -6033 0
0 0 0 616 98774 -5417 0
0 0 0 593 99367 -4824 0
0 0 0 582 99949 -4242 0
0 0 0 556 100505 -3686 0
0 0 0 603 101108 -3083 0
0 0 0 658 101766 -2425 0
6 1 S106 671 102437 -1754 0
6 1 S106 694 103131 -1060 0
6 1 S106 658 103789 -402 0
6 2 S106 625 104414 223 0
6 2 S106 585 104999 808 0
6 2 S106 560 105559 1368 0
6 2 S106 563 106122 1931 0
6 2 S106 585 106707 2516 0
6 2 S106 605 107312 3121 0
6 2 S106 631 107943 3752 0
6 2 S106 648 108591 4400 0
6 2 S106 647 109238 5047 0
6 2 S106 624 109862 5671 0
6 2 S106 592 110454 6263 0
6 2 S106 579 111033 6842 0
0 0 0 595 111628 -10882 0
0 0 0 628 112256 -10254 0
0 0 0 646 112902 -9608 0
0 0 0 619 113521 -8989 0
0 0 0 621 114142 -8368 0
0 0 0 624 114766 -7744 0
0 0 0 628 115394 -7116 0
0 0 0 600 115994 -6516 0
0 0 0 568 116562 -5948 0
0 0 0 586 117148 -5362 0
0 0 0 581 117729 -4781 0
0 0 0 562 118291 -4219 0
0 0 0 574 118865 -3645 0
0 0 0 583 119448 -3062 0
0 0 0 630 120078 -2432 0
7 1 S102 626 120704 -1806 0
7 1 S102 607 121311 -1199 0
7 1 S102 581 121892 -618 0
7 1 S102 545 122437 -73 0
7 2 S102 541 122978 468 0
7 2 S102 555 123533 1023 0
7 2 S102 597 124130 1620 0
7 2 S102 715 124845 2335 0
7 2 S102 745 125590 3080 0
7 2 S102 718 126308 3798 0
7 2 S102 663 126971 4461 0
7 2 S102 658 127629 5119 0
7 2 S102 662 128291 5781 0
7 2 S102 647 128938 6428 0
0 0 0 648 129586 -10829 0
0 0 0 614 130200 -10215 0
0 0 0 584 130784 -9631 0
0 0 0 582 131366 -9049 0
0 0 0 583 131949 -8466 0
0 0 0 598 132547 -7868 0
0 0 0 601 133148 -7267 0
0 0 0 576 133724 -6691 0
0 0 0 577 134301 -6114 0
0 0 0 588 134889 -5526 0
0 0 0 615 135504 -4911 0
0 0 0 648 136152 -4263 0
0 0 0 614 136766 -3649 0
0 0 0 581 137347 -3068 0
0 0 0 570 137917 -2498 0
8 1 S112 575 138492 -1923 0
8 1 S112 577 139069 -1346 0
8 1 S112 581 139650 -765 0
8 1 S112 585 140235 -180 0
8 2 S112 579 140814 399 0
8 2 S112 583 141397 982 0
8 2 S112 605 142002 1587 0
8 2 S112 641 142643 2228 0
8 2 S112 710 143353 2938 0
8 2 S112 695 144048 3633 0
8 2 S112 744 144792 4377 0
8 2 S112 683 145475 5060 0
8 2 S112 673 146148 5733 0
8 2 S112 651 146799 6384 0
8 2 S112 625 147424 7009 0
0 0 0 613 148037 -6851 0
0 0 0 576 148613 -6275 0
0 0 0 571 149184 -5704 0
0 0 0 571 149755 -5133 0
0 0 0 584 150339 -4549 0
0 0 0 611 150950 -3938 0
0 0 0 599 151549 -3339 0
0 0 0 590 152139 -2749 0
0 0 0 637 152776 -2112 0
9 1 S116 668 153444 -1444 0
9 1 S116 732 154176 -712 0
9 2 S116 725 154901 13 0
9 2 S116 645 155546 658 0
9 2 S116 635 156181 1293 0
9 2 S116 617 156798 1910 0
9 2 S116 615 157413 2525 0
9 2 S116 608 158021 3133 0
9 2 S116 613 158634 3746 0
9 2 S116 586 159220 4332 0
9 2 S116 579 159799 4911 0
9 2 S116 592 160391 5503 0
9 2 S116 593 160984 6096 0
9 2 S116 671 161655 6767 0
0 0 0 767 162422 -11680 0
0 0 0 731 163153 -10949 0
0 0 0 653 163806 -10296 0
0 0 0 654 164460 -9642 0
0 0 0 658 165118 -8984 0
0 0 0 652 165770 -8332 0
0 0 0 652 166422 -7680 0
0 0 0 613 167035 -7067 0
0 0 0 585 167620 -6482 0
0 0 0 558 168178 -5924 0
0 0 0 562 168740 -5362 0
0 0 0 561 169301 -4801 0
0 0 0 602 169903 -4199 0
0 0 0 686 170589 -3513 0
0 0 0 733 171322 -2780 0
0 0 0 737 172059 -2043 0
10 1 S102 694 172753 -1349 0
10 1 S102 646 173399 -703 0
10 1 S102 649 174048 -54 0
10 2 S102 630 174678 576 0
10 2 S102 647 175325 1223 0
10 2 S102 647 175972 1870 0
10 2 S102 634 176606 2504 0
10 2 S102 609 177215 3113 0
10 2 S102 592 177807 3705 0
10 2 S102 591 178398 4296 0
10 2 S102 594 178992 4890 0
10 2 S102 608 179600 5498 0
10 2 S102 625 180225 6123 0
10 2 S102 632 180857 6755 0
0 0 0 604 181461 -11988 0
0 0 0 587 182048 -11401 0
0 0 0 575 182623 -10826 0
0 0 0 595 183218 -10231 0
0 0 0 613 183831 -9618 0
0 0 0 648 184479 -8970 0
0 0 0 634 185113 -8336 0
0 0 0 590 185703 -7746 0
0 0 0 573 186276 -7173 0
0 0 0 547 186823 -6626 0
0 0 0 565 187388 -6061 0
0 0 0 551 187939 -5510 0
0 0 0 539 188478 -4971 0
0 0 0 526 189004 -4445 0
0 0 0 545 189549 -3900 0
0 0 0 583 190132 -3317 0
0 0 0 558 190690 -2759 0
0 0 0 548 191238 -2211 0
11 1 S112 557 191795 -1654 0
11 1 S112 613 192408 -1041 0
11 1 S112 704 193112 -337 0
11 2 S112 771 193883 434 0
11 2 S112 784 194667 1218 0
11 2 S112 746 195413 1964 0
11 2 S112 657 196070 2621 0
11 2 S112 641 196711 3262 0
11 2 S112 649 197360 3911 0
11 2 S112 658 198018 4569 0
11 2 S112 664 198682 5233 0
11 2 S112 651 199333 5884 0
11 2 S112 635 199968 6519 0
0 0 0 596 200564 -9066 0
0 0 0 596 201160 -8470 0
0 0 0 609 201769 -7861 0
0 0 0 664 202433 -7197 0
0 0 0 728 203161 -6469 0
0 0 0 773 203934 -5696 0
0 0 0 703 204637 -4993 0
0 0 0 763 205400 -4230 0
0 0 0 731 206131 -3499 0
0 0 0 753 206884 -2746 0
0 0 0 702 207586 -2044 0
12 1 S116 613 208199 -1431 0
12 1 S116 573 208772 -858 0
12 1 S116 565 209337 -293 0
12 2 S116 572 209909 279 0
12 2 S116 640 210549 919 0
12 2 S116 643 211192 1562 0
12 2 S116 625 211817 2187 0
12 2 S116 585 212402 2772 0
12 2 S116 557 212959 3329 0
12 2 S116 545 213504 3874 0
12 2 S116 539 214043 4413 0
12 2 S116 543 214586 4956 0
12 2 S116 546 215132 5502 0
12 2 S116 548 215680 6050 0
12 2 S116 547 216227 6597 0
0 0 0 528 216755 -12122 0
0 0 0 530 217285 -11592 0
0 0 0 515 217800 -11077 0
0 0 0 548 218348 -10529 0
0 0 0 602 218950 -9927 0
0 0 0 732 219682 -9195 0
0 0 0 718 220400 -8477 0
0 0 0 758 221158 -7719 0
0 0 0 661 221819 -7058 0
0 0 0 678 222497 -6380 0
0 0 0 697 223194 -5683 0
0 0 0 675 223869 -5008 0
0 0 0 652 224521 -4356 0
0 0 0 593 225114 -3763 0
0 0 0 580 225694 -3183 0
0 0 0 630 226324 -2553 0
13 1 S112 951 227275 -1602 1
13 1 S112 903 228178 -699 1
13 2 S112 861 229039 162 1
13 2 S112 808 229847 970 1
13 2 S112 744 230591 1714 0
13 2 S112 643 231234 2357 0
13 2 S112 596 231830 2953 0
13 2 S112 577 232407 3530 0
13 2 S112 576 232983 4106 0
13 2 S112 652 233635 4758 0
13 2 S112 785 234420 5543 0
13 2 S112 867 235287 6410 1
0 0 0 786 236073 -12201 0
0 0 0 771 236844 -11430 0
0 0 0 755 237599 -10675 0
0 0 0 735 238334 -9940 0
0 0 0 712 239046 -9228 0
0 0 0 672 239718 -8556 0
0 0 0 658 240376 -7898 0
0 0 0 678 241054 -7220 0
0 0 0 661 241715 -6559 0
0 0 0 618 242333 -5941 0
0 0 0 600 242933 -5341 0
0 0 0 618 243551 -4723 0
0 0 0 646 244197 -4077 0
0 0 0 680 244877 -3397 0
0 0 0 688 245565 -2709 0
0 0 0 625 246190 -2084 0
14 1 S106 620 246810 -1464 0
14 1 S106 613 247423 -851 0
14 1 S106 635 248058 -216 0
14 2 S106 698 248756 482 0
14 2 S106 646 249402 1128 0
14 2 S106 609 250011 1737 0
14 2 S106 634 250645 2371 0
14 2 S106 655 251300 3026 0
14 2 S106 692 251992 3718 0
14 2 S106 710 252702 4428 0
14 2 S106 637 253339 5065 0
14 2 S106 633 253972 5698 0
14 2 S106 640 254612 6338 0
14 2 S106 669 255281 7007 0
0 0 0 642 255923 -11532 0
0 0 0 627 256550 -10905 0
0 0 0 593 257143 -10312 0
0 0 0 632 257775 -9680 0
0 0 0 637 258412 -9043 0
0 0 0 664 259076 -8379 0
0 0 0 607 259683 -7772 0
0 0 0 646 260329 -7126 0
0 0 0 619 260948 -6507 0
0 0 0 641 261589 -5866 0
0 0 0 580 262169 -5286 0
0 0 0 565 262734 -4721 0
0 0 0 576 263310 -4145 0
0 0 0 561 263871 -3584 0
0 0 0 535 264406 -3049 0
0 0 0 554 264960 -2495 0
15 1 S116 561 265521 -1934 0
15 1 S116 574 266095 -1360 0
15 1 S116 635 266730 -725 0
15 1 S116 674 267404 -51 0
15 2 S116 657 268061 606 0
15 2 S116 611 268672 1217 0
15 2 S116 586 269258 1803 0
15 2 S116 586 269844 2389 0
15 2 S116 596 270440 2985 0
15 2 S116 653 271093 3638 0
15 2 S116 651 271744 4289 0
15 2 S116 650 272394 4939 0
15 2 S116 591 272985 5530 0
15 2 S116 580 273565 6110 0
15 2 S116 583 274148 6693 0
0 0 0 571 274719 -10160 0
0 0 0 601 275320 -9559 0
0 0 0 611 275931 -8948 0
0 0 0 603 276534 -8345 0
0 0 0 637 277171 -7708 0
0 0 0 741 277912 -6967 0
0 0 0 761 278673 -6206 0
0 0 0 765 279438 -5441 0
0 0 0 693 280131 -4748 0
0 0 0 701 280832 -4047 0
0 0 0 719 281551 -3328 0
0 0 0 662 282213 -2666 0
0 0 0 606 282819 -2060 0
16 1 S116 560 283379 -1500 0
16 1 S116 575 283954 -925 0
16 1 S116 598 284552 -327 0
16 2 S116 661 285213 334 0
16 2 S116 676 285889 1010 0
16 2 S116 625 286514 1635 0
16 2 S116 571 287085 2206 0
16 2 S116 542 287627 2748 0
16 2 S116 560 288187 3308 0
16 2 S116 562 288749 3870 0
16 2 S116 572 289321 4442 0
16 2 S116 570 289891 5012 0
16 2 S116 599 290490 5611 0
16 2 S116 611 291101 6222 0
16 2 S116 584 291685 6806 0
0 0 0 583 292268 -9770 0
0 0 0 588 292856 -9182 0
0 0 0 586 293442 -8596 0
0 0 0 574 294016 -8022 0
0 0 0 598 294614 -7424 0
0 0 0 599 295213 -6825 0
0 0 0 620 295833 -6205 0
0 0 0 740 296573 -5465 0
0 0 0 765 297338 -4700 0
0 0 0 811 298149 -3889 1
0 0 0 765 298914 -3124 0
0 0 0 701 299615 -2423 0
17 1 S106 754 300369 -1669 0
17 1 S106 719 301088 -950 0
17 1 S106 740 301828 -210 0
17 2 S106 697 302525 487 0
17 2 S106 657 303182 1144 0
17 2 S106 608 303790 1752 0
17 2 S106 603 304393 2355 0
17 2 S106 608 305001 2963 0
17 2 S106 659 305660 3622 0
17 2 S106 720 306380 4342 0
17 2 S106 736 307116 5078 0
17 2 S106 735 307851 5813 0
17 2 S106 700 308551 6513 0
0 0 0 721 309272 -11897 0
0 0 0 689 309961 -11208 0
0 0 0 683 310644 -10525 0
0 0 0 623 311267 -9902 0
0 0 0 597 311864 -9305 0
0 0 0 608 312472 -8697 0
0 0 0 612 313084 -8085 0
0 0 0 676 313760 -7409 0
0 0 0 639 314399 -6770 0
0 0 0 620 315019 -6150 0
0 0 0 605 315624 -5545 0
0 0 0 623 316247 -4922 0
0 0 0 654 316901 -4268 0
0 0 0 710 317611 -3558 0
0 0 0 709 318320 -2849 0
0 0 0 691 319011 -2158 0
18 1 S102 624 319635 -1534 0
18 1 S102 611 320246 -923 0
18 1 S102 605 320851 -318 0
18 2 S102 618 321469 300 0
18 2 S102 628 322097 928 0
18 2 S102 641 322738 1569 0
18 2 S102 599 323337 2168 0
18 2 S102 595 323932 2763 0
18 2 S102 595 324527 3358 0
18 2 S102 624 325151 3982 0
18 2 S102 657 325808 4639 0
18 2 S102 706 326514 5345 0
18 2 S102 683 327197 6028 0
18 2 S102 639 327836 6667 0
0 0 0 629 328465 -7360 0
0 0 0 674 329139 -6686 0
0 0 0 653 329792 -6033 0
0 0 0 659 330451 -5374 0
0 0 0 607 331058 -4767 0
0 0 0 590 331648 -4177 0
0 0 0 598 332246 -3579 0
0 0 0 576 332822 -3003 0
0 0 0 580 333402 -2423 0
19 1 S106 563 333965 -1860 0
19 1 S106 607 334572 -1253 0
19 1 S106 599 335171 -654 0
19 1 S106 583 335754 -71 0
19 2 S106 579 336333 508 0
19 2 S106 645 336978 1153 0
19 2 S106 665 337643 1818 0
19 2 S106 720 338363 2538 0
19 2 S106 695 339058 3233 0
19 2 S106 635 339693 3868 0
19 2 S106 612 340305 4480 0
19 2 S106 618 340923 5098 0
19 2 S106 610 341533 5708 0
19 2 S106 636 342169 6344 0
19 2 S106 617 342786 6961 0
0 0 0 624 343410 -11745 0
0 0 0 596 344006 -11149 0
0 0 0 595 344601 -10554 0
0 0 0 643 345244 -9911 0
0 0 0 712 345956 -9199 0
0 0 0 748 346704 -8451 0
0 0 0 716 347420 -7735 0
0 0 0 719 348139 -7016 0
0 0 0 751 348890 -6265 0
0 0 0 734 349624 -5531 0
0 0 0 714 350338 -4817 0
0 0 0 642 350980 -4175 0
0 0 0 615 351595 -3560 0
0 0 0 613 352208 -2947 0
0 0 0 601 352809 -2346 0
20 1 S112 639 353448 -1707 0
20 1 S112 647 354095 -1060 0
20 1 S112 622 354717 -438 0
20 2 S112 619 355336 181 0
20 2 S112 658 355994 839 0
20 2 S112 716 356710 1555 0
20 2 S112 797 357507 2352 0
20 2 S112 749 358256 3101 0
20 2 S112 680 358936 3781 0
20 2 S112 658 359594 4439 0
20 2 S112 685 360279 5124 0
20 2 S112 695 360974 5819 0
20 2 S112 702 361676 6521 0
0 0 0 624 362300 -10047 0
0 0 0 608 362908 -9439 0
0 0 0 627 363535 -8812 0
0 0 0 603 364138 -8209 0
0 0 0 635 364773 -7574 0
0 0 0 592 365365 -6982 0
0 0 0 587 365952 -6395 0
0 0 0 586 366538 -5809 0
0 0 0 615 367153 -5194 0
0 0 0 646 367799 -4548 0
0 0 0 648 368447 -3900 0
0 0 0 617 369064 -3283 0
0 0 0 599 369663 -2684 0
0 0 0 622 370285 -2062 0
21 1 S106 629 370914 -1433 0
21 1 S106 670 371584 -763 0
21 1 S106 696 372280 -67 0
21 2 S106 705 372985 638 0
21 2 S106 668 373653 1306 0
21 2 S106 604 374257 1910 0
21 2 S106 597 374854 2507 0
21 2 S106 606 375460 3113 0
21 2 S106 635 376095 3748 0
21 2 S106 699 376794 4447 0
21 2 S106 694 377488 5141 0
21 2 S106 662 378150 5803 0
21 2 S106 617 378767 6420 0
0 0 0 634 379401 -11679 0
0 0 0 622 380023 -11057 0
0 0 0 664 380687 -10393 0
0 0 0 650 381337 -9743 0
0 0 0 632 381969 -9111 0
0 0 0 594 382563 -8517 0
0 0 0 598 383161 -7919 0
0 0 0 605 383766 -7314 0
0 0 0 613 384379 -6701 0
0 0 0 628 385007 -6073 0
0 0 0 601 385608 -5472 0
0 0 0 600 386208 -4872 0
0 0 0 621 386829 -4251 0
0 0 0 626 387455 -3625 0
0 0 0 643 388098 -2982 0
0 0 0 681 388779 -2301 0
22 1 S116 669 389448 -1632 0
22 1 S116 608 390056 -1024 0
22 1 S116 583 390639 -441 0
22 2 S116 559 391198 118 0
22 2 S116 576 391774 694 0
22 2 S116 590 392364 1284 0
22 2 S116 603 392967 1887 0
22 2 S116 641 393608 2528 0
22 2 S116 604 394212 3132 0
22 2 S116 594 394806 3726 0
22 2 S116 586 395392 4312 0
22 2 S116 661 396053 4973 0
22 2 S116 819 396872 5792 1
22 2 S116 852 397724 6644 1
0 0 0 752 398476 -9564 0
0 0 0 660 399136 -8904 0
0 0 0 609 399745 -8295 0
0 0 0 608 400353 -7687 0
0 0 0 597 400950 -7090 0
0 0 0 593 401543 -6497 0
0 0 0 590 402133 -5907 0
0 0 0 603 402736 -5304 0
0 0 0 587 403323 -4717 0
0 0 0 610 403933 -4107 0
0 0 0 695 404628 -3412 0
0 0 0 759 405387 -2653 0
23 1 S112 825 406212 -1828 1
23 1 S112 805 407017 -1023 1
23 1 S112 703 407720 -320 0
23 2 S112 693 408413 373 0
23 2 S112 683 409096 1056 0
23 2 S112 681 409777 1737 0
23 2 S112 710 410487 2447 0
23 2 S112 675 411162 3122 0
23 2 S112 617 411779 3739 0
23 2 S112 604 412383 4343 0
23 2 S112 616 412999 4959 0
23 2 S112 643 413642 5602 0
23 2 S112 685 414327 6287 0
23 2 S112 691 415018 6978 0
0 0 0 647 415665 -8572 0
0 0 0 642 416307 -7930 0
0 0 0 643 416950 -7287 0
0 0 0 668 417618 -6619 0
0 0 0 643 418261 -5976 0
0 0 0 605 418866 -5371 0
0 0 0 610 419476 -4761 0
0 0 0 575 420051 -4186 0
0 0 0 573 420624 -3613 0
0 0 0 606 421230 -3007 0
0 0 0 617 421847 -2390 0
24 1 S106 585 422432 -1805 0
24 1 S106 549 422981 -1256 0
24 1 S106 545 423526 -711 0
24 1 S106 570 424096 -141 0
24 2 S106 596 424692 455 0
24 2 S106 688 425380 1143 0
24 2 S106 739 426119 1882 0
24 2 S106 700 426819 2582 0
24 2 S106 671 427490 3253 0
24 2 S106 712 428202 3965 0
24 2 S106 697 428899 4662 0
24 2 S106 706 429605 5368 0
24 2 S106 647 430252 6015 0
24 2 S106 623 430875 6638 0
0 0 0 612 431487 -8798 0
0 0 0 617 432104 -8181 0
0 0 0 634 432738 -7547 0
0 0 0 676 433414 -6871 0
0 0 0 618 434032 -6253 0
0 0 0 619 434651 -5634 0
0 0 0 645 435296 -4989 0
0 0 0 693 435989 -4296 0
0 0 0 711 436700 -3585 0
0 0 0 715 437415 -2870 0
0 0 0 642 438057 -2228 0
25 1 S102 649 438706 -1579 0
25 1 S102 638 439344 -941 0
25 1 S102 640 439984 -301 0
25 2 S102 607 440591 306 0
25 2 S102 601 441192 907 0
25 2 S102 595 441787 1502 0
25 2 S102 606 442393 2108 0
25 2 S102 631 443024 2739 0
25 2 S102 658 443682 3397 0
25 2 S102 646 444328 4043 0
25 2 S102 611 444939 4654 0
25 2 S102 604 445543 5258 0
25 2 S102 614 446157 5872 0
25 2 S102 649 446806 6521 0
0 0 0 680 447486 -7603 0
0 0 0 676 448162 -6927 0
0 0 0 616 448778 -6311 0
0 0 0 613 449391 -5698 0
0 0 0 634 450025 -5064 0
0 0 0 646 450671 -4418 0
0 0 0 694 451365 -3724 0
0 0 0 625 451990 -3099 0
0 0 0 609 452599 -2490 0
26 1 S116 606 453205 -1884 0
26 1 S116 633 453838 -1251 0
26 1 S116 658 454496 -593 0
26 2 S116 664 455160 71 0
26 2 S116 607 455767 678 0
26 2 S116 605 456372 1283 0
26 2 S116 597 456969 1880 0
26 2 S116 600 457569 2480 0
26 2 S116 623 458192 3103 0
26 2 S116 674 458866 3777 0
26 2 S116 639 459505 4416 0
26 2 S116 632 460137 5048 0
26 2 S116 671 460808 5719 0
26 2 S116 685 461493 6404 0
0 0 0 735 462228 -8445 0
0 0 0 742 462970 -7703 0
0 0 0 646 463616 -7057 0
0 0 0 600 464216 -6457 0
0 0 0 586 464802 -5871 0
0 0 0 607 465409 -5264 0
0 0 0 624 466033 -4640 0
0 0 0 686 466719 -3954 0
0 0 0 741 467460 -3213 0
0 0 0 689 468149 -2524 0
27 1 S106 660 468809 -1864 0
27 1 S106 720 469529 -1144 0
27 1 S106 690 470219 -454 0
27 2 S106 699 470918 245 0
27 2 S106 682 471600 927 0
27 2 S106 622 472222 1549 0
27 2 S106 614 472836 2163 0
27 2 S106 610 473446 2773 0
27 2 S106 630 474076 3403 0
27 2 S106 670 474746 4073 0
27 2 S106 664 475410 4737 0
27 2 S106 636 476046 5373 0
27 2 S106 594 476640 5967 0
27 2 S106 596 477236 6563 0
0 0 0 593 477829 -7533 0
0 0 0 643 478472 -6890 0
0 0 0 672 479144 -6218 0
0 0 0 651 479795 -5567 0
0 0 0 608 480403 -4959 0
0 0 0 594 480997 -4365 0
0 0 0 589 481586 -3776 0
0 0 0 598 482184 -3178 0
0 0 0 603 482787 -2575 0
28 1 S102 591 483378 -1984 0
28 1 S102 576 483954 -1408 0
28 1 S102 581 484535 -827 0
28 1 S102 598 485133 -229 0
28 2 S102 600 485733 371 0
28 2 S102 579 486312 950 0
28 2 S102 546 486858 1496 0
28 2 S102 526 487384 2022 0
28 2 S102 522 487906 2544 0
28 2 S102 569 488475 3113 0
28 2 S102 588 489063 3701 0
28 2 S102 719 489782 4420 0
28 2 S102 732 490514 5152 0
28 2 S102 718 491232 5870 0
28 2 S102 671 491903 6541 0
0 0 0 631 492534 -11196 0
0 0 0 640 493174 -10556 0
0 0 0 631 493805 -9925 0
0 0 0 646 494451 -9279 0
0 0 0 589 495040 -8690 0
0 0 0 578 495618 -8112 0
0 0 0 587 496205 -7525 0
0 0 0 569 496774 -6956 0
0 0 0 544 497318 -6412 0
0 0 0 570 497888 -5842 0
0 0 0 583 498471 -5259 0
0 0 0 615 499086 -4644 0
0 0 0 682 499768 -3962 0
0 0 0 717 500485 -3245 0
0 0 0 671 501156 -2574 0
29 1 S112 663 501819 -1911 0
29 1 S112 700 502519 -1211 0
29 1 S112 773 503292 -438 0
29 2 S112 775 504067 337 0
29 2 S112 774 504841 1111 0
29 2 S112 744 505585 1855 0
29 2 S112 640 506225 2495 0
29 2 S112 605 506830 3100 0
29 2 S112 583 507413 3683 0
29 2 S112 596 508009 4279 0
29 2 S112 680 508689 4959 0
29 2 S112 929 509618 5888 1
29 2 S112 883 510501 6771 1
0 0 0 750 511251 -7317 0
0 0 0 763 512014 -6554 0
0 0 0 734 512748 -5820 0
0 0 0 843 513591 -4977 1
0 0 0 710 514301 -4267 0
0 0 0 653 514954 -3614 0
0 0 0 637 515591 -2977 0
0 0 0 629 516220 -2348 0
30 1 S112 641 516861 -1707 0
30 1 S112 666 517527 -1041 0
30 1 S112 637 518164 -404 0
30 2 S112 605 518769 201 0
30 2 S112 594 519363 795 0
30 2 S112 596 519959 1391 0
30 2 S112 617 520576 2008 0
30 2 S112 733 521309 2741 0
30 2 S112 753 522062 3494 0
30 2 S112 701 522763 4195 0
30 2 S112 655 523418 4850 0
30 2 S112 700 524118 5550 0
30 2 S112 679 524797 6229 0
30 2 S112 710 525507 6939 0
0 0 0 680 526187 -9341 0
0 0 0 623 526810 -8718 0
0 0 0 636 527446 -8082 0
0 0 0 628 528074 -7454 0
0 0 0 663 528737 -6791 0
0 0 0 652 529389 -6139 0
0 0 0 599 529988 -5540 0
0 0 0 597 530585 -4943 0
0 0 0 604 531189 -4339 0
0 0 0 631 531820 -3708 0
0 0 0 711 532531 -2997 0
0 0 0 661 533192 -2336 0
31 1 S106 638 533830 -1698 0
31 1 S106 657 534487 -1041 0
31 1 S106 662 535149 -379 0
31 2 S106 706 535855 327 0
31 2 S106 691 536546 1018 0
31 2 S106 643 537189 1661 0
31 2 S106 623 537812 2284 0
31 2 S106 630 538442 2914 0
31 2 S106 674 539116 3588 0
31 2 S106 668 539784 4256 0
31 2 S106 694 540478 4950 0
31 2 S106 628 541106 5578 0
31 2 S106 612 541718 6190 0
31 2 S106 615 542333 6805 0
0 0 0 632 542965 -9920 0
0 0 0 665 543630 -9255 0
0 0 0 659 544289 -8596 0
0 0 0 632 544921 -7964 0
0 0 0 677 545598 -7287 0
0 0 0 665 546263 -6622 0
0 0 0 642 546905 -5980 0
0 0 0 606 547511 -5374 0
0 0 0 638 548149 -4736 0
0 0 0 625 548774 -4111 0
0 0 0 635 549409 -3476 0
0 0 0 645 550054 -2831 0
0 0 0 607 550661 -2224 0
32 1 S102 583 551244 -1641 0
32 1 S102 597 551841 -1044 0
32 1 S102 605 552446 -439 0
32 2 S102 627 553073 188 0
32 2 S102 658 553731 846 0
32 2 S102 672 554403 1518 0
32 2 S102 656 555059 2174 0
32 2 S102 625 555684 2799 0
32 2 S102 639 556323 3438 0
32 2 S102 653 556976 4091 0
32 2 S102 671 557647 4762 0
32 2 S102 706 558353 5468 0
32 2 S102 690 559043 6158 0
32 2 S102 640 559683 6798 0
0 0 0 615 560298 -11503 0
0 0 0 629 560927 -10874 0
0 0 0 634 561561 -10240 0
0 0 0 679 562240 -9561 0
0 0 0 732 562972 -8829 0
0 0 0 665 563637 -8164 0
0 0 0 674 564311 -7490 0
0 0 0 729 565040 -6761 0
0 0 0 755 565795 -6006 0
0 0 0 747 566542 -5259 0
0 0 0 674 567216 -4585 0
0 0 0 645 567861 -3940 0
0 0 0 611 568472 -3329 0
0 0 0 611 569083 -2718 0
0 0 0 634 569717 -2084 0
33 1 S112 657 570374 -1427 0
33 1 S112 725 571099 -702 0
33 1 S112 676 571775 -26 0
33 2 S112 639 572414 613 0
33 2 S112 656 573070 1269 0
33 2 S112 642 573712 1911 0
33 2 S112 667 574379 2578 0
33 2 S112 684 575063 3262 0
33 2 S112 687 575750 3949 0
33 2 S112 620 576370 4569 0
33 2 S112 595 576965 5164 0
33 2 S112 587 577552 5751 0
33 2 S112 593 578145 6344 0
33 2 S112 620 578765 6964 0
0 0 0 685 579450 -11234 0
0 0 0 713 580163 -10521 0
0 0 0 680 580843 -9841 0
0 0 0 716 581559 -9125 0
0 0 0 712 582271 -8413 0
0 0 0 693 582964 -7720 0
0 0 0 642 583606 -7078 0
0 0 0 597 584203 -6481 0
0 0 0 597 584800 -5884 0
0 0 0 580 585380 -5304 0
0 0 0 536 585916 -4768 0
0 0 0 542 586458 -4226 0
0 0 0 584 587042 -3642 0
0 0 0 636 587678 -3006 0
0 0 0 728 588406 -2278 0
34 1 S106 734 589140 -1544 0
34 1 S106 691 589831 -853 0
34 1 S106 663 590494 -190 0
34 2 S106 701 591195 511 0
34 2 S106 707 591902 1218 0
34 2 S106 695 592597 1913 0
34 2 S106 725 593322 2638 0
34 2 S106 640 593962 3278 0
34 2 S106 608 594570 3886 0
34 2 S106 610 595180 4496 0
34 2 S106 627 595807 5123 0
34 2 S106 704 596511 5827 0
34 2 S106 755 597266 6582 0
0 0 0 716 597982 -9960 0
0 0 0 739 598721 -9221 0
0 0 0 751 599472 -8470 0
0 0 0 737 600209 -7733 0
0 0 0 710 600919 -7023 0
0 0 0 661 601580 -6362 0
0 0 0 683 602263 -5679 0
0 0 0 654 602917 -5025 0
0 0 0 657 603574 -4368 0
0 0 0 624 604198 -3744 0
0 0 0 589 604787 -3155 0
0 0 0 567 605354 -2588 0
35 1 S102 596 605950 -1992 0
35 1 S102 627 606577 -1365 0
35 1 S102 750 607327 -615 0
35 2 S102 818 608145 203 1
35 2 S102 803 608948 1006 0
35 2 S102 720 609668 1726 0
35 2 S102 689 610357 2415 0
35 2 S102 708 611065 3123 0
35 2 S102 744 611809 3867 0
35 2 S102 727 612536 4594 0
35 2 S102 655 613191 5249 0
35 2 S102 626 613817 5875 0
35 2 S102 633 614450 6508 0
0 0 0 628 615078 -8050 0
0 0 0 634 615712 -7416 0
0 0 0 653 616365 -6763 0
0 0 0 664 617029 -6099 0
0 0 0 624 617653 -5475 0
0 0 0 658 618311 -4817 0
0 0 0 646 618957 -4171 0
0 0 0 674 619631 -3497 0
0 0 0 654 620285 -2843 0
0 0 0 618 620903 -2225 0
36 1 S106 606 621509 -1619 0
36 1 S106 617 622126 -1002 0
36 1 S106 621 622747 -381 0
36 2 S106 664 623411 283 0
36 2 S106 649 624060 932 0
36 2 S106 661 624721 1593 0
36 2 S106 619 625340 2212 0
36 2 S106 591 625931 2803 0
36 2 S106 571 626502 3374 0
36 2 S106 582 627084 3956 0
36 2 S106 607 627691 4563 0
36 2 S106 648 628339 5211 0
36 2 S106 687 629026 5898 0
36 2 S106 680 629706 6578 0
0 0 0 645 630351 -9107 0
0 0 0 674 631025 -8433 0
0 0 0 657 631682 -7776 0
0 0 0 693 632375 -7083 0
0 0 0 669 633044 -6414 0
0 0 0 635 633679 -5779 0
0 0 0 604 634283 -5175 0
0 0 0 601 634884 -4574 0
0 0 0 600 635484 -3974 0
0 0 0 601 636085 -3373 0
0 0 0 592 636677 -2781 0
0 0 0 590 637267 -2191 0
37 1 S116 579 637846 -1612 0
37 1 S116 598 638444 -1014 0
37 1 S116 638 639082 -376 0
37 2 S116 688 639770 312 0
37 2 S116 715 640485 1027 0
37 2 S116 687 641172 1714 0
37 2 S116 618 641790 2332 0
37 2 S116 618 642408 2950 0
37 2 S116 618 643026 3568 0
37 2 S116 614 643640 4182 0
37 2 S116 641 644281 4823 0
37 2 S116 629 644910 5452 0
37 2 S116 627 645537 6079 0
37 2 S116 593 646130 6672 0
0 0 0 560 646690 -11651 0
0 0 0 580 647270 -11071 0
0 0 0 605 647875 -10466 0
0 0 0 699 648574 -9767 0
0 0 0 817 649391 -8950 1
0 0 0 765 650156 -8185 0
0 0 0 673 650829 -7512 0
0 0 0 680 651509 -6832 0
0 0 0 616 652125 -6216 0
0 0 0 578 652703 -5638 0
0 0 0 579 653282 -5059 0
0 0 0 605 653887 -4454 0
0 0 0 579 654466 -3875 0
0 0 0 561 655027 -3314 0
0 0 0 580 655607 -2734 0
0 0 0 586 656193 -2148 0
38 1 S102 628 656821 -1520 0
38 1 S102 670 657491 -850 0
38 1 S102 633 658124 -217 0
38 2 S102 609 658733 392 0
38 2 S102 564 659297 956 0
38 2 S102 589 659886 1545 0
38 2 S102 609 660495 2154 0
38 2 S102 681 661176 2835 0
38 2 S102 751 661927 3586 0
38 2 S102 812 662739 4398 1
38 2 S102 767 663506 5165 0
38 2 S102 786 664292 5951 0
38 2 S102 807 665099 6758 1
0 0 0 793 665892 -9176 0
0 0 0 741 666633 -8435 0
0 0 0 669 667302 -7766 0
0 0 0 748 668050 -7018 0
0 0 0 682 668732 -6336 0
0 0 0 709 669441 -5627 0
0 0 0 656 670097 -4971 0
0 0 0 625 670722 -4346 0
0 0 0 606 671328 -3740 0
0 0 0 604 671932 -3136 0
0 0 0 599 672531 -2537 0
39 1 S116 613 673144 -1924 0
39 1 S116 628 673772 -1296 0
39 1 S116 619 674391 -677 0
39 1 S116 587 674978 -90 0
39 2 S116 582 675560 492 0
39 2 S116 610 676170 1102 0
39 2 S116 656 676826 1758 0
39 2 S116 725 677551 2483 0
39 2 S116 723 678274 3206 0
39 2 S116 676 678950 3882 0
39 2 S116 632 679582 4514 0
39 2 S116 666 680248 5180 0
39 2 S116 675 680923 5855 0
39 2 S116 685 681608 6540 0
0 0 0 703 682311 -7976 0
0 0 0 664 682975 -7312 0
0 0 0 605 683580 -6707 0
0 0 0 601 684181 -6106 0
0 0 0 611 684792 -5495 0
0 0 0 640 685432 -4855 0
0 0 0 678 686110 -4177 0
0 0 0 756 686866 -3421 0
0 0 0 699 687565 -2722 0
0 0 0 665 688230 -2057 0
40 1 S112 684 688914 -1373 0
40 1 S112 687 689601 -686 0
40 2 S112 764 690365 78 0
40 2 S112 708 691073 786 0
40 2 S112 649 691722 1435 0
40 2 S112 602 692324 2037 0
40 2 S112 579 692903 2616 0
40 2 S112 586 693489 3202 0
40 2 S112 621 694110 3823 0
40 2 S112 783 694893 4606 0
40 2 S112 796 695689 5402 0
40 2 S112 757 696446 6159 0
40 2 S112 666 697112 6825 0
0 0 0 672 697784 -187183 0
0 0 0 701 698485 -186482 0
0 0 0 707 699192 -185775 0
0 0 0 700 699892 -185075 0
0 0 0 650 700542 -184425 0
0 0 0 646 701188 -183779 0
0 0 0 634 701822 -183145 0
0 0 0 599 702421 -182546 0
0 0 0 578 702999 -181968 0
0 0 0 539 703538 -181429 0
0 0 0 589 704127 -180840 0
0 0 0 584 704711 -180256 0
0 0 0 695 705406 -179561 0
0 0 0 694 706100 -178867 0
0 0 0 674 706774 -178193 0
0 0 0 767 707541 -177426 0
0 0 0 696 708237 -176730 0
0 0 0 727 708964 -176003 0
0 0 0 625 709589 -175378 0
0 0 0 586 710175 -174792 0
0 0 0 593 710768 -174199 0
0 0 0 593 711361 -173606 0
0 0 0 605 711966 -173001 0
0 0 0 591 712557 -172410 0
0 0 0 549 713106 -171861 0
0 0 0 556 713662 -171305 0
0 0 0 583 714245 -170722 0
0 0 0 610 714855 -170112 0
0 0 0 770 715625 -169342 0
0 0 0 702 716327 -168640 0
0 0 0 640 716967 -168000 0
0 0 0 633 717600 -167367 0
0 0 0 638 718238 -166729 0
0 0 0 640 718878 -166089 0
0 0 0 634 719512 -165455 0
0 0 0 601 720113 -164854 0
0 0 0 604 720717 -164250 0
0 0 0 596 721313 -163654 0
0 0 0 596 721909 -163058 0
0 0 0 568 722477 -162490 0
0 0 0 564 723041 -161926 0
0 0 0 577 723618 -161349 0
0 0 0 617 724235 -160732 0
0 0 0 697 724932 -160035 0
0 0 0 688 725620 -159347 0
0 0 0 679 726299 -158668 0
0 0 0 705 727004 -157963 0
0 0 0 706 727710 -157257 0
0 0 0 657 728367 -156600 0
0 0 0 657 729024 -155943 0
0 0 0 626 729650 -155317 0
0 0 0 591 730241 -154726 0
0 0 0 591 730832 -154135 0
0 0 0 595 731427 -153540 0
0 0 0 617 732044 -152923 0
0 0 0 622 732666 -152301 0
0 0 0 636 733302 -151665 0
0 0 0 689 733991 -150976 0
0 0 0 698 734689 -150278 0
0 0 0 711 735400 -149567 0
0 0 0 621 736021 -148946 0
0 0 0 617 736638 -148329 0
0 0 0 589 737227 -147740 0
0 0 0 601 737828 -147139 0
0 0 0 617 738445 -146522 0
0 0 0 621 739066 -145901 0
0 0 0 616 739682 -145285 0
0 0 0 616 740298 -144669 0
0 0 0 633 740931 -144036 0
0 0 0 631 741562 -143405 0
0 0 0 631 742193 -142774 0
0 0 0 649 742842 -142125 0
0 0 0 628 743470 -141497 0
0 0 0 615 744085 -140882 0
0 0 0 604 744689 -140278 0
0 0 0 594 745283 -139684 0
0 0 0 547 745830 -139137 0
0 0 0 533 746363 -138604 0
0 0 0 507 746870 -138097 0
0 0 0 504 747374 -137593 0
0 0 0 536 747910 -137057 0
0 0 0 958 748868 -136099 1
0 0 0 704 749572 -135395 0
0 0 0 638 750210 -134757 0
0 0 0 619 750829 -134138 0
0 0 0 573 751402 -133565 0
0 0 0 507 751909 -133058 0
0 0 0 501 752410 -132557 0
0 0 0 969 753379 -131588 1
0 0 0 501 753880 -131087 0
0 0 0 604 754484 -130483 0
0 0 0 1000 755484 -129483 1
0 0 0 829 756313 -128654 1
0 0 0 797 757110 -127857 0
0 0 0 781 757891 -127076 0
0 0 0 784 758675 -126292 0
0 0 0 766 759441 -125526 0
0 0 0 713 760154 -124813 0
0 0 0 644 760798 -124169 0
0 0 0 505 761303 -123664 0
0 0 0 513 761816 -123151 0
0 0 0 509 762325 -122642 0
0 0 0 517 762842 -122125 0
0 0 0 565 763407 -121560 0
0 0 0 562 763969 -120998 0
0 0 0 603 764572 -120395 0
0 0 0 921 765493 -119474 1
0 0 0 910 766403 -118564 1
0 0 0 904 767307 -117660 1
0 0 0 864 768171 -116796 1
0 0 0 736 768907 -116060 0
0 0 0 687 769594 -115373 0
0 0 0 641 770235 -114732 0
0 0 0 686 770921 -114046 0
0 0 0 822 771743 -113224 1
0 0 0 896 772639 -112328 1
0 0 0 709 773348 -111619 0
0 0 0 601 773949 -111018 0
0 0 0 529 774478 -110489 0
0 0 0 522 775000 -109967 0
0 0 0 525 775525 -109442 0
0 0 0 562 776087 -108880 0
0 0 0 636 776723 -108244 0
0 0 0 606 777329 -107638 0
0 0 0 597 777926 -107041 0
0 0 0 568 778494 -106473 0
0 0 0 565 779059 -105908 0
0 0 0 570 779629 -105338 0
0 0 0 550 780179 -104788 0
0 0 0 559 780738 -104229 0
0 0 0 526 781264 -103703 0
0 0 0 524 781788 -103179 0
0 0 0 519 782307 -102660 0
0 0 0 534 782841 -102126 0
0 0 0 633 783474 -101493 0
0 0 0 653 784127 -100840 0
0 0 0 593 784720 -100247 0
0 0 0 622 785342 -99625 0
0 0 0 574 785916 -99051 0
0 0 0 550 786466 -98501 0
0 0 0 570 787036 -97931 0
0 0 0 605 787641 -97326 0
0 0 0 628 788269 -96698 0
0 0 0 604 788873 -96094 0
0 0 0 571 789444 -95523 0
0 0 0 557 790001 -94966 0
0 0 0 572 790573 -94394 0
0 0 0 555 791128 -93839 0
0 0 0 572 791700 -93267 0
0 0 0 608 792308 -92659 0
0 0 0 619 792927 -92040 0
0 0 0 628 793555 -91412 0
0 0 0 605 794160 -90807 0
0 0 0 602 794762 -90205 0
0 0 0 599 795361 -89606 0
0 0 0 590 795951 -89016 0
0 0 0 589 796540 -88427 0
0 0 0 532 797072 -87895 0
0 0 0 532 797604 -87363 0
0 0 0 556 798160 -86807 0
0 0 0 613 798773 -86194 0
0 0 0 716 799489 -85478 0
0 0 0 684 800173 -84794 0
0 0 0 617 800790 -84177 0
0 0 0 589 801379 -83588 0
0 0 0 572 801951 -83016 0
0 0 0 550 802501 -82466 0
0 0 0 546 803047 -81920 0
0 0 0 524 803571 -81396 0
0 0 0 499 804070 -80897 0
0 0 0 494 804564 -80403 0
0 0 0 488 805052 -79915 0
0 0 0 476 805528 -79439 0
0 0 0 475 806003 -78964 0
0 0 0 493 806496 -78471 0
0 0 0 527 807023 -77944 0
0 0 0 578 807601 -77366 0
0 0 0 703 808304 -76663 0
0 0 0 626 808930 -76037 0
0 0 0 590 809520 -75447 0
0 0 0 564 810084 -74883 0
0 0 0 530 810614 -74353 0
0 0 0 537 811151 -73816 0
0 0 0 543 811694 -73273 0
0 0 0 553 812247 -72720 0
0 0 0 558 812805 -72162 0
0 0 0 522 813327 -71640 0
0 0 0 502 813829 -71138 0
0 0 0 527 814356 -70611 0
0 0 0 553 814909 -70058 0
0 0 0 554 815463 -69504 0
0 0 0 550 816013 -68954 0
0 0 0 537 816550 -68417 0
0 0 0 521 817071 -67896 0
0 0 0 531 817602 -67365 0
0 0 0 588 818190 -66777 0
0 0 0 699 818889 -66078 0
0 0 0 657 819546 -65421 0
0 0 0 713 820259 -64708 0
0 0 0 704 820963 -64004 0
0 0 0 620 821583 -63384 0
0 0 0 590 822173 -62794 0
0 0 0 565 822738 -62229 0
0 0 0 625 823363 -61604 0
0 0 0 668 824031 -60936 0
0 0 0 759 824790 -60177 0
0 0 0 748 825538 -59429 0
0 0 0 642 826180 -58787 0
0 0 0 616 826796 -58171 0
0 0 0 599 827395 -57572 0
0 0 0 608 828003 -56964 0
0 0 0 632 828635 -56332 0
0 0 0 624 829259 -55708 0
0 0 0 549 829808 -55159 0
0 0 0 534 830342 -54625 0
0 0 0 502 830844 -54123 0
0 0 0 498 831342 -53625 0
0 0 0 529 831871 -53096 0
0 0 0 960 832831 -52136 1
0 0 0 776 833607 -51360 0
0 0 0 764 834371 -50596 0
0 0 0 697 835068 -49899 0
0 0 0 639 835707 -49260 0
0 0 0 576 836283 -48684 0
0 0 0 518 836801 -48166 0
0 0 0 514 837315 -47652 0
0 0 0 560 837875 -47092 0
0 0 0 560 838435 -46532 0
0 0 0 769 839204 -45763 0
0 0 0 693 839897 -45070 0
0 0 0 671 840568 -44399 0
0 0 0 627 841195 -43772 0
0 0 0 607 841802 -43165 0
0 0 0 576 842378 -42589 0
0 0 0 550 842928 -42039 0
0 0 0 556 843484 -41483 0
0 0 0 563 844047 -40920 0
0 0 0 583 844630 -40337 0
0 0 0 602 845232 -39735 0
0 0 0 620 845852 -39115 0
0 0 0 627 846479 -38488 0
0 0 0 599 847078 -37889 0
0 0 0 596 847674 -37293 0
0 0 0 574 848248 -36719 0
0 0 0 569 848817 -36150 0
0 0 0 559 849376 -35591 0
0 0 0 559 849935 -35032 0
0 0 0 590 850525 -34442 0
0 0 0 632 851157 -33810 0
0 0 0 607 851764 -33203 0
0 0 0 623 852387 -32580 0
0 0 0 675 853062 -31905 0
0 0 0 657 853719 -31248 0
0 0 0 644 854363 -30604 0
0 0 0 598 854961 -30006 0
0 0 0 589 855550 -29417 0
0 0 0 561 856111 -28856 0
0 0 0 575 856686 -28281 0
0 0 0 555 857241 -27726 0
0 0 0 550 857791 -27176 0
0 0 0 533 858324 -26643 0
0 0 0 531 858855 -26112 0
0 0 0 555 859410 -25557 0
0 0 0 573 859983 -24984 0
0 0 0 627 860610 -24357 0
0 0 0 680 861290 -23677 0
0 0 0 735 862025 -22942 0
0 0 0 641 862666 -22301 0
0 0 0 601 863267 -21700 0
0 0 0 598 863865 -21102 0
0 0 0 613 864478 -20489 0
0 0 0 650 865128 -19839 0
0 0 0 634 865762 -19205 0
0 0 0 633 866395 -18572 0
0 0 0 599 866994 -17973 0
0 0 0 586 867580 -17387 0
0 0 0 542 868122 -16845 0
0 0 0 547 868669 -16298 0
0 0 0 543 869212 -15755 0
0 0 0 561 869773 -15194 0
0 0 0 664 870437 -14530 0
0 0 0 759 871196 -13771 0
0 0 0 714 871910 -13057 0
0 0 0 724 872634 -12333 0
0 0 0 699 873333 -11634 0
0 0 0 706 874039 -10928 0
0 0 0 693 874732 -10235 0
0 0 0 662 875394 -9573 0
0 0 0 605 875999 -8968 0
0 0 0 578 876577 -8390 0
0 0 0 535 877112 -7855 0
0 0 0 547 877659 -7308 0
0 0 0 530 878189 -6778 0
0 0 0 551 878740 -6227 0
0 0 0 543 879283 -5684 0
0 0 0 528 879811 -5156 0
0 0 0 500 880311 -4656 0
0 0 0 512 880823 -4144 0
0 0 0 501 881324 -3643 0
0 0 0 849 882173 -2794 1
0 0 0 758 882931 -2036 0
41 1 S102 697 883628 -1339 0
41 1 S102 603 884231 -736 0
41 1 S102 576 884807 -160 0
41 2 S102 550 885357 390 0
41 2 S102 700 886057 1090 0
41 2 S102 706 886763 1796 0
41 2 S102 751 887514 2547 0
41 2 S102 732 888246 3279 0
41 2 S102 671 888917 3950 0
41 2 S102 608 889525 4558 0
41 2 S102 583 890108 5141 0
41 2 S102 575 890683 5716 0
41 2 S102 575 891258 6291 0
41 2 S102 588 891846 6879 0
0 0 0 603 892449 -7671 0
0 0 0 606 893055 -7065 0
0 0 0 591 893646 -6474 0
0 0 0 585 894231 -5889 0
0 0 0 589 894820 -5300 0
0 0 0 574 895394 -4726 0
0 0 0 615 896009 -4111 0
0 0 0 626 896635 -3485 0
0 0 0 618 897253 -2867 0
0 0 0 595 897848 -2272 0
42 1 S112 608 898456 -1664 0
42 1 S112 616 899072 -1048 0
42 1 S112 650 899722 -398 0
42 2 S112 661 900383 263 0
42 2 S112 659 901042 922 0
42 2 S112 618 901660 1540 0
42 2 S112 595 902255 2135 0
42 2 S112 567 902822 2702 0
42 2 S112 572 903394 3274 0
42 2 S112 598 903992 3872 0
42 2 S112 651 904643 4523 0
42 2 S112 741 905384 5264 0
42 2 S112 764 906148 6028 0
42 2 S112 705 906853 6733 0
0 0 0 635 907488 -9459 0
0 0 0 624 908112 -8835 0
0 0 0 596 908708 -8239 0
0 0 0 609 909317 -7630 0
0 0 0 616 909933 -7014 0
0 0 0 583 910516 -6431 0
0 0 0 551 911067 -5880 0
0 0 0 522 911589 -5358 0
0 0 0 516 912105 -4842 0
0 0 0 514 912619 -4328 0
0 0 0 543 913162 -3785 0
0 0 0 1057 914219 -2728 1
43 1 S116 940 915159 -1788 1
43 1 S116 856 916015 -932 1
43 1 S116 718 916733 -214 0
43 2 S116 612 917345 398 0
43 2 S116 601 917946 999 0
43 2 S116 600 918546 1599 0
43 2 S116 615 919161 2214 0
43 2 S116 580 919741 2794 0
43 2 S116 551 920292 3345 0
43 2 S116 542 920834 3887 0
43 2 S116 565 921399 4452 0
43 2 S116 592 921991 5044 0
43 2 S116 692 922683 5736 0
43 2 S116 730 923413 6466 0
0 0 0 719 924132 -8266 0
0 0 0 685 924817 -7581 0
0 0 0 658 925475 -6923 0
0 0 0 596 926071 -6327 0
0 0 0 578 926649 -5749 0
0 0 0 573 927222 -5176 0
0 0 0 573 927795 -4603 0
0 0 0 585 928380 -4018 0
0 0 0 575 928955 -3443 0
0 0 0 548 929503 -2895 0
0 0 0 569 930072 -2326 0
44 1 S102 615 930687 -1711 0
44 1 S102 619 931306 -1092 0
44 1 S102 633 931939 -459 0
44 2 S102 624 932563 165 0
44 2 S102 691 933254 856 0
44 2 S102 708 933962 1564 0
44 2 S102 751 934713 2315 0
44 2 S102 741 935454 3056 0
44 2 S102 723 936177 3779 0
44 2 S102 631 936808 4410 0
44 2 S102 594 937402 5004 0
44 2 S102 581 937983 5585 0
44 2 S102 573 938556 6158 0
44 2 S102 621 939177 6779 0
0 0 0 618 939795 -9132 0
0 0 0 632 940427 -8500 0
0 0 0 593 941020 -7907 0
0 0 0 583 941603 -7324 0
0 0 0 593 942196 -6731 0
0 0 0 598 942794 -6133 0
0 0 0 662 943456 -5471 0
0 0 0 672 944128 -4799 0
0 0 0 640 944768 -4159 0
0 0 0 586 945354 -3573 0
0 0 0 542 945896 -3031 0
0 0 0 531 946427 -2500 0
45 1 S116 514 946941 -1986 0
45 1 S116 536 947477 -1450 0
45 1 S116 567 948044 -883 0
45 1 S116 720 948764 -163 0
45 2 S116 670 949434 507 0
45 2 S116 685 950119 1192 0
45 2 S116 739 950858 1931 0
45 2 S116 815 951673 2746 1
45 2 S116 803 952476 3549 0
45 2 S116 761 953237 4310 0
45 2 S116 715 953952 5025 0
45 2 S116 692 954644 5717 0
45 2 S116 630 955274 6347 0
45 2 S116 587 955861 6934 0
0 0 0 580 956441 -11037 0
0 0 0 573 957014 -10464 0
0 0 0 586 957600 -9878 0
0 0 0 636 958236 -9242 0
0 0 0 720 958956 -8522 0
0 0 0 676 959632 -7846 0
0 0 0 641 960273 -7205 0
0 0 0 645 960918 -6560 0
0 0 0 648 961566 -5912 0
0 0 0 681 962247 -5231 0
0 0 0 677 962924 -4554 0
0 0 0 636 963560 -3918 0
0 0 0 607 964167 -3311 0
0 0 0 588 964755 -2723 0
0 0 0 608 965363 -2115 0
46 1 S102 610 965973 -1505 0
46 1 S102 682 966655 -823 0
46 1 S102 679 967334 -144 0
46 2 S102 694 968028 550 0
46 2 S102 625 968653 1175 0
46 2 S102 583 969236 1758 0
46 2 S102 562 969798 2320 0
46 2 S102 562 970360 2882 0
46 2 S102 570 970930 3452 0
46 2 S102 633 971563 4085 0
46 2 S102 663 972226 4748 0
46 2 S102 658 972884 5406 0
46 2 S102 632 973516 6038 0
46 2 S102 618 974134 6656 0
0 0 0 638 974772 -10876 0
0 0 0 660 975432 -10216 0
0 0 0 720 976152 -9496 0
0 0 0 677 976829 -8819 0
0 0 0 629 977458 -8190 0
0 0 0 634 978092 -7556 0
0 0 0 640 978732 -6916 0
0 0 0 638 979370 -6278 0
0 0 0 641 980011 -5637 0
0 0 0 617 980628 -5020 0
0 0 0 596 981224 -4424 0
0 0 0 585 981809 -3839 0
0 0 0 600 982409 -3239 0
0 0 0 641 983050 -2598 0
47 1 S112 714 983764 -1884 0
47 1 S112 681 984445 -1203 0
47 1 S112 629 985074 -574 0
47 2 S112 609 985683 35 0
47 2 S112 610 986293 645 0
47 2 S112 626 986919 1271 0
47 2 S112 638 987557 1909 0
47 2 S112 722 988279 2631 0
47 2 S112 666 988945 3297 0
47 2 S112 651 989596 3948 0
47 2 S112 624 990220 4572 0
47 2 S112 635 990855 5207 0
47 2 S112 646 991501 5853 0
47 2 S112 644 992145 6497 0
0 0 0 673 992818 -11845 0
0 0 0 629 993447 -11216 0
0 0 0 599 994046 -10617 0
0 0 0 588 994634 -10029 0
0 0 0 577 995211 -9452 0
0 0 0 617 995828 -8835 0
0 0 0 680 996508 -8155 0
0 0 0 695 997203 -7460 0
0 0 0 626 997829 -6834 0
0 0 0 599 998428 -6235 0
0 0 0 588 999016 -5647 0
0 0 0 565 999581 -5082 0
0 0 0 611 1000192 -4471 0
0 0 0 563 1000755 -3908 0
0 0 0 551 1001306 -3357 0
0 0 0 559 1001865 -2798 0
0 0 0 553 1002418 -2245 0
48 1 S116 540 1002958 -1705 0
48 1 S116 540 1003498 -1165 0
48 1 S116 551 1004049 -614 0
48 1 S116 571 1004620 -43 0
48 2 S116 636 1005256 593 0
48 2 S116 699 1005955 1292 0
48 2 S116 737 1006692 2029 0
48 2 S116 651 1007343 2680 0
48 2 S116 634 1007977 3314 0
48 2 S116 608 1008585 3922 0
48 2 S116 593 1009178 4515 0
48 2 S116 607 1009785 5122 0
48 2 S116 627 1010412 5749 0
48 2 S116 663 1011075 6412 0
0 0 0 639 1011714 -8897 0
0 0 0 637 1012351 -8260 0
0 0 0 637 1012988 -7623 0
0 0 0 616 1013604 -7007 0
0 0 0 635 1014239 -6372 0
0 0 0 599 1014838 -5773 0
0 0 0 563 1015401 -5210 0
0 0 0 564 1015965 -4646 0
0 0 0 563 1016528 -4083 0
0 0 0 617 1017145 -3466 0
0 0 0 664 1017809 -2802 0
0 0 0 681 1018490 -2121 0
49 1 S112 638 1019128 -1483 0
49 1 S112 594 1019722 -889 0
49 1 S112 572 1020294 -317 0
49 2 S112 567 1020861 250 0
49 2 S112 564 1021425 814 0
49 2 S112 594 1022019 1408 0
49 2 S112 646 1022665 2054 0
49 2 S112 648 1023313 2702 0
49 2 S112 653 1023966 3355 0
49 2 S112 612 1024578 3967 0
49 2 S112 657 1025235 4624 0
49 2 S112 649 1025884 5273 0
49 2 S112 698 1026582 5971 0
49 2 S112 670 1027252 6641 0
0 0 0 624 1027876 -11950 0
0 0 0 605 1028481 -11345 0
0 0 0 591 1029072 -10754 0
0 0 0 576 1029648 -10178 0
0 0 0 613 1030261 -9565 0
0 0 0 622 1030883 -8943 0
0 0 0 610 1031493 -8333 0
0 0 0 610 1032103 -7723 0
0 0 0 686 1032789 -7037 0
0 0 0 758 1033547 -6279 0
0 0 0 857 1034404 -5422 1
0 0 0 795 1035199 -4627 0
0 0 0 721 1035920 -3906 0
0 0 0 681 1036601 -3225 0
0 0 0 686 1037287 -2539 0
50 1 S106 680 1037967 -1859 0
50 1 S106 713 1038680 -1146 0
50 1 S106 685 1039365 -461 0
50 2 S106 620 1039985 159 0
50 2 S106 597 1040582 756 0
50 2 S106 590 1041172 1346 0
50 2 S106 585 1041757 1931 0
50 2 S106 586 1042343 2517 0
50 2 S106 597 1042940 3114 0
50 2 S106 596 1043536 3710 0
50 2 S106 571 1044107 4281 0
50 2 S106 566 1044673 4847 0
50 2 S106 556 1045229 5403 0
50 2 S106 577 1045806 5980 0
50 2 S106 620 1046426 6600 0
0 0 0 692 1047118 -7811 0
0 0 0 693 1047811 -7118 0
0 0 0 651 1048462 -6467 0
0 0 0 615 1049077 -5852 0
0 0 0 621 1049698 -5231 0
0 0 0 608 1050306 -4623 0
0 0 0 600 1050906 -4023 0
0 0 0 595 1051501 -3428 0
0 0 0 556 1052057 -2872 0
0 0 0 569 1052626 -2303 0
51 1 S112 560 1053186 -1743 0
51 1 S112 610 1053796 -1133 0
51 1 S112 638 1054434 -495 0
51 2 S112 617 1055051 122 0
51 2 S112 579 1055630 701 0
51 2 S112 563 1056193 1264 0
51 2 S112 565 1056758 1829 0
51 2 S112 597 1057355 2426 0
51 2 S112 671 1058026 3097 0
51 2 S112 716 1058742 3813 0
51 2 S112 702 1059444 4515 0
51 2 S112 659 1060103 5174 0
51 2 S112 629 1060732 5803 0
51 2 S112 642 1061374 6445 0
0 0 0 630 1062004 -8525 0
0 0 0 660 1062664 -7865 0
0 0 0 643 1063307 -7222 0
0 0 0 596 1063903 -6626 0
0 0 0 597 1064500 -6029 0
0 0 0 600 1065100 -5429 0
0 0 0 606 1065706 -4823 0
0 0 0 590 1066296 -4233 0
0 0 0 570 1066866 -3663 0
0 0 0 562 1067428 -3101 0
0 0 0 571 1067999 -2530 0
52 1 S116 580 1068579 -1950 0
52 1 S116 561 1069140 -1389 0
52 1 S116 570 1069710 -819 0
52 1 S116 625 1070335 -194 0
52 2 S116 600 1070935 406 0
52 2 S116 573 1071508 979 0
52 2 S116 558 1072066 1537 0
52 2 S116 557 1072623 2094 0
52 2 S116 585 1073208 2679 0
52 2 S116 643 1073851 3322 0
52 2 S116 694 1074545 4016 0
52 2 S116 739 1075284 4755 0
52 2 S116 686 1075970 5441 0
52 2 S116 637 1076607 6078 0
52 2 S116 644 1077251 6722 0
0 0 0 632 1077883 -10866 0
0 0 0 687 1078570 -10179 0
0 0 0 669 1079239 -9510 0
0 0 0 649 1079888 -8861 0
0 0 0 584 1080472 -8277 0
0 0 0 570 1081042 -7707 0
0 0 0 588 1081630 -7119 0
0 0 0 576 1082206 -6543 0
0 0 0 599 1082805 -5944 0
0 0 0 617 1083422 -5327 0
0 0 0 597 1084019 -4730 0
0 0 0 580 1084599 -4150 0
0 0 0 592 1085191 -3558 0
0 0 0 588 1085779 -2970 0
0 0 0 605 1086384 -2365 0
53 1 S106 620 1087004 -1745 0
53 1 S106 603 1087607 -1142 0
53 1 S106 589 1088196 -553 0
53 2 S106 583 1088779 30 0
53 2 S106 618 1089397 648 0
53 2 S106 680 1090077 1328 0
53 2 S106 755 1090832 2083 0
53 2 S106 746 1091578 2829 0
53 2 S106 670 1092248 3499 0
53 2 S106 656 1092904 4155 0
53 2 S106 639 1093543 4794 0
53 2 S106 645 1094188 5439 0
53 2 S106 669 1094857 6108 0
53 2 S106 665 1095522 6773 0
0 0 0 600 1096122 -8260 0
0 0 0 595 1096717 -7665 0
0 0 0 602 1097319 -7063 0
0 0 0 595 1097914 -6468 0
0 0 0 628 1098542 -5840 0
0 0 0 643 1099185 -5197 0
0 0 0 603 1099788 -4594 0
0 0 0 605 1100393 -3989 0
0 0 0 602 1100995 -3387 0
0 0 0 613 1101608 -2774 0
0 0 0 652 1102260 -2122 0
54 1 S102 649 1102909 -1473 0
54 1 S102 599 1103508 -874 0
54 1 S102 577 1104085 -297 0
54 2 S102 576 1104661 279 0
54 2 S102 583 1105244 862 0
54 2 S102 604 1105848 1466 0
54 2 S102 626 1106474 2092 0
54 2 S102 624 1107098 2716 0
54 2 S102 603 1107701 3319 0
54 2 S102 587 1108288 3906 0
54 2 S102 604 1108892 4510 0
54 2 S102 666 1109558 5176 0
54 2 S102 664 1110222 5840 0
54 2 S102 711 1110933 6551 0
0 0 0 683 1111616 -12047 0
0 0 0 635 1112251 -11412 0
0 0 0 621 1112872 -10791 0
0 0 0 602 1113474 -10189 0
0 0 0 628 1114102 -9561 0
0 0 0 601 1114703 -8960 0
0 0 0 577 1115280 -8383 0
0 0 0 581 1115861 -7802 0
0 0 0 568 1116429 -7234 0
0 0 0 600 1117029 -6634 0
0 0 0 610 1117639 -6024 0
0 0 0 638 1118277 -5386 0
0 0 0 590 1118867 -4796 0
0 0 0 579 1119446 -4217 0
0 0 0 598 1120044 -3619 0
0 0 0 611 1120655 -3008 0
0 0 0 612 1121267 -2396 0
55 1 S106 589 1121856 -1807 0
55 1 S106 541 1122397 -1266 0
55 1 S106 525 1122922 -741 0
55 1 S106 517 1123439 -224 0
55 2 S106 561 1124000 337 0
55 2 S106 565 1124565 902 0
55 2 S106 565 1125130 1467 0
55 2 S106 546 1125676 2013 0
55 2 S106 575 1126251 2588 0
55 2 S106 590 1126841 3178 0
55 2 S106 573 1127414 3751 0
55 2 S106 565 1127979 4316 0
55 2 S106 563 1128542 4879 0
55 2 S106 582 1129124 5461 0
55 2 S106 585 1129709 6046 0
55 2 S106 599 1130308 6645 0
0 0 0 583 1130891 -7941 0
0 0 0 561 1131452 -7380 0
0 0 0 540 1131992 -6840 0
0 0 0 533 1132525 -6307 0
0 0 0 542 1133067 -5765 0
0 0 0 549 1133616 -5216 0
0 0 0 594 1134210 -4622 0
0 0 0 622 1134832 -4000 0
0 0 0 607 1135439 -3393 0
0 0 0 594 1136033 -2799 0
0 0 0 582 1136615 -2217 0
56 1 S116 661 1137276 -1556 0
56 1 S116 721 1137997 -835 0
56 1 S116 738 1138735 -97 0
56 2 S116 736 1139471 639 0
56 2 S116 701 1140172 1340 0
56 2 S116 674 1140846 2014 0
56 2 S116 669 1141515 2683 0
56 2 S116 654 1142169 3337 0
56 2 S116 692 1142861 4029 0
56 2 S116 700 1143561 4729 0
56 2 S116 653 1144214 5382 0
56 2 S116 627 1144841 6009 0
56 2 S116 614 1145455 6623 0
0 0 0 621 1146076 -7146 0
0 0 0 660 1146736 -6486 0
0 0 0 682 1147418 -5804 0
0 0 0 685 1148103 -5119 0
0 0 0 625 1148728 -4494 0
0 0 0 643 1149371 -3851 0
0 0 0 634 1150005 -3217 0
0 0 0 677 1150682 -2540 0
57 1 S106 675 1151357 -1865 0
57 1 S106 626 1151983 -1239 0
57 1 S106 640 1152623 -599 0
57 2 S106 641 1153264 42 0
57 2 S106 670 1153934 712 0
57 2 S106 690 1154624 1402 0
57 2 S106 619 1155243 2021 0
57 2 S106 598 1155841 2619 0
57 2 S106 590 1156431 3209 0
57 2 S106 632 1157063 3841 0
57 2 S106 730 1157793 4571 0
57 2 S106 754 1158547 5325 0
57 2 S106 771 1159318 6096 0
57 2 S106 697 1160015 6793 0
0 0 0 648 1160663 -9353 0
0 0 0 644 1161307 -8709 0
0 0 0 628 1161935 -8081 0
0 0 0 679 1162614 -7402 0
0 0 0 678 1163292 -6724 0
0 0 0 631 1163923 -6093 0
0 0 0 589 1164512 -5504 0
0 0 0 644 1165156 -4860 0
0 0 0 625 1165781 -4235 0
0 0 0 665 1166446 -3570 0
0 0 0 677 1167123 -2893 0
0 0 0 658 1167781 -2235 0
58 1 S102 607 1168388 -1628 0
58 1 S102 629 1169017 -999 0
58 1 S102 626 1169643 -373 0
58 2 S102 646 1170289 273 0
58 2 S102 667 1170956 940 0
58 2 S102 664 1171620 1604 0
58 2 S102 614 1172234 2218 0
58 2 S102 606 1172840 2824 0
58 2 S102 620 1173460 3444 0
58 2 S102 654 1174114 4098 0
58 2 S102 678 1174792 4776 0
58 2 S102 698 1175490 5474 0
58 2 S102 634 1176124 6108 0
58 2 S102 634 1176758 6742 0
0 0 0 650 1177408 -6766 0
0 0 0 636 1178044 -6130 0
0 0 0 647 1178691 -5483 0
0 0 0 618 1179309 -4865 0
0 0 0 598 1179907 -4267 0
0 0 0 625 1180532 -3642 0
0 0 0 644 1181176 -2998 0
0 0 0 710 1181886 -2288 0
59 1 S112 655 1182541 -1633 0
59 1 S112 637 1183178 -996 0
59 1 S112 679 1183857 -317 0
59 2 S112 666 1184523 349 0
59 2 S112 692 1185215 1041 0
59 2 S112 683 1185898 1724 0
59 2 S112 649 1186547 2373 0
59 2 S112 600 1187147 2973 0
59 2 S112 603 1187750 3576 0
59 2 S112 602 1188352 4178 0
59 2 S112 626 1188978 4804 0
59 2 S112 646 1189624 5450 0
59 2 S112 623 1190247 6073 0
59 2 S112 624 1190871 6697 0
0 0 0 662 1191533 -9717 0
0 0 0 708 1192241 -9009 0
0 0 0 697 1192938 -8312 0
0 0 0 670 1193608 -7642 0
0 0 0 628 1194236 -7014 0
0 0 0 641 1194877 -6373 0
0 0 0 613 1195490 -5760 0
0 0 0 636 1196126 -5124 0
0 0 0 611 1196737 -4513 0
0 0 0 580 1197317 -3933 0
0 0 0 569 1197886 -3364 0
0 0 0 563 1198449 -2801 0
0 0 0 583 1199032 -2218 0
60 1 S102 590 1199622 -1628 0
60 1 S102 595 1200217 -1033 0
60 1 S102 629 1200846 -404 0
60 2 S102 710 1201556 306 0
60 2 S102 657 1202213 963 0
60 2 S102 616 1202829 1579 0
60 2 S102 601 1203430 2180 0
60 2 S102 614 1204044 2794 0
60 2 S102 632 1204676 3426 0
60 2 S102 671 1205347 4097 0
60 2 S102 669 1206016 4766 0
60 2 S102 623 1206639 5389 0
60 2 S102 601 1207240 5990 0
60 2 S102 605 1207845 6595 0
0 0 0 606 1208451 -11151 0
0 0 0 637 1209088 -10514 0
0 0 0 692 1209780 -9822 0
0 0 0 719 1210499 -9103 0
0 0 0 628 1211127 -8475 0
0 0 0 647 1211774 -7828 0
0 0 0 639 1212413 -7189 0
0 0 0 676 1213089 -6513 0
0 0 0 686 1213775 -5827 0
0 0 0 655 1214430 -5172 0
0 0 0 610 1215040 -4562 0
0 0 0 600 1215640 -3962 0
0 0 0 598 1216238 -3364 0
0 0 0 629 1216867 -2735 0
0 0 0 709 1217576 -2026 0
61 1 S106 697 1218273 -1329 0
61 1 S106 679 1218952 -650 0
61 1 S106 649 1219601 -1 0
61 2 S106 634 1220235 633 0
61 2 S106 656 1220891 1289 0
61 2 S106 727 1221618 2016 0
61 2 S106 793 1222411 2809 0
61 2 S106 803 1223214 3612 0
61 2 S106 694 1223908 4306 0
61 2 S106 669 1224577 4975 0
61 2 S106 645 1225222 5620 0
61 2 S106 659 1225881 6279 0
61 2 S106 674 1226555 6953 0
0 0 0 658 1227213 -8238 0
0 0 0 651 1227864 -7587 0
0 0 0 686 1228550 -6901 0
0 0 0 717 1229267 -6184 0
0 0 0 765 1230032 -5419 0
0 0 0 731 1230763 -4688 0
0 0 0 651 1231414 -4037 0
0 0 0 631 1232045 -3406 0
0 0 0 673 1232718 -2733 0
0 0 0 670 1233388 -2063 0
62 1 S112 677 1234065 -1386 0
62 1 S112 654 1234719 -732 0
62 1 S112 602 1235321 -130 0
62 2 S112 569 1235890 439 0
62 2 S112 584 1236474 1023 0
62 2 S112 600 1237074 1623 0
62 2 S112 630 1237704 2253 0
62 2 S112 755 1238459 3008 0
62 2 S112 754 1239213 3762 0
62 2 S112 724 1239937 4486 0
62 2 S112 655 1240592 5141 0
62 2 S112 667 1241259 5808 0
62 2 S112 653 1241912 6461 0
0 0 0 719 1242631 -11719 0
0 0 0 726 1243357 -10993 0
0 0 0 642 1243999 -10351 0
0 0 0 623 1244622 -9728 0
0 0 0 635 1245257 -9093 0
0 0 0 632 1245889 -8461 0
0 0 0 629 1246518 -7832 0
0 0 0 609 1247127 -7223 0
0 0 0 571 1247698 -6652 0
0 0 0 592 1248290 -6060 0
0 0 0 601 1248891 -5459 0
0 0 0 678 1249569 -4781 0
0 0 0 779 1250348 -4002 0
0 0 0 734 1251082 -3268 0
0 0 0 731 1251813 -2537 0
63 1 S102 745 1252558 -1792 0
63 1 S102 747 1253305 -1045 0
63 1 S102 736 1254041 -309 0
63 2 S102 668 1254709 359 0
63 2 S102 649 1255358 1008 0
63 2 S102 648 1256006 1656 0
63 2 S102 643 1256649 2299 0
63 2 S102 633 1257282 2932 0
63 2 S102 637 1257919 3569 0
63 2 S102 612 1258531 4181 0
63 2 S102 600 1259131 4781 0
63 2 S102 610 1259741 5391 0
63 2 S102 647 1260388 6038 0
63 2 S102 720 1261108 6758 0
0 0 0 770 1261878 -9763 0
0 0 0 739 1262617 -9024 0
0 0 0 665 1263282 -8359 0
0 0 0 669 1263951 -7690 0
0 0 0 674 1264625 -7016 0
0 0 0 651 1265276 -6365 0
0 0 0 634 1265910 -5731 0
0 0 0 575 1266485 -5156 0
0 0 0 548 1267033 -4608 0
0 0 0 537 1267570 -4071 0
0 0 0 532 1268102 -3539 0
0 0 0 528 1268630 -3011 0
0 0 0 530 1269160 -2481 0
64 1 S112 557 1269717 -1924 0
64 1 S112 668 1270385 -1256 0
64 1 S112 768 1271153 -488 0
64 2 S112 750 1271903 262 0
64 2 S112 685 1272588 947 0
64 2 S112 649 1273237 1596 0
64 2 S112 603 1273840 2199 0
64 2 S112 567 1274407 2766 0
64 2 S112 601 1275008 3367 0
64 2 S112 639 1275647 4006 0
64 2 S112 739 1276386 4745 0
64 2 S112 725 1277111 5470 0
64 2 S112 707 1277818 6177 0
64 2 S112 649 1278467 6826 0
0 0 0 648 1279115 -7149 0
0 0 0 640 1279755 -6509 0
0 0 0 675 1280430 -5834 0
0 0 0 691 1281121 -5143 0
0 0 0 618 1281739 -4525 0
0 0 0 620 1282359 -3905 0
0 0 0 601 1282960 -3304 0
0 0 0 651 1283611 -2653 0
0 0 0 647 1284258 -2006 0
65 1 S106 630 1284888 -1376 0
65 1 S106 616 1285504 -760 0
65 1 S106 635 1286139 -125 0
65 2 S106 680 1286819 555 0
65 2 S106 746 1287565 1301 0
65 2 S106 739 1288304 2040 0
65 2 S106 688 1288992 2728 0
65 2 S106 640 1289632 3368 0
65 2 S106 613 1290245 3981 0
65 2 S106 609 1290854 4590 0
65 2 S106 617 1291471 5207 0
65 2 S106 636 1292107 5843 0
65 2 S106 672 1292779 6515 0
0 0 0 683 1293462 -6363 0
0 0 0 633 1294095 -5730 0
0 0 0 649 1294744 -5081 0
0 0 0 630 1295374 -4451 0
0 0 0 619 1295993 -3832 0
0 0 0 625 1296618 -3207 0
0 0 0 602 1297220 -2605 0
0 0 0 567 1297787 -2038 0
66 1 S116 583 1298370 -1455 0
66 1 S116 607 1298977 -848 0
66 1 S116 681 1299658 -167 0
66 2 S116 692 1300350 525 0
66 2 S116 719 1301069 1244 0
66 2 S116 718 1301787 1962 0
66 2 S116 645 1302432 2607 0
66 2 S116 611 1303043 3218 0
66 2 S116 612 1303655 3830 0
66 2 S116 611 1304266 4441 0
66 2 S116 611 1304877 5052 0
66 2 S116 631 1305508 5683 0
66 2 S116 640 1306148 6323 0
66 2 S116 617 1306765 6940 0
0 0 0 645 1307410 -11745 0
0 0 0 684 1308094 -11061 0
0 0 0 739 1308833 -10322 0
0 0 0 785 1309618 -9537 0
0 0 0 720 1310338 -8817 0
0 0 0 694 1311032 -8123 0
0 0 0 651 1311683 -7472 0
0 0 0 636 1312319 -6836 0
0 0 0 609 1312928 -6227 0
0 0 0 580 1313508 -5647 0
0 0 0 545 1314053 -5102 0
0 0 0 553 1314606 -4549 0
0 0 0 559 1315165 -3990 0
0 0 0 621 1315786 -3369 0
0 0 0 832 1316618 -2537 1
67 1 S102 956 1317574 -1581 1
67 1 S102 901 1318475 -680 1
67 2 S102 750 1319225 70 0
67 2 S102 706 1319931 776 0
67 2 S102 694 1320625 1470 0
67 2 S102 676 1321301 2146 0
67 2 S102 714 1322015 2860 0
67 2 S102 685 1322700 3545 0
67 2 S102 665 1323365 4210 0
67 2 S102 642 1324007 4852 0
67 2 S102 648 1324655 5500 0
67 2 S102 634 1325289 6134 0
67 2 S102 639 1325928 6773 0
0 0 0 645 1326573 -7271 0
0 0 0 613 1327186 -6658 0
0 0 0 612 1327798 -6046 0
0 0 0 621 1328419 -5425 0
0 0 0 662 1329081 -4763 0
0 0 0 698 1329779 -4065 0
0 0 0 664 1330443 -3401 0
0 0 0 624 1331067 -2777 0
0 0 0 599 1331666 -2178 0
68 1 S106 598 1332264 -1580 0
68 1 S106 571 1332835 -1009 0
68 1 S106 551 1333386 -458 0
68 2 S106 592 1333978 134 0
68 2 S106 646 1334624 780 0
68 2 S106 631 1335255 1411 0
68 2 S106 596 1335851 2007 0
68 2 S106 574 1336425 2581 0
68 2 S106 577 1337002 3158 0
68 2 S106 593 1337595 3751 0
68 2 S106 615 1338210 4366 0
68 2 S106 651 1338861 5017 0
68 2 S106 634 1339495 5651 0
68 2 S106 606 1340101 6257 0
68 2 S106 595 1340696 6852 0
0 0 0 600 1341296 -10950 0
0 0 0 637 1341933 -10313 0
0 0 0 637 1342570 -9676 0
0 0 0 678 1343248 -8998 0
0 0 0 612 1343860 -8386 0
0 0 0 643 1344503 -7743 0
0 0 0 632 1345135 -7111 0
0 0 0 648 1345783 -6463 0
0 0 0 637 1346420 -5826 0
0 0 0 597 1347017 -5229 0
0 0 0 568 1347585 -4661 0
0 0 0 562 1348147 -4099 0
0 0 0 579 1348726 -3520 0
0 0 0 600 1349326 -2920 0
0 0 0 729 1350055 -2191 0
69 1 S102 723 1350778 -1468 0
69 1 S102 638 1351416 -830 0
69 1 S102 601 1352017 -229 0
69 2 S102 581 1352598 352 0
69 2 S102 589 1353187 941 0
69 2 S102 618 1353805 1559 0
69 2 S102 673 1354478 2232 0
69 2 S102 704 1355182 2936 0
69 2 S102 654 1355836 3590 0
69 2 S102 609 1356445 4199 0
69 2 S102 601 1357046 4800 0
69 2 S102 592 1357638 5392 0
69 2 S102 604 1358242 5996 0
69 2 S102 617 1358859 6613 0
0 0 0 629 1359488 -10795 0
0 0 0 623 1360111 -10172 0
0 0 0 589 1360700 -9583 0
0 0 0 551 1361251 -9032 0
0 0 0 537 1361788 -8495 0
0 0 0 589 1362377 -7906 0
0 0 0 664 1363041 -7242 0
0 0 0 791 1363832 -6451 0
0 0 0 779 1364611 -5672 0
0 0 0 729 1365340 -4943 0
0 0 0 651 1365991 -4292 0
0 0 0 608 1366599 -3684 0
0 0 0 600 1367199 -3084 0
0 0 0 614 1367813 -2470 0
70 1 S112 613 1368426 -1857 0
70 1 S112 618 1369044 -1239 0
70 1 S112 584 1369628 -655 0
70 1 S112 563 1370191 -92 0
70 2 S112 547 1370738 455 0
70 2 S112 558 1371296 1013 0
70 2 S112 551 1371847 1564 0
70 2 S112 572 1372419 2136 0
70 2 S112 658 1373077 2794 0
70 2 S112 668 1373745 3462 0
70 2 S112 704 1374449 4166 0
70 2 S112 643 1375092 4809 0
70 2 S112 606 1375698 5415 0
70 2 S112 599 1376297 6014 0
70 2 S112 590 1376887 6604 0
0 0 0 626 1377513 -10890 0
0 0 0 656 1378169 -10234 0
0 0 0 637 1378806 -9597 0
0 0 0 606 1379412 -8991 0
0 0 0 565 1379977 -8426 0
0 0 0 562 1380539 -7864 0
0 0 0 559 1381098 -7305 0
0 0 0 587 1381685 -6718 0
0 0 0 602 1382287 -6116 0
0 0 0 608 1382895 -5508 0
0 0 0 598 1383493 -4910 0
0 0 0 580 1384073 -4330 0
0 0 0 585 1384658 -3745 0
0 0 0 607 1385265 -3138 0
0 0 0 634 1385899 -2504 0
71 1 S116 752 1386651 -1752 0
71 1 S116 709 1387360 -1043 0
71 1 S116 699 1388059 -344 0
71 2 S116 632 1388691 288 0
71 2 S116 593 1389284 881 0
71 2 S116 583 1389867 1464 0
71 2 S116 583 1390450 2047 0
71 2 S116 618 1391068 2665 0
71 2 S116 668 1391736 3333 0
71 2 S116 743 1392479 4076 0
71 2 S116 757 1393236 4833 0
71 2 S116 730 1393966 5563 0
71 2 S116 657 1394623 6220 0
71 2 S116 694 1395317 6914 0
0 0 0 712 1396029 -9234 0
0 0 0 728 1396757 -8506 0
0 0 0 684 1397441 -7822 0
0 0 0 637 1398078 -7185 0
0 0 0 593 1398671 -6592 0
0 0 0 580 1399251 -6012 0
0 0 0 574 1399825 -5438 0
0 0 0 569 1400394 -4869 0
0 0 0 564 1400958 -4305 0
0 0 0 546 1401504 -3759 0
0 0 0 573 1402077 -3186 0
0 0 0 568 1402645 -2618 0
0 0 0 560 1403205 -2058 0
72 1 S102 542 1403747 -1516 0
72 1 S102 561 1404308 -955 0
72 1 S102 584 1404892 -371 0
72 2 S102 637 1405529 266 0
72 2 S102 736 1406265 1002 0
72 2 S102 752 1407017 1754 0
72 2 S102 689 1407706 2443 0
72 2 S102 636 1408342 3079 0
72 2 S102 638 1408980 3717 0
72 2 S102 631 1409611 4348 0
72 2 S102 621 1410232 4969 0
72 2 S102 627 1410859 5596 0
72 2 S102 622 1411481 6218 0
72 2 S102 593 1412074 6811 0
0 0 0 589 1412663 -8151 0
0 0 0 603 1413266 -7548 0
0 0 0 628 1413894 -6920 0
0 0 0 660 1414554 -6260 0
0 0 0 671 1415225 -5589 0
0 0 0 648 1415873 -4941 0
0 0 0 684 1416557 -4257 0
0 0 0 659 1417216 -3598 0
0 0 0 658 1417874 -2940 0
0 0 0 604 1418478 -2336 0
73 1 S116 569 1419047 -1767 0
73 1 S116 548 1419595 -1219 0
73 1 S116 553 1420148 -666 0
73 1 S116 567 1420715 -99 0
73 2 S116 660 1421375 561 0
73 2 S116 708 1422083 1269 0
73 2 S116 774 1422857 2043 0
73 2 S116 697 1423554 2740 0
73 2 S116 656 1424210 3396 0
73 2 S116 651 1424861 4047 0
73 2 S116 660 1425521 4707 0
73 2 S116 643 1426164 5350 0
73 2 S116 666 1426830 6016 0
73 2 S116 633 1427463 6649 0
0 0 0 605 1428068 -9606 0
0 0 0 588 1428656 -9018 0
0 0 0 592 1429248 -8426 0
0 0 0 585 1429833 -7841 0
0 0 0 645 1430478 -7196 0
0 0 0 677 1431155 -6519 0
0 0 0 646 1431801 -5873 0
0 0 0 613 1432414 -5260 0
0 0 0 607 1433021 -4653 0
0 0 0 618 1433639 -4035 0
0 0 0 658 1434297 -3377 0
0 0 0 685 1434982 -2692 0
0 0 0 686 1435668 -2006 0
74 1 S106 638 1436306 -1368 0
74 1 S106 605 1436911 -763 0
74 1 S106 585 1437496 -178 0
74 2 S106 578 1438074 400 0
74 2 S106 579 1438653 979 0
74 2 S106 629 1439282 1608 0
74 2 S106 671 1439953 2279 0
74 2 S106 698 1440651 2977 0
74 2 S106 633 1441284 3610 0
74 2 S106 652 1441936 4262 0
74 2 S106 701 1442637 4963 0
74 2 S106 748 1443385 5711 0
74 2 S106 789 1444174 6500 0
0 0 0 786 1444960 -8148 0
0 0 0 720 1445680 -7428 0
0 0 0 658 1446338 -6770 0
0 0 0 664 1447002 -6106 0
0 0 0 691 1447693 -5415 0
0 0 0 696 1448389 -4719 0
0 0 0 662 1449051 -4057 0
0 0 0 629 1449680 -3428 0
0 0 0 600 1450280 -2828 0
0 0 0 614 1450894 -2214 0
75 1 S112 608 1451502 -1606 0
75 1 S112 616 1452118 -990 0
75 1 S112 630 1452748 -360 0
75 2 S112 641 1453389 281 0
75 2 S112 624 1454013 905 0
75 2 S112 624 1454637 1529 0
75 2 S112 633 1455270 2162 0
75 2 S112 652 1455922 2814 0
75 2 S112 698 1456620 3512 0
75 2 S112 719 1457339 4231 0
75 2 S112 676 1458015 4907 0
75 2 S112 640 1458655 5547 0
75 2 S112 659 1459314 6206 0
75 2 S112 702 1460016 6908 0
0 0 0 737 1460753 -7243 0
0 0 0 714 1461467 -6529 0
0 0 0 638 1462105 -5891 0
0 0 0 604 1462709 -5287 0
0 0 0 593 1463302 -4694 0
0 0 0 581 1463883 -4113 0
0 0 0 611 1464494 -3502 0
0 0 0 706 1465200 -2796 0
0 0 0 736 1465936 -2060 0
76 1 S116 690 1466626 -1370 0
76 1 S116 703 1467329 -667 0
76 2 S116 739 1468068 72 0
76 2 S116 751 1468819 823 0
76 2 S116 773 1469592 1596 0
76 2 S116 760 1470352 2356 0
76 2 S116 662 1471014 3018 0
76 2 S116 628 1471642 3646 0
76 2 S116 620 1472262 4266 0
76 2 S116 625 1472887 4891 0
76 2 S116 648 1473535 5539 0
76 2 S116 660 1474195 6199 0
76 2 S116 647 1474842 6846 0
0 0 0 614 1475456 -7344 0
0 0 0 622 1476078 -6722 0
0 0 0 628 1476706 -6094 0
0 0 0 656 1477362 -5438 0
0 0 0 707 1478069 -4731 0
0 0 0 673 1478742 -4058 0
0 0 0 627 1479369 -3431 0
0 0 0 595 1479964 -2836 0
0 0 0 595 1480559 -2241 0
77 1 S106 608 1481167 -1633 0
77 1 S106 598 1481765 -1035 0
77 1 S106 562 1482327 -473 0
77 2 S106 569 1482896 96 0
77 2 S106 610 1483506 706 0
77 2 S106 584 1484090 1290 0
77 2 S106 568 1484658 1858 0
77 2 S106 531 1485189 2389 0
77 2 S106 531 1485720 2920 0
77 2 S106 593 1486313 3513 0
77 2 S106 760 1487073 4273 0
77 2 S106 794 1487867 5067 0
77 2 S106 824 1488691 5891 1
77 2 S106 791 1489482 6682 0
0 0 0 712 1490194 -9583 0
0 0 0 650 1490844 -8933 0
0 0 0 618 1491462 -8315 0
0 0 0 614 1492076 -7701 0
0 0 0 638 1492714 -7063 0
0 0 0 652 1493366 -6411 0
0 0 0 660 1494026 -5751 0
0 0 0 655 1494681 -5096 0
0 0 0 643 1495324 -4453 0
0 0 0 625 1495949 -3828 0
0 0 0 630 1496579 -3198 0
0 0 0 629 1497208 -2569 0
78 1 S112 660 1497868 -1909 0
78 1 S112 656 1498524 -1253 0
78 1 S112 656 1499180 -597 0
78 2 S112 612 1499792 15 0
78 2 S112 616 1500408 631 0
78 2 S112 632 1501040 1263 0
78 2 S112 647 1501687 1910 0
78 2 S112 662 1502349 2572 0
78 2 S112 687 1503036 3259 0
78 2 S112 660 1503696 3919 0
78 2 S112 630 1504326 4549 0
78 2 S112 643 1504969 5192 0
78 2 S112 650 1505619 5842 0
78 2 S112 708 1506327 6550 0
0 0 0 723 1507050 -11527 0
0 0 0 707 1507757 -10820 0
0 0 0 624 1508381 -10196 0
0 0 0 601 1508982 -9595 0
0 0 0 600 1509582 -8995 0
0 0 0 588 1510170 -8407 0
0 0 0 606 1510776 -7801 0
0 0 0 630 1511406 -7171 0
0 0 0 614 1512020 -6557 0
0 0 0 596 1512616 -5961 0
0 0 0 594 1513210 -5367 0
0 0 0 599 1513809 -4768 0
0 0 0 620 1514429 -4148 0
0 0 0 688 1515117 -3460 0
0 0 0 710 1515827 -2750 0
0 0 0 681 1516508 -2069 0
79 1 S102 623 1517131 -1446 0
79 1 S102 591 1517722 -855 0
79 1 S102 574 1518296 -281 0
79 2 S102 571 1518867 290 0
79 2 S102 603 1519470 893 0
79 2 S102 670 1520140 1563 0
79 2 S102 759 1520899 2322 0
79 2 S102 739 1521638 3061 0
79 2 S102 700 1522338 3761 0
79 2 S102 724 1523062 4485 0
79 2 S102 696 1523758 5181 0
79 2 S102 723 1524481 5904 0
79 2 S102 695 1525176 6599 0
0 0 0 659 1525835 -10132 0
0 0 0 634 1526469 -9498 0
0 0 0 633 1527102 -8865 0
0 0 0 631 1527733 -8234 0
0 0 0 664 1528397 -7570 0
0 0 0 663 1529060 -6907 0
0 0 0 602 1529662 -6305 0
0 0 0 586 1530248 -5719 0
0 0 0 576 1530824 -5143 0
0 0 0 584 1531408 -4559 0
0 0 0 639 1532047 -3920 0
0 0 0 659 1532706 -3261 0
0 0 0 632 1533338 -2629 0
80 1 S116 635 1533973 -1994 0
80 1 S116 678 1534651 -1316 0
80 1 S116 690 1535341 -626 0
80 2 S116 769 1536110 143 0
80 2 S116 748 1536858 891 0
80 2 S116 696 1537554 1587 0
80 2 S116 637 1538191 2224 0
80 2 S116 611 1538802 2835 0
80 2 S116 607 1539409 3442 0
80 2 S116 621 1540030 4063 0
80 2 S116 643 1540673 4706 0
80 2 S116 677 1541350 5383 0
80 2 S116 647 1541997 6030 0
80 2 S116 632 1542629 6662 0
