T_0035
BeatCount Mean SD BeatCountNoOutliers MeanNoOutliers SDNoOutliers
1945 785,576863753213 111,166603639988 1934 780,002585315409 74,9167682914297

Trial TrialStatus Trialtype IBI AbsPosition RelPosition Outlier
0 0 0 700 1192 -14484 0
0 0 0 731 1923 -13753 0
0 0 0 776 2699 -12977 0
0 0 0 875 3574 -12102 0
0 0 0 849 4423 -11253 0
0 0 0 805 5228 -10448 0
0 0 0 854 6082 -9594 0
0 0 0 845 6927 -8749 0
0 0 0 786 7713 -7963 0
0 0 0 739 8452 -7224 0
0 0 0 689 9141 -6535 0
0 0 0 691 9832 -5844 0
0 0 0 714 10546 -5130 0
0 0 0 688 11234 -4442 0
0 0 0 670 11904 -3772 0
0 0 0 629 12533 -3143 0
0 0 0 605 13138 -2538 0
1 1 S112 601 13739 -1937 0
1 1 S112 599 14338 -1338 0
1 1 S112 606 14944 -732 0
1 1 S112 636 15580 -96 0
1 2 S112 688 16268 592 0
1 2 S112 739 17007 1331 0
1 2 S112 770 17777 2101 0
1 2 S112 795 18572 2896 0
1 2 S112 814 19386 3710 0
1 2 S112 811 20197 4521 0
1 2 S112 787 20984 5308 0
1 2 S112 754 21738 6062 0
1 2 S112 718 22456 6780 0
0 0 0 665 23121 -11853 0
0 0 0 644 23765 -11209 0
0 0 0 618 24383 -10591 0
0 0 0 623 25006 -9968 0
0 0 0 637 25643 -9331 0
0 0 0 682 26325 -8649 0
0 0 0 826 27151 -7823 0
0 0 0 836 27987 -6987 0
0 0 0 830 28817 -6157 0
0 0 0 883 29700 -5274 0
0 0 0 923 30623 -4351 0
0 0 0 869 31492 -3482 0
0 0 0 822 32314 -2660 0
2 1 S102 811 33125 -1849 0
2 1 S102 783 33908 -1066 0
2 1 S102 744 34652 -322 0
2 2 S102 763 35415 441 0
2 2 S102 780 36195 1221 0
2 2 S102 759 36954 1980 0
2 2 S102 747 37701 2727 0
2 2 S102 717 38418 3444 0
2 2 S102 709 39127 4153 0
2 2 S102 713 39840 4866 0
2 2 S102 697 40537 5563 0
2 2 S102 676 41213 6239 0
2 2 S102 692 41905 6931 0
0 0 0 697 42602 -8585 0
0 0 0 684 43286 -7901 0
0 0 0 650 43936 -7251 0
0 0 0 667 44603 -6584 0
0 0 0 682 45285 -5902 0
0 0 0 701 45986 -5201 0
0 0 0 672 46658 -4529 0
0 0 0 638 47296 -3891 0
0 0 0 620 47916 -3271 0
0 0 0 616 48532 -2655 0
0 0 0 622 49154 -2033 0
3 1 S116 635 49789 -1398 0
3 1 S116 642 50431 -756 0
3 1 S116 674 51105 -82 0
3 2 S116 704 51809 622 0
3 2 S116 737 52546 1359 0
3 2 S116 746 53292 2105 0
3 2 S116 782 54074 2887 0
3 2 S116 777 54851 3664 0
3 2 S116 795 55646 4459 0
3 2 S116 775 56421 5234 0
3 2 S116 746 57167 5980 0
3 2 S116 780 57947 6760 0
0 0 0 826 58773 -11695 0
0 0 0 779 59552 -10916 0
0 0 0 678 60230 -10238 0
0 0 0 666 60896 -9572 0
0 0 0 669 61565 -8903 0
0 0 0 701 62266 -8202 0
0 0 0 827 63093 -7375 0
0 0 0 877 63970 -6498 0
0 0 0 866 64836 -5632 0
0 0 0 901 65737 -4731 0
0 0 0 862 66599 -3869 0
0 0 0 878 67477 -2991 0
0 0 0 849 68326 -2142 0
4 1 S106 777 69103 -1365 0
4 1 S106 761 69864 -604 0
4 2 S106 743 70607 139 0
4 2 S106 741 71348 880 0
4 2 S106 685 72033 1565 0
4 2 S106 675 72708 2240 0
4 2 S106 686 73394 2926 0
4 2 S106 730 74124 3656 0
4 2 S106 834 74958 4490 0
4 2 S106 856 75814 5346 0
4 2 S106 835 76649 6181 0
4 2 S106 783 77432 6964 0
0 0 0 793 78225 -7678 0
0 0 0 767 78992 -6911 0
0 0 0 721 79713 -6190 0
0 0 0 688 80401 -5502 0
0 0 0 686 81087 -4816 0
0 0 0 697 81784 -4119 0
0 0 0 726 82510 -3393 0
0 0 0 741 83251 -2652 0
5 1 S116 804 84055 -1848 0
5 1 S116 845 84900 -1003 0
5 1 S116 876 85776 -127 0
5 2 S116 870 86646 743 0
5 2 S116 845 87491 1588 0
5 2 S116 814 88305 2402 0
5 2 S116 766 89071 3168 0
5 2 S116 734 89805 3902 0
5 2 S116 767 90572 4669 0
5 2 S116 803 91375 5472 0
5 2 S116 835 92210 6307 0
0 0 0 820 93030 -11092 0
0 0 0 836 93866 -10256 0
0 0 0 841 94707 -9415 0
0 0 0 819 95526 -8596 0
0 0 0 764 96290 -7832 0
0 0 0 779 97069 -7053 0
0 0 0 783 97852 -6270 0
0 0 0 756 98608 -5514 0
0 0 0 707 99315 -4807 0
0 0 0 733 100048 -4074 0
0 0 0 769 100817 -3305 0
0 0 0 810 101627 -2495 0
6 1 S106 810 102437 -1685 0
6 1 S106 790 103227 -895 0
6 1 S106 818 104045 -77 0
6 2 S106 822 104867 745 0
6 2 S106 801 105668 1546 0
6 2 S106 777 106445 2323 0
6 2 S106 785 107230 3108 0
6 2 S106 780 108010 3888 0
6 2 S106 741 108751 4629 0
6 2 S106 713 109464 5342 0
6 2 S106 713 110177 6055 0
6 2 S106 711 110888 6766 0
0 0 0 697 111585 -9812 0
0 0 0 647 112232 -9165 0
0 0 0 629 112861 -8536 0
0 0 0 611 113472 -7925 0
0 0 0 602 114074 -7323 0
0 0 0 607 114681 -6716 0
0 0 0 603 115284 -6113 0
0 0 0 589 115873 -5524 0
0 0 0 605 116478 -4919 0
0 0 0 658 117136 -4261 0
0 0 0 733 117869 -3528 0
0 0 0 770 118639 -2758 0
7 1 S102 775 119414 -1983 0
7 1 S102 769 120183 -1214 0
7 1 S102 760 120943 -454 0
7 2 S102 743 121686 289 0
7 2 S102 713 122399 1002 0
7 2 S102 690 123089 1692 0
7 2 S102 713 123802 2405 0
7 2 S102 733 124535 3138 0
7 2 S102 747 125282 3885 0
7 2 S102 740 126022 4625 0
7 2 S102 770 126792 5395 0
7 2 S102 834 127626 6229 0
0 0 0 868 128494 -8404 0
0 0 0 860 129354 -7544 0
0 0 0 836 130190 -6708 0
0 0 0 815 131005 -5893 0
0 0 0 777 131782 -5116 0
0 0 0 761 132543 -4355 0
0 0 0 759 133302 -3596 0
0 0 0 754 134056 -2842 0
0 0 0 681 134737 -2161 0
8 1 S112 679 135416 -1482 0
8 1 S112 672 136088 -810 0
8 1 S112 703 136791 -107 0
8 2 S112 771 137562 664 0
8 2 S112 819 138381 1483 0
8 2 S112 789 139170 2272 0
8 2 S112 808 139978 3080 0
8 2 S112 804 140782 3884 0
8 2 S112 748 141530 4632 0
8 2 S112 703 142233 5335 0
8 2 S112 692 142925 6027 0
8 2 S112 693 143618 6720 0
0 0 0 723 144341 -8605 0
0 0 0 759 145100 -7846 0
0 0 0 747 145847 -7099 0
0 0 0 733 146580 -6366 0
0 0 0 778 147358 -5588 0
0 0 0 772 148130 -4816 0
0 0 0 769 148899 -4047 0
0 0 0 718 149617 -3329 0
0 0 0 739 150356 -2590 0
9 1 S116 761 151117 -1829 0
9 1 S116 712 151829 -1117 0
9 1 S116 664 152493 -453 0
9 2 S116 642 153135 189 0
9 2 S116 674 153809 863 0
9 2 S116 696 154505 1559 0
9 2 S116 728 155233 2287 0
9 2 S116 733 155966 3020 0
9 2 S116 720 156686 3740 0
9 2 S116 751 157437 4491 0
9 2 S116 751 158188 5242 0
9 2 S116 738 158926 5980 0
9 2 S116 695 159621 6675 0
0 0 0 712 160333 -13219 0
0 0 0 704 161037 -12515 0
0 0 0 725 161762 -11790 0
0 0 0 698 162460 -11092 0
0 0 0 721 163181 -10371 0
0 0 0 773 163954 -9598 0
0 0 0 812 164766 -8786 0
0 0 0 844 165610 -7942 0
0 0 0 871 166481 -7071 0
0 0 0 872 167353 -6199 0
0 0 0 847 168200 -5352 0
0 0 0 810 169010 -4542 0
0 0 0 808 169818 -3734 0
0 0 0 768 170586 -2966 0
0 0 0 719 171305 -2247 0
10 1 S102 736 172041 -1511 0
10 1 S102 797 172838 -714 0
10 2 S102 837 173675 123 0
10 2 S102 864 174539 987 0
10 2 S102 815 175354 1802 0
10 2 S102 825 176179 2627 0
10 2 S102 834 177013 3461 0
10 2 S102 793 177806 4254 0
10 2 S102 751 178557 5005 0
10 2 S102 769 179326 5774 0
10 2 S102 786 180112 6560 0
0 0 0 767 180879 -10926 0
0 0 0 769 181648 -10157 0
0 0 0 784 182432 -9373 0
0 0 0 775 183207 -8598 0
0 0 0 784 183991 -7814 0
0 0 0 778 184769 -7036 0
0 0 0 744 185513 -6292 0
0 0 0 712 186225 -5580 0
0 0 0 716 186941 -4864 0
0 0 0 742 187683 -4122 0
0 0 0 735 188418 -3387 0
0 0 0 743 189161 -2644 0
11 1 S112 784 189945 -1860 0
11 1 S112 811 190756 -1049 0
11 1 S112 781 191537 -268 0
11 2 S112 746 192283 478 0
11 2 S112 740 193023 1218 0
11 2 S112 753 193776 1971 0
11 2 S112 751 194527 2722 0
11 2 S112 745 195272 3467 0
11 2 S112 722 195994 4189 0
11 2 S112 754 196748 4943 0
11 2 S112 761 197509 5704 0
11 2 S112 750 198259 6454 0
0 0 0 740 198999 -6699 0
0 0 0 784 199783 -5915 0
0 0 0 775 200558 -5140 0
0 0 0 764 201322 -4376 0
0 0 0 716 202038 -3660 0
0 0 0 715 202753 -2945 0
0 0 0 713 203466 -2232 0
12 1 S116 738 204204 -1494 0
12 1 S116 726 204930 -768 0
12 1 S116 744 205674 -24 0
12 2 S116 765 206439 741 0
12 2 S116 787 207226 1528 0
12 2 S116 762 207988 2290 0
12 2 S116 778 208766 3068 0
12 2 S116 806 209572 3874 0
12 2 S116 827 210399 4701 0
12 2 S116 841 211240 5542 0
12 2 S116 826 212066 6368 0
0 0 0 825 212891 -11425 0
0 0 0 810 213701 -10615 0
0 0 0 724 214425 -9891 0
0 0 0 720 215145 -9171 0
0 0 0 690 215835 -8481 0
0 0 0 698 216533 -7783 0
0 0 0 680 217213 -7103 0
0 0 0 711 217924 -6392 0
0 0 0 756 218680 -5636 0
0 0 0 795 219475 -4841 0
0 0 0 818 220293 -4023 0
0 0 0 857 221150 -3166 0
0 0 0 868 222018 -2298 0
13 1 S112 840 222858 -1458 0
13 1 S112 843 223701 -615 0
13 2 S112 811 224512 196 0
13 2 S112 766 225278 962 0
13 2 S112 726 226004 1688 0
13 2 S112 744 226748 2432 0
13 2 S112 746 227494 3178 0
13 2 S112 725 228219 3903 0
13 2 S112 685 228904 4588 0
13 2 S112 704 229608 5292 0
13 2 S112 743 230351 6035 0
13 2 S112 774 231125 6809 0
0 0 0 791 231916 -12244 0
0 0 0 801 232717 -11443 0
0 0 0 784 233501 -10659 0
0 0 0 732 234233 -9927 0
0 0 0 733 234966 -9194 0
0 0 0 707 235673 -8487 0
0 0 0 688 236361 -7799 0
0 0 0 651 237012 -7148 0
0 0 0 624 237636 -6524 0
0 0 0 622 238258 -5902 0
0 0 0 622 238880 -5280 0
0 0 0 617 239497 -4663 0
0 0 0 638 240135 -4025 0
0 0 0 668 240803 -3357 0
0 0 0 765 241568 -2592 0
14 1 S106 837 242405 -1755 0
14 1 S106 819 243224 -936 0
14 1 S106 834 244058 -102 0
14 2 S106 829 244887 727 0
14 2 S106 788 245675 1515 0
14 2 S106 769 246444 2284 0
14 2 S106 726 247170 3010 0
14 2 S106 682 247852 3692 0
14 2 S106 717 248569 4409 0
14 2 S106 763 249332 5172 0
14 2 S106 792 250124 5964 0
14 2 S106 783 250907 6747 0
0 0 0 811 251718 -9717 0
0 0 0 827 252545 -8890 0
0 0 0 833 253378 -8057 0
0 0 0 800 254178 -7257 0
0 0 0 829 255007 -6428 0
0 0 0 846 255853 -5582 0
0 0 0 825 256678 -4757 0
0 0 0 839 257517 -3918 0
0 0 0 787 258304 -3131 0
0 0 0 730 259034 -2401 0
15 1 S116 753 259787 -1648 0
15 1 S116 791 260578 -857 0
15 1 S116 834 261412 -23 0
15 2 S116 847 262259 824 0
15 2 S116 905 263164 1729 0
15 2 S116 888 264052 2617 0
15 2 S116 871 264923 3488 0
15 2 S116 881 265804 4369 0
15 2 S116 854 266658 5223 0
15 2 S116 805 267463 6028 0
15 2 S116 831 268294 6859 0
0 0 0 849 269143 -9583 0
0 0 0 805 269948 -8778 0
0 0 0 735 270683 -8043 0
0 0 0 744 271427 -7299 0
0 0 0 755 272182 -6544 0
0 0 0 774 272956 -5770 0
0 0 0 752 273708 -5018 0
0 0 0 809 274517 -4209 0
0 0 0 834 275351 -3375 0
0 0 0 815 276166 -2560 0
16 1 S116 845 277011 -1715 0
16 1 S116 840 277851 -875 0
16 1 S116 797 278648 -78 0
16 2 S116 816 279464 738 0
16 2 S116 812 280276 1550 0
16 2 S116 769 281045 2319 0
16 2 S116 792 281837 3111 0
16 2 S116 792 282629 3903 0
16 2 S116 790 283419 4693 0
16 2 S116 783 284202 5476 0
16 2 S116 848 285050 6324 0
0 0 0 886 285936 -10496 0
0 0 0 879 286815 -9617 0
0 0 0 846 287661 -8771 0
0 0 0 836 288497 -7935 0
0 0 0 812 289309 -7123 0
0 0 0 773 290082 -6350 0
0 0 0 784 290866 -5566 0
0 0 0 767 291633 -4799 0
0 0 0 731 292364 -4068 0
0 0 0 780 293144 -3288 0
0 0 0 804 293948 -2484 0
17 1 S106 796 294744 -1688 0
17 1 S106 844 295588 -844 0
17 2 S106 852 296440 8 0
17 2 S106 861 297301 869 0
17 2 S106 845 298146 1714 0
17 2 S106 837 298983 2551 0
17 2 S106 761 299744 3312 0
17 2 S106 779 300523 4091 0
17 2 S106 799 301322 4890 0
17 2 S106 796 302118 5686 0
17 2 S106 784 302902 6470 0
0 0 0 841 303743 -10792 0
0 0 0 851 304594 -9941 0
0 0 0 796 305390 -9145 0
0 0 0 812 306202 -8333 0
0 0 0 815 307017 -7518 0
0 0 0 796 307813 -6722 0
0 0 0 805 308618 -5917 0
0 0 0 853 309471 -5064 0
0 0 0 854 310325 -4210 0
0 0 0 829 311154 -3381 0
0 0 0 861 312015 -2520 0
18 1 S102 852 312867 -1668 0
18 1 S102 841 313708 -827 0
18 2 S102 849 314557 22 0
18 2 S102 821 315378 843 0
18 2 S102 792 316170 1635 0
18 2 S102 800 316970 2435 0
18 2 S102 777 317747 3212 0
18 2 S102 740 318487 3952 0
18 2 S102 775 319262 4727 0
18 2 S102 783 320045 5510 0
18 2 S102 792 320837 6302 0
0 0 0 825 321662 -6252 0
0 0 0 857 322519 -5395 0
0 0 0 819 323338 -4576 0
0 0 0 811 324149 -3765 0
0 0 0 837 324986 -2928 0
0 0 0 825 325811 -2103 0
19 1 S106 831 326642 -1272 0
19 1 S106 857 327499 -415 0
19 2 S106 820 328319 405 0
19 2 S106 801 329120 1206 0
19 2 S106 814 329934 2020 0
19 2 S106 791 330725 2811 0
19 2 S106 758 331483 3569 0
19 2 S106 787 332270 4356 0
19 2 S106 824 333094 5180 0
19 2 S106 825 333919 6005 0
19 2 S106 868 334787 6873 0
0 0 0 857 335644 -9429 0
0 0 0 787 336431 -8642 0
0 0 0 792 337223 -7850 0
0 0 0 776 337999 -7074 0
0 0 0 728 338727 -6346 0
0 0 0 709 339436 -5637 0
0 0 0 738 340174 -4899 0
0 0 0 768 340942 -4131 0
0 0 0 786 341728 -3345 0
0 0 0 769 342497 -2576 0
20 1 S112 820 343317 -1756 0
20 1 S112 826 344143 -930 0
20 1 S112 788 344931 -142 0
20 2 S112 820 345751 678 0
20 2 S112 817 346568 1495 0
20 2 S112 794 347362 2289 0
20 2 S112 779 348141 3068 0
20 2 S112 790 348931 3858 0
20 2 S112 779 349710 4637 0
20 2 S112 716 350426 5353 0
20 2 S112 745 351171 6098 0
20 2 S112 744 351915 6842 0
0 0 0 761 352676 -9025 0
0 0 0 709 353385 -8316 0
0 0 0 745 354130 -7571 0
0 0 0 736 354866 -6835 0
0 0 0 704 355570 -6131 0
0 0 0 765 356335 -5366 0
0 0 0 797 357132 -4569 0
0 0 0 763 357895 -3806 0
0 0 0 785 358680 -3021 0
0 0 0 800 359480 -2221 0
21 1 S106 778 360258 -1443 0
21 1 S106 776 361034 -667 0
21 2 S106 795 361829 128 0
21 2 S106 787 362616 915 0
21 2 S106 741 363357 1656 0
21 2 S106 750 364107 2406 0
21 2 S106 749 364856 3155 0
21 2 S106 743 365599 3898 0
21 2 S106 737 366336 4635 0
21 2 S106 787 367123 5422 0
21 2 S106 803 367926 6225 0
21 2 S106 802 368728 7027 0
0 0 0 781 369509 -11008 0
0 0 0 810 370319 -10198 0
0 0 0 823 371142 -9375 0
0 0 0 781 371923 -8594 0
0 0 0 821 372744 -7773 0
0 0 0 827 373571 -6946 0
0 0 0 800 374371 -6146 0
0 0 0 823 375194 -5323 0
0 0 0 804 375998 -4519 0
0 0 0 777 376775 -3742 0
0 0 0 815 377590 -2927 0
0 0 0 817 378407 -2110 0
22 1 S116 794 379201 -1316 0
22 1 S116 822 380023 -494 0
22 2 S116 860 380883 366 0
22 2 S116 872 381755 1238 0
22 2 S116 840 382595 2078 0
22 2 S116 865 383460 2943 0
22 2 S116 871 384331 3814 0
22 2 S116 824 385155 4638 0
22 2 S116 777 385932 5415 0
22 2 S116 790 386722 6205 0
22 2 S116 802 387524 7007 0
0 0 0 777 388301 -10088 0
0 0 0 796 389097 -9292 0
0 0 0 789 389886 -8503 0
0 0 0 724 390610 -7779 0
0 0 0 764 391374 -7015 0
0 0 0 750 392124 -6265 0
0 0 0 700 392824 -5565 0
0 0 0 677 393501 -4888 0
0 0 0 655 394156 -4233 0
0 0 0 665 394821 -3568 0
0 0 0 754 395575 -2814 0
23 1 S112 844 396419 -1970 0
23 1 S112 874 397293 -1096 0
23 1 S112 898 398191 -198 0
23 2 S112 899 399090 701 0
23 2 S112 896 399986 1597 0
23 2 S112 862 400848 2459 0
23 2 S112 807 401655 3266 0
23 2 S112 789 402444 4055 0
23 2 S112 754 403198 4809 0
23 2 S112 693 403891 5502 0
23 2 S112 700 404591 6202 0
23 2 S112 722 405313 6924 0
0 0 0 798 406111 -9934 0
0 0 0 824 406935 -9110 0
0 0 0 805 407740 -8305 0
0 0 0 815 408555 -7490 0
0 0 0 817 409372 -6673 0
0 0 0 791 410163 -5882 0
0 0 0 811 410974 -5071 0
0 0 0 801 411775 -4270 0
0 0 0 801 412576 -3469 0
0 0 0 793 413369 -2676 0
24 1 S106 761 414130 -1915 0
24 1 S106 785 414915 -1130 0
24 1 S106 771 415686 -359 0
24 2 S106 739 416425 380 0
24 2 S106 747 417172 1127 0
24 2 S106 762 417934 1889 0
24 2 S106 758 418692 2647 0
24 2 S106 741 419433 3388 0
24 2 S106 778 420211 4166 0
24 2 S106 786 420997 4952 0
24 2 S106 753 421750 5705 0
24 2 S106 779 422529 6484 0
0 0 0 803 423332 -7865 0
0 0 0 818 424150 -7047 0
0 0 0 773 424923 -6274 0
0 0 0 780 425703 -5494 0
0 0 0 786 426489 -4708 0
0 0 0 778 427267 -3930 0
0 0 0 750 428017 -3180 0
0 0 0 760 428777 -2420 0
25 1 S102 750 429527 -1670 0
25 1 S102 729 430256 -941 0
25 1 S102 757 431013 -184 0
25 2 S102 805 431818 621 0
25 2 S102 846 432664 1467 0
25 2 S102 824 433488 2291 0
25 2 S102 857 434345 3148 0
25 2 S102 858 435203 4006 0
25 2 S102 788 435991 4794 0
25 2 S102 807 436798 5601 0
25 2 S102 773 437571 6374 0
0 0 0 718 438289 -6536 0
0 0 0 728 439017 -5808 0
0 0 0 729 439746 -5079 0
0 0 0 713 440459 -4366 0
0 0 0 715 441174 -3651 0
0 0 0 727 441901 -2924 0
0 0 0 742 442643 -2182 0
26 1 S116 745 443388 -1437 0
26 1 S116 803 444191 -634 0
26 2 S116 805 444996 171 0
26 2 S116 798 445794 969 0
26 2 S116 819 446613 1788 0
26 2 S116 809 447422 2597 0
26 2 S116 749 448171 3346 0
26 2 S116 759 448930 4105 0
26 2 S116 752 449682 4857 0
26 2 S116 728 450410 5585 0
26 2 S116 737 451147 6322 0
0 0 0 766 451913 -6075 0
0 0 0 771 452684 -5304 0
0 0 0 730 453414 -4574 0
0 0 0 788 454202 -3786 0
0 0 0 818 455020 -2968 0
0 0 0 821 455841 -2147 0
27 1 S106 835 456676 -1312 0
27 1 S106 818 457494 -494 0
27 2 S106 782 458276 288 0
27 2 S106 816 459092 1104 0
27 2 S106 819 459911 1923 0
27 2 S106 803 460714 2726 0
27 2 S106 836 461550 3562 0
27 2 S106 842 462392 4404 0
27 2 S106 811 463203 5215 0
27 2 S106 805 464008 6020 0
27 2 S106 845 464853 6865 0
0 0 0 849 465702 -7240 0
0 0 0 796 466498 -6444 0
0 0 0 810 467308 -5634 0
0 0 0 785 468093 -4849 0
0 0 0 724 468817 -4125 0
0 0 0 769 469586 -3356 0
0 0 0 803 470389 -2553 0
28 1 S102 804 471193 -1749 0
28 1 S102 838 472031 -911 0
28 1 S102 831 472862 -80 0
28 2 S102 780 473642 700 0
28 2 S102 792 474434 1492 0
28 2 S102 772 475206 2264 0
28 2 S102 729 475935 2993 0
28 2 S102 772 476707 3765 0
28 2 S102 816 477523 4581 0
28 2 S102 819 478342 5400 0
28 2 S102 839 479181 6239 0
0 0 0 842 480023 -10227 0
0 0 0 806 480829 -9421 0
0 0 0 811 481640 -8610 0
0 0 0 804 482444 -7806 0
0 0 0 753 483197 -7053 0
0 0 0 803 484000 -6250 0
0 0 0 804 484804 -5446 0
0 0 0 765 485569 -4681 0
0 0 0 778 486347 -3903 0
0 0 0 786 487133 -3117 0
0 0 0 761 487894 -2356 0
29 1 S112 821 488715 -1535 0
29 1 S112 804 489519 -731 0
29 2 S112 763 490282 32 0
29 2 S112 731 491013 763 0
29 2 S112 743 491756 1506 0
29 2 S112 771 492527 2277 0
29 2 S112 810 493337 3087 0
29 2 S112 788 494125 3875 0
29 2 S112 740 494865 4615 0
29 2 S112 766 495631 5381 0
29 2 S112 757 496388 6138 0
29 2 S112 714 497102 6852 0
0 0 0 750 497852 -7036 0
0 0 0 756 498608 -6280 0
0 0 0 758 499366 -5522 0
0 0 0 737 500103 -4785 0
0 0 0 775 500878 -4010 0
0 0 0 784 501662 -3226 0
0 0 0 772 502434 -2454 0
30 1 S112 786 503220 -1668 0
30 1 S112 770 503990 -898 0
30 1 S112 754 504744 -144 0
30 2 S112 767 505511 623 0
30 2 S112 759 506270 1382 0
30 2 S112 731 507001 2113 0
30 2 S112 762 507763 2875 0
30 2 S112 739 508502 3614 0
30 2 S112 687 509189 4301 0
30 2 S112 688 509877 4989 0
30 2 S112 719 510596 5708 0
30 2 S112 783 511379 6491 0
0 0 0 793 512172 -9179 0
0 0 0 846 513018 -8333 0
0 0 0 839 513857 -7494 0
0 0 0 828 514685 -6666 0
0 0 0 837 515522 -5829 0
0 0 0 762 516284 -5067 0
0 0 0 787 517071 -4280 0
0 0 0 771 517842 -3509 0
0 0 0 742 518584 -2767 0
0 0 0 695 519279 -2072 0
31 1 S106 646 519925 -1426 0
31 1 S106 640 520565 -786 0
31 1 S106 632 521197 -154 0
31 2 S106 621 521818 467 0
31 2 S106 619 522437 1086 0
31 2 S106 650 523087 1736 0
31 2 S106 692 523779 2428 0
31 2 S106 743 524522 3171 0
31 2 S106 735 525257 3906 0
31 2 S106 763 526020 4669 0
31 2 S106 799 526819 5468 0
31 2 S106 815 527634 6283 0
0 0 0 769 528403 -8332 0
0 0 0 777 529180 -7555 0
0 0 0 750 529930 -6805 0
0 0 0 713 530643 -6092 0
0 0 0 691 531334 -5401 0
0 0 0 734 532068 -4667 0
0 0 0 783 532851 -3884 0
0 0 0 853 533704 -3031 0
0 0 0 837 534541 -2194 0
32 1 S102 872 535413 -1322 0
32 1 S102 889 536302 -433 0
32 2 S102 835 537137 402 0
32 2 S102 837 537974 1239 0
32 2 S102 845 538819 2084 0
32 2 S102 802 539621 2886 0
32 2 S102 786 540407 3672 0
32 2 S102 786 541193 4458 0
32 2 S102 765 541958 5223 0
32 2 S102 711 542669 5934 0
32 2 S102 733 543402 6667 0
0 0 0 753 544155 -11662 0
0 0 0 708 544863 -10954 0
0 0 0 736 545599 -10218 0
0 0 0 773 546372 -9445 0
0 0 0 766 547138 -8679 0
0 0 0 753 547891 -7926 0
0 0 0 790 548681 -7136 0
0 0 0 733 549414 -6403 0
0 0 0 780 550194 -5623 0
0 0 0 815 551009 -4808 0
0 0 0 812 551821 -3996 0
0 0 0 821 552642 -3175 0
0 0 0 763 553405 -2412 0
33 1 S112 724 554129 -1688 0
33 1 S112 760 554889 -928 0
33 1 S112 781 555670 -147 0
33 2 S112 763 556433 616 0
33 2 S112 765 557198 1381 0
33 2 S112 818 558016 2199 0
33 2 S112 819 558835 3018 0
33 2 S112 772 559607 3790 0
33 2 S112 823 560430 4613 0
33 2 S112 849 561279 5462 0
33 2 S112 853 562132 6315 0
0 0 0 843 562975 -12686 0
0 0 0 851 563826 -11835 0
0 0 0 763 564589 -11072 0
0 0 0 693 565282 -10379 0
0 0 0 682 565964 -9697 0
0 0 0 745 566709 -8952 0
0 0 0 834 567543 -8118 0
0 0 0 898 568441 -7220 0
0 0 0 895 569336 -6325 0
0 0 0 888 570224 -5437 0
0 0 0 880 571104 -4557 0
0 0 0 846 571950 -3711 0
0 0 0 811 572761 -2900 0
0 0 0 769 573530 -2131 0
34 1 S106 747 574277 -1384 0
34 1 S106 737 575014 -647 0
34 2 S106 707 575721 60 0
34 2 S106 686 576407 746 0
34 2 S106 677 577084 1423 0
34 2 S106 650 577734 2073 0
34 2 S106 630 578364 2703 0
34 2 S106 612 578976 3315 0
34 2 S106 612 579588 3927 0
34 2 S106 619 580207 4546 0
34 2 S106 625 580832 5171 0
34 2 S106 613 581445 5784 0
34 2 S106 640 582085 6424 0
0 0 0 712 582797 -8083 0
0 0 0 765 583562 -7318 0
0 0 0 749 584311 -6569 0
0 0 0 722 585033 -5847 0
0 0 0 713 585746 -5134 0
0 0 0 698 586444 -4436 0
0 0 0 688 587132 -3748 0
0 0 0 699 587831 -3049 0
0 0 0 717 588548 -2332 0
35 1 S102 750 589298 -1582 0
35 1 S102 711 590009 -871 0
35 1 S102 724 590733 -147 0
35 2 S102 730 591463 583 0
35 2 S102 748 592211 1331 0
35 2 S102 777 592988 2108 0
35 2 S102 767 593755 2875 0
35 2 S102 754 594509 3629 0
35 2 S102 787 595296 4416 0
35 2 S102 809 596105 5225 0
35 2 S102 782 596887 6007 0
35 2 S102 801 597688 6808 0
0 0 0 807 598495 -6212 0
0 0 0 750 599245 -5462 0
0 0 0 719 599964 -4743 0
0 0 0 722 600686 -4021 0
0 0 0 730 601416 -3291 0
0 0 0 760 602176 -2531 0
36 1 S106 783 602959 -1748 0
36 1 S106 792 603751 -956 0
36 1 S106 802 604553 -154 0
36 2 S106 786 605339 632 0
36 2 S106 817 606156 1449 0
36 2 S106 811 606967 2260 0
36 2 S106 780 607747 3040 0
36 2 S106 782 608529 3822 0
36 2 S106 787 609316 4609 0
36 2 S106 763 610079 5372 0
36 2 S106 735 610814 6107 0
36 2 S106 761 611575 6868 0
0 0 0 766 612341 -8778 0
0 0 0 734 613075 -8044 0
0 0 0 790 613865 -7254 0
0 0 0 807 614672 -6447 0
0 0 0 789 615461 -5658 0
0 0 0 847 616308 -4811 0
0 0 0 856 617164 -3955 0
0 0 0 806 617970 -3149 0
0 0 0 828 618798 -2321 0
37 1 S116 835 619633 -1486 0
37 1 S116 825 620458 -661 0
37 2 S116 850 621308 189 0
37 2 S116 834 622142 1023 0
37 2 S116 801 622943 1824 0
37 2 S116 810 623753 2634 0
37 2 S116 801 624554 3435 0
37 2 S116 742 625296 4177 0
37 2 S116 770 626066 4947 0
37 2 S116 789 626855 5736 0
37 2 S116 777 627632 6513 0
0 0 0 743 628375 -10334 0
0 0 0 804 629179 -9530 0
0 0 0 815 629994 -8715 0
0 0 0 767 630761 -7948 0
0 0 0 818 631579 -7130 0
0 0 0 824 632403 -6306 0
0 0 0 796 633199 -5510 0
0 0 0 808 634007 -4702 0
0 0 0 788 634795 -3914 0
0 0 0 745 635540 -3169 0
0 0 0 756 636296 -2413 0
38 1 S102 763 637059 -1650 0
38 1 S102 761 637820 -889 0
38 1 S102 796 638616 -93 0
38 2 S102 810 639426 717 0
38 2 S102 801 640227 1518 0
38 2 S102 781 641008 2299 0
38 2 S102 798 641806 3097 0
38 2 S102 791 642597 3888 0
38 2 S102 768 643365 4656 0
38 2 S102 789 644154 5445 0
38 2 S102 824 644978 6269 0
0 0 0 792 645770 -8191 0
0 0 0 836 646606 -7355 0
0 0 0 832 647438 -6523 0
0 0 0 797 648235 -5726 0
0 0 0 846 649081 -4880 0
0 0 0 849 649930 -4031 0
0 0 0 797 650727 -3234 0
0 0 0 749 651476 -2485 0
39 1 S116 742 652218 -1743 0
39 1 S116 743 652961 -1000 0
39 1 S116 731 653692 -269 0
39 2 S116 752 654444 483 0
39 2 S116 808 655252 1291 0
39 2 S116 813 656065 2104 0
39 2 S116 808 656873 2912 0
39 2 S116 882 657755 3794 0
39 2 S116 882 658637 4676 0
39 2 S116 809 659446 5485 0
39 2 S116 844 660290 6329 0
0 0 0 813 661103 -8740 0
0 0 0 760 661863 -7980 0
0 0 0 777 662640 -7203 0
0 0 0 754 663394 -6449 0
0 0 0 697 664091 -5752 0
0 0 0 723 664814 -5029 0
0 0 0 720 665534 -4309 0
0 0 0 750 666284 -3559 0
0 0 0 721 667005 -2838 0
0 0 0 728 667733 -2110 0
40 1 S112 720 668453 -1390 0
40 1 S112 695 669148 -695 0
40 2 S112 709 669857 14 0
40 2 S112 762 670619 776 0
40 2 S112 788 671407 1564 0
40 2 S112 756 672163 2320 0
40 2 S112 764 672927 3084 0
40 2 S112 776 673703 3860 0
40 2 S112 749 674452 4609 0
40 2 S112 758 675210 5367 0
40 2 S112 774 675984 6141 0
40 2 S112 767 676751 6908 0
0 0 0 743 677494 -187129 0
0 0 0 756 678250 -186373 0
0 0 0 745 678995 -185628 0
0 0 0 718 679713 -184910 0
0 0 0 752 680465 -184158 0
0 0 0 730 681195 -183428 0
0 0 0 693 681888 -182735 0
0 0 0 733 682621 -182002 0
0 0 0 752 683373 -181250 0
0 0 0 716 684089 -180534 0
0 0 0 683 684772 -179851 0
0 0 0 683 685455 -179168 0
0 0 0 688 686143 -178480 0
0 0 0 657 686800 -177823 0
0 0 0 686 687486 -177137 0
0 0 0 722 688208 -176415 0
0 0 0 2717 690925 -173698 1
0 0 0 597 691522 -173101 0
0 0 0 586 692108 -172515 0
0 0 0 569 692677 -171946 0
0 0 0 579 693256 -171367 0
0 0 0 572 693828 -170795 0
0 0 0 567 694395 -170228 0
0 0 0 592 694987 -169636 0
0 0 0 589 695576 -169047 0
0 0 0 544 696120 -168503 0
0 0 0 529 696649 -167974 0
0 0 0 512 697161 -167462 0
0 0 0 512 697673 -166950 0
0 0 0 505 698178 -166445 0
0 0 0 511 698689 -165934 0
0 0 0 518 699207 -165416 0
0 0 0 518 699725 -164898 0
0 0 0 998 700723 -163900 0
0 0 0 958 701681 -162942 0
0 0 0 941 702622 -162001 0
0 0 0 1819 704441 -160182 1
0 0 0 1345 705786 -158837 1
0 0 0 2224 708010 -156613 1
0 0 0 873 708883 -155740 0
0 0 0 1753 710636 -153987 1
0 0 0 1368 712004 -152619 1
0 0 0 918 712922 -151701 0
0 0 0 916 713838 -150785 0
0 0 0 928 714766 -149857 0
0 0 0 1907 716673 -147950 1
0 0 0 719 717392 -147231 0
0 0 0 2141 719533 -145090 1
0 0 0 1084 720617 -144006 1
0 0 0 820 721437 -143186 0
0 0 0 813 722250 -142373 0
0 0 0 687 722937 -141686 0
0 0 0 1991 724928 -139695 1
0 0 0 518 725446 -139177 0
0 0 0 1073 726519 -138104 1
0 0 0 554 727073 -137550 0
0 0 0 543 727616 -137007 0
0 0 0 531 728147 -136476 0
0 0 0 540 728687 -135936 0
0 0 0 555 729242 -135381 0
0 0 0 549 729791 -134832 0
0 0 0 543 730334 -134289 0
0 0 0 557 730891 -133732 0
0 0 0 564 731455 -133168 0
0 0 0 556 732011 -132612 0
0 0 0 567 732578 -132045 0
0 0 0 580 733158 -131465 0
0 0 0 570 733728 -130895 0
0 0 0 585 734313 -130310 0
0 0 0 617 734930 -129693 0
0 0 0 639 735569 -129054 0
0 0 0 636 736205 -128418 0
0 0 0 619 736824 -127799 0
0 0 0 616 737440 -127183 0
0 0 0 570 738010 -126613 0
0 0 0 549 738559 -126064 0
0 0 0 537 739096 -125527 0
0 0 0 551 739647 -124976 0
0 0 0 586 740233 -124390 0
0 0 0 711 740944 -123679 0
0 0 0 748 741692 -122931 0
0 0 0 710 742402 -122221 0
0 0 0 729 743131 -121492 0
0 0 0 735 743866 -120757 0
0 0 0 678 744544 -120079 0
0 0 0 707 745251 -119372 0
0 0 0 739 745990 -118633 0
0 0 0 775 746765 -117858 0
0 0 0 774 747539 -117084 0
0 0 0 755 748294 -116329 0
0 0 0 858 749152 -115471 0
0 0 0 909 750061 -114562 0
0 0 0 831 750892 -113731 0
0 0 0 869 751761 -112862 0
0 0 0 842 752603 -112020 0
0 0 0 738 753341 -111282 0
0 0 0 695 754036 -110587 0
0 0 0 698 754734 -109889 0
0 0 0 822 755556 -109067 0
0 0 0 889 756445 -108178 0
0 0 0 939 757384 -107239 0
0 0 0 965 758349 -106274 0
0 0 0 956 759305 -105318 0
0 0 0 970 760275 -104348 0
0 0 0 938 761213 -103410 0
0 0 0 906 762119 -102504 0
0 0 0 852 762971 -101652 0
0 0 0 776 763747 -100876 0
0 0 0 721 764468 -100155 0
0 0 0 675 765143 -99480 0
0 0 0 685 765828 -98795 0
0 0 0 699 766527 -98096 0
0 0 0 865 767392 -97231 0
0 0 0 766 768158 -96465 0
0 0 0 890 769048 -95575 0
0 0 0 946 769994 -94629 0
0 0 0 915 770909 -93714 0
0 0 0 900 771809 -92814 0
0 0 0 905 772714 -91909 0
0 0 0 917 773631 -90992 0
0 0 0 873 774504 -90119 0
0 0 0 813 775317 -89306 0
0 0 0 824 776141 -88482 0
0 0 0 886 777027 -87596 0
0 0 0 903 777930 -86693 0
0 0 0 964 778894 -85729 0
0 0 0 1062 779956 -84667 0
0 0 0 932 780888 -83735 0
0 0 0 836 781724 -82899 0
0 0 0 865 782589 -82034 0
0 0 0 913 783502 -81121 0
0 0 0 946 784448 -80175 0
0 0 0 960 785408 -79215 0
0 0 0 837 786245 -78378 0
0 0 0 794 787039 -77584 0
0 0 0 805 787844 -76779 0
0 0 0 826 788670 -75953 0
0 0 0 756 789426 -75197 0
0 0 0 667 790093 -74530 0
0 0 0 634 790727 -73896 0
0 0 0 641 791368 -73255 0
0 0 0 663 792031 -72592 0
0 0 0 764 792795 -71828 0
0 0 0 898 793693 -70930 0
0 0 0 773 794466 -70157 0
0 0 0 754 795220 -69403 0
0 0 0 805 796025 -68598 0
0 0 0 779 796804 -67819 0
0 0 0 771 797575 -67048 0
0 0 0 822 798397 -66226 0
0 0 0 871 799268 -65355 0
0 0 0 923 800191 -64432 0
0 0 0 952 801143 -63480 0
0 0 0 960 802103 -62520 0
0 0 0 959 803062 -61561 0
0 0 0 946 804008 -60615 0
0 0 0 894 804902 -59721 0
0 0 0 843 805745 -58878 0
0 0 0 847 806592 -58031 0
0 0 0 897 807489 -57134 0
0 0 0 931 808420 -56203 0
0 0 0 869 809289 -55334 0
0 0 0 851 810140 -54483 0
0 0 0 924 811064 -53559 0
0 0 0 972 812036 -52587 0
0 0 0 1001 813037 -51586 0
0 0 0 984 814021 -50602 0
0 0 0 904 814925 -49698 0
0 0 0 913 815838 -48785 0
0 0 0 922 816760 -47863 0
0 0 0 862 817622 -47001 0
0 0 0 844 818466 -46157 0
0 0 0 838 819304 -45319 0
0 0 0 930 820234 -44389 0
0 0 0 980 821214 -43409 0
0 0 0 819 822033 -42590 0
0 0 0 717 822750 -41873 0
0 0 0 686 823436 -41187 0
0 0 0 645 824081 -40542 0
0 0 0 644 824725 -39898 0
0 0 0 884 825609 -39014 0
0 0 0 894 826503 -38120 0
0 0 0 879 827382 -37241 0
0 0 0 847 828229 -36394 0
0 0 0 838 829067 -35556 0
0 0 0 804 829871 -34752 0
0 0 0 787 830658 -33965 0
0 0 0 741 831399 -33224 0
0 0 0 739 832138 -32485 0
0 0 0 729 832867 -31756 0
0 0 0 705 833572 -31051 0
0 0 0 669 834241 -30382 0
0 0 0 668 834909 -29714 0
0 0 0 662 835571 -29052 0
0 0 0 674 836245 -28378 0
0 0 0 709 836954 -27669 0
0 0 0 754 837708 -26915 0
0 0 0 766 838474 -26149 0
0 0 0 791 839265 -25358 0
0 0 0 784 840049 -24574 0
0 0 0 806 840855 -23768 0
0 0 0 822 841677 -22946 0
0 0 0 835 842512 -22111 0
0 0 0 807 843319 -21304 0
0 0 0 737 844056 -20567 0
0 0 0 724 844780 -19843 0
0 0 0 717 845497 -19126 0
0 0 0 755 846252 -18371 0
0 0 0 741 846993 -17630 0
0 0 0 773 847766 -16857 0
0 0 0 788 848554 -16069 0
0 0 0 789 849343 -15280 0
0 0 0 810 850153 -14470 0
0 0 0 761 850914 -13709 0
0 0 0 689 851603 -13020 0
0 0 0 658 852261 -12362 0
0 0 0 656 852917 -11706 0
0 0 0 674 853591 -11032 0
0 0 0 711 854302 -10321 0
0 0 0 743 855045 -9578 0
0 0 0 741 855786 -8837 0
0 0 0 782 856568 -8055 0
0 0 0 824 857392 -7231 0
0 0 0 872 858264 -6359 0
0 0 0 892 859156 -5467 0
0 0 0 925 860081 -4542 0
0 0 0 889 860970 -3653 0
0 0 0 847 861817 -2806 0
0 0 0 805 862622 -2001 0
41 1 S102 789 863411 -1212 0
41 1 S102 806 864217 -406 0
41 2 S102 834 865051 428 0
41 2 S102 866 865917 1294 0
41 2 S102 891 866808 2185 0
41 2 S102 1001 867809 3186 0
41 2 S102 976 868785 4162 0
41 2 S102 887 869672 5049 0
41 2 S102 857 870529 5906 0
41 2 S102 860 871389 6766 0
0 0 0 842 872231 -6798 0
0 0 0 792 873023 -6006 0
0 0 0 752 873775 -5254 0
0 0 0 751 874526 -4503 0
0 0 0 738 875264 -3765 0
0 0 0 711 875975 -3054 0
0 0 0 700 876675 -2354 0
42 1 S112 719 877394 -1635 0
42 1 S112 769 878163 -866 0
42 1 S112 845 879008 -21 0
42 2 S112 859 879867 838 0
42 2 S112 892 880759 1730 0
42 2 S112 861 881620 2591 0
42 2 S112 872 882492 3463 0
42 2 S112 891 883383 4354 0
42 2 S112 847 884230 5201 0
42 2 S112 786 885016 5987 0
42 2 S112 761 885777 6748 0
0 0 0 772 886549 -9423 0
0 0 0 823 887372 -8600 0
0 0 0 879 888251 -7721 0
0 0 0 823 889074 -6898 0
0 0 0 815 889889 -6083 0
0 0 0 829 890718 -5254 0
0 0 0 854 891572 -4400 0
0 0 0 837 892409 -3563 0
0 0 0 841 893250 -2722 0
43 1 S116 833 894083 -1889 0
43 1 S116 842 894925 -1047 0
43 1 S116 845 895770 -202 0
43 2 S116 852 896622 650 0
43 2 S116 839 897461 1489 0
43 2 S116 837 898298 2326 0
43 2 S116 823 899121 3149 0
43 2 S116 836 899957 3985 0
43 2 S116 822 900779 4807 0
43 2 S116 785 901564 5592 0
43 2 S116 811 902375 6403 0
0 0 0 820 903195 -7598 0
0 0 0 813 904008 -6785 0
0 0 0 757 904765 -6028 0
0 0 0 778 905543 -5250 0
0 0 0 773 906316 -4477 0
0 0 0 800 907116 -3677 0
0 0 0 828 907944 -2849 0
44 1 S102 879 908823 -1970 0
44 1 S102 876 909699 -1094 0
44 1 S102 882 910581 -212 0
44 2 S102 886 911467 674 0
44 2 S102 858 912325 1532 0
44 2 S102 773 913098 2305 0
44 2 S102 760 913858 3065 0
44 2 S102 777 914635 3842 0
44 2 S102 777 915412 4619 0
44 2 S102 763 916175 5382 0
44 2 S102 815 916990 6197 0
0 0 0 844 917834 -8096 0
0 0 0 867 918701 -7229 0
0 0 0 810 919511 -6419 0
0 0 0 846 920357 -5573 0
0 0 0 836 921193 -4737 0
0 0 0 879 922072 -3858 0
0 0 0 881 922953 -2977 0
0 0 0 869 923822 -2108 0
45 1 S116 862 924684 -1246 0
45 1 S116 865 925549 -381 0
45 2 S116 826 926375 445 0
45 2 S116 804 927179 1249 0
45 2 S116 828 928007 2077 0
45 2 S116 826 928833 2903 0
45 2 S116 824 929657 3727 0
45 2 S116 812 930469 4539 0
45 2 S116 858 931327 5397 0
45 2 S116 903 932230 6300 0
0 0 0 854 933084 -13253 0
0 0 0 859 933943 -12394 0
0 0 0 860 934803 -11534 0
0 0 0 842 935645 -10692 0
0 0 0 796 936441 -9896 0
0 0 0 820 937261 -9076 0
0 0 0 826 938087 -8250 0
0 0 0 845 938932 -7405 0
0 0 0 830 939762 -6575 0
0 0 0 880 940642 -5695 0
0 0 0 863 941505 -4832 0
0 0 0 828 942333 -4004 0
0 0 0 832 943165 -3172 0
0 0 0 812 943977 -2360 0
46 1 S102 756 944733 -1604 0
46 1 S102 762 945495 -842 0
46 1 S102 770 946265 -72 0
46 2 S102 759 947024 687 0
46 2 S102 802 947826 1489 0
46 2 S102 850 948676 2339 0
46 2 S102 868 949544 3207 0
46 2 S102 875 950419 4082 0
46 2 S102 882 951301 4964 0
46 2 S102 856 952157 5820 0
46 2 S102 829 952986 6649 0
0 0 0 855 953841 -8544 0
0 0 0 852 954693 -7692 0
0 0 0 841 955534 -6851 0
0 0 0 779 956313 -6072 0
0 0 0 823 957136 -5249 0
0 0 0 844 957980 -4405 0
0 0 0 840 958820 -3565 0
0 0 0 895 959715 -2670 0
47 1 S112 902 960617 -1768 0
47 1 S112 859 961476 -909 0
47 1 S112 872 962348 -37 0
47 2 S112 870 963218 833 0
47 2 S112 829 964047 1662 0
47 2 S112 828 964875 2490 0
47 2 S112 834 965709 3324 0
47 2 S112 818 966527 4142 0
47 2 S112 764 967291 4906 0
47 2 S112 787 968078 5693 0
47 2 S112 808 968886 6501 0
0 0 0 835 969721 -12061 0
0 0 0 814 970535 -11247 0
0 0 0 835 971370 -10412 0
0 0 0 781 972151 -9631 0
0 0 0 722 972873 -8909 0
0 0 0 721 973594 -8188 0
0 0 0 689 974283 -7499 0
0 0 0 685 974968 -6814 0
0 0 0 711 975679 -6103 0
0 0 0 766 976445 -5337 0
0 0 0 745 977190 -4592 0
0 0 0 777 977967 -3815 0
0 0 0 792 978759 -3023 0
0 0 0 812 979571 -2211 0
48 1 S116 839 980410 -1372 0
48 1 S116 825 981235 -547 0
48 2 S116 831 982066 284 0
48 2 S116 833 982899 1117 0
48 2 S116 819 983718 1936 0
48 2 S116 785 984503 2721 0
48 2 S116 760 985263 3481 0
48 2 S116 783 986046 4264 0
48 2 S116 829 986875 5093 0
48 2 S116 850 987725 5943 0
48 2 S116 865 988590 6808 0
0 0 0 865 989455 -8889 0
0 0 0 843 990298 -8046 0
0 0 0 787 991085 -7259 0
0 0 0 800 991885 -6459 0
0 0 0 782 992667 -5677 0
0 0 0 761 993428 -4916 0
0 0 0 773 994201 -4143 0
0 0 0 760 994961 -3383 0
0 0 0 722 995683 -2661 0
49 1 S112 679 996362 -1982 0
49 1 S112 643 997005 -1339 0
49 1 S112 615 997620 -724 0
49 1 S112 606 998226 -118 0
49 2 S112 608 998834 490 0
49 2 S112 630 999464 1120 0
49 2 S112 677 1000141 1797 0
49 2 S112 783 1000924 2580 0
49 2 S112 844 1001768 3424 0
49 2 S112 809 1002577 4233 0
49 2 S112 786 1003363 5019 0
49 2 S112 819 1004182 5838 0
49 2 S112 864 1005046 6702 0
0 0 0 877 1005923 -11967 0
0 0 0 832 1006755 -11135 0
0 0 0 782 1007537 -10353 0
0 0 0 768 1008305 -9585 0
0 0 0 733 1009038 -8852 0
0 0 0 713 1009751 -8139 0
0 0 0 678 1010429 -7461 0
0 0 0 671 1011100 -6790 0
0 0 0 720 1011820 -6070 0
0 0 0 840 1012660 -5230 0
0 0 0 885 1013545 -4345 0
0 0 0 921 1014466 -3424 0
0 0 0 958 1015424 -2466 0
50 1 S106 913 1016337 -1553 0
50 1 S106 932 1017269 -621 0
50 2 S106 936 1018205 315 0
50 2 S106 905 1019110 1220 0
50 2 S106 852 1019962 2072 0
50 2 S106 841 1020803 2913 0
50 2 S106 794 1021597 3707 0
50 2 S106 763 1022360 4470 0
50 2 S106 776 1023136 5246 0
50 2 S106 723 1023859 5969 0
50 2 S106 776 1024635 6745 0
0 0 0 839 1025474 -5529 0
0 0 0 804 1026278 -4725 0
0 0 0 897 1027175 -3828 0
0 0 0 922 1028097 -2906 0
51 1 S112 932 1029029 -1974 0
51 1 S112 966 1029995 -1008 0
51 1 S112 952 1030947 -56 0
51 2 S112 897 1031844 841 0
51 2 S112 916 1032760 1757 0
51 2 S112 862 1033622 2619 0
51 2 S112 814 1034436 3433 0
51 2 S112 792 1035228 4225 0
51 2 S112 712 1035940 4937 0
51 2 S112 677 1036617 5614 0
51 2 S112 673 1037290 6287 0
51 2 S112 731 1038021 7018 0
0 0 0 1048 1039069 -6606 0
0 0 0 1039 1040108 -5567 0
0 0 0 991 1041099 -4576 0
0 0 0 961 1042060 -3615 0
0 0 0 966 1043026 -2649 0
52 1 S116 967 1043993 -1682 0
52 1 S116 933 1044926 -749 0
52 2 S116 960 1045886 211 0
52 2 S116 965 1046851 1176 0
52 2 S116 964 1047815 2140 0
52 2 S116 942 1048757 3082 0
52 2 S116 924 1049681 4006 0
52 2 S116 904 1050585 4910 0
52 2 S116 884 1051469 5794 0
52 2 S116 866 1052335 6660 0
0 0 0 857 1053192 -9542 0
0 0 0 828 1054020 -8714 0
0 0 0 755 1054775 -7959 0
0 0 0 756 1055531 -7203 0
0 0 0 774 1056305 -6429 0
0 0 0 826 1057131 -5603 0
0 0 0 822 1057953 -4781 0
0 0 0 886 1058839 -3895 0
0 0 0 893 1059732 -3002 0
0 0 0 883 1060615 -2119 0
53 1 S106 923 1061538 -1196 0
53 1 S106 911 1062449 -285 0
53 2 S106 822 1063271 537 0
53 2 S106 816 1064087 1353 0
53 2 S106 798 1064885 2151 0
53 2 S106 771 1065656 2922 0
53 2 S106 812 1066468 3734 0
53 2 S106 833 1067301 4567 0
53 2 S106 845 1068146 5412 0
53 2 S106 858 1069004 6270 0
0 0 0 866 1069870 -7486 0
0 0 0 871 1070741 -6615 0
0 0 0 829 1071570 -5786 0
0 0 0 771 1072341 -5015 0
0 0 0 764 1073105 -4251 0
0 0 0 743 1073848 -3508 0
0 0 0 730 1074578 -2778 0
0 0 0 763 1075341 -2015 0
54 1 S102 803 1076144 -1212 0
54 1 S102 789 1076933 -423 0
54 2 S102 828 1077761 405 0
54 2 S102 804 1078565 1209 0
54 2 S102 842 1079407 2051 0
54 2 S102 861 1080268 2912 0
54 2 S102 813 1081081 3725 0
54 2 S102 798 1081879 4523 0
54 2 S102 804 1082683 5327 0
54 2 S102 770 1083453 6097 0
54 2 S102 766 1084219 6863 0
0 0 0 807 1085026 -10882 0
0 0 0 816 1085842 -10066 0
0 0 0 794 1086636 -9272 0
0 0 0 789 1087425 -8483 0
0 0 0 770 1088195 -7713 0
0 0 0 755 1088950 -6958 0
0 0 0 797 1089747 -6161 0
0 0 0 790 1090537 -5371 0
0 0 0 776 1091313 -4595 0
0 0 0 825 1092138 -3770 0
0 0 0 846 1092984 -2924 0
0 0 0 822 1093806 -2102 0
55 1 S106 798 1094604 -1304 0
55 1 S106 753 1095357 -551 0
55 2 S106 790 1096147 239 0
55 2 S106 795 1096942 1034 0
55 2 S106 773 1097715 1807 0
55 2 S106 736 1098451 2543 0
55 2 S106 789 1099240 3332 0
55 2 S106 806 1100046 4138 0
55 2 S106 795 1100841 4933 0
55 2 S106 820 1101661 5753 0
55 2 S106 835 1102496 6588 0
0 0 0 826 1103322 -5782 0
0 0 0 785 1104107 -4997 0
0 0 0 760 1104867 -4237 0
0 0 0 728 1105595 -3509 0
0 0 0 716 1106311 -2793 0
0 0 0 731 1107042 -2062 0
56 1 S116 753 1107795 -1309 0
56 1 S116 733 1108528 -576 0
56 2 S116 795 1109323 219 0
56 2 S116 832 1110155 1051 0
56 2 S116 820 1110975 1871 0
56 2 S116 858 1111833 2729 0
56 2 S116 858 1112691 3587 0
56 2 S116 870 1113561 4457 0
56 2 S116 891 1114452 5348 0
56 2 S116 858 1115310 6206 0
56 2 S116 820 1116130 7026 0
0 0 0 841 1116971 -7468 0
0 0 0 823 1117794 -6645 0
0 0 0 751 1118545 -5894 0
0 0 0 728 1119273 -5166 0
0 0 0 724 1119997 -4442 0
0 0 0 742 1120739 -3700 0
0 0 0 724 1121463 -2976 0
0 0 0 779 1122242 -2197 0
57 1 S106 783 1123025 -1414 0
57 1 S106 753 1123778 -661 0
57 2 S106 804 1124582 143 0
57 2 S106 811 1125393 954 0
57 2 S106 798 1126191 1752 0
57 2 S106 816 1127007 2568 0
57 2 S106 803 1127810 3371 0
57 2 S106 764 1128574 4135 0
57 2 S106 782 1129356 4917 0
57 2 S106 798 1130154 5715 0
57 2 S106 817 1130971 6532 0
0 0 0 792 1131763 -7796 0
0 0 0 805 1132568 -6991 0
0 0 0 785 1133353 -6206 0
0 0 0 746 1134099 -5460 0
0 0 0 766 1134865 -4694 0
0 0 0 779 1135644 -3915 0
0 0 0 777 1136421 -3138 0
0 0 0 776 1137197 -2362 0
58 1 S102 794 1137991 -1568 0
58 1 S102 796 1138787 -772 0
58 2 S102 798 1139585 26 0
58 2 S102 835 1140420 861 0
58 2 S102 835 1141255 1696 0
58 2 S102 804 1142059 2500 0
58 2 S102 829 1142888 3329 0
58 2 S102 818 1143706 4147 0
58 2 S102 761 1144467 4908 0
58 2 S102 793 1145260 5701 0
58 2 S102 798 1146058 6499 0
0 0 0 738 1146796 -6141 0
0 0 0 769 1147565 -5372 0
0 0 0 773 1148338 -4599 0
0 0 0 741 1149079 -3858 0
0 0 0 806 1149885 -3052 0
0 0 0 822 1150707 -2230 0
59 1 S112 827 1151534 -1403 0
59 1 S112 859 1152393 -544 0
59 2 S112 811 1153204 267 0
59 2 S112 830 1154034 1097 0
59 2 S112 830 1154864 1927 0
59 2 S112 762 1155626 2689 0
59 2 S112 785 1156411 3474 0
59 2 S112 792 1157203 4266 0
59 2 S112 766 1157969 5032 0
59 2 S112 776 1158745 5808 0
59 2 S112 820 1159565 6628 0
0 0 0 831 1160396 -9783 0
0 0 0 800 1161196 -8983 0
0 0 0 835 1162031 -8148 0
0 0 0 849 1162880 -7299 0
0 0 0 810 1163690 -6489 0
0 0 0 811 1164501 -5678 0
0 0 0 831 1165332 -4847 0
0 0 0 828 1166160 -4019 0
0 0 0 817 1166977 -3202 0
0 0 0 842 1167819 -2360 0
60 1 S102 843 1168662 -1517 0
60 1 S102 796 1169458 -721 0
60 2 S102 822 1170280 101 0
60 2 S102 841 1171121 942 0
60 2 S102 823 1171944 1765 0
60 2 S102 811 1172755 2576 0
60 2 S102 837 1173592 3413 0
60 2 S102 818 1174410 4231 0
60 2 S102 780 1175190 5011 0
60 2 S102 800 1175990 5811 0
60 2 S102 776 1176766 6587 0
0 0 0 735 1177501 -11511 0
0 0 0 780 1178281 -10731 0
0 0 0 798 1179079 -9933 0
0 0 0 754 1179833 -9179 0
0 0 0 782 1180615 -8397 0
0 0 0 786 1181401 -7611 0
0 0 0 779 1182180 -6832 0
0 0 0 808 1182988 -6024 0
0 0 0 811 1183799 -5213 0
0 0 0 792 1184591 -4421 0
0 0 0 819 1185410 -3602 0
0 0 0 817 1186227 -2785 0
0 0 0 782 1187009 -2003 0
61 1 S106 787 1187796 -1216 0
61 1 S106 787 1188583 -429 0
61 2 S106 762 1189345 333 0
61 2 S106 762 1190107 1095 0
61 2 S106 793 1190900 1888 0
61 2 S106 790 1191690 2678 0
61 2 S106 760 1192450 3438 0
61 2 S106 782 1193232 4220 0
61 2 S106 767 1193999 4987 0
61 2 S106 740 1194739 5727 0
61 2 S106 778 1195517 6505 0
0 0 0 790 1196307 -5835 0
0 0 0 757 1197064 -5078 0
0 0 0 769 1197833 -4309 0
0 0 0 756 1198589 -3553 0
0 0 0 725 1199314 -2828 0
0 0 0 750 1200064 -2078 0
62 1 S112 774 1200838 -1304 0
62 1 S112 786 1201624 -518 0
62 2 S112 806 1202430 288 0
62 2 S112 808 1203238 1096 0
62 2 S112 775 1204013 1871 0
62 2 S112 812 1204825 2683 0
62 2 S112 827 1205652 3510 0
62 2 S112 790 1206442 4300 0
62 2 S112 836 1207278 5136 0
62 2 S112 798 1208076 5934 0
62 2 S112 768 1208844 6702 0
0 0 0 804 1209648 -11592 0
0 0 0 776 1210424 -10816 0
0 0 0 693 1211117 -10123 0
0 0 0 689 1211806 -9434 0
0 0 0 702 1212508 -8732 0
0 0 0 733 1213241 -7999 0
0 0 0 794 1214035 -7205 0
0 0 0 781 1214816 -6424 0
0 0 0 753 1215569 -5671 0
0 0 0 754 1216323 -4917 0
0 0 0 859 1217182 -4058 0
0 0 0 886 1218068 -3172 0
0 0 0 943 1219011 -2229 0
63 1 S102 971 1219982 -1258 0
63 1 S102 959 1220941 -299 0
63 2 S102 909 1221850 610 0
63 2 S102 882 1222732 1492 0
63 2 S102 870 1223602 2362 0
63 2 S102 857 1224459 3219 0
63 2 S102 841 1225300 4060 0
63 2 S102 773 1226073 4833 0
63 2 S102 773 1226846 5606 0
63 2 S102 777 1227623 6383 0
0 0 0 784 1228407 -8019 0
0 0 0 795 1229202 -7224 0
0 0 0 802 1230004 -6422 0
0 0 0 820 1230824 -5602 0
0 0 0 823 1231647 -4779 0
0 0 0 864 1232511 -3915 0
0 0 0 853 1233364 -3062 0
0 0 0 829 1234193 -2233 0
64 1 S112 825 1235018 -1408 0
64 1 S112 776 1235794 -632 0
64 2 S112 770 1236564 138 0
64 2 S112 779 1237343 917 0
64 2 S112 777 1238120 1694 0
64 2 S112 782 1238902 2476 0
64 2 S112 784 1239686 3260 0
64 2 S112 773 1240459 4033 0
64 2 S112 746 1241205 4779 0
64 2 S112 785 1241990 5564 0
64 2 S112 798 1242788 6362 0
0 0 0 805 1243593 -6759 0
0 0 0 846 1244439 -5913 0
0 0 0 806 1245245 -5107 0
0 0 0 769 1246014 -4338 0
0 0 0 781 1246795 -3557 0
0 0 0 743 1247538 -2814 0
0 0 0 753 1248291 -2061 0
65 1 S106 764 1249055 -1297 0
65 1 S106 750 1249805 -547 0
65 2 S106 793 1250598 246 0
65 2 S106 813 1251411 1059 0
65 2 S106 803 1252214 1862 0
65 2 S106 809 1253023 2671 0
65 2 S106 808 1253831 3479 0
65 2 S106 773 1254604 4252 0
65 2 S106 775 1255379 5027 0
65 2 S106 780 1256159 5807 0
65 2 S106 748 1256907 6555 0
0 0 0 754 1257661 -5937 0
0 0 0 777 1258438 -5160 0
0 0 0 774 1259212 -4386 0
0 0 0 744 1259956 -3642 0
0 0 0 807 1260763 -2835 0
0 0 0 831 1261594 -2004 0
66 1 S116 810 1262404 -1194 0
66 1 S116 821 1263225 -373 0
66 2 S116 806 1264031 433 0
66 2 S116 791 1264822 1224 0
66 2 S116 752 1265574 1976 0
66 2 S116 790 1266364 2766 0
66 2 S116 838 1267202 3604 0
66 2 S116 861 1268063 4465 0
66 2 S116 847 1268910 5312 0
66 2 S116 859 1269769 6171 0
66 2 S116 849 1270618 7020 0
0 0 0 842 1271460 -10540 0
0 0 0 810 1272270 -9730 0
0 0 0 786 1273056 -8944 0
0 0 0 725 1273781 -8219 0
0 0 0 696 1274477 -7523 0
0 0 0 704 1275181 -6819 0
0 0 0 707 1275888 -6112 0
0 0 0 720 1276608 -5392 0
0 0 0 828 1277436 -4564 0
0 0 0 854 1278290 -3710 0
0 0 0 840 1279130 -2870 0
0 0 0 854 1279984 -2016 0
67 1 S102 845 1280829 -1171 0
67 1 S102 795 1281624 -376 0
67 2 S102 813 1282437 437 0
67 2 S102 815 1283252 1252 0
67 2 S102 793 1284045 2045 0
67 2 S102 733 1284778 2778 0
67 2 S102 738 1285516 3516 0
67 2 S102 763 1286279 4279 0
67 2 S102 794 1287073 5073 0
67 2 S102 795 1287868 5868 0
67 2 S102 816 1288684 6684 0
0 0 0 845 1289529 -7126 0
0 0 0 849 1290378 -6277 0
0 0 0 766 1291144 -5511 0
0 0 0 762 1291906 -4749 0
0 0 0 761 1292667 -3988 0
0 0 0 752 1293419 -3236 0
0 0 0 741 1294160 -2495 0
68 1 S106 753 1294913 -1742 0
68 1 S106 722 1295635 -1020 0
68 1 S106 757 1296392 -263 0
68 2 S106 780 1297172 517 0
68 2 S106 748 1297920 1265 0
68 2 S106 788 1298708 2053 0
68 2 S106 796 1299504 2849 0
68 2 S106 772 1300276 3621 0
68 2 S106 791 1301067 4412 0
68 2 S106 789 1301856 5201 0
68 2 S106 752 1302608 5953 0
68 2 S106 802 1303410 6755 0
0 0 0 827 1304237 -10605 0
0 0 0 813 1305050 -9792 0
0 0 0 769 1305819 -9023 0
0 0 0 761 1306580 -8262 0
0 0 0 732 1307312 -7530 0
0 0 0 746 1308058 -6784 0
0 0 0 776 1308834 -6008 0
0 0 0 759 1309593 -5249 0
0 0 0 822 1310415 -4427 0
0 0 0 848 1311263 -3579 0
0 0 0 795 1312058 -2784 0
69 1 S102 825 1312883 -1959 0
69 1 S102 849 1313732 -1110 0
69 1 S102 826 1314558 -284 0
69 2 S102 827 1315385 543 0
69 2 S102 815 1316200 1358 0
69 2 S102 794 1316994 2152 0
69 2 S102 774 1317768 2926 0
69 2 S102 778 1318546 3704 0
69 2 S102 744 1319290 4448 0
69 2 S102 755 1320045 5203 0
69 2 S102 772 1320817 5975 0
69 2 S102 783 1321600 6758 0
0 0 0 828 1322428 -7434 0
0 0 0 809 1323237 -6625 0
0 0 0 768 1324005 -5857 0
0 0 0 790 1324795 -5067 0
0 0 0 790 1325585 -4277 0
0 0 0 780 1326365 -3497 0
0 0 0 796 1327161 -2701 0
70 1 S112 804 1327965 -1897 0
70 1 S112 759 1328724 -1138 0
70 1 S112 761 1329485 -377 0
70 2 S112 749 1330234 372 0
70 2 S112 712 1330946 1084 0
70 2 S112 772 1331718 1856 0
70 2 S112 822 1332540 2678 0
70 2 S112 803 1333343 3481 0
70 2 S112 824 1334167 4305 0
70 2 S112 865 1335032 5170 0
70 2 S112 870 1335902 6040 0
70 2 S112 855 1336757 6895 0
0 0 0 863 1337620 -10760 0
0 0 0 781 1338401 -9979 0
0 0 0 737 1339138 -9242 0
0 0 0 745 1339883 -8497 0
0 0 0 744 1340627 -7753 0
0 0 0 718 1341345 -7035 0
0 0 0 734 1342079 -6301 0
0 0 0 709 1342788 -5592 0
0 0 0 673 1343461 -4919 0
0 0 0 649 1344110 -4270 0
0 0 0 637 1344747 -3633 0
0 0 0 627 1345374 -3006 0
0 0 0 633 1346007 -2373 0
71 1 S116 660 1346667 -1713 0
71 1 S116 708 1347375 -1005 0
71 1 S116 746 1348121 -259 0
71 2 S116 745 1348866 486 0
71 2 S116 803 1349669 1289 0
71 2 S116 785 1350454 2074 0
71 2 S116 804 1351258 2878 0
71 2 S116 822 1352080 3700 0
71 2 S116 809 1352889 4509 0
71 2 S116 820 1353709 5329 0
71 2 S116 831 1354540 6160 0
71 2 S116 796 1355336 6956 0
0 0 0 751 1356087 -8473 0
0 0 0 774 1356861 -7699 0
0 0 0 704 1357565 -6995 0
0 0 0 715 1358280 -6280 0
0 0 0 771 1359051 -5509 0
0 0 0 873 1359924 -4636 0
0 0 0 871 1360795 -3765 0
0 0 0 920 1361715 -2845 0
72 1 S102 947 1362662 -1898 0
72 1 S102 900 1363562 -998 0
72 1 S102 884 1364446 -114 0
72 2 S102 853 1365299 739 0
72 2 S102 799 1366098 1538 0
72 2 S102 814 1366912 2352 0
72 2 S102 814 1367726 3166 0
72 2 S102 769 1368495 3935 0
72 2 S102 811 1369306 4746 0
72 2 S102 820 1370126 5566 0
72 2 S102 790 1370916 6356 0
0 0 0 839 1371755 -6698 0
0 0 0 849 1372604 -5849 0
0 0 0 771 1373375 -5078 0
0 0 0 800 1374175 -4278 0
0 0 0 777 1374952 -3501 0
0 0 0 779 1375731 -2722 0
73 1 S116 831 1376562 -1891 0
73 1 S116 830 1377392 -1061 0
73 1 S116 812 1378204 -249 0
73 2 S116 841 1379045 592 0
73 2 S116 843 1379888 1435 0
73 2 S116 818 1380706 2253 0
73 2 S116 858 1381564 3111 0
73 2 S116 870 1382434 3981 0
73 2 S116 853 1383287 4834 0
73 2 S116 868 1384155 5702 0
73 2 S116 833 1384988 6535 0
0 0 0 778 1385766 -9381 0
0 0 0 807 1386573 -8574 0
0 0 0 802 1387375 -7772 0
0 0 0 746 1388121 -7026 0
0 0 0 713 1388834 -6313 0
0 0 0 769 1389603 -5544 0
0 0 0 808 1390411 -4736 0
0 0 0 812 1391223 -3924 0
0 0 0 891 1392114 -3033 0
0 0 0 887 1393001 -2146 0
74 1 S106 879 1393880 -1267 0
74 1 S106 845 1394725 -422 0
74 2 S106 837 1395562 415 0
74 2 S106 810 1396372 1225 0
74 2 S106 779 1397151 2004 0
74 2 S106 773 1397924 2777 0
74 2 S106 740 1398664 3517 0
74 2 S106 755 1399419 4272 0
74 2 S106 757 1400176 5029 0
74 2 S106 785 1400961 5814 0
74 2 S106 774 1401735 6588 0
0 0 0 729 1402464 -5863 0
0 0 0 702 1403166 -5161 0
0 0 0 721 1403887 -4440 0
0 0 0 728 1404615 -3712 0
0 0 0 763 1405378 -2949 0
0 0 0 802 1406180 -2147 0
75 1 S112 830 1407010 -1317 0
75 1 S112 808 1407818 -509 0
75 2 S112 837 1408655 328 0
75 2 S112 818 1409473 1146 0
75 2 S112 830 1410303 1976 0
75 2 S112 772 1411075 2748 0
75 2 S112 782 1411857 3530 0
75 2 S112 790 1412647 4320 0
75 2 S112 763 1413410 5083 0
75 2 S112 762 1414172 5845 0
75 2 S112 814 1414986 6659 0
0 0 0 837 1415823 -7408 0
0 0 0 796 1416619 -6612 0
0 0 0 836 1417455 -5776 0
0 0 0 836 1418291 -4940 0
0 0 0 768 1419059 -4172 0
0 0 0 724 1419783 -3448 0
0 0 0 761 1420544 -2687 0
76 1 S116 766 1421310 -1921 0
76 1 S116 781 1422091 -1140 0
76 1 S116 747 1422838 -393 0
76 2 S116 745 1423583 352 0
76 2 S116 748 1424331 1100 0
76 2 S116 759 1425090 1859 0
76 2 S116 750 1425840 2609 0
76 2 S116 754 1426594 3363 0
76 2 S116 765 1427359 4128 0
76 2 S116 760 1428119 4888 0
76 2 S116 743 1428862 5631 0
76 2 S116 758 1429620 6389 0
0 0 0 752 1430372 -8294 0
0 0 0 745 1431117 -7549 0
0 0 0 701 1431818 -6848 0
0 0 0 688 1432506 -6160 0
0 0 0 702 1433208 -5458 0
0 0 0 706 1433914 -4752 0
0 0 0 708 1434622 -4044 0
0 0 0 669 1435291 -3375 0
0 0 0 640 1435931 -2735 0
0 0 0 632 1436563 -2103 0
77 1 S106 671 1437234 -1432 0
77 1 S106 755 1437989 -677 0
77 2 S106 875 1438864 198 0
77 2 S106 883 1439747 1081 0
77 2 S106 909 1440656 1990 0
77 2 S106 875 1441531 2865 0
77 2 S106 860 1442391 3725 0
77 2 S106 862 1443253 4587 0
77 2 S106 853 1444106 5440 0
77 2 S106 784 1444890 6224 0
77 2 S106 761 1445651 6985 0
0 0 0 775 1446426 -7475 0
0 0 0 786 1447212 -6689 0
0 0 0 796 1448008 -5893 0
0 0 0 816 1448824 -5077 0
0 0 0 814 1449638 -4263 0
0 0 0 772 1450410 -3491 0
0 0 0 762 1451172 -2729 0
78 1 S112 756 1451928 -1973 0
78 1 S112 761 1452689 -1212 0
78 1 S112 801 1453490 -411 0
78 2 S112 835 1454325 424 0
78 2 S112 850 1455175 1274 0
78 2 S112 879 1456054 2153 0
78 2 S112 876 1456930 3029 0
78 2 S112 858 1457788 3887 0
78 2 S112 815 1458603 4702 0
78 2 S112 764 1459367 5466 0
78 2 S112 773 1460140 6239 0
78 2 S112 763 1460903 7002 0
0 0 0 757 1461660 -10129 0
0 0 0 727 1462387 -9402 0
0 0 0 751 1463138 -8651 0
0 0 0 742 1463880 -7909 0
0 0 0 720 1464600 -7189 0
0 0 0 746 1465346 -6443 0
0 0 0 740 1466086 -5703 0
0 0 0 706 1466792 -4997 0
0 0 0 702 1467494 -4295 0
0 0 0 705 1468199 -3590 0
0 0 0 721 1468920 -2869 0
0 0 0 757 1469677 -2112 0
79 1 S102 792 1470469 -1320 0
79 1 S102 811 1471280 -509 0
79 2 S102 796 1472076 287 0
79 2 S102 747 1472823 1034 0
79 2 S102 728 1473551 1762 0
79 2 S102 726 1474277 2488 0
79 2 S102 725 1475002 3213 0
79 2 S102 696 1475698 3909 0
79 2 S102 694 1476392 4603 0
79 2 S102 716 1477108 5319 0
79 2 S102 754 1477862 6073 0
79 2 S102 805 1478667 6878 0
0 0 0 843 1479510 -7399 0
0 0 0 871 1480381 -6528 0
0 0 0 822 1481203 -5706 0
0 0 0 810 1482013 -4896 0
0 0 0 804 1482817 -4092 0
0 0 0 769 1483586 -3323 0
0 0 0 744 1484330 -2579 0
80 1 S116 746 1485076 -1833 0
80 1 S116 735 1485811 -1098 0
80 1 S116 728 1486539 -370 0
80 2 S116 782 1487321 412 0
80 2 S116 781 1488102 1193 0
80 2 S116 760 1488862 1953 0
80 2 S116 754 1489616 2707 0
80 2 S116 768 1490384 3475 0
80 2 S116 753 1491137 4228 0
80 2 S116 740 1491877 4968 0
80 2 S116 750 1492627 5718 0
80 2 S116 739 1493366 6457 0
