T_0076
BeatCount Mean SD BeatCountNoOutliers MeanNoOutliers SDNoOutliers
1926 802,755451713396 59,4804947522939 1892 805,517970401691 52,9960097725972

Trial TrialStatus Trialtype IBI AbsPosition RelPosition Outlier
0 0 0 740 1057 -13199 0
0 0 0 781 1838 -12418 0
0 0 0 826 2664 -11592 0
0 0 0 769 3433 -10823 0
0 0 0 799 4232 -10024 0
0 0 0 821 5053 -9203 0
0 0 0 828 5881 -8375 0
0 0 0 794 6675 -7581 0
0 0 0 733 7408 -6848 0
0 0 0 747 8155 -6101 0
0 0 0 764 8919 -5337 0
0 0 0 811 9730 -4526 0
0 0 0 777 10507 -3749 0
0 0 0 810 11317 -2939 0
0 0 0 842 12159 -2097 0
1 1 S112 862 13021 -1235 0
1 1 S112 834 13855 -401 0
1 2 S112 863 14718 462 0
1 2 S112 877 15595 1339 0
1 2 S112 854 16449 2193 0
1 2 S112 797 17246 2990 0
1 2 S112 824 18070 3814 0
1 2 S112 839 18909 4653 0
1 2 S112 822 19731 5475 0
1 2 S112 791 20522 6266 0
0 0 0 825 21347 -11079 0
0 0 0 860 22207 -10219 0
0 0 0 799 23006 -9420 0
0 0 0 813 23819 -8607 0
0 0 0 840 24659 -7767 0
0 0 0 810 25469 -6957 0
0 0 0 747 26216 -6210 0
0 0 0 760 26976 -5450 0
0 0 0 766 27742 -4684 0
0 0 0 767 28509 -3917 0
0 0 0 735 29244 -3182 0
0 0 0 788 30032 -2394 0
2 1 S102 844 30876 -1550 0
2 1 S102 862 31738 -688 0
2 2 S102 821 32559 133 0
2 2 S102 811 33370 944 0
2 2 S102 848 34218 1792 0
2 2 S102 860 35078 2652 0
2 2 S102 809 35887 3461 0
2 2 S102 829 36716 4290 0
2 2 S102 854 37570 5144 0
2 2 S102 861 38431 6005 0
2 2 S102 832 39263 6837 0
0 0 0 830 40093 -8198 0
0 0 0 844 40937 -7354 0
0 0 0 847 41784 -6507 0
0 0 0 770 42554 -5737 0
0 0 0 809 43363 -4928 0
0 0 0 818 44181 -4110 0
0 0 0 826 45007 -3284 0
0 0 0 795 45802 -2489 0
3 1 S116 834 46636 -1655 0
3 1 S116 844 47480 -811 0
3 2 S116 820 48300 9 0
3 2 S116 802 49102 811 0
3 2 S116 832 49934 1643 0
3 2 S116 848 50782 2491 0
3 2 S116 804 51586 3295 0
3 2 S116 849 52435 4144 0
3 2 S116 878 53313 5022 0
3 2 S116 875 54188 5897 0
3 2 S116 839 55027 6736 0
0 0 0 886 55913 -10681 0
0 0 0 884 56797 -9797 0
0 0 0 828 57625 -8969 0
0 0 0 791 58416 -8178 0
0 0 0 777 59193 -7401 0
0 0 0 739 59932 -6662 0
0 0 0 683 60615 -5979 0
0 0 0 690 61305 -5289 0
0 0 0 690 61995 -4599 0
0 0 0 749 62744 -3850 0
0 0 0 846 63590 -3004 0
0 0 0 891 64481 -2113 0
4 1 S106 827 65308 -1286 0
4 1 S106 818 66126 -468 0
4 2 S106 829 66955 361 0
4 2 S106 840 67795 1201 0
4 2 S106 811 68606 2012 0
4 2 S106 804 69410 2816 0
4 2 S106 835 70245 3651 0
4 2 S106 861 71106 4512 0
4 2 S106 856 71962 5368 0
4 2 S106 833 72795 6201 0
0 0 0 863 73658 -8105 0
0 0 0 881 74539 -7224 0
0 0 0 839 75378 -6385 0
0 0 0 788 76166 -5597 0
0 0 0 821 76987 -4776 0
0 0 0 816 77803 -3960 0
0 0 0 750 78553 -3210 0
0 0 0 709 79262 -2501 0
5 1 S116 742 80004 -1759 0
5 1 S116 813 80817 -946 0
5 1 S116 790 81607 -156 0
5 2 S116 830 82437 674 0
5 2 S116 864 83301 1538 0
5 2 S116 852 84153 2390 0
5 2 S116 804 84957 3194 0
5 2 S116 827 85784 4021 0
5 2 S116 816 86600 4837 0
5 2 S116 808 87408 5645 0
5 2 S116 787 88195 6432 0
0 0 0 827 89022 -9054 0
0 0 0 864 89886 -8190 0
0 0 0 850 90736 -7340 0
0 0 0 801 91537 -6539 0
0 0 0 832 92369 -5707 0
0 0 0 826 93195 -4881 0
0 0 0 792 93987 -4089 0
0 0 0 786 94773 -3303 0
0 0 0 801 95574 -2502 0
6 1 S106 822 96396 -1680 0
6 1 S106 788 97184 -892 0
6 1 S106 820 98004 -72 0
6 2 S106 844 98848 772 0
6 2 S106 869 99717 1641 0
6 2 S106 828 100545 2469 0
6 2 S106 880 101425 3349 0
6 2 S106 898 102323 4247 0
6 2 S106 863 103186 5110 0
6 2 S106 872 104058 5982 0
6 2 S106 888 104946 6870 0
0 0 0 878 105824 -10488 0
0 0 0 821 106645 -9667 0
0 0 0 860 107505 -8807 0
0 0 0 882 108387 -7925 0
0 0 0 864 109251 -7061 0
0 0 0 853 110104 -6208 0
0 0 0 898 111002 -5310 0
0 0 0 876 111878 -4434 0
0 0 0 831 112709 -3603 0
0 0 0 853 113562 -2750 0
7 1 S102 860 114422 -1890 0
7 1 S102 847 115269 -1043 0
7 1 S102 824 116093 -219 0
7 2 S102 882 116975 663 0
7 2 S102 885 117860 1548 0
7 2 S102 865 118725 2413 0
7 2 S102 847 119572 3260 0
7 2 S102 856 120428 4116 0
7 2 S102 875 121303 4991 0
7 2 S102 839 122142 5830 0
7 2 S102 836 122978 6666 0
0 0 0 849 123827 -8085 0
0 0 0 863 124690 -7222 0
0 0 0 809 125499 -6413 0
0 0 0 844 126343 -5569 0
0 0 0 858 127201 -4711 0
0 0 0 873 128074 -3838 0
0 0 0 830 128904 -3008 0
0 0 0 874 129778 -2134 0
8 1 S112 898 130676 -1236 0
8 1 S112 874 131550 -362 0
8 2 S112 837 132387 475 0
8 2 S112 869 133256 1344 0
8 2 S112 879 134135 2223 0
8 2 S112 834 134969 3057 0
8 2 S112 837 135806 3894 0
8 2 S112 856 136662 4750 0
8 2 S112 825 137487 5575 0
8 2 S112 843 138330 6418 0
0 0 0 844 139174 -7012 0
0 0 0 849 140023 -6163 0
0 0 0 788 140811 -5375 0
0 0 0 816 141627 -4559 0
0 0 0 828 142455 -3731 0
0 0 0 770 143225 -2961 0
0 0 0 764 143989 -2197 0
9 1 S116 779 144768 -1418 0
9 1 S116 804 145572 -614 0
9 2 S116 774 146346 160 0
9 2 S116 825 147171 985 0
9 2 S116 848 148019 1833 0
9 2 S116 853 148872 2686 0
9 2 S116 803 149675 3489 0
9 2 S116 830 150505 4319 0
9 2 S116 842 151347 5161 0
9 2 S116 839 152186 6000 0
9 2 S116 801 152987 6801 0
0 0 0 841 153828 -11308 0
0 0 0 871 154699 -10437 0
0 0 0 851 155550 -9586 0
0 0 0 813 156363 -8773 0
0 0 0 825 157188 -7948 0
0 0 0 769 157957 -7179 0
0 0 0 709 158666 -6470 0
0 0 0 703 159369 -5767 0
0 0 0 756 160125 -5011 0
0 0 0 778 160903 -4233 0
0 0 0 725 161628 -3508 0
0 0 0 687 162315 -2821 0
0 0 0 707 163022 -2114 0
10 1 S102 722 163744 -1392 0
10 1 S102 732 164476 -660 0
10 2 S102 788 165264 128 0
10 2 S102 812 166076 940 0
10 2 S102 806 166882 1746 0
10 2 S102 759 167641 2505 0
10 2 S102 789 168430 3294 0
10 2 S102 798 169228 4092 0
10 2 S102 781 170009 4873 0
10 2 S102 775 170784 5648 0
10 2 S102 789 171573 6437 0
0 0 0 830 172403 -12162 0
0 0 0 785 173188 -11377 0
0 0 0 810 173998 -10567 0
0 0 0 824 174822 -9743 0
0 0 0 811 175633 -8932 0
0 0 0 748 176381 -8184 0
0 0 0 753 177134 -7431 0
0 0 0 773 177907 -6658 0
0 0 0 763 178670 -5895 0
0 0 0 734 179404 -5161 0
0 0 0 766 180170 -4395 0
0 0 0 776 180946 -3619 0
0 0 0 770 181716 -2849 0
0 0 0 765 182481 -2084 0
11 1 S112 826 183307 -1258 0
11 1 S112 857 184164 -401 0
11 2 S112 844 185008 443 0
11 2 S112 810 185818 1253 0
11 2 S112 838 186656 2091 0
11 2 S112 842 187498 2933 0
11 2 S112 821 188319 3754 0
11 2 S112 798 189117 4552 0
11 2 S112 835 189952 5387 0
11 2 S112 860 190812 6247 0
0 0 0 837 191649 -7688 0
0 0 0 812 192461 -6876 0
0 0 0 851 193312 -6025 0
0 0 0 848 194160 -5177 0
0 0 0 793 194953 -4384 0
0 0 0 806 195759 -3578 0
0 0 0 806 196565 -2772 0
0 0 0 742 197307 -2030 0
12 1 S116 727 198034 -1303 0
12 1 S116 735 198769 -568 0
12 2 S116 791 199560 223 0
12 2 S116 854 200414 1077 0
12 2 S116 881 201295 1958 0
12 2 S116 856 202151 2814 0
12 2 S116 861 203012 3675 0
12 2 S116 861 203873 4536 0
12 2 S116 818 204691 5354 0
12 2 S116 820 205511 6174 0
12 2 S116 816 206327 6990 0
0 0 0 818 207145 -11290 0
0 0 0 775 207920 -10515 0
0 0 0 800 208720 -9715 0
0 0 0 812 209532 -8903 0
0 0 0 808 210340 -8095 0
0 0 0 769 211109 -7326 0
0 0 0 809 211918 -6517 0
0 0 0 847 212765 -5670 0
0 0 0 821 213586 -4849 0
0 0 0 771 214357 -4078 0
0 0 0 784 215141 -3294 0
0 0 0 798 215939 -2496 0
13 1 S112 807 216746 -1689 0
13 1 S112 743 217489 -946 0
13 1 S112 767 218256 -179 0
13 2 S112 760 219016 581 0
13 2 S112 786 219802 1367 0
13 2 S112 762 220564 2129 0
13 2 S112 817 221381 2946 0
13 2 S112 849 222230 3795 0
13 2 S112 832 223062 4627 0
13 2 S112 816 223878 5443 0
13 2 S112 855 224733 6298 0
0 0 0 862 225595 -12535 0
0 0 0 827 226422 -11708 0
0 0 0 856 227278 -10852 0
0 0 0 877 228155 -9975 0
0 0 0 839 228994 -9136 0
0 0 0 801 229795 -8335 0
0 0 0 806 230601 -7529 0
0 0 0 818 231419 -6711 0
0 0 0 783 232202 -5928 0
0 0 0 810 233012 -5118 0
0 0 0 840 233852 -4278 0
0 0 0 842 234694 -3436 0
0 0 0 803 235497 -2633 0
14 1 S106 854 236351 -1779 0
14 1 S106 879 237230 -900 0
14 1 S106 850 238080 -50 0
14 2 S106 846 238926 796 0
14 2 S106 861 239787 1657 0
14 2 S106 857 240644 2514 0
14 2 S106 812 241456 3326 0
14 2 S106 835 242291 4161 0
14 2 S106 859 243150 5020 0
14 2 S106 879 244029 5899 0
14 2 S106 866 244895 6765 0
0 0 0 816 245711 -10258 0
0 0 0 854 246565 -9404 0
0 0 0 874 247439 -8530 0
0 0 0 844 248283 -7686 0
0 0 0 789 249072 -6897 0
0 0 0 831 249903 -6066 0
0 0 0 845 250748 -5221 0
0 0 0 832 251580 -4389 0
0 0 0 803 252383 -3586 0
0 0 0 827 253210 -2759 0
15 1 S116 845 254055 -1914 0
15 1 S116 828 254883 -1086 0
15 1 S116 793 255676 -293 0
15 2 S116 786 256462 493 0
15 2 S116 806 257268 1299 0
15 2 S116 820 258088 2119 0
15 2 S116 813 258901 2932 0
15 2 S116 817 259718 3749 0
15 2 S116 836 260554 4585 0
15 2 S116 855 261409 5440 0
15 2 S116 831 262240 6271 0
0 0 0 835 263075 -10500 0
0 0 0 850 263925 -9650 0
0 0 0 844 264769 -8806 0
0 0 0 777 265546 -8029 0
0 0 0 809 266355 -7220 0
0 0 0 815 267170 -6405 0
0 0 0 809 267979 -5596 0
0 0 0 770 268749 -4826 0
0 0 0 805 269554 -4021 0
0 0 0 837 270391 -3184 0
0 0 0 811 271202 -2373 0
16 1 S116 768 271970 -1605 0
16 1 S116 785 272755 -820 0
16 1 S116 800 273555 -20 0
16 2 S116 777 274332 757 0
16 2 S116 783 275115 1540 0
16 2 S116 833 275948 2373 0
16 2 S116 851 276799 3224 0
16 2 S116 812 277611 4036 0
16 2 S116 825 278436 4861 0
16 2 S116 832 279268 5693 0
16 2 S116 800 280068 6493 0
0 0 0 786 280854 -9017 0
0 0 0 825 281679 -8192 0
0 0 0 826 282505 -7366 0
0 0 0 762 283267 -6604 0
0 0 0 749 284016 -5855 0
0 0 0 759 284775 -5096 0
0 0 0 805 285580 -4291 0
0 0 0 767 286347 -3524 0
0 0 0 803 287150 -2721 0
17 1 S106 832 287982 -1889 0
17 1 S106 855 288837 -1034 0
17 1 S106 874 289711 -160 0
17 2 S106 815 290526 655 0
17 2 S106 822 291348 1477 0
17 2 S106 829 292177 2306 0
17 2 S106 830 293007 3136 0
17 2 S106 791 293798 3927 0
17 2 S106 820 294618 4747 0
17 2 S106 845 295463 5592 0
17 2 S106 855 296318 6447 0
0 0 0 819 297137 -13076 0
0 0 0 851 297988 -12225 0
0 0 0 853 298841 -11372 0
0 0 0 818 299659 -10554 0
0 0 0 794 300453 -9760 0
0 0 0 832 301285 -8928 0
0 0 0 816 302101 -8112 0
0 0 0 750 302851 -7362 0
0 0 0 673 303524 -6689 0
0 0 0 661 304185 -6028 0
0 0 0 685 304870 -5343 0
0 0 0 702 305572 -4641 0
0 0 0 682 306254 -3959 0
0 0 0 639 306893 -3320 1
0 0 0 684 307577 -2636 0
18 1 S102 736 308313 -1900 0
18 1 S102 789 309102 -1111 0
18 1 S102 752 309854 -359 0
18 2 S102 746 310600 387 0
18 2 S102 765 311365 1152 0
18 2 S102 787 312152 1939 0
18 2 S102 752 312904 2691 0
18 2 S102 771 313675 3462 0
18 2 S102 805 314480 4267 0
18 2 S102 828 315308 5095 0
18 2 S102 775 316083 5870 0
18 2 S102 797 316880 6667 0
0 0 0 818 317698 -8182 0
0 0 0 802 318500 -7380 0
0 0 0 751 319251 -6629 0
0 0 0 801 320052 -5828 0
0 0 0 840 320892 -4988 0
0 0 0 799 321691 -4189 0
0 0 0 722 322413 -3467 0
0 0 0 731 323144 -2736 0
19 1 S106 748 323892 -1988 0
19 1 S106 715 324607 -1273 0
19 1 S106 688 325295 -585 0
19 2 S106 707 326002 122 0
19 2 S106 737 326739 859 0
19 2 S106 804 327543 1663 0
19 2 S106 794 328337 2457 0
19 2 S106 817 329154 3274 0
19 2 S106 830 329984 4104 0
19 2 S106 828 330812 4932 0
19 2 S106 773 331585 5705 0
19 2 S106 808 332393 6513 0
0 0 0 836 333229 -13258 0
0 0 0 836 334065 -12422 0
0 0 0 804 334869 -11618 0
0 0 0 850 335719 -10768 0
0 0 0 866 336585 -9902 0
0 0 0 857 337442 -9045 0
0 0 0 859 338301 -8186 0
0 0 0 882 339183 -7304 0
0 0 0 886 340069 -6418 0
0 0 0 840 340909 -5578 0
0 0 0 877 341786 -4701 0
0 0 0 870 342656 -3831 0
0 0 0 849 343505 -2982 0
0 0 0 823 344328 -2159 0
20 1 S112 853 345181 -1306 0
20 1 S112 887 346068 -419 0
20 2 S112 881 346949 462 0
20 2 S112 849 347798 1311 0
20 2 S112 828 348626 2139 0
20 2 S112 841 349467 2980 0
20 2 S112 856 350323 3836 0
20 2 S112 820 351143 4656 0
20 2 S112 806 351949 5462 0
20 2 S112 814 352763 6276 0
0 0 0 805 353568 -10127 0
0 0 0 758 354326 -9369 0
0 0 0 782 355108 -8587 0
0 0 0 806 355914 -7781 0
0 0 0 823 356737 -6958 0
0 0 0 751 357488 -6207 0
0 0 0 755 358243 -5452 0
0 0 0 760 359003 -4692 0
0 0 0 754 359757 -3938 0
0 0 0 728 360485 -3210 0
0 0 0 754 361239 -2456 0
21 1 S106 789 362028 -1667 0
21 1 S106 824 362852 -843 0
21 1 S106 835 363687 -8 0
21 2 S106 826 364513 818 0
21 2 S106 810 365323 1628 0
21 2 S106 833 366156 2461 0
21 2 S106 846 367002 3307 0
21 2 S106 816 367818 4123 0
21 2 S106 828 368646 4951 0
21 2 S106 855 369501 5806 0
21 2 S106 886 370387 6692 0
0 0 0 872 371259 -12048 0
0 0 0 915 372174 -11133 0
0 0 0 918 373092 -10215 0
0 0 0 862 373954 -9353 0
0 0 0 828 374782 -8525 0
0 0 0 829 375611 -7696 0
0 0 0 829 376440 -6867 0
0 0 0 791 377231 -6076 0
0 0 0 790 378021 -5286 0
0 0 0 812 378833 -4474 0
0 0 0 853 379686 -3621 0
0 0 0 817 380503 -2804 0
22 1 S116 867 381370 -1937 0
22 1 S116 878 382248 -1059 0
22 1 S116 851 383099 -208 0
22 2 S116 821 383920 613 0
22 2 S116 861 384781 1474 0
22 2 S116 856 385637 2330 0
22 2 S116 808 386445 3138 0
22 2 S116 790 387235 3928 0
22 2 S116 805 388040 4733 0
22 2 S116 821 388861 5554 0
22 2 S116 795 389656 6349 0
0 0 0 806 390462 -9208 0
0 0 0 834 391296 -8374 0
0 0 0 831 392127 -7543 0
0 0 0 771 392898 -6772 0
0 0 0 775 393673 -5997 0
0 0 0 771 394444 -5226 0
0 0 0 760 395204 -4466 0
0 0 0 726 395930 -3740 0
0 0 0 725 396655 -3015 0
0 0 0 684 397339 -2331 0
23 1 S112 710 398049 -1621 0
23 1 S112 808 398857 -813 0
23 2 S112 863 399720 50 0
23 2 S112 851 400571 901 0
23 2 S112 797 401368 1698 0
23 2 S112 756 402124 2454 0
23 2 S112 732 402856 3186 0
23 2 S112 704 403560 3890 0
23 2 S112 694 404254 4584 0
23 2 S112 689 404943 5273 0
23 2 S112 729 405672 6002 0
23 2 S112 789 406461 6791 0
0 0 0 839 407300 -8335 0
0 0 0 781 408081 -7554 0
0 0 0 809 408890 -6745 0
0 0 0 821 409711 -5924 0
0 0 0 797 410508 -5127 0
0 0 0 732 411240 -4395 0
0 0 0 740 411980 -3655 0
0 0 0 762 412742 -2893 0
0 0 0 771 413513 -2122 0
24 1 S106 730 414243 -1392 0
24 1 S106 765 415008 -627 0
24 2 S106 792 415800 165 0
24 2 S106 835 416635 1000 0
24 2 S106 821 417456 1821 0
24 2 S106 862 418318 2683 0
24 2 S106 884 419202 3567 0
24 2 S106 873 420075 4440 0
24 2 S106 802 420877 5242 0
24 2 S106 817 421694 6059 0
24 2 S106 850 422544 6909 0
0 0 0 862 423406 -7581 0
0 0 0 824 424230 -6757 0
0 0 0 854 425084 -5903 0
0 0 0 871 425955 -5032 0
0 0 0 840 426795 -4192 0
0 0 0 857 427652 -3335 0
0 0 0 870 428522 -2465 0
25 1 S102 888 429410 -1577 0
25 1 S102 838 430248 -739 0
25 2 S102 879 431127 140 0
25 2 S102 916 432043 1056 0
25 2 S102 899 432942 1955 0
25 2 S102 833 433775 2788 0
25 2 S102 861 434636 3649 0
25 2 S102 892 435528 4541 0
25 2 S102 853 436381 5394 0
25 2 S102 831 437212 6225 0
0 0 0 856 438068 -8950 0
0 0 0 882 438950 -8068 0
0 0 0 870 439820 -7198 0
0 0 0 849 440669 -6349 0
0 0 0 900 441569 -5449 0
0 0 0 905 442474 -4544 0
0 0 0 840 443314 -3704 0
0 0 0 822 444136 -2882 0
0 0 0 827 444963 -2055 0
26 1 S116 834 445797 -1221 0
26 1 S116 804 446601 -417 0
26 2 S116 807 447408 390 0
26 2 S116 853 448261 1243 0
26 2 S116 882 449143 2125 0
26 2 S116 841 449984 2966 0
26 2 S116 847 450831 3813 0
26 2 S116 872 451703 4685 0
26 2 S116 861 452564 5546 0
26 2 S116 822 453386 6368 0
0 0 0 844 454230 -8388 0
0 0 0 868 455098 -7520 0
0 0 0 849 455947 -6671 0
0 0 0 805 456752 -5866 0
0 0 0 815 457567 -5051 0
0 0 0 815 458382 -4236 0
0 0 0 752 459134 -3484 0
0 0 0 724 459858 -2760 0
0 0 0 728 460586 -2032 0
27 1 S106 752 461338 -1280 0
27 1 S106 759 462097 -521 0
27 2 S106 723 462820 202 0
27 2 S106 765 463585 967 0
27 2 S106 782 464367 1749 0
27 2 S106 759 465126 2508 0
27 2 S106 732 465858 3240 0
27 2 S106 747 466605 3987 0
27 2 S106 771 467376 4758 0
27 2 S106 770 468146 5528 0
27 2 S106 766 468912 6294 0
0 0 0 786 469698 -7841 0
0 0 0 814 470512 -7027 0
0 0 0 764 471276 -6263 0
0 0 0 776 472052 -5487 0
0 0 0 774 472826 -4713 0
0 0 0 768 473594 -3945 0
0 0 0 727 474321 -3218 0
0 0 0 666 474987 -2552 0
28 1 S102 696 475683 -1856 0
28 1 S102 688 476371 -1168 0
28 1 S102 673 477044 -495 0
28 2 S102 667 477711 172 0
28 2 S102 687 478398 859 0
28 2 S102 714 479112 1573 0
28 2 S102 749 479861 2322 0
28 2 S102 725 480586 3047 0
28 2 S102 753 481339 3800 0
28 2 S102 777 482116 4577 0
28 2 S102 803 482919 5380 0
28 2 S102 829 483748 6209 0
28 2 S102 782 484530 6991 0
0 0 0 818 485348 -12516 0
0 0 0 831 486179 -11685 0
0 0 0 830 487009 -10855 0
0 0 0 772 487781 -10083 0
0 0 0 808 488589 -9275 0
0 0 0 810 489399 -8465 0
0 0 0 794 490193 -7671 0
0 0 0 739 490932 -6932 0
0 0 0 754 491686 -6178 0
0 0 0 766 492452 -5412 0
0 0 0 816 493268 -4596 0
0 0 0 775 494043 -3821 0
0 0 0 785 494828 -3036 0
0 0 0 825 495653 -2211 0
29 1 S112 860 496513 -1351 0
29 1 S112 833 497346 -518 0
29 2 S112 858 498204 340 0
29 2 S112 876 499080 1216 0
29 2 S112 886 499966 2102 0
29 2 S112 825 500791 2927 0
29 2 S112 822 501613 3749 0
29 2 S112 805 502418 4554 0
29 2 S112 796 503214 5350 0
29 2 S112 775 503989 6125 0
29 2 S112 794 504783 6919 0
0 0 0 799 505582 -6606 0
0 0 0 818 506400 -5788 0
0 0 0 779 507179 -5009 0
0 0 0 791 507970 -4218 0
0 0 0 757 508727 -3461 0
0 0 0 706 509433 -2755 0
0 0 0 656 510089 -2099 0
30 1 S112 677 510766 -1422 0
30 1 S112 712 511478 -710 0
30 2 S112 783 512261 73 0
30 2 S112 777 513038 850 0
30 2 S112 769 513807 1619 0
30 2 S112 801 514608 2420 0
30 2 S112 806 515414 3226 0
30 2 S112 772 516186 3998 0
30 2 S112 775 516961 4773 0
30 2 S112 818 517779 5591 0
30 2 S112 870 518649 6461 0
0 0 0 863 519512 -11094 0
0 0 0 866 520378 -10228 0
0 0 0 885 521263 -9343 0
0 0 0 891 522154 -8452 0
0 0 0 845 522999 -7607 0
0 0 0 867 523866 -6740 0
0 0 0 857 524723 -5883 0
0 0 0 822 525545 -5061 0
0 0 0 771 526316 -4290 0
0 0 0 816 527132 -3474 0
0 0 0 847 527979 -2627 0
31 1 S106 845 528824 -1782 0
31 1 S106 830 529654 -952 0
31 1 S106 875 530529 -77 0
31 2 S106 880 531409 803 0
31 2 S106 847 532256 1650 0
31 2 S106 842 533098 2492 0
31 2 S106 860 533958 3352 0
31 2 S106 852 534810 4204 0
31 2 S106 807 535617 5011 0
31 2 S106 814 536431 5825 0
31 2 S106 836 537267 6661 0
0 0 0 848 538115 -11092 0
0 0 0 806 538921 -10286 0
0 0 0 867 539788 -9419 0
0 0 0 886 540674 -8533 0
0 0 0 860 541534 -7673 0
0 0 0 832 542366 -6841 0
0 0 0 845 543211 -5996 0
0 0 0 843 544054 -5153 0
0 0 0 814 544868 -4339 0
0 0 0 805 545673 -3534 0
0 0 0 819 546492 -2715 0
32 1 S102 831 547323 -1884 0
32 1 S102 811 548134 -1073 0
32 1 S102 827 548961 -246 0
32 2 S102 851 549812 605 0
32 2 S102 883 550695 1488 0
32 2 S102 853 551548 2341 0
32 2 S102 883 552431 3224 0
32 2 S102 902 553333 4126 0
32 2 S102 873 554206 4999 0
32 2 S102 823 555029 5822 0
32 2 S102 851 555880 6673 0
0 0 0 859 556739 -12080 0
0 0 0 854 557593 -11226 0
0 0 0 848 558441 -10378 0
0 0 0 829 559270 -9549 0
0 0 0 865 560135 -8684 0
0 0 0 870 561005 -7814 0
0 0 0 805 561810 -7009 0
0 0 0 809 562619 -6200 0
0 0 0 824 563443 -5376 0
0 0 0 797 564240 -4579 0
0 0 0 742 564982 -3837 0
0 0 0 736 565718 -3101 0
0 0 0 759 566477 -2342 0
33 1 S112 755 567232 -1587 0
33 1 S112 739 567971 -848 0
33 1 S112 792 568763 -56 0
33 2 S112 838 569601 782 0
33 2 S112 862 570463 1644 0
33 2 S112 808 571271 2452 0
33 2 S112 793 572064 3245 0
33 2 S112 787 572851 4032 0
33 2 S112 769 573620 4801 0
33 2 S112 734 574354 5535 0
33 2 S112 683 575037 6218 0
33 2 S112 663 575700 6881 0
0 0 0 679 576379 -10544 0
0 0 0 727 577106 -9817 0
0 0 0 848 577954 -8969 0
0 0 0 853 578807 -8116 0
0 0 0 824 579631 -7292 0
0 0 0 789 580420 -6503 0
0 0 0 759 581179 -5744 0
0 0 0 705 581884 -5039 0
0 0 0 663 582547 -4376 0
0 0 0 663 583210 -3713 0
0 0 0 689 583899 -3024 0
0 0 0 695 584594 -2329 0
34 1 S106 710 585304 -1619 0
34 1 S106 739 586043 -880 0
34 1 S106 777 586820 -103 0
34 2 S106 825 587645 722 0
34 2 S106 854 588499 1576 0
34 2 S106 829 589328 2405 0
34 2 S106 840 590168 3245 0
34 2 S106 843 591011 4088 0
34 2 S106 874 591885 4962 0
34 2 S106 859 592744 5821 0
34 2 S106 874 593618 6695 0
0 0 0 897 594515 -10130 0
0 0 0 935 595450 -9195 0
0 0 0 862 596312 -8333 0
0 0 0 892 597204 -7441 0
0 0 0 901 598105 -6540 0
0 0 0 842 598947 -5698 0
0 0 0 793 599740 -4905 0
0 0 0 811 600551 -4094 0
0 0 0 820 601371 -3274 0
0 0 0 798 602169 -2476 0
35 1 S102 821 602990 -1655 0
35 1 S102 840 603830 -815 0
35 2 S102 857 604687 42 0
35 2 S102 811 605498 853 0
35 2 S102 854 606352 1707 0
35 2 S102 860 607212 2567 0
35 2 S102 840 608052 3407 0
35 2 S102 826 608878 4233 0
35 2 S102 854 609732 5087 0
35 2 S102 877 610609 5964 0
35 2 S102 829 611438 6793 0
0 0 0 850 612288 -7560 0
0 0 0 882 613170 -6678 0
0 0 0 876 614046 -5802 0
0 0 0 812 614858 -4990 0
0 0 0 820 615678 -4170 0
0 0 0 822 616500 -3348 0
0 0 0 843 617343 -2505 0
36 1 S106 800 618143 -1705 0
36 1 S106 837 618980 -868 0
36 2 S106 876 619856 8 0
36 2 S106 871 620727 879 0
36 2 S106 846 621573 1725 0
36 2 S106 874 622447 2599 0
36 2 S106 861 623308 3460 0
36 2 S106 821 624129 4281 0
36 2 S106 830 624959 5111 0
36 2 S106 850 625809 5961 0
36 2 S106 867 626676 6828 0
0 0 0 815 627491 -10643 0
0 0 0 861 628352 -9782 0
0 0 0 881 629233 -8901 0
0 0 0 861 630094 -8040 0
0 0 0 838 630932 -7202 0
0 0 0 858 631790 -6344 0
0 0 0 849 632639 -5495 0
0 0 0 791 633430 -4704 0
0 0 0 803 634233 -3901 0
0 0 0 811 635044 -3090 0
0 0 0 827 635871 -2263 0
37 1 S116 785 636656 -1478 0
37 1 S116 826 637482 -652 0
37 2 S116 854 638336 202 0
37 2 S116 847 639183 1049 0
37 2 S116 825 640008 1874 0
37 2 S116 859 640867 2733 0
37 2 S116 884 641751 3617 0
37 2 S116 846 642597 4463 0
37 2 S116 840 643437 5303 0
37 2 S116 866 644303 6169 0
37 2 S116 855 645158 7024 0
0 0 0 810 645968 -11479 0
0 0 0 831 646799 -10648 0
0 0 0 852 647651 -9796 0
0 0 0 827 648478 -8969 0
0 0 0 776 649254 -8193 0
0 0 0 783 650037 -7410 0
0 0 0 797 650834 -6613 0
0 0 0 790 651624 -5823 0
0 0 0 750 652374 -5073 0
0 0 0 725 653099 -4348 0
0 0 0 687 653786 -3661 0
0 0 0 689 654475 -2972 0
0 0 0 738 655213 -2234 0
38 1 S102 714 655927 -1520 0
38 1 S102 758 656685 -762 0
38 2 S102 782 657467 20 0
38 2 S102 808 658275 828 0
38 2 S102 818 659093 1646 0
38 2 S102 762 659855 2408 0
38 2 S102 755 660610 3163 0
38 2 S102 778 661388 3941 0
38 2 S102 774 662162 4715 0
38 2 S102 783 662945 5498 0
38 2 S102 838 663783 6336 0
0 0 0 856 664639 -11426 0
0 0 0 846 665485 -10580 0
0 0 0 789 666274 -9791 0
0 0 0 810 667084 -8981 0
0 0 0 832 667916 -8149 0
0 0 0 803 668719 -7346 0
0 0 0 786 669505 -6560 0
0 0 0 817 670322 -5743 0
0 0 0 809 671131 -4934 0
0 0 0 747 671878 -4187 0
0 0 0 768 672646 -3419 0
0 0 0 798 673444 -2621 0
39 1 S116 815 674259 -1806 0
39 1 S116 778 675037 -1028 0
39 1 S116 803 675840 -225 0
39 2 S116 799 676639 574 0
39 2 S116 822 677461 1396 0
39 2 S116 770 678231 2166 0
39 2 S116 778 679009 2944 0
39 2 S116 810 679819 3754 0
39 2 S116 856 680675 4610 0
39 2 S116 811 681486 5421 0
39 2 S116 836 682322 6257 0
0 0 0 875 683197 -7556 0
0 0 0 884 684081 -6672 0
0 0 0 827 684908 -5845 0
0 0 0 848 685756 -4997 0
0 0 0 866 686622 -4131 0
0 0 0 827 687449 -3304 0
0 0 0 817 688266 -2487 0
40 1 S112 833 689099 -1654 0
40 1 S112 862 689961 -792 0
40 2 S112 812 690773 20 0
40 2 S112 829 691602 849 0
40 2 S112 842 692444 1691 0
40 2 S112 845 693289 2536 0
40 2 S112 824 694113 3360 0
40 2 S112 810 694923 4170 0
40 2 S112 847 695770 5017 0
40 2 S112 859 696629 5876 0
40 2 S112 842 697471 6718 0
0 0 0 826 698297 -187717 0
0 0 0 862 699159 -186855 0
0 0 0 883 700042 -185972 0
0 0 0 843 700885 -185129 0
0 0 0 836 701721 -184293 0
0 0 0 846 702567 -183447 0
0 0 0 834 703401 -182613 0
0 0 0 765 704166 -181848 0
0 0 0 719 704885 -181129 0
0 0 0 648 705533 -180481 1
0 0 0 695 706228 -179786 0
0 0 0 640 706868 -179146 1
0 0 0 719 707587 -178427 0
0 0 0 743 708330 -177684 0
0 0 0 724 709054 -176960 0
0 0 0 738 709792 -176222 0
0 0 0 678 710470 -175544 0
0 0 0 640 711110 -174904 1
0 0 0 651 711761 -174253 0
0 0 0 624 712385 -173629 1
0 0 0 604 712989 -173025 1
0 0 0 601 713590 -172424 1
0 0 0 590 714180 -171834 1
0 0 0 582 714762 -171252 1
0 0 0 578 715340 -170674 1
0 0 0 575 715915 -170099 1
0 0 0 566 716481 -169533 1
0 0 0 572 717053 -168961 1
0 0 0 579 717632 -168382 1
0 0 0 591 718223 -167791 1
0 0 0 650 718873 -167141 0
0 0 0 709 719582 -166432 0
0 0 0 772 720354 -165660 0
0 0 0 859 721213 -164801 0
0 0 0 935 722148 -163866 0
0 0 0 982 723130 -162884 1
0 0 0 882 724012 -162002 0
0 0 0 819 724831 -161183 0
0 0 0 814 725645 -160369 0
0 0 0 813 726458 -159556 0
0 0 0 783 727241 -158773 0
0 0 0 762 728003 -158011 0
0 0 0 740 728743 -157271 0
0 0 0 719 729462 -156552 0
0 0 0 721 730183 -155831 0
0 0 0 742 730925 -155089 0
0 0 0 792 731717 -154297 0
0 0 0 885 732602 -153412 0
0 0 0 912 733514 -152500 0
0 0 0 904 734418 -151596 0
0 0 0 888 735306 -150708 0
0 0 0 837 736143 -149871 0
0 0 0 790 736933 -149081 0
0 0 0 787 737720 -148294 0
0 0 0 763 738483 -147531 0
0 0 0 761 739244 -146770 0
0 0 0 764 740008 -146006 0
0 0 0 766 740774 -145240 0
0 0 0 769 741543 -144471 0
0 0 0 743 742286 -143728 0
0 0 0 726 743012 -143002 0
0 0 0 692 743704 -142310 0
0 0 0 735 744439 -141575 0
0 0 0 827 745266 -140748 0
0 0 0 912 746178 -139836 0
0 0 0 839 747017 -138997 0
0 0 0 782 747799 -138215 0
0 0 0 709 748508 -137506 0
0 0 0 716 749224 -136790 0
0 0 0 703 749927 -136087 0
0 0 0 739 750666 -135348 0
0 0 0 841 751507 -134507 0
0 0 0 798 752305 -133709 0
0 0 0 737 753042 -132972 0
0 0 0 686 753728 -132286 0
0 0 0 656 754384 -131630 0
0 0 0 648 755032 -130982 1
0 0 0 676 755708 -130306 0
0 0 0 698 756406 -129608 0
0 0 0 731 757137 -128877 0
0 0 0 729 757866 -128148 0
0 0 0 715 758581 -127433 0
0 0 0 682 759263 -126751 0
0 0 0 1376 760639 -125375 1
0 0 0 682 761321 -124693 0
0 0 0 680 762001 -124013 0
0 0 0 654 762655 -123359 0
0 0 0 648 763303 -122711 1
0 0 0 629 763932 -122082 1
0 0 0 644 764576 -121438 1
0 0 0 631 765207 -120807 1
0 0 0 619 765826 -120188 1
0 0 0 610 766436 -119578 1
0 0 0 611 767047 -118967 1
0 0 0 627 767674 -118340 1
0 0 0 637 768311 -117703 1
0 0 0 652 768963 -117051 0
0 0 0 654 769617 -116397 0
0 0 0 653 770270 -115744 0
0 0 0 648 770918 -115096 1
0 0 0 660 771578 -114436 0
0 0 0 674 772252 -113762 0
0 0 0 686 772938 -113076 0
0 0 0 707 773645 -112369 0
0 0 0 708 774353 -111661 0
0 0 0 708 775061 -110953 0
0 0 0 686 775747 -110267 0
0 0 0 659 776406 -109608 0
0 0 0 640 777046 -108968 1
0 0 0 628 777674 -108340 1
0 0 0 616 778290 -107724 1
0 0 0 595 778885 -107129 1
0 0 0 604 779489 -106525 1
0 0 0 672 780161 -105853 0
0 0 0 754 780915 -105099 0
0 0 0 796 781711 -104303 0
0 0 0 852 782563 -103451 0
0 0 0 939 783502 -102512 0
0 0 0 918 784420 -101594 0
0 0 0 935 785355 -100659 0
0 0 0 909 786264 -99750 0
0 0 0 878 787142 -98872 0
0 0 0 835 787977 -98037 0
0 0 0 828 788805 -97209 0
0 0 0 824 789629 -96385 0
0 0 0 850 790479 -95535 0
0 0 0 826 791305 -94709 0
0 0 0 850 792155 -93859 0
0 0 0 885 793040 -92974 0
0 0 0 886 793926 -92088 0
0 0 0 902 794828 -91186 0
0 0 0 861 795689 -90325 0
0 0 0 848 796537 -89477 0
0 0 0 851 797388 -88626 0
0 0 0 827 798215 -87799 0
0 0 0 807 799022 -86992 0
0 0 0 783 799805 -86209 0
0 0 0 763 800568 -85446 0
0 0 0 759 801327 -84687 0
0 0 0 749 802076 -83938 0
0 0 0 725 802801 -83213 0
0 0 0 719 803520 -82494 0
0 0 0 686 804206 -81808 0
0 0 0 664 804870 -81144 0
0 0 0 672 805542 -80472 0
0 0 0 662 806204 -79810 0
0 0 0 694 806898 -79116 0
0 0 0 704 807602 -78412 0
0 0 0 739 808341 -77673 0
0 0 0 720 809061 -76953 0
0 0 0 682 809743 -76271 0
0 0 0 686 810429 -75585 0
0 0 0 693 811122 -74892 0
0 0 0 719 811841 -74173 0
0 0 0 701 812542 -73472 0
0 0 0 695 813237 -72777 0
0 0 0 712 813949 -72065 0
0 0 0 741 814690 -71324 0
0 0 0 723 815413 -70601 0
0 0 0 701 816114 -69900 0
0 0 0 721 816835 -69179 0
0 0 0 737 817572 -68442 0
0 0 0 740 818312 -67702 0
0 0 0 705 819017 -66997 0
0 0 0 732 819749 -66265 0
0 0 0 757 820506 -65508 0
0 0 0 842 821348 -64666 0
0 0 0 814 822162 -63852 0
0 0 0 868 823030 -62984 0
0 0 0 865 823895 -62119 0
0 0 0 845 824740 -61274 0
0 0 0 807 825547 -60467 0
0 0 0 787 826334 -59680 0
0 0 0 787 827121 -58893 0
0 0 0 786 827907 -58107 0
0 0 0 782 828689 -57325 0
0 0 0 805 829494 -56520 0
0 0 0 821 830315 -55699 0
0 0 0 835 831150 -54864 0
0 0 0 842 831992 -54022 0
0 0 0 885 832877 -53137 0
0 0 0 918 833795 -52219 0
0 0 0 873 834668 -51346 0
0 0 0 872 835540 -50474 0
0 0 0 850 836390 -49624 0
0 0 0 831 837221 -48793 0
0 0 0 788 838009 -48005 0
0 0 0 786 838795 -47219 0
0 0 0 806 839601 -46413 0
0 0 0 776 840377 -45637 0
0 0 0 741 841118 -44896 0
0 0 0 760 841878 -44136 0
0 0 0 780 842658 -43356 0
0 0 0 760 843418 -42596 0
0 0 0 698 844116 -41898 0
0 0 0 690 844806 -41208 0
0 0 0 691 845497 -40517 0
0 0 0 680 846177 -39837 0
0 0 0 645 846822 -39192 1
0 0 0 657 847479 -38535 0
0 0 0 667 848146 -37868 0
0 0 0 689 848835 -37179 0
0 0 0 679 849514 -36500 0
0 0 0 670 850184 -35830 0
0 0 0 698 850882 -35132 0
0 0 0 711 851593 -34421 0
0 0 0 745 852338 -33676 0
0 0 0 720 853058 -32956 0
0 0 0 758 853816 -32198 0
0 0 0 853 854669 -31345 0
0 0 0 904 855573 -30441 0
0 0 0 864 856437 -29577 0
0 0 0 860 857297 -28717 0
0 0 0 839 858136 -27878 0
0 0 0 804 858940 -27074 0
0 0 0 762 859702 -26312 0
0 0 0 777 860479 -25535 0
0 0 0 813 861292 -24722 0
0 0 0 819 862111 -23903 0
0 0 0 792 862903 -23111 0
0 0 0 841 863744 -22270 0
0 0 0 875 864619 -21395 0
0 0 0 879 865498 -20516 0
0 0 0 827 866325 -19689 0
0 0 0 869 867194 -18820 0
0 0 0 869 868063 -17951 0
0 0 0 850 868913 -17101 0
0 0 0 808 869721 -16293 0
0 0 0 834 870555 -15459 0
0 0 0 874 871429 -14585 0
0 0 0 897 872326 -13688 0
0 0 0 867 873193 -12821 0
0 0 0 916 874109 -11905 0
0 0 0 930 875039 -10975 0
0 0 0 874 875913 -10101 0
0 0 0 826 876739 -9275 0
0 0 0 795 877534 -8480 0
0 0 0 766 878300 -7714 0
0 0 0 750 879050 -6964 0
0 0 0 731 879781 -6233 0
0 0 0 759 880540 -5474 0
0 0 0 806 881346 -4668 0
0 0 0 834 882180 -3834 0
0 0 0 738 882918 -3096 0
0 0 0 716 883634 -2380 0
41 1 S102 707 884341 -1673 0
41 1 S102 731 885072 -942 0
41 1 S102 789 885861 -153 0
41 2 S102 771 886632 618 0
41 2 S102 827 887459 1445 0
41 2 S102 830 888289 2275 0
41 2 S102 832 889121 3107 0
41 2 S102 802 889923 3909 0
41 2 S102 829 890752 4738 0
41 2 S102 837 891589 5575 0
41 2 S102 837 892426 6412 0
0 0 0 806 893232 -7769 0
0 0 0 845 894077 -6924 0
0 0 0 859 894936 -6065 0
0 0 0 855 895791 -5210 0
0 0 0 826 896617 -4384 0
0 0 0 848 897465 -3536 0
0 0 0 859 898324 -2677 0
42 1 S112 833 899157 -1844 0
42 1 S112 845 900002 -999 0
42 1 S112 855 900857 -144 0
42 2 S112 853 901710 709 0
42 2 S112 825 902535 1534 0
42 2 S112 863 903398 2397 0
42 2 S112 854 904252 3251 0
42 2 S112 840 905092 4091 0
42 2 S112 834 905926 4925 0
42 2 S112 851 906777 5776 0
42 2 S112 880 907657 6656 0
0 0 0 855 908512 -9481 0
0 0 0 860 909372 -8621 0
0 0 0 891 910263 -7730 0
0 0 0 883 911146 -6847 0
0 0 0 795 911941 -6052 0
0 0 0 796 912737 -5256 0
0 0 0 757 913494 -4499 0
0 0 0 692 914186 -3807 0
0 0 0 684 914870 -3123 0
0 0 0 696 915566 -2427 0
43 1 S116 691 916257 -1736 0
43 1 S116 711 916968 -1025 0
43 1 S116 732 917700 -293 0
43 2 S116 747 918447 454 0
43 2 S116 737 919184 1191 0
43 2 S116 759 919943 1950 0
43 2 S116 776 920719 2726 0
43 2 S116 805 921524 3531 0
43 2 S116 766 922290 4297 0
43 2 S116 776 923066 5073 0
43 2 S116 801 923867 5874 0
43 2 S116 822 924689 6696 0
0 0 0 781 925470 -7344 0
0 0 0 806 926276 -6538 0
0 0 0 827 927103 -5711 0
0 0 0 831 927934 -4880 0
0 0 0 774 928708 -4106 0
0 0 0 791 929499 -3315 0
0 0 0 796 930295 -2519 0
44 1 S102 788 931083 -1731 0
44 1 S102 756 931839 -975 0
44 1 S102 781 932620 -194 0
44 2 S102 830 933450 636 0
44 2 S102 848 934298 1484 0
44 2 S102 798 935096 2282 0
44 2 S102 829 935925 3111 0
44 2 S102 844 936769 3955 0
44 2 S102 836 937605 4791 0
44 2 S102 804 938409 5595 0
44 2 S102 847 939256 6442 0
0 0 0 864 940120 -8394 0
0 0 0 857 940977 -7537 0
0 0 0 852 941829 -6685 0
0 0 0 887 942716 -5798 0
0 0 0 901 943617 -4897 0
0 0 0 845 944462 -4052 0
0 0 0 873 945335 -3179 0
0 0 0 868 946203 -2311 0
45 1 S116 841 947044 -1470 0
45 1 S116 815 947859 -655 0
45 2 S116 839 948698 184 0
45 2 S116 873 949571 1057 0
45 2 S116 871 950442 1928 0
45 2 S116 834 951276 2762 0
45 2 S116 879 952155 3641 0
45 2 S116 892 953047 4533 0
45 2 S116 842 953889 5375 0
45 2 S116 825 954714 6200 0
0 0 0 830 955544 -12367 0
0 0 0 832 956376 -11535 0
0 0 0 803 957179 -10732 0
0 0 0 808 957987 -9924 0
0 0 0 830 958817 -9094 0
0 0 0 839 959656 -8255 0
0 0 0 766 960422 -7489 0
0 0 0 770 961192 -6719 0
0 0 0 725 961917 -5994 0
0 0 0 672 962589 -5322 0
0 0 0 674 963263 -4648 0
0 0 0 690 963953 -3958 0
0 0 0 713 964666 -3245 0
0 0 0 766 965432 -2479 0
46 1 S102 807 966239 -1672 0
46 1 S102 806 967045 -866 0
46 1 S102 782 967827 -84 0
46 2 S102 806 968633 722 0
46 2 S102 823 969456 1545 0
46 2 S102 808 970264 2353 0
46 2 S102 786 971050 3139 0
46 2 S102 819 971869 3958 0
46 2 S102 839 972708 4797 0
46 2 S102 830 973538 5627 0
46 2 S102 806 974344 6433 0
0 0 0 835 975179 -10222 0
0 0 0 862 976041 -9360 0
0 0 0 844 976885 -8516 0
0 0 0 805 977690 -7711 0
0 0 0 841 978531 -6870 0
0 0 0 845 979376 -6025 0
0 0 0 796 980172 -5229 0
0 0 0 782 980954 -4447 0
0 0 0 814 981768 -3633 0
0 0 0 852 982620 -2781 0
47 1 S112 841 983461 -1940 0
47 1 S112 830 984291 -1110 0
47 1 S112 848 985139 -262 0
47 2 S112 874 986013 612 0
47 2 S112 858 986871 1470 0
47 2 S112 824 987695 2294 0
47 2 S112 840 988535 3134 0
47 2 S112 865 989400 3999 0
47 2 S112 839 990239 4838 0
47 2 S112 803 991042 5641 0
47 2 S112 836 991878 6477 0
0 0 0 851 992729 -10825 0
0 0 0 808 993537 -10017 0
0 0 0 808 994345 -9209 0
0 0 0 818 995163 -8391 0
0 0 0 815 995978 -7576 0
0 0 0 776 996754 -6800 0
0 0 0 807 997561 -5993 0
0 0 0 823 998384 -5170 0
0 0 0 842 999226 -4328 0
0 0 0 810 1000036 -3518 0
0 0 0 828 1000864 -2690 0
48 1 S116 831 1001695 -1859 0
48 1 S116 848 1002543 -1011 0
48 1 S116 830 1003373 -181 0
48 2 S116 862 1004235 681 0
48 2 S116 860 1005095 1541 0
48 2 S116 863 1005958 2404 0
48 2 S116 825 1006783 3229 0
48 2 S116 841 1007624 4070 0
48 2 S116 848 1008472 4918 0
48 2 S116 859 1009331 5777 0
48 2 S116 833 1010164 6610 0
0 0 0 860 1011024 -6804 0
0 0 0 909 1011933 -5895 0
0 0 0 886 1012819 -5009 0
0 0 0 827 1013646 -4182 0
0 0 0 846 1014492 -3336 0
0 0 0 845 1015337 -2491 0
49 1 S112 831 1016168 -1660 0
49 1 S112 806 1016974 -854 0
49 1 S112 810 1017784 -44 0
49 2 S112 809 1018593 765 0
49 2 S112 790 1019383 1555 0
49 2 S112 745 1020128 2300 0
49 2 S112 778 1020906 3078 0
49 2 S112 817 1021723 3895 0
49 2 S112 854 1022577 4749 0
49 2 S112 813 1023390 5562 0
49 2 S112 860 1024250 6422 0
0 0 0 896 1025146 -11151 0
0 0 0 860 1026006 -10291 0
0 0 0 837 1026843 -9454 0
0 0 0 830 1027673 -8624 0
0 0 0 763 1028436 -7861 0
0 0 0 726 1029162 -7135 0
0 0 0 692 1029854 -6443 0
0 0 0 691 1030545 -5752 0
0 0 0 710 1031255 -5042 0
0 0 0 705 1031960 -4337 0
0 0 0 712 1032672 -3625 0
0 0 0 751 1033423 -2874 0
0 0 0 814 1034237 -2060 0
50 1 S106 841 1035078 -1219 0
50 1 S106 851 1035929 -368 0
50 2 S106 899 1036828 531 0
50 2 S106 908 1037736 1439 0
50 2 S106 876 1038612 2315 0
50 2 S106 844 1039456 3159 0
50 2 S106 839 1040295 3998 0
50 2 S106 835 1041130 4833 0
50 2 S106 827 1041957 5660 0
50 2 S106 833 1042790 6493 0
0 0 0 847 1043637 -7282 0
0 0 0 870 1044507 -6412 0
0 0 0 816 1045323 -5596 0
0 0 0 827 1046150 -4769 0
0 0 0 834 1046984 -3935 0
0 0 0 830 1047814 -3105 0
0 0 0 801 1048615 -2304 0
51 1 S112 834 1049449 -1470 0
51 1 S112 858 1050307 -612 0
51 2 S112 870 1051177 258 0
51 2 S112 848 1052025 1106 0
51 2 S112 870 1052895 1976 0
51 2 S112 862 1053757 2838 0
51 2 S112 831 1054588 3669 0
51 2 S112 826 1055414 4495 0
51 2 S112 840 1056254 5335 0
51 2 S112 842 1057096 6177 0
51 2 S112 800 1057896 6977 0
0 0 0 839 1058735 -7436 0
0 0 0 861 1059596 -6575 0
0 0 0 845 1060441 -5730 0
0 0 0 811 1061252 -4919 0
0 0 0 821 1062073 -4098 0
0 0 0 838 1062911 -3260 0
0 0 0 801 1063712 -2459 0
52 1 S116 811 1064523 -1648 0
52 1 S116 819 1065342 -829 0
52 2 S116 830 1066172 1 0
52 2 S116 802 1066974 803 0
52 2 S116 834 1067808 1637 0
52 2 S116 856 1068664 2493 0
52 2 S116 846 1069510 3339 0
52 2 S116 823 1070333 4162 0
52 2 S116 859 1071192 5021 0
52 2 S116 855 1072047 5876 0
52 2 S116 809 1072856 6685 0
0 0 0 824 1073680 -8937 0
0 0 0 846 1074526 -8091 0
0 0 0 826 1075352 -7265 0
0 0 0 768 1076120 -6497 0
0 0 0 786 1076906 -5711 0
0 0 0 787 1077693 -4924 0
0 0 0 765 1078458 -4159 0
0 0 0 768 1079226 -3391 0
0 0 0 778 1080004 -2613 0
53 1 S106 788 1080792 -1825 0
53 1 S106 764 1081556 -1061 0
53 1 S106 768 1082324 -293 0
53 2 S106 791 1083115 498 0
53 2 S106 835 1083950 1333 0
53 2 S106 811 1084761 2144 0
53 2 S106 809 1085570 2953 0
53 2 S106 831 1086401 3784 0
53 2 S106 839 1087240 4623 0
53 2 S106 814 1088054 5437 0
53 2 S106 817 1088871 6254 0
0 0 0 832 1089703 -8580 0
0 0 0 851 1090554 -7729 0
0 0 0 814 1091368 -6915 0
0 0 0 820 1092188 -6095 0
0 0 0 842 1093030 -5253 0
0 0 0 857 1093887 -4396 0
0 0 0 787 1094674 -3609 0
0 0 0 796 1095470 -2813 0
0 0 0 749 1096219 -2064 0
54 1 S102 697 1096916 -1367 0
54 1 S102 734 1097650 -633 0
54 2 S102 746 1098396 113 0
54 2 S102 755 1099151 868 0
54 2 S102 796 1099947 1664 0
54 2 S102 816 1100763 2480 0
54 2 S102 767 1101530 3247 0
54 2 S102 772 1102302 4019 0
54 2 S102 789 1103091 4808 0
54 2 S102 821 1103912 5629 0
54 2 S102 777 1104689 6406 0
0 0 0 815 1105504 -11728 0
0 0 0 836 1106340 -10892 0
0 0 0 878 1107218 -10014 0
0 0 0 851 1108069 -9163 0
0 0 0 868 1108937 -8295 0
0 0 0 852 1109789 -7443 0
0 0 0 807 1110596 -6636 0
0 0 0 776 1111372 -5860 0
0 0 0 760 1112132 -5100 0
0 0 0 765 1112897 -4335 0
0 0 0 764 1113661 -3571 0
0 0 0 781 1114442 -2790 0
55 1 S106 824 1115266 -1966 0
55 1 S106 844 1116110 -1122 0
55 1 S106 809 1116919 -313 0
55 2 S106 836 1117755 523 0
55 2 S106 859 1118614 1382 0
55 2 S106 855 1119469 2237 0
55 2 S106 803 1120272 3040 0
55 2 S106 817 1121089 3857 0
55 2 S106 822 1121911 4679 0
55 2 S106 824 1122735 5503 0
55 2 S106 781 1123516 6284 0
0 0 0 804 1124320 -8264 0
0 0 0 834 1125154 -7430 0
0 0 0 854 1126008 -6576 0
0 0 0 814 1126822 -5762 0
0 0 0 844 1127666 -4918 0
0 0 0 848 1128514 -4070 0
0 0 0 810 1129324 -3260 0
0 0 0 771 1130095 -2489 0
56 1 S116 782 1130877 -1707 0
56 1 S116 769 1131646 -938 0
56 1 S116 752 1132398 -186 0
56 2 S116 736 1133134 550 0
56 2 S116 774 1133908 1324 0
56 2 S116 833 1134741 2157 0
56 2 S116 828 1135569 2985 0
56 2 S116 805 1136374 3790 0
56 2 S116 821 1137195 4611 0
56 2 S116 837 1138032 5448 0
56 2 S116 826 1138858 6274 0
0 0 0 829 1139687 -7768 0
0 0 0 849 1140536 -6919 0
0 0 0 866 1141402 -6053 0
0 0 0 829 1142231 -5224 0
0 0 0 832 1143063 -4392 0
0 0 0 807 1143870 -3585 0
0 0 0 805 1144675 -2780 0
57 1 S106 787 1145462 -1993 0
57 1 S106 818 1146280 -1175 0
57 1 S106 843 1147123 -332 0
57 2 S106 841 1147964 509 0
57 2 S106 828 1148792 1337 0
57 2 S106 846 1149638 2183 0
57 2 S106 847 1150485 3030 0
57 2 S106 834 1151319 3864 0
57 2 S106 832 1152151 4696 0
57 2 S106 840 1152991 5536 0
57 2 S106 856 1153847 6392 0
0 0 0 812 1154659 -8280 0
0 0 0 823 1155482 -7457 0
0 0 0 844 1156326 -6613 0
0 0 0 845 1157171 -5768 0
0 0 0 815 1157986 -4953 0
0 0 0 835 1158821 -4118 0
0 0 0 852 1159673 -3266 0
0 0 0 849 1160522 -2417 0
58 1 S102 823 1161345 -1594 0
58 1 S102 843 1162188 -751 0
58 2 S102 840 1163028 89 0
58 2 S102 844 1163872 933 0
58 2 S102 833 1164705 1766 0
58 2 S102 838 1165543 2604 0
58 2 S102 836 1166379 3440 0
58 2 S102 798 1167177 4238 0
58 2 S102 802 1167979 5040 0
58 2 S102 798 1168777 5838 0
58 2 S102 805 1169582 6643 0
0 0 0 782 1170364 -7462 0
0 0 0 817 1171181 -6645 0
0 0 0 829 1172010 -5816 0
0 0 0 838 1172848 -4978 0
0 0 0 776 1173624 -4202 0
0 0 0 792 1174416 -3410 0
0 0 0 801 1175217 -2609 0
59 1 S112 777 1175994 -1832 0
59 1 S112 740 1176734 -1092 0
59 1 S112 755 1177489 -337 0
59 2 S112 765 1178254 428 0
59 2 S112 755 1179009 1183 0
59 2 S112 742 1179751 1925 0
59 2 S112 763 1180514 2688 0
59 2 S112 799 1181313 3487 0
59 2 S112 801 1182114 4288 0
59 2 S112 775 1182889 5063 0
59 2 S112 817 1183706 5880 0
59 2 S112 837 1184543 6717 0
0 0 0 811 1185354 -9896 0
0 0 0 827 1186181 -9069 0
0 0 0 833 1187014 -8236 0
0 0 0 865 1187879 -7371 0
0 0 0 816 1188695 -6555 0
0 0 0 804 1189499 -5751 0
0 0 0 800 1190299 -4951 0
0 0 0 800 1191099 -4151 0
0 0 0 759 1191858 -3392 0
0 0 0 774 1192632 -2618 0
60 1 S102 775 1193407 -1843 0
60 1 S102 790 1194197 -1053 0
60 1 S102 783 1194980 -270 0
60 2 S102 831 1195811 561 0
60 2 S102 885 1196696 1446 0
60 2 S102 872 1197568 2318 0
60 2 S102 846 1198414 3164 0
60 2 S102 857 1199271 4021 0
60 2 S102 858 1200129 4879 0
60 2 S102 820 1200949 5699 0
60 2 S102 811 1201760 6510 0
0 0 0 810 1202570 -11580 0
0 0 0 806 1203376 -10774 0
0 0 0 780 1204156 -9994 0
0 0 0 782 1204938 -9212 0
0 0 0 798 1205736 -8414 0
0 0 0 810 1206546 -7604 0
0 0 0 762 1207308 -6842 0
0 0 0 784 1208092 -6058 0
0 0 0 786 1208878 -5272 0
0 0 0 809 1209687 -4463 0
0 0 0 798 1210485 -3665 0
0 0 0 835 1211320 -2830 0
61 1 S106 859 1212179 -1971 0
61 1 S106 869 1213048 -1102 0
61 1 S106 830 1213878 -272 0
61 2 S106 859 1214737 587 0
61 2 S106 868 1215605 1455 0
61 2 S106 864 1216469 2319 0
61 2 S106 834 1217303 3153 0
61 2 S106 853 1218156 4006 0
61 2 S106 857 1219013 4863 0
61 2 S106 862 1219875 5725 0
61 2 S106 826 1220701 6551 0
0 0 0 852 1221553 -9125 0
0 0 0 865 1222418 -8260 0
0 0 0 876 1223294 -7384 0
0 0 0 828 1224122 -6556 0
0 0 0 863 1224985 -5693 0
0 0 0 904 1225889 -4789 0
0 0 0 859 1226748 -3930 0
0 0 0 823 1227571 -3107 0
0 0 0 823 1228394 -2284 0
62 1 S112 814 1229208 -1470 0
62 1 S112 763 1229971 -707 0
62 2 S112 773 1230744 66 0
62 2 S112 798 1231542 864 0
62 2 S112 846 1232388 1710 0
62 2 S112 816 1233204 2526 0
62 2 S112 858 1234062 3384 0
62 2 S112 884 1234946 4268 0
62 2 S112 857 1235803 5125 0
62 2 S112 820 1236623 5945 0
62 2 S112 838 1237461 6783 0
0 0 0 828 1238289 -11206 0
0 0 0 825 1239114 -10381 0
0 0 0 770 1239884 -9611 0
0 0 0 757 1240641 -8854 0
0 0 0 745 1241386 -8109 0
0 0 0 740 1242126 -7369 0
0 0 0 725 1242851 -6644 0
0 0 0 734 1243585 -5910 0
0 0 0 771 1244356 -5139 0
0 0 0 806 1245162 -4333 0
0 0 0 796 1245958 -3537 0
0 0 0 774 1246732 -2763 0
63 1 S102 813 1247545 -1950 0
63 1 S102 835 1248380 -1115 0
63 1 S102 817 1249197 -298 0
63 2 S102 790 1249987 492 0
63 2 S102 824 1250811 1316 0
63 2 S102 853 1251664 2169 0
63 2 S102 850 1252514 3019 0
63 2 S102 821 1253335 3840 0
63 2 S102 849 1254184 4689 0
63 2 S102 863 1255047 5552 0
63 2 S102 842 1255889 6394 0
0 0 0 819 1256708 -9730 0
0 0 0 852 1257560 -8878 0
0 0 0 866 1258426 -8012 0
0 0 0 830 1259256 -7182 0
0 0 0 818 1260074 -6364 0
0 0 0 816 1260890 -5548 0
0 0 0 836 1261726 -4712 0
0 0 0 791 1262517 -3921 0
0 0 0 814 1263331 -3107 0
0 0 0 827 1264158 -2280 0
64 1 S112 838 1264996 -1442 0
64 1 S112 822 1265818 -620 0
64 2 S112 846 1266664 226 0
64 2 S112 856 1267520 1082 0
64 2 S112 840 1268360 1922 0
64 2 S112 798 1269158 2720 0
64 2 S112 838 1269996 3558 0
64 2 S112 847 1270843 4405 0
64 2 S112 825 1271668 5230 0
64 2 S112 805 1272473 6035 0
64 2 S112 824 1273297 6859 0
0 0 0 854 1274151 -7456 0
0 0 0 850 1275001 -6606 0
0 0 0 815 1275816 -5791 0
0 0 0 831 1276647 -4960 0
0 0 0 823 1277470 -4137 0
0 0 0 741 1278211 -3396 0
0 0 0 713 1278924 -2683 0
65 1 S106 726 1279650 -1957 0
65 1 S106 713 1280363 -1244 0
65 1 S106 687 1281050 -557 0
65 2 S106 663 1281713 106 0
65 2 S106 708 1282421 814 0
65 2 S106 766 1283187 1580 0
65 2 S106 807 1283994 2387 0
65 2 S106 773 1284767 3160 0
65 2 S106 765 1285532 3925 0
65 2 S106 767 1286299 4692 0
65 2 S106 760 1287059 5452 0
65 2 S106 729 1287788 6181 0
65 2 S106 744 1288532 6925 0
0 0 0 777 1289309 -7119 0
0 0 0 817 1290126 -6302 0
0 0 0 809 1290935 -5493 0
0 0 0 816 1291751 -4677 0
0 0 0 818 1292569 -3859 0
0 0 0 820 1293389 -3039 0
0 0 0 778 1294167 -2261 0
66 1 S116 778 1294945 -1483 0
66 1 S116 765 1295710 -718 0
66 2 S116 777 1296487 59 0
66 2 S116 774 1297261 833 0
66 2 S116 818 1298079 1651 0
66 2 S116 867 1298946 2518 0
66 2 S116 823 1299769 3341 0
66 2 S116 825 1300594 4166 0
66 2 S116 845 1301439 5011 0
66 2 S116 841 1302280 5852 0
66 2 S116 796 1303076 6648 0
0 0 0 808 1303884 -11344 0
0 0 0 823 1304707 -10521 0
0 0 0 797 1305504 -9724 0
0 0 0 754 1306258 -8970 0
0 0 0 754 1307012 -8216 0
0 0 0 769 1307781 -7447 0
0 0 0 779 1308560 -6668 0
0 0 0 759 1309319 -5909 0
0 0 0 788 1310107 -5121 0
0 0 0 801 1310908 -4320 0
0 0 0 804 1311712 -3516 0
0 0 0 789 1312501 -2727 0
67 1 S102 810 1313311 -1917 0
67 1 S102 823 1314134 -1094 0
67 1 S102 795 1314929 -299 0
67 2 S102 776 1315705 477 0
67 2 S102 801 1316506 1278 0
67 2 S102 839 1317345 2117 0
67 2 S102 817 1318162 2934 0
67 2 S102 851 1319013 3785 0
67 2 S102 870 1319883 4655 0
67 2 S102 874 1320757 5529 0
67 2 S102 844 1321601 6373 0
0 0 0 861 1322462 -7156 0
0 0 0 864 1323326 -6292 0
0 0 0 858 1324184 -5434 0
0 0 0 806 1324990 -4628 0
0 0 0 806 1325796 -3822 0
0 0 0 810 1326606 -3012 0
0 0 0 801 1327407 -2211 0
68 1 S106 778 1328185 -1433 0
68 1 S106 805 1328990 -628 0
68 2 S106 822 1329812 194 0
68 2 S106 841 1330653 1035 0
68 2 S106 858 1331511 1893 0
68 2 S106 830 1332341 2723 0
68 2 S106 862 1333203 3585 0
68 2 S106 876 1334079 4461 0
68 2 S106 849 1334928 5310 0
68 2 S106 826 1335754 6136 0
68 2 S106 845 1336599 6981 0
0 0 0 850 1337449 -12262 0
0 0 0 835 1338284 -11427 0
0 0 0 802 1339086 -10625 0
0 0 0 838 1339924 -9787 0
0 0 0 870 1340794 -8917 0
0 0 0 843 1341637 -8074 0
0 0 0 814 1342451 -7260 0
0 0 0 839 1343290 -6421 0
0 0 0 861 1344151 -5560 0
0 0 0 838 1344989 -4722 0
0 0 0 813 1345802 -3909 0
0 0 0 823 1346625 -3086 0
0 0 0 831 1347456 -2255 0
69 1 S102 807 1348263 -1448 0
69 1 S102 803 1349066 -645 0
69 2 S102 828 1349894 183 0
69 2 S102 842 1350736 1025 0
69 2 S102 815 1351551 1840 0
69 2 S102 817 1352368 2657 0
69 2 S102 803 1353171 3460 0
69 2 S102 808 1353979 4268 0
69 2 S102 775 1354754 5043 0
69 2 S102 796 1355550 5839 0
69 2 S102 777 1356327 6616 0
0 0 0 733 1357060 -9578 0
0 0 0 736 1357796 -8842 0
0 0 0 731 1358527 -8111 0
0 0 0 727 1359254 -7384 0
0 0 0 724 1359978 -6660 0
0 0 0 688 1360666 -5972 0
0 0 0 704 1361370 -5268 0
0 0 0 763 1362133 -4505 0
0 0 0 796 1362929 -3709 0
0 0 0 754 1363683 -2955 0
0 0 0 749 1364432 -2206 0
70 1 S112 721 1365153 -1485 0
70 1 S112 712 1365865 -773 0
70 1 S112 701 1366566 -72 0
70 2 S112 695 1367261 623 0
70 2 S112 680 1367941 1303 0
70 2 S112 682 1368623 1985 0
70 2 S112 687 1369310 2672 0
70 2 S112 690 1370000 3362 0
70 2 S112 675 1370675 4037 0
70 2 S112 719 1371394 4756 0
70 2 S112 768 1372162 5524 0
70 2 S112 805 1372967 6329 0
0 0 0 799 1373766 -11456 0
0 0 0 861 1374627 -10595 0
0 0 0 920 1375547 -9675 0
0 0 0 862 1376409 -8813 0
0 0 0 768 1377177 -8045 0
0 0 0 692 1377869 -7353 0
0 0 0 698 1378567 -6655 0
0 0 0 664 1379231 -5991 0
0 0 0 700 1379931 -5291 0
0 0 0 717 1380648 -4574 0
0 0 0 738 1381386 -3836 0
0 0 0 740 1382126 -3096 0
0 0 0 744 1382870 -2352 0
71 1 S116 713 1383583 -1639 0
71 1 S116 728 1384311 -911 0
71 1 S116 747 1385058 -164 0
71 2 S116 777 1385835 613 0
71 2 S116 808 1386643 1421 0
71 2 S116 780 1387423 2201 0
71 2 S116 822 1388245 3023 0
71 2 S116 855 1389100 3878 0
71 2 S116 847 1389947 4725 0
71 2 S116 854 1390801 5579 0
71 2 S116 855 1391656 6434 0
0 0 0 839 1392495 -9604 0
0 0 0 862 1393357 -8742 0
0 0 0 887 1394244 -7855 0
0 0 0 875 1395119 -6980 0
0 0 0 832 1395951 -6148 0
0 0 0 838 1396789 -5310 0
0 0 0 840 1397629 -4470 0
0 0 0 852 1398481 -3618 0
0 0 0 828 1399309 -2790 0
72 1 S102 796 1400105 -1994 0
72 1 S102 743 1400848 -1251 0
72 1 S102 705 1401553 -546 0
72 2 S102 753 1402306 207 0
72 2 S102 758 1403064 965 0
72 2 S102 763 1403827 1728 0
72 2 S102 731 1404558 2459 0
72 2 S102 690 1405248 3149 0
72 2 S102 711 1405959 3860 0
72 2 S102 686 1406645 4546 0
72 2 S102 707 1407352 5253 0
72 2 S102 708 1408060 5961 0
72 2 S102 731 1408791 6692 0
0 0 0 773 1409564 -6942 0
0 0 0 794 1410358 -6148 0
0 0 0 806 1411164 -5342 0
0 0 0 767 1411931 -4575 0
0 0 0 722 1412653 -3853 0
0 0 0 705 1413358 -3148 0
0 0 0 686 1414044 -2462 0
73 1 S116 665 1414709 -1797 0
73 1 S116 710 1415419 -1087 0
73 1 S116 733 1416152 -354 0
73 2 S116 757 1416909 403 0
73 2 S116 812 1417721 1215 0
73 2 S116 816 1418537 2031 0
73 2 S116 863 1419400 2894 0
73 2 S116 872 1420272 3766 0
73 2 S116 833 1421105 4599 0
73 2 S116 844 1421949 5443 0
73 2 S116 822 1422771 6265 0
0 0 0 785 1423556 -10009 0
0 0 0 787 1424343 -9222 0
0 0 0 772 1425115 -8450 0
0 0 0 782 1425897 -7668 0
0 0 0 761 1426658 -6907 0
0 0 0 770 1427428 -6137 0
0 0 0 787 1428215 -5350 0
0 0 0 825 1429040 -4525 0
0 0 0 807 1429847 -3718 0
0 0 0 845 1430692 -2873 0
0 0 0 842 1431534 -2031 0
74 1 S106 839 1432373 -1192 0
74 1 S106 803 1433176 -389 0
74 2 S106 821 1433997 432 0
74 2 S106 830 1434827 1262 0
74 2 S106 836 1435663 2098 0
74 2 S106 795 1436458 2893 0
74 2 S106 813 1437271 3706 0
74 2 S106 822 1438093 4528 0
74 2 S106 818 1438911 5346 0
74 2 S106 798 1439709 6144 0
74 2 S106 820 1440529 6964 0
0 0 0 840 1441369 -6171 0
0 0 0 853 1442222 -5318 0
0 0 0 841 1443063 -4477 0
0 0 0 838 1443901 -3639 0
0 0 0 843 1444744 -2796 0
75 1 S112 810 1445554 -1986 0
75 1 S112 817 1446371 -1169 0
75 1 S112 825 1447196 -344 0
75 2 S112 826 1448022 482 0
75 2 S112 792 1448814 1274 0
75 2 S112 818 1449632 2092 0
75 2 S112 825 1450457 2917 0
75 2 S112 786 1451243 3703 0
75 2 S112 782 1452025 4485 0
75 2 S112 779 1452804 5264 0
75 2 S112 781 1453585 6045 0
75 2 S112 750 1454335 6795 0
0 0 0 781 1455116 -7693 0
0 0 0 801 1455917 -6892 0
0 0 0 788 1456705 -6104 0
0 0 0 741 1457446 -5363 0
0 0 0 741 1458187 -4622 0
0 0 0 750 1458937 -3872 0
0 0 0 779 1459716 -3093 0
0 0 0 756 1460472 -2337 0
76 1 S116 770 1461242 -1567 0
76 1 S116 783 1462025 -784 0
76 1 S116 774 1462799 -10 0
76 2 S116 743 1463542 733 0
76 2 S116 786 1464328 1519 0
76 2 S116 817 1465145 2336 0
76 2 S116 836 1465981 3172 0
76 2 S116 803 1466784 3975 0
76 2 S116 824 1467608 4799 0
76 2 S116 820 1468428 5619 0
76 2 S116 803 1469231 6422 0
0 0 0 789 1470020 -7428 0
0 0 0 824 1470844 -6604 0
0 0 0 832 1471676 -5772 0
0 0 0 806 1472482 -4966 0
0 0 0 780 1473262 -4186 0
0 0 0 756 1474018 -3430 0
0 0 0 706 1474724 -2724 0
0 0 0 683 1475407 -2041 0
77 1 S106 683 1476090 -1358 0
77 1 S106 673 1476763 -685 0
77 2 S106 704 1477467 19 0
77 2 S106 726 1478193 745 0
77 2 S106 762 1478955 1507 0
77 2 S106 746 1479701 2253 0
77 2 S106 771 1480472 3024 0
77 2 S106 788 1481260 3812 0
77 2 S106 804 1482064 4616 0
77 2 S106 769 1482833 5385 0
77 2 S106 779 1483612 6164 0
77 2 S106 778 1484390 6942 0
0 0 0 784 1485174 -9979 0
0 0 0 759 1485933 -9220 0
0 0 0 764 1486697 -8456 0
0 0 0 786 1487483 -7670 0
0 0 0 816 1488299 -6854 0
0 0 0 763 1489062 -6091 0
0 0 0 777 1489839 -5314 0
0 0 0 779 1490618 -4535 0
0 0 0 780 1491398 -3755 0
0 0 0 746 1492144 -3009 0
0 0 0 754 1492898 -2255 0
78 1 S112 775 1493673 -1480 0
78 1 S112 758 1494431 -722 0
78 2 S112 733 1495164 11 0
78 2 S112 765 1495929 776 0
78 2 S112 819 1496748 1595 0
78 2 S112 830 1497578 2425 0
78 2 S112 814 1498392 3239 0
78 2 S112 826 1499218 4065 0
78 2 S112 835 1500053 4900 0
78 2 S112 829 1500882 5729 0
78 2 S112 790 1501672 6519 0
0 0 0 778 1502450 -11321 0
0 0 0 780 1503230 -10541 0
0 0 0 779 1504009 -9762 0
0 0 0 751 1504760 -9011 0
0 0 0 753 1505513 -8258 0
0 0 0 798 1506311 -7460 0
0 0 0 799 1507110 -6661 0
0 0 0 779 1507889 -5882 0
0 0 0 791 1508680 -5091 0
0 0 0 788 1509468 -4303 0
0 0 0 751 1510219 -3552 0
0 0 0 745 1510964 -2807 0
0 0 0 758 1511722 -2049 0
79 1 S102 774 1512496 -1275 0
79 1 S102 776 1513272 -499 0
79 2 S102 765 1514037 266 0
79 2 S102 781 1514818 1047 0
79 2 S102 795 1515613 1842 0
79 2 S102 803 1516416 2645 0
79 2 S102 780 1517196 3425 0
79 2 S102 806 1518002 4231 0
79 2 S102 826 1518828 5057 0
79 2 S102 851 1519679 5908 0
79 2 S102 843 1520522 6751 0
0 0 0 855 1521377 -9437 0
0 0 0 889 1522266 -8548 0
0 0 0 872 1523138 -7676 0
0 0 0 820 1523958 -6856 0
0 0 0 826 1524784 -6030 0
0 0 0 822 1525606 -5208 0
0 0 0 803 1526409 -4405 0
0 0 0 777 1527186 -3628 0
0 0 0 793 1527979 -2835 0
0 0 0 828 1528807 -2007 0
80 1 S116 818 1529625 -1189 0
80 1 S116 803 1530428 -386 0
80 2 S116 832 1531260 446 0
80 2 S116 853 1532113 1299 0
80 2 S116 839 1532952 2138 0
80 2 S116 806 1533758 2944 0
80 2 S116 819 1534577 3763 0
80 2 S116 813 1535390 4576 0
80 2 S116 787 1536177 5363 0
80 2 S116 786 1536963 6149 0
80 2 S116 790 1537753 6939 0
