T_0002
BeatCount Mean SD BeatCountNoOutliers MeanNoOutliers SDNoOutliers
1929 813,882840850181 76,9751317888906 1909 815,945521215296 74,090617011497

Trial TrialStatus Trialtype IBI AbsPosition RelPosition Outlier
0 0 0 904 1753 -14842 0
0 0 0 862 2615 -13980 0
0 0 0 814 3429 -13166 0
0 0 0 784 4213 -12382 0
0 0 0 777 4990 -11605 0
0 0 0 792 5782 -10813 0
0 0 0 826 6608 -9987 0
0 0 0 820 7428 -9167 0
0 0 0 828 8256 -8339 0
0 0 0 874 9130 -7465 0
0 0 0 899 10029 -6566 0
0 0 0 861 10890 -5705 0
0 0 0 824 11714 -4881 0
0 0 0 774 12488 -4107 0
0 0 0 742 13230 -3365 0
0 0 0 737 13967 -2628 0
1 1 S112 755 14722 -1873 0
1 1 S112 835 15557 -1038 0
1 1 S112 895 16452 -143 0
1 2 S112 872 17324 729 0
1 2 S112 857 18181 1586 0
1 2 S112 855 19036 2441 0
1 2 S112 879 19915 3320 0
1 2 S112 866 20781 4186 0
1 2 S112 852 21633 5038 0
1 2 S112 807 22440 5845 0
1 2 S112 764 23204 6609 0
0 0 0 769 23973 -12599 0
0 0 0 859 24832 -11740 0
0 0 0 922 25754 -10818 0
0 0 0 899 26653 -9919 0
0 0 0 820 27473 -9099 0
0 0 0 821 28294 -8278 0
0 0 0 827 29121 -7451 0
0 0 0 776 29897 -6675 0
0 0 0 708 30605 -5967 0
0 0 0 682 31287 -5285 0
0 0 0 683 31970 -4602 0
0 0 0 713 32683 -3889 0
0 0 0 812 33495 -3077 0
0 0 0 907 34402 -2170 0
2 1 S102 917 35319 -1253 0
2 1 S102 879 36198 -374 0
2 2 S102 808 37006 434 0
2 2 S102 768 37774 1202 0
2 2 S102 762 38536 1964 0
2 2 S102 799 39335 2763 0
2 2 S102 852 40187 3615 0
2 2 S102 904 41091 4519 0
2 2 S102 892 41983 5411 0
2 2 S102 850 42833 6261 0
0 0 0 807 43640 -10025 0
0 0 0 826 44466 -9199 0
0 0 0 849 45315 -8350 0
0 0 0 908 46223 -7442 0
0 0 0 880 47103 -6562 0
0 0 0 843 47946 -5719 0
0 0 0 860 48806 -4859 0
0 0 0 902 49708 -3957 0
0 0 0 898 50606 -3059 0
0 0 0 855 51461 -2204 0
3 1 S116 804 52265 -1400 0
3 1 S116 775 53040 -625 0
3 2 S116 778 53818 153 0
3 2 S116 835 54653 988 0
3 2 S116 919 55572 1907 0
3 2 S116 941 56513 2848 0
3 2 S116 900 57413 3748 0
3 2 S116 857 58270 4605 0
3 2 S116 878 59148 5483 0
3 2 S116 900 60048 6383 0
0 0 0 883 60931 -11567 0
0 0 0 853 61784 -10714 0
0 0 0 787 62571 -9927 0
0 0 0 802 63373 -9125 0
0 0 0 823 64196 -8302 0
0 0 0 876 65072 -7426 0
0 0 0 899 65971 -6527 0
0 0 0 876 66847 -5651 0
0 0 0 804 67651 -4847 0
0 0 0 805 68456 -4042 0
0 0 0 828 69284 -3214 0
0 0 0 886 70170 -2328 0
4 1 S106 917 71087 -1411 0
4 1 S106 903 71990 -508 0
4 2 S106 817 72807 309 0
4 2 S106 778 73585 1087 0
4 2 S106 798 74383 1885 0
4 2 S106 857 75240 2742 0
4 2 S106 929 76169 3671 0
4 2 S106 911 77080 4582 0
4 2 S106 866 77946 5448 0
4 2 S106 813 78759 6261 0
0 0 0 809 79568 -6690 0
0 0 0 837 80405 -5853 0
0 0 0 912 81317 -4941 0
0 0 0 922 82239 -4019 0
0 0 0 880 83119 -3139 0
0 0 0 821 83940 -2318 0
5 1 S116 784 84724 -1534 0
5 1 S116 790 85514 -744 0
5 2 S116 840 86354 96 0
5 2 S116 917 87271 1013 0
5 2 S116 918 88189 1931 0
5 2 S116 879 89068 2810 0
5 2 S116 818 89886 3628 0
5 2 S116 824 90710 4452 0
5 2 S116 857 91567 5309 0
5 2 S116 858 92425 6167 0
5 2 S116 856 93281 7023 0
0 0 0 842 94123 -10205 0
0 0 0 793 94916 -9412 0
0 0 0 751 95667 -8661 0
0 0 0 758 96425 -7903 0
0 0 0 876 97301 -7027 0
0 0 0 947 98248 -6080 0
0 0 0 969 99217 -5111 0
0 0 0 946 100163 -4165 0
0 0 0 859 101022 -3306 0
0 0 0 809 101831 -2497 0
6 1 S106 780 102611 -1717 0
6 1 S106 765 103376 -952 0
6 1 S106 754 104130 -198 0
6 2 S106 744 104874 546 0
6 2 S106 722 105596 1268 0
6 2 S106 717 106313 1985 0
6 2 S106 738 107051 2723 0
6 2 S106 786 107837 3509 0
6 2 S106 835 108672 4344 0
6 2 S106 863 109535 5207 0
6 2 S106 864 110399 6071 0
6 2 S106 839 111238 6910 0
0 0 0 834 112072 -10857 0
0 0 0 856 112928 -10001 0
0 0 0 899 113827 -9102 0
0 0 0 868 114695 -8234 0
0 0 0 811 115506 -7423 0
0 0 0 776 116282 -6647 0
0 0 0 798 117080 -5849 0
0 0 0 853 117933 -4996 0
0 0 0 899 118832 -4097 0
0 0 0 881 119713 -3216 0
0 0 0 849 120562 -2367 0
7 1 S102 793 121355 -1574 0
7 1 S102 783 122138 -791 0
7 2 S102 799 122937 8 0
7 2 S102 823 123760 831 0
7 2 S102 880 124640 1711 0
7 2 S102 862 125502 2573 0
7 2 S102 826 126328 3399 0
7 2 S102 835 127163 4234 0
7 2 S102 845 128008 5079 0
7 2 S102 870 128878 5949 0
7 2 S102 883 129761 6832 0
0 0 0 838 130599 -7765 0
0 0 0 828 131427 -6937 0
0 0 0 832 132259 -6105 0
0 0 0 859 133118 -5246 0
0 0 0 871 133989 -4375 0
0 0 0 826 134815 -3549 0
0 0 0 794 135609 -2755 0
8 1 S112 801 136410 -1954 0
8 1 S112 814 137224 -1140 0
8 1 S112 857 138081 -283 0
8 2 S112 840 138921 557 0
8 2 S112 822 139743 1379 0
8 2 S112 775 140518 2154 0
8 2 S112 772 141290 2926 0
8 2 S112 783 142073 3709 0
8 2 S112 808 142881 4517 0
8 2 S112 808 143689 5325 0
8 2 S112 796 144485 6121 0
8 2 S112 801 145286 6922 0
0 0 0 820 146106 -6698 0
0 0 0 862 146968 -5836 0
0 0 0 818 147786 -5018 0
0 0 0 767 148553 -4251 0
0 0 0 776 149329 -3475 0
0 0 0 795 150124 -2680 0
9 1 S116 823 150947 -1857 0
9 1 S116 829 151776 -1028 0
9 1 S116 793 152569 -235 0
9 2 S116 743 153312 508 0
9 2 S116 739 154051 1247 0
9 2 S116 752 154803 1999 0
9 2 S116 818 155621 2817 0
9 2 S116 856 156477 3673 0
9 2 S116 872 157349 4545 0
9 2 S116 854 158203 5399 0
9 2 S116 812 159015 6211 0
9 2 S116 762 159777 6973 0
0 0 0 783 160560 -12436 0
0 0 0 811 161371 -11625 0
0 0 0 846 162217 -10779 0
0 0 0 820 163037 -9959 0
0 0 0 818 163855 -9141 0
0 0 0 813 164668 -8328 0
0 0 0 813 165481 -7515 0
0 0 0 830 166311 -6685 0
0 0 0 793 167104 -5892 0
0 0 0 730 167834 -5162 0
0 0 0 693 168527 -4469 0
0 0 0 678 169205 -3791 0
0 0 0 702 169907 -3089 0
0 0 0 779 170686 -2310 0
10 1 S102 888 171574 -1422 0
10 1 S102 905 172479 -517 0
10 2 S102 876 173355 359 0
10 2 S102 850 174205 1209 0
10 2 S102 788 174993 1997 0
10 2 S102 779 175772 2776 0
10 2 S102 793 176565 3569 0
10 2 S102 816 177381 4385 0
10 2 S102 839 178220 5224 0
10 2 S102 801 179021 6025 0
10 2 S102 770 179791 6795 0
0 0 0 768 180559 -12083 0
0 0 0 800 181359 -11283 0
0 0 0 859 182218 -10424 0
0 0 0 838 183056 -9586 0
0 0 0 812 183868 -8774 0
0 0 0 821 184689 -7953 0
0 0 0 831 185520 -7122 0
0 0 0 798 186318 -6324 0
0 0 0 760 187078 -5564 0
0 0 0 737 187815 -4827 0
0 0 0 762 188577 -4065 0
0 0 0 819 189396 -3246 0
0 0 0 871 190267 -2375 0
11 1 S112 872 191139 -1503 0
11 1 S112 807 191946 -696 0
11 2 S112 787 192733 91 0
11 2 S112 784 193517 875 0
11 2 S112 825 194342 1700 0
11 2 S112 850 195192 2550 0
11 2 S112 850 196042 3400 0
11 2 S112 836 196878 4236 0
11 2 S112 774 197652 5010 0
11 2 S112 740 198392 5750 0
11 2 S112 767 199159 6517 0
0 0 0 817 199976 -9062 0
0 0 0 915 200891 -8147 0
0 0 0 892 201783 -7255 0
0 0 0 829 202612 -6426 0
0 0 0 863 203475 -5563 0
0 0 0 883 204358 -4680 0
0 0 0 808 205166 -3872 0
0 0 0 729 205895 -3143 0
0 0 0 729 206624 -2414 0
12 1 S116 718 207342 -1696 0
12 1 S116 713 208055 -983 0
12 1 S116 684 208739 -299 0
12 2 S116 658 209397 359 0
12 2 S116 655 210052 1014 0
12 2 S116 669 210721 1683 0
12 2 S116 702 211423 2385 0
12 2 S116 773 212196 3158 0
12 2 S116 803 212999 3961 0
12 2 S116 795 213794 4756 0
12 2 S116 789 214583 5545 0
12 2 S116 767 215350 6312 0
0 0 0 742 216092 -12575 0
0 0 0 732 216824 -11843 0
0 0 0 742 217566 -11101 0
0 0 0 759 218325 -10342 0
0 0 0 821 219146 -9521 0
0 0 0 823 219969 -8698 0
0 0 0 782 220751 -7916 0
0 0 0 780 221531 -7136 0
0 0 0 807 222338 -6329 0
0 0 0 870 223208 -5459 0
0 0 0 882 224090 -4577 0
0 0 0 844 224934 -3733 0
0 0 0 754 225688 -2979 0
0 0 0 707 226395 -2272 0
13 1 S112 726 227121 -1546 0
13 1 S112 777 227898 -769 0
13 2 S112 917 228815 148 0
13 2 S112 917 229732 1065 0
13 2 S112 904 230636 1969 0
13 2 S112 874 231510 2843 0
13 2 S112 827 232337 3670 0
13 2 S112 826 233163 4496 0
13 2 S112 840 234003 5336 0
13 2 S112 863 234866 6199 0
0 0 0 871 235737 -11414 0
0 0 0 870 236607 -10544 0
0 0 0 799 237406 -9745 0
0 0 0 788 238194 -8957 0
0 0 0 776 238970 -8181 0
0 0 0 827 239797 -7354 0
0 0 0 887 240684 -6467 0
0 0 0 880 241564 -5587 0
0 0 0 827 242391 -4760 0
0 0 0 811 243202 -3949 0
0 0 0 816 244018 -3133 0
0 0 0 829 244847 -2304 0
14 1 S106 878 245725 -1426 0
14 1 S106 861 246586 -565 0
14 2 S106 812 247398 247 0
14 2 S106 764 248162 1011 0
14 2 S106 773 248935 1784 0
14 2 S106 803 249738 2587 0
14 2 S106 880 250618 3467 0
14 2 S106 910 251528 4377 0
14 2 S106 883 252411 5260 0
14 2 S106 864 253275 6124 0
14 2 S106 870 254145 6994 0
0 0 0 889 255034 -9492 0
0 0 0 857 255891 -8635 0
0 0 0 758 256649 -7877 0
0 0 0 699 257348 -7178 0
0 0 0 668 258016 -6510 0
0 0 0 650 258666 -5860 0
0 0 0 668 259334 -5192 0
0 0 0 697 260031 -4495 0
0 0 0 697 260728 -3798 0
0 0 0 676 261404 -3122 0
0 0 0 708 262112 -2414 0
15 1 S116 716 262828 -1698 0
15 1 S116 698 263526 -1000 0
15 1 S116 686 264212 -314 0
15 2 S116 684 264896 370 0
15 2 S116 708 265604 1078 0
15 2 S116 745 266349 1823 0
15 2 S116 764 267113 2587 0
15 2 S116 744 267857 3331 0
15 2 S116 722 268579 4053 0
15 2 S116 697 269276 4750 0
15 2 S116 719 269995 5469 0
15 2 S116 745 270740 6214 0
0 0 0 825 271565 -11512 0
0 0 0 888 272453 -10624 0
0 0 0 839 273292 -9785 0
0 0 0 771 274063 -9014 0
0 0 0 786 274849 -8228 0
0 0 0 845 275694 -7383 0
0 0 0 893 276587 -6490 0
0 0 0 827 277414 -5663 0
0 0 0 741 278155 -4922 0
0 0 0 718 278873 -4204 0
0 0 0 713 279586 -3491 0
0 0 0 759 280345 -2732 0
16 1 S116 829 281174 -1903 0
16 1 S116 795 281969 -1108 0
16 1 S116 751 282720 -357 0
16 2 S116 751 283471 394 0
16 2 S116 788 284259 1182 0
16 2 S116 833 285092 2015 0
16 2 S116 852 285944 2867 0
16 2 S116 833 286777 3700 0
16 2 S116 795 287572 4495 0
16 2 S116 756 288328 5251 0
16 2 S116 745 289073 5996 0
16 2 S116 779 289852 6775 0
0 0 0 814 290666 -8625 0
0 0 0 853 291519 -7772 0
0 0 0 849 292368 -6923 0
0 0 0 784 293152 -6139 0
0 0 0 758 293910 -5381 0
0 0 0 786 294696 -4595 0
0 0 0 838 295534 -3757 0
0 0 0 928 296462 -2829 0
17 1 S106 923 297385 -1906 0
17 1 S106 867 298252 -1039 0
17 1 S106 793 299045 -246 0
17 2 S106 753 299798 507 0
17 2 S106 776 300574 1283 0
17 2 S106 850 301424 2133 0
17 2 S106 933 302357 3066 0
17 2 S106 922 303279 3988 0
17 2 S106 870 304149 4858 0
17 2 S106 812 304961 5670 0
17 2 S106 806 305767 6476 0
0 0 0 821 306588 -11138 0
0 0 0 862 307450 -10276 0
0 0 0 856 308306 -9420 0
0 0 0 795 309101 -8625 0
0 0 0 775 309876 -7850 0
0 0 0 784 310660 -7066 0
0 0 0 855 311515 -6211 0
0 0 0 876 312391 -5335 0
0 0 0 853 313244 -4482 0
0 0 0 822 314066 -3660 0
0 0 0 782 314848 -2878 0
0 0 0 737 315585 -2141 0
18 1 S102 718 316303 -1423 0
18 1 S102 732 317035 -691 0
18 2 S102 820 317855 129 0
18 2 S102 933 318788 1062 0
18 2 S102 934 319722 1996 0
18 2 S102 908 320630 2904 0
18 2 S102 863 321493 3767 0
18 2 S102 818 322311 4585 0
18 2 S102 814 323125 5399 0
18 2 S102 843 323968 6242 0
0 0 0 864 324832 -6936 0
0 0 0 876 325708 -6060 0
0 0 0 850 326558 -5210 0
0 0 0 755 327313 -4455 0
0 0 0 745 328058 -3710 0
0 0 0 746 328804 -2964 0
0 0 0 785 329589 -2179 0
19 1 S106 833 330422 -1346 0
19 1 S106 823 331245 -523 0
19 2 S106 804 332049 281 0
19 2 S106 750 332799 1031 0
19 2 S106 723 333522 1754 0
19 2 S106 729 334251 2483 0
19 2 S106 779 335030 3262 0
19 2 S106 852 335882 4114 0
19 2 S106 889 336771 5003 0
19 2 S106 874 337645 5877 0
19 2 S106 835 338480 6712 0
0 0 0 784 339264 -10259 0
0 0 0 755 340019 -9504 0
0 0 0 770 340789 -8734 0
0 0 0 776 341565 -7958 0
0 0 0 825 342390 -7133 0
0 0 0 842 343232 -6291 0
0 0 0 802 344034 -5489 0
0 0 0 742 344776 -4747 0
0 0 0 737 345513 -4010 0
0 0 0 765 346278 -3245 0
0 0 0 842 347120 -2403 0
20 1 S112 905 348025 -1498 0
20 1 S112 885 348910 -613 0
20 2 S112 828 349738 215 0
20 2 S112 793 350531 1008 0
20 2 S112 803 351334 1811 0
20 2 S112 829 352163 2640 0
20 2 S112 860 353023 3500 0
20 2 S112 851 353874 4351 0
20 2 S112 823 354697 5174 0
20 2 S112 781 355478 5955 0
20 2 S112 737 356215 6692 0
0 0 0 725 356940 -9294 0
0 0 0 755 357695 -8539 0
0 0 0 815 358510 -7724 0
0 0 0 871 359381 -6853 0
0 0 0 797 360178 -6056 0
0 0 0 776 360954 -5280 0
0 0 0 781 361735 -4499 0
0 0 0 813 362548 -3686 0
0 0 0 837 363385 -2849 0
0 0 0 797 364182 -2052 0
21 1 S106 756 364938 -1296 0
21 1 S106 735 365673 -561 0
21 2 S106 739 366412 178 0
21 2 S106 796 367208 974 0
21 2 S106 887 368095 1861 0
21 2 S106 879 368974 2740 0
21 2 S106 834 369808 3574 0
21 2 S106 781 370589 4355 0
21 2 S106 789 371378 5144 0
21 2 S106 822 372200 5966 0
21 2 S106 850 373050 6816 0
0 0 0 870 373920 -12540 0
0 0 0 834 374754 -11706 0
0 0 0 789 375543 -10917 0
0 0 0 818 376361 -10099 0
0 0 0 885 377246 -9214 0
0 0 0 882 378128 -8332 0
0 0 0 754 378882 -7578 0
0 0 0 701 379583 -6877 0
0 0 0 671 380254 -6206 0
0 0 0 654 380908 -5552 0
0 0 0 649 381557 -4903 0
0 0 0 771 382328 -4132 0
0 0 0 834 383162 -3298 0
0 0 0 831 383993 -2467 0
22 1 S116 796 384789 -1671 0
22 1 S116 727 385516 -944 0
22 1 S116 684 386200 -260 0
22 2 S116 663 386863 403 0
22 2 S116 663 387526 1066 0
22 2 S116 680 388206 1746 0
22 2 S116 757 388963 2503 0
22 2 S116 818 389781 3321 0
22 2 S116 843 390624 4164 0
22 2 S116 852 391476 5016 0
22 2 S116 835 392311 5851 0
22 2 S116 810 393121 6661 0
0 0 0 820 393941 -10208 0
0 0 0 852 394793 -9356 0
0 0 0 916 395709 -8440 0
0 0 0 881 396590 -7559 0
0 0 0 863 397453 -6696 0
0 0 0 861 398314 -5835 0
0 0 0 908 399222 -4927 0
0 0 0 895 400117 -4032 0
0 0 0 807 400924 -3225 0
0 0 0 769 401693 -2456 0
23 1 S112 761 402454 -1695 0
23 1 S112 777 403231 -918 0
23 1 S112 833 404064 -85 0
23 2 S112 823 404887 738 0
23 2 S112 815 405702 1553 0
23 2 S112 817 406519 2370 0
23 2 S112 829 407348 3199 0
23 2 S112 854 408202 4053 0
23 2 S112 835 409037 4888 0
23 2 S112 801 409838 5689 0
23 2 S112 789 410627 6478 0
0 0 0 796 411423 -10001 0
0 0 0 841 412264 -9160 0
0 0 0 858 413122 -8302 0
0 0 0 798 413920 -7504 0
0 0 0 816 414736 -6688 0
0 0 0 806 415542 -5882 0
0 0 0 787 416329 -5095 0
0 0 0 742 417071 -4353 0
0 0 0 710 417781 -3643 0
0 0 0 717 418498 -2926 0
0 0 0 732 419230 -2194 0
24 1 S106 807 420037 -1387 0
24 1 S106 847 420884 -540 0
24 2 S106 817 421701 277 0
24 2 S106 773 422474 1050 0
24 2 S106 771 423245 1821 0
24 2 S106 774 424019 2595 0
24 2 S106 801 424820 3396 0
24 2 S106 825 425645 4221 0
24 2 S106 818 426463 5039 0
24 2 S106 787 427250 5826 0
24 2 S106 781 428031 6607 0
0 0 0 784 428815 -9237 0
0 0 0 843 429658 -8394 0
0 0 0 903 430561 -7491 0
0 0 0 838 431399 -6653 0
0 0 0 778 432177 -5875 0
0 0 0 769 432946 -5106 0
0 0 0 791 433737 -4315 0
0 0 0 826 434563 -3489 0
0 0 0 826 435389 -2663 0
25 1 S102 784 436173 -1879 0
25 1 S102 758 436931 -1121 0
25 1 S102 753 437684 -368 0
25 2 S102 767 438451 399 0
25 2 S102 830 439281 1229 0
25 2 S102 859 440140 2088 0
25 2 S102 835 440975 2923 0
25 2 S102 786 441761 3709 0
25 2 S102 786 442547 4495 0
25 2 S102 801 443348 5296 0
25 2 S102 823 444171 6119 0
25 2 S102 838 445009 6957 0
0 0 0 814 445823 -6321 0
0 0 0 777 446600 -5544 0
0 0 0 776 447376 -4768 0
0 0 0 764 448140 -4004 0
0 0 0 783 448923 -3221 0
0 0 0 800 449723 -2421 0
26 1 S116 762 450485 -1659 0
26 1 S116 742 451227 -917 0
26 1 S116 769 451996 -148 0
26 2 S116 814 452810 666 0
26 2 S116 890 453700 1556 0
26 2 S116 884 454584 2440 0
26 2 S116 840 455424 3280 0
26 2 S116 786 456210 4066 0
26 2 S116 761 456971 4827 0
26 2 S116 769 457740 5596 0
26 2 S116 781 458521 6377 0
0 0 0 805 459326 -8285 0
0 0 0 841 460167 -7444 0
0 0 0 816 460983 -6628 0
0 0 0 789 461772 -5839 0
0 0 0 791 462563 -5048 0
0 0 0 803 463366 -4245 0
0 0 0 824 464190 -3421 0
0 0 0 772 464962 -2649 0
27 1 S106 719 465681 -1930 0
27 1 S106 692 466373 -1238 0
27 1 S106 698 467071 -540 0
27 2 S106 721 467792 181 0
27 2 S106 840 468632 1021 0
27 2 S106 865 469497 1886 0
27 2 S106 828 470325 2714 0
27 2 S106 795 471120 3509 0
27 2 S106 759 471879 4268 0
27 2 S106 737 472616 5005 0
27 2 S106 705 473321 5710 0
27 2 S106 681 474002 6391 0
0 0 0 693 474695 -8583 0
0 0 0 732 475427 -7851 0
0 0 0 815 476242 -7036 0
0 0 0 858 477100 -6178 0
0 0 0 826 477926 -5352 0
0 0 0 843 478769 -4509 0
0 0 0 819 479588 -3690 0
0 0 0 786 480374 -2904 0
0 0 0 733 481107 -2171 0
28 1 S102 684 481791 -1487 0
28 1 S102 647 482438 -840 0
28 1 S102 636 483074 -204 0
28 2 S102 631 483705 427 0
28 2 S102 663 484368 1090 0
28 2 S102 808 485176 1898 0
28 2 S102 886 486062 2784 0
28 2 S102 888 486950 3672 0
28 2 S102 863 487813 4535 0
28 2 S102 836 488649 5371 0
28 2 S102 790 489439 6161 0
28 2 S102 787 490226 6948 0
0 0 0 808 491034 -11044 0
0 0 0 821 491855 -10223 0
0 0 0 826 492681 -9397 0
0 0 0 773 493454 -8624 0
0 0 0 755 494209 -7869 0
0 0 0 756 494965 -7113 0
0 0 0 776 495741 -6337 0
0 0 0 806 496547 -5531 0
0 0 0 766 497313 -4765 0
0 0 0 771 498084 -3994 0
0 0 0 786 498870 -3208 0
0 0 0 807 499677 -2401 0
29 1 S112 847 500524 -1554 0
29 1 S112 839 501363 -715 0
29 2 S112 828 502191 113 0
29 2 S112 793 502984 906 0
29 2 S112 806 503790 1712 0
29 2 S112 824 504614 2536 0
29 2 S112 851 505465 3387 0
29 2 S112 858 506323 4245 0
29 2 S112 857 507180 5102 0
29 2 S112 814 507994 5916 0
29 2 S112 800 508794 6716 0
0 0 0 821 509615 -8312 0
0 0 0 855 510470 -7457 0
0 0 0 865 511335 -6592 0
0 0 0 809 512144 -5783 0
0 0 0 837 512981 -4946 0
0 0 0 821 513802 -4125 0
0 0 0 736 514538 -3389 0
0 0 0 690 515228 -2699 0
0 0 0 670 515898 -2029 0
30 1 S112 654 516552 -1375 0
30 1 S112 680 517232 -695 0
30 2 S112 697 517929 2 0
30 2 S112 782 518711 784 0
30 2 S112 809 519520 1593 0
30 2 S112 778 520298 2371 0
30 2 S112 739 521037 3110 0
30 2 S112 703 521740 3813 0
30 2 S112 679 522419 4492 0
30 2 S112 656 523075 5148 0
30 2 S112 640 523715 5788 0
30 2 S112 623 524338 6411 0
30 2 S112 616 524954 7027 0
0 0 0 625 525579 -9026 0
0 0 0 676 526255 -8350 0
0 0 0 834 527089 -7516 0
0 0 0 894 527983 -6622 0
0 0 0 853 528836 -5769 0
0 0 0 819 529655 -4950 0
0 0 0 840 530495 -4110 0
0 0 0 888 531383 -3222 0
0 0 0 918 532301 -2304 0
31 1 S106 908 533209 -1396 0
31 1 S106 890 534099 -506 0
31 2 S106 854 534953 348 0
31 2 S106 850 535803 1198 0
31 2 S106 873 536676 2071 0
31 2 S106 864 537540 2935 0
31 2 S106 874 538414 3809 0
31 2 S106 870 539284 4679 0
31 2 S106 859 540143 5538 0
31 2 S106 857 541000 6395 0
0 0 0 835 541835 -8834 0
0 0 0 856 542691 -7978 0
0 0 0 861 543552 -7117 0
0 0 0 867 544419 -6250 0
0 0 0 817 545236 -5433 0
0 0 0 751 545987 -4682 0
0 0 0 706 546693 -3976 0
0 0 0 675 547368 -3301 0
0 0 0 667 548035 -2634 0
32 1 S102 747 548782 -1887 0
32 1 S102 740 549522 -1147 0
32 1 S102 735 550257 -412 0
32 2 S102 794 551051 382 0
32 2 S102 838 551889 1220 0
32 2 S102 852 552741 2072 0
32 2 S102 836 553577 2908 0
32 2 S102 793 554370 3701 0
32 2 S102 744 555114 4445 0
32 2 S102 722 555836 5167 0
32 2 S102 732 556568 5899 0
32 2 S102 811 557379 6710 0
0 0 0 899 558278 -12534 0
0 0 0 940 559218 -11594 0
0 0 0 869 560087 -10725 0
0 0 0 827 560914 -9898 0
0 0 0 848 561762 -9050 0
0 0 0 861 562623 -8189 0
0 0 0 857 563480 -7332 0
0 0 0 784 564264 -6548 0
0 0 0 752 565016 -5796 0
0 0 0 761 565777 -5035 0
0 0 0 809 566586 -4226 0
0 0 0 897 567483 -3329 0
0 0 0 905 568388 -2424 0
33 1 S112 862 569250 -1562 0
33 1 S112 796 570046 -766 0
33 2 S112 771 570817 5 0
33 2 S112 793 571610 798 0
33 2 S112 903 572513 1701 0
33 2 S112 951 573464 2652 0
33 2 S112 925 574389 3577 0
33 2 S112 897 575286 4474 0
33 2 S112 849 576135 5323 0
33 2 S112 820 576955 6143 0
33 2 S112 850 577805 6993 0
0 0 0 900 578705 -10857 0
0 0 0 865 579570 -9992 0
0 0 0 818 580388 -9174 0
0 0 0 810 581198 -8364 0
0 0 0 823 582021 -7541 0
0 0 0 825 582846 -6716 0
0 0 0 803 583649 -5913 0
0 0 0 757 584406 -5156 0
0 0 0 750 585156 -4406 0
0 0 0 792 585948 -3614 0
0 0 0 847 586795 -2767 0
34 1 S106 895 587690 -1872 0
34 1 S106 888 588578 -984 0
34 1 S106 849 589427 -135 0
34 2 S106 785 590212 650 0
34 2 S106 789 591001 1439 0
34 2 S106 836 591837 2275 0
34 2 S106 893 592730 3168 0
34 2 S106 896 593626 4064 0
34 2 S106 896 594522 4960 0
34 2 S106 888 595410 5848 0
34 2 S106 856 596266 6704 0
0 0 0 861 597127 -8997 0
0 0 0 863 597990 -8134 0
0 0 0 884 598874 -7250 0
0 0 0 883 599757 -6367 0
0 0 0 848 600605 -5519 0
0 0 0 867 601472 -4652 0
0 0 0 926 602398 -3726 0
0 0 0 951 603349 -2775 0
35 1 S102 937 604286 -1838 0
35 1 S102 883 605169 -955 0
35 1 S102 831 606000 -124 0
35 2 S102 836 606836 712 0
35 2 S102 873 607709 1585 0
35 2 S102 911 608620 2496 0
35 2 S102 925 609545 3421 0
35 2 S102 864 610409 4285 0
35 2 S102 846 611255 5131 0
35 2 S102 840 612095 5971 0
35 2 S102 884 612979 6855 0
0 0 0 931 613910 -7848 0
0 0 0 875 614785 -6973 0
0 0 0 829 615614 -6144 0
0 0 0 836 616450 -5308 0
0 0 0 849 617299 -4459 0
0 0 0 807 618106 -3652 0
0 0 0 754 618860 -2898 0
0 0 0 737 619597 -2161 0
36 1 S106 741 620338 -1420 0
36 1 S106 756 621094 -664 0
36 2 S106 777 621871 113 0
36 2 S106 727 622598 840 0
36 2 S106 711 623309 1551 0
36 2 S106 720 624029 2271 0
36 2 S106 770 624799 3041 0
36 2 S106 831 625630 3872 0
36 2 S106 874 626504 4746 0
36 2 S106 861 627365 5607 0
36 2 S106 829 628194 6436 0
0 0 0 790 628984 -10562 0
0 0 0 780 629764 -9782 0
0 0 0 738 630502 -9044 0
0 0 0 707 631209 -8337 0
0 0 0 707 631916 -7630 0
0 0 0 719 632635 -6911 0
0 0 0 710 633345 -6201 0
0 0 0 682 634027 -5519 0
0 0 0 689 634716 -4830 0
0 0 0 745 635461 -4085 0
0 0 0 814 636275 -3271 0
0 0 0 758 637033 -2513 0
37 1 S116 721 637754 -1792 0
37 1 S116 729 638483 -1063 0
37 1 S116 742 639225 -321 0
37 2 S116 731 639956 410 0
37 2 S116 708 640664 1118 0
37 2 S116 693 641357 1811 0
37 2 S116 682 642039 2493 0
37 2 S116 669 642708 3162 0
37 2 S116 654 643362 3816 0
37 2 S116 639 644001 4455 0
37 2 S116 636 644637 5091 0
37 2 S116 652 645289 5743 0
37 2 S116 717 646006 6460 0
0 0 0 845 646851 -11993 0
0 0 0 898 647749 -11095 0
0 0 0 875 648624 -10220 0
0 0 0 829 649453 -9391 0
0 0 0 873 650326 -8518 0
0 0 0 943 651269 -7575 0
0 0 0 917 652186 -6658 0
0 0 0 834 653020 -5824 0
0 0 0 801 653821 -5023 0
0 0 0 823 654644 -4200 0
0 0 0 846 655490 -3354 0
0 0 0 871 656361 -2483 0
38 1 S102 844 657205 -1639 0
38 1 S102 807 658012 -832 0
38 1 S102 764 658776 -68 0
38 2 S102 783 659559 715 0
38 2 S102 848 660407 1563 0
38 2 S102 929 661336 2492 0
38 2 S102 930 662266 3422 0
38 2 S102 898 663164 4320 0
38 2 S102 844 664008 5164 0
38 2 S102 850 664858 6014 0
38 2 S102 895 665753 6909 0
0 0 0 943 666696 -10583 0
0 0 0 886 667582 -9697 0
0 0 0 827 668409 -8870 0
0 0 0 841 669250 -8029 0
0 0 0 918 670168 -7111 0
0 0 0 856 671024 -6255 0
0 0 0 806 671830 -5449 0
0 0 0 805 672635 -4644 0
0 0 0 825 673460 -3819 0
0 0 0 834 674294 -2985 0
0 0 0 801 675095 -2184 0
39 1 S116 772 675867 -1412 0
39 1 S116 785 676652 -627 0
39 2 S116 844 677496 217 0
39 2 S116 918 678414 1135 0
39 2 S116 914 679328 2049 0
39 2 S116 876 680204 2925 0
39 2 S116 845 681049 3770 0
39 2 S116 854 681903 4624 0
39 2 S116 869 682772 5493 0
39 2 S116 892 683664 6385 0
0 0 0 882 684546 -9344 0
0 0 0 872 685418 -8472 0
0 0 0 816 686234 -7656 0
0 0 0 809 687043 -6847 0
0 0 0 836 687879 -6011 0
0 0 0 937 688816 -5074 0
0 0 0 921 689737 -4153 0
0 0 0 874 690611 -3279 0
0 0 0 865 691476 -2414 0
40 1 S112 887 692363 -1527 0
40 1 S112 827 693190 -700 0
40 2 S112 795 693985 95 0
40 2 S112 801 694786 896 0
40 2 S112 830 695616 1726 0
40 2 S112 851 696467 2577 0
40 2 S112 844 697311 3421 0
40 2 S112 812 698123 4233 0
40 2 S112 794 698917 5027 0
40 2 S112 789 699706 5816 0
40 2 S112 796 700502 6612 0
0 0 0 829 701331 -187107 0
0 0 0 857 702188 -186250 0
0 0 0 798 702986 -185452 0
0 0 0 807 703793 -184645 0
0 0 0 819 704612 -183826 0
0 0 0 809 705421 -183017 0
0 0 0 726 706147 -182291 0
0 0 0 679 706826 -181612 0
0 0 0 669 707495 -180943 0
0 0 0 684 708179 -180259 0
0 0 0 692 708871 -179567 0
0 0 0 705 709576 -178862 0
0 0 0 685 710261 -178177 0
0 0 0 694 710955 -177483 0
0 0 0 708 711663 -176775 0
0 0 0 681 712344 -176094 0
0 0 0 677 713021 -175417 0
0 0 0 661 713682 -174756 0
0 0 0 657 714339 -174099 0
0 0 0 649 714988 -173450 0
0 0 0 645 715633 -172805 0
0 0 0 643 716276 -172162 0
0 0 0 639 716915 -171523 0
0 0 0 633 717548 -170890 0
0 0 0 635 718183 -170255 0
0 0 0 625 718808 -169630 0
0 0 0 627 719435 -169003 0
0 0 0 633 720068 -168370 0
0 0 0 659 720727 -167711 0
0 0 0 749 721476 -166962 0
0 0 0 852 722328 -166110 0
0 0 0 851 723179 -165259 0
0 0 0 833 724012 -164426 0
0 0 0 796 724808 -163630 0
0 0 0 763 725571 -162867 0
0 0 0 705 726276 -162162 0
0 0 0 671 726947 -161491 0
0 0 0 665 727612 -160826 0
0 0 0 635 728247 -160191 0
0 0 0 615 728862 -159576 1
0 0 0 596 729458 -158980 1
0 0 0 613 730071 -158367 1
0 0 0 637 730708 -157730 0
0 0 0 681 731389 -157049 0
0 0 0 676 732065 -156373 0
0 0 0 648 732713 -155725 0
0 0 0 648 733361 -155077 0
0 0 0 655 734016 -154422 0
0 0 0 690 734706 -153732 0
0 0 0 648 735354 -153084 0
0 0 0 629 735983 -152455 0
0 0 0 610 736593 -151845 1
0 0 0 601 737194 -151244 1
0 0 0 600 737794 -150644 1
0 0 0 591 738385 -150053 1
0 0 0 593 738978 -149460 1
0 0 0 599 739577 -148861 1
0 0 0 632 740209 -148229 0
0 0 0 724 740933 -147505 0
0 0 0 791 741724 -146714 0
0 0 0 765 742489 -145949 0
0 0 0 731 743220 -145218 0
0 0 0 700 743920 -144518 0
0 0 0 678 744598 -143840 0
0 0 0 665 745263 -143175 0
0 0 0 656 745919 -142519 0
0 0 0 649 746568 -141870 0
0 0 0 652 747220 -141218 0
0 0 0 667 747887 -140551 0
0 0 0 679 748566 -139872 0
0 0 0 731 749297 -139141 0
0 0 0 849 750146 -138292 0
0 0 0 943 751089 -137349 0
0 0 0 943 752032 -136406 0
0 0 0 943 752975 -135463 0
0 0 0 933 753908 -134530 0
0 0 0 891 754799 -133639 0
0 0 0 865 755664 -132774 0
0 0 0 843 756507 -131931 0
0 0 0 839 757346 -131092 0
0 0 0 809 758155 -130283 0
0 0 0 752 758907 -129531 0
0 0 0 729 759636 -128802 0
0 0 0 680 760316 -128122 0
0 0 0 651 760967 -127471 0
0 0 0 662 761629 -126809 0
0 0 0 701 762330 -126108 0
0 0 0 863 763193 -125245 0
0 0 0 938 764131 -124307 0
0 0 0 914 765045 -123393 0
0 0 0 853 765898 -122540 0
0 0 0 849 766747 -121691 0
0 0 0 823 767570 -120868 0
0 0 0 847 768417 -120021 0
0 0 0 880 769297 -119141 0
0 0 0 855 770152 -118286 0
0 0 0 828 770980 -117458 0
0 0 0 818 771798 -116640 0
0 0 0 830 772628 -115810 0
0 0 0 826 773454 -114984 0
0 0 0 847 774301 -114137 0
0 0 0 879 775180 -113258 0
0 0 0 885 776065 -112373 0
0 0 0 771 776836 -111602 0
0 0 0 731 777567 -110871 0
0 0 0 725 778292 -110146 0
0 0 0 749 779041 -109397 0
0 0 0 841 779882 -108556 0
0 0 0 941 780823 -107615 0
0 0 0 857 781680 -106758 0
0 0 0 771 782451 -105987 0
0 0 0 742 783193 -105245 0
0 0 0 706 783899 -104539 0
0 0 0 676 784575 -103863 0
0 0 0 654 785229 -103209 0
0 0 0 642 785871 -102567 0
0 0 0 629 786500 -101938 0
0 0 0 626 787126 -101312 0
0 0 0 623 787749 -100689 0
0 0 0 630 788379 -100059 0
0 0 0 655 789034 -99404 0
0 0 0 731 789765 -98673 0
0 0 0 836 790601 -97837 0
0 0 0 880 791481 -96957 0
0 0 0 854 792335 -96103 0
0 0 0 814 793149 -95289 0
0 0 0 780 793929 -94509 0
0 0 0 757 794686 -93752 0
0 0 0 724 795410 -93028 0
0 0 0 735 796145 -92293 0
0 0 0 751 796896 -91542 0
0 0 0 810 797706 -90732 0
0 0 0 851 798557 -89881 0
0 0 0 806 799363 -89075 0
0 0 0 788 800151 -88287 0
0 0 0 803 800954 -87484 0
0 0 0 856 801810 -86628 0
0 0 0 962 802772 -85666 0
0 0 0 954 803726 -84712 0
0 0 0 893 804619 -83819 0
0 0 0 794 805413 -83025 0
0 0 0 749 806162 -82276 0
0 0 0 716 806878 -81560 0
0 0 0 703 807581 -80857 0
0 0 0 694 808275 -80163 0
0 0 0 672 808947 -79491 0
0 0 0 692 809639 -78799 0
0 0 0 710 810349 -78089 0
0 0 0 787 811136 -77302 0
0 0 0 886 812022 -76416 0
0 0 0 866 812888 -75550 0
0 0 0 833 813721 -74717 0
0 0 0 804 814525 -73913 0
0 0 0 806 815331 -73107 0
0 0 0 794 816125 -72313 0
0 0 0 802 816927 -71511 0
0 0 0 773 817700 -70738 0
0 0 0 747 818447 -69991 0
0 0 0 757 819204 -69234 0
0 0 0 781 819985 -68453 0
0 0 0 850 820835 -67603 0
0 0 0 898 821733 -66705 0
0 0 0 851 822584 -65854 0
0 0 0 825 823409 -65029 0
0 0 0 816 824225 -64213 0
0 0 0 825 825050 -63388 0
0 0 0 758 825808 -62630 0
0 0 0 683 826491 -61947 0
0 0 0 660 827151 -61287 0
0 0 0 655 827806 -60632 0
0 0 0 633 828439 -59999 0
0 0 0 636 829075 -59363 0
0 0 0 697 829772 -58666 0
0 0 0 760 830532 -57906 0
0 0 0 748 831280 -57158 0
0 0 0 694 831974 -56464 0
0 0 0 687 832661 -55777 0
0 0 0 696 833357 -55081 0
0 0 0 701 834058 -54380 0
0 0 0 710 834768 -53670 0
0 0 0 723 835491 -52947 0
0 0 0 699 836190 -52248 0
0 0 0 695 836885 -51553 0
0 0 0 694 837579 -50859 0
0 0 0 713 838292 -50146 0
0 0 0 764 839056 -49382 0
0 0 0 775 839831 -48607 0
0 0 0 773 840604 -47834 0
0 0 0 845 841449 -46989 0
0 0 0 929 842378 -46060 0
0 0 0 945 843323 -45115 0
0 0 0 933 844256 -44182 0
0 0 0 866 845122 -43316 0
0 0 0 824 845946 -42492 0
0 0 0 814 846760 -41678 0
0 0 0 816 847576 -40862 0
0 0 0 834 848410 -40028 0
0 0 0 813 849223 -39215 0
0 0 0 835 850058 -38380 0
0 0 0 857 850915 -37523 0
0 0 0 871 851786 -36652 0
0 0 0 810 852596 -35842 0
0 0 0 819 853415 -35023 0
0 0 0 842 854257 -34181 0
0 0 0 864 855121 -33317 0
0 0 0 805 855926 -32512 0
0 0 0 810 856736 -31702 0
0 0 0 820 857556 -30882 0
0 0 0 833 858389 -30049 0
0 0 0 840 859229 -29209 0
0 0 0 812 860041 -28397 0
0 0 0 780 860821 -27617 0
0 0 0 839 861660 -26778 0
0 0 0 941 862601 -25837 0
0 0 0 933 863534 -24904 0
0 0 0 895 864429 -24009 0
0 0 0 877 865306 -23132 0
0 0 0 876 866182 -22256 0
0 0 0 843 867025 -21413 0
0 0 0 824 867849 -20589 0
0 0 0 853 868702 -19736 0
0 0 0 917 869619 -18819 0
0 0 0 969 870588 -17850 0
0 0 0 945 871533 -16905 0
0 0 0 892 872425 -16013 0
0 0 0 883 873308 -15130 0
0 0 0 897 874205 -14233 0
0 0 0 906 875111 -13327 0
0 0 0 892 876003 -12435 0
0 0 0 852 876855 -11583 0
0 0 0 907 877762 -10676 0
0 0 0 935 878697 -9741 0
0 0 0 960 879657 -8781 0
0 0 0 941 880598 -7840 0
0 0 0 910 881508 -6930 0
0 0 0 892 882400 -6038 0
0 0 0 884 883284 -5154 0
0 0 0 854 884138 -4300 0
0 0 0 863 885001 -3437 0
0 0 0 965 885966 -2472 0
41 1 S102 1002 886968 -1470 0
41 1 S102 914 887882 -556 0
41 2 S102 776 888658 220 0
41 2 S102 728 889386 948 0
41 2 S102 734 890120 1682 0
41 2 S102 770 890890 2452 0
41 2 S102 853 891743 3305 0
41 2 S102 857 892600 4162 0
41 2 S102 823 893423 4985 0
41 2 S102 777 894200 5762 0
41 2 S102 765 894965 6527 0
0 0 0 749 895714 -8507 0
0 0 0 744 896458 -7763 0
0 0 0 749 897207 -7014 0
0 0 0 724 897931 -6290 0
0 0 0 721 898652 -5569 0
0 0 0 768 899420 -4801 0
0 0 0 782 900202 -4019 0
0 0 0 812 901014 -3207 0
0 0 0 807 901821 -2400 0
42 1 S112 778 902599 -1622 0
42 1 S112 776 903375 -846 0
42 1 S112 807 904182 -39 0
42 2 S112 892 905074 853 0
42 2 S112 943 906017 1796 0
42 2 S112 913 906930 2709 0
42 2 S112 874 907804 3583 0
42 2 S112 825 908629 4408 0
42 2 S112 807 909436 5215 0
42 2 S112 801 910237 6016 0
42 2 S112 836 911073 6852 0
0 0 0 870 911943 -8939 0
0 0 0 847 912790 -8092 0
0 0 0 810 913600 -7282 0
0 0 0 814 914414 -6468 0
0 0 0 826 915240 -5642 0
0 0 0 857 916097 -4785 0
0 0 0 863 916960 -3922 0
0 0 0 834 917794 -3088 0
0 0 0 815 918609 -2273 0
43 1 S116 830 919439 -1443 0
43 1 S116 868 920307 -575 0
43 2 S116 899 921206 324 0
43 2 S116 941 922147 1265 0
43 2 S116 912 923059 2177 0
43 2 S116 887 923946 3064 0
43 2 S116 849 924795 3913 0
43 2 S116 851 925646 4764 0
43 2 S116 866 926512 5630 0
43 2 S116 895 927407 6525 0
0 0 0 899 928306 -8674 0
0 0 0 887 929193 -7787 0
0 0 0 864 930057 -6923 0
0 0 0 818 930875 -6105 0
0 0 0 836 931711 -5269 0
0 0 0 878 932589 -4391 0
0 0 0 906 933495 -3485 0
0 0 0 858 934353 -2627 0
44 1 S102 836 935189 -1791 0
44 1 S102 834 936023 -957 0
44 1 S102 861 936884 -96 0
44 2 S102 880 937764 784 0
44 2 S102 868 938632 1652 0
44 2 S102 811 939443 2463 0
44 2 S102 775 940218 3238 0
44 2 S102 781 940999 4019 0
44 2 S102 800 941799 4819 0
44 2 S102 890 942689 5709 0
44 2 S102 921 943610 6630 0
0 0 0 930 944540 -8388 0
0 0 0 862 945402 -7526 0
0 0 0 833 946235 -6693 0
0 0 0 815 947050 -5878 0
0 0 0 816 947866 -5062 0
0 0 0 759 948625 -4303 0
0 0 0 738 949363 -3565 0
0 0 0 759 950122 -2806 0
45 1 S116 818 950940 -1988 0
45 1 S116 915 951855 -1073 0
45 1 S116 881 952736 -192 0
45 2 S116 832 953568 640 0
45 2 S116 797 954365 1437 0
45 2 S116 783 955148 2220 0
45 2 S116 797 955945 3017 0
45 2 S116 803 956748 3820 0
45 2 S116 819 957567 4639 0
45 2 S116 818 958385 5457 0
45 2 S116 821 959206 6278 0
0 0 0 826 960032 -11680 0
0 0 0 830 960862 -10850 0
0 0 0 795 961657 -10055 0
0 0 0 780 962437 -9275 0
0 0 0 780 963217 -8495 0
0 0 0 802 964019 -7693 0
0 0 0 953 964972 -6740 0
0 0 0 1022 965994 -5718 1
0 0 0 983 966977 -4735 0
0 0 0 954 967931 -3781 0
0 0 0 907 968838 -2874 0
0 0 0 853 969691 -2021 0
46 1 S102 808 970499 -1213 0
46 1 S102 793 971292 -420 0
46 2 S102 812 972104 392 0
46 2 S102 906 973010 1298 0
46 2 S102 948 973958 2246 0
46 2 S102 948 974906 3194 0
46 2 S102 930 975836 4124 0
46 2 S102 881 976717 5005 0
46 2 S102 844 977561 5849 0
46 2 S102 848 978409 6697 0
0 0 0 870 979279 -9790 0
0 0 0 886 980165 -8904 0
0 0 0 889 981054 -8015 0
0 0 0 822 981876 -7193 0
0 0 0 800 982676 -6393 0
0 0 0 804 983480 -5589 0
0 0 0 859 984339 -4730 0
0 0 0 880 985219 -3850 0
0 0 0 842 986061 -3008 0
0 0 0 806 986867 -2202 0
47 1 S112 813 987680 -1389 0
47 1 S112 840 988520 -549 0
47 2 S112 880 989400 331 0
47 2 S112 921 990321 1252 0
47 2 S112 898 991219 2150 0
47 2 S112 849 992068 2999 0
47 2 S112 791 992859 3790 0
47 2 S112 770 993629 4560 0
47 2 S112 783 994412 5343 0
47 2 S112 824 995236 6167 0
47 2 S112 843 996079 7010 0
0 0 0 821 996900 -10687 0
0 0 0 833 997733 -9854 0
0 0 0 860 998593 -8994 0
0 0 0 872 999465 -8122 0
0 0 0 831 1000296 -7291 0
0 0 0 791 1001087 -6500 0
0 0 0 790 1001877 -5710 0
0 0 0 838 1002715 -4872 0
0 0 0 868 1003583 -4004 0
0 0 0 896 1004479 -3108 0
0 0 0 856 1005335 -2252 0
48 1 S116 807 1006142 -1445 0
48 1 S116 764 1006906 -681 0
48 2 S116 766 1007672 85 0
48 2 S116 770 1008442 855 0
48 2 S116 813 1009255 1668 0
48 2 S116 831 1010086 2499 0
48 2 S116 822 1010908 3321 0
48 2 S116 855 1011763 4176 0
48 2 S116 889 1012652 5065 0
48 2 S116 908 1013560 5973 0
48 2 S116 900 1014460 6873 0
0 0 0 907 1015367 -7771 0
0 0 0 849 1016216 -6922 0
0 0 0 825 1017041 -6097 0
0 0 0 848 1017889 -5249 0
0 0 0 866 1018755 -4383 0
0 0 0 795 1019550 -3588 0
0 0 0 741 1020291 -2847 0
0 0 0 688 1020979 -2159 0
49 1 S112 683 1021662 -1476 0
49 1 S112 704 1022366 -772 0
49 2 S112 803 1023169 31 0
49 2 S112 937 1024106 968 0
49 2 S112 945 1025051 1913 0
49 2 S112 898 1025949 2811 0
49 2 S112 830 1026779 3641 0
49 2 S112 819 1027598 4460 0
49 2 S112 810 1028408 5270 0
49 2 S112 806 1029214 6076 0
49 2 S112 783 1029997 6859 0
0 0 0 746 1030743 -11377 0
0 0 0 730 1031473 -10647 0
0 0 0 737 1032210 -9910 0
0 0 0 777 1032987 -9133 0
0 0 0 854 1033841 -8279 0
0 0 0 843 1034684 -7436 0
0 0 0 785 1035469 -6651 0
0 0 0 777 1036246 -5874 0
0 0 0 776 1037022 -5098 0
0 0 0 813 1037835 -4285 0
0 0 0 880 1038715 -3405 0
0 0 0 908 1039623 -2497 0
50 1 S106 902 1040525 -1595 0
50 1 S106 869 1041394 -726 0
50 2 S106 825 1042219 99 0
50 2 S106 778 1042997 877 0
50 2 S106 764 1043761 1641 0
50 2 S106 792 1044553 2433 0
50 2 S106 883 1045436 3316 0
50 2 S106 913 1046349 4229 0
50 2 S106 920 1047269 5149 0
50 2 S106 920 1048189 6069 0
50 2 S106 894 1049083 6963 0
0 0 0 848 1049931 -7491 0
0 0 0 849 1050780 -6642 0
0 0 0 858 1051638 -5784 0
0 0 0 932 1052570 -4852 0
0 0 0 903 1053473 -3949 0
0 0 0 835 1054308 -3114 0
0 0 0 801 1055109 -2313 0
51 1 S112 809 1055918 -1504 0
51 1 S112 857 1056775 -647 0
51 2 S112 926 1057701 279 0
51 2 S112 954 1058655 1233 0
51 2 S112 909 1059564 2142 0
51 2 S112 844 1060408 2986 0
51 2 S112 822 1061230 3808 0
51 2 S112 844 1062074 4652 0
51 2 S112 847 1062921 5499 0
51 2 S112 849 1063770 6348 0
0 0 0 813 1064583 -7627 0
0 0 0 783 1065366 -6844 0
0 0 0 784 1066150 -6060 0
0 0 0 795 1066945 -5265 0
0 0 0 832 1067777 -4433 0
0 0 0 767 1068544 -3666 0
0 0 0 762 1069306 -2904 0
0 0 0 759 1070065 -2145 0
52 1 S116 752 1070817 -1393 0
52 1 S116 726 1071543 -667 0
52 2 S116 695 1072238 28 0
52 2 S116 690 1072928 718 0
52 2 S116 697 1073625 1415 0
52 2 S116 715 1074340 2130 0
52 2 S116 743 1075083 2873 0
52 2 S116 794 1075877 3667 0
52 2 S116 833 1076710 4500 0
52 2 S116 821 1077531 5321 0
52 2 S116 792 1078323 6113 0
52 2 S116 759 1079082 6872 0
0 0 0 749 1079831 -10035 0
0 0 0 767 1080598 -9268 0
0 0 0 811 1081409 -8457 0
0 0 0 829 1082238 -7628 0
0 0 0 840 1083078 -6788 0
0 0 0 846 1083924 -5942 0
0 0 0 884 1084808 -5058 0
0 0 0 879 1085687 -4179 0
0 0 0 807 1086494 -3372 0
0 0 0 784 1087278 -2588 0
53 1 S106 785 1088063 -1803 0
53 1 S106 837 1088900 -966 0
53 1 S106 896 1089796 -70 0
53 2 S106 907 1090703 837 0
53 2 S106 858 1091561 1695 0
53 2 S106 826 1092387 2521 0
53 2 S106 828 1093215 3349 0
53 2 S106 836 1094051 4185 0
53 2 S106 905 1094956 5090 0
53 2 S106 894 1095850 5984 0
53 2 S106 843 1096693 6827 0
0 0 0 850 1097543 -6564 0
0 0 0 847 1098390 -5717 0
0 0 0 860 1099250 -4857 0
0 0 0 850 1100100 -4007 0
0 0 0 789 1100889 -3218 0
0 0 0 763 1101652 -2455 0
54 1 S102 779 1102431 -1676 0
54 1 S102 834 1103265 -842 0
54 2 S102 910 1104175 68 0
54 2 S102 903 1105078 971 0
54 2 S102 855 1105933 1826 0
54 2 S102 803 1106736 2629 0
54 2 S102 777 1107513 3406 0
54 2 S102 783 1108296 4189 0
54 2 S102 798 1109094 4987 0
54 2 S102 810 1109904 5797 0
54 2 S102 786 1110690 6583 0
0 0 0 756 1111446 -10648 0
0 0 0 761 1112207 -9887 0
0 0 0 770 1112977 -9117 0
0 0 0 803 1113780 -8314 0
0 0 0 791 1114571 -7523 0
0 0 0 768 1115339 -6755 0
0 0 0 810 1116149 -5945 0
0 0 0 849 1116998 -5096 0
0 0 0 871 1117869 -4225 0
0 0 0 858 1118727 -3367 0
0 0 0 809 1119536 -2558 0
55 1 S106 792 1120328 -1766 0
55 1 S106 775 1121103 -991 0
55 1 S106 812 1121915 -179 0
55 2 S106 875 1122790 696 0
55 2 S106 893 1123683 1589 0
55 2 S106 872 1124555 2461 0
55 2 S106 850 1125405 3311 0
55 2 S106 845 1126250 4156 0
55 2 S106 860 1127110 5016 0
55 2 S106 891 1128001 5907 0
55 2 S106 890 1128891 6797 0
0 0 0 890 1129781 -7549 0
0 0 0 859 1130640 -6690 0
0 0 0 856 1131496 -5834 0
0 0 0 894 1132390 -4940 0
0 0 0 858 1133248 -4082 0
0 0 0 747 1133995 -3335 0
0 0 0 703 1134698 -2632 0
56 1 S116 682 1135380 -1950 0
56 1 S116 683 1136063 -1267 0
56 1 S116 717 1136780 -550 0
56 2 S116 825 1137605 275 0
56 2 S116 866 1138471 1141 0
56 2 S116 836 1139307 1977 0
56 2 S116 796 1140103 2773 0
56 2 S116 772 1140875 3545 0
56 2 S116 738 1141613 4283 0
56 2 S116 703 1142316 4986 0
56 2 S116 689 1143005 5675 0
56 2 S116 678 1143683 6353 0
0 0 0 680 1144363 -8783 0
0 0 0 714 1145077 -8069 0
0 0 0 737 1145814 -7332 0
0 0 0 771 1146585 -6561 0
0 0 0 784 1147369 -5777 0
0 0 0 868 1148237 -4909 0
0 0 0 886 1149123 -4023 0
0 0 0 904 1150027 -3119 0
0 0 0 889 1150916 -2230 0
57 1 S106 834 1151750 -1396 0
57 1 S106 818 1152568 -578 0
57 2 S106 821 1153389 243 0
57 2 S106 897 1154286 1140 0
57 2 S106 921 1155207 2061 0
57 2 S106 860 1156067 2921 0
57 2 S106 850 1156917 3771 0
57 2 S106 879 1157796 4650 0
57 2 S106 922 1158718 5572 0
57 2 S106 923 1159641 6495 0
0 0 0 927 1160568 -9090 0
0 0 0 875 1161443 -8215 0
0 0 0 860 1162303 -7355 0
0 0 0 878 1163181 -6477 0
0 0 0 876 1164057 -5601 0
0 0 0 800 1164857 -4801 0
0 0 0 806 1165663 -3995 0
0 0 0 801 1166464 -3194 0
0 0 0 804 1167268 -2390 0
58 1 S102 785 1168053 -1605 0
58 1 S102 809 1168862 -796 0
58 2 S102 811 1169673 15 0
58 2 S102 843 1170516 858 0
58 2 S102 886 1171402 1744 0
58 2 S102 849 1172251 2593 0
58 2 S102 805 1173056 3398 0
58 2 S102 819 1173875 4217 0
58 2 S102 845 1174720 5062 0
58 2 S102 895 1175615 5957 0
58 2 S102 913 1176528 6870 0
0 0 0 894 1177422 -7173 0
0 0 0 824 1178246 -6349 0
0 0 0 823 1179069 -5526 0
0 0 0 847 1179916 -4679 0
0 0 0 827 1180743 -3852 0
0 0 0 789 1181532 -3063 0
0 0 0 784 1182316 -2279 0
59 1 S112 798 1183114 -1481 0
59 1 S112 872 1183986 -609 0
59 2 S112 893 1184879 284 0
59 2 S112 869 1185748 1153 0
59 2 S112 867 1186615 2020 0
59 2 S112 843 1187458 2863 0
59 2 S112 850 1188308 3713 0
59 2 S112 820 1189128 4533 0
59 2 S112 829 1189957 5362 0
59 2 S112 848 1190805 6210 0
0 0 0 854 1191659 -10045 0
0 0 0 846 1192505 -9199 0
0 0 0 838 1193343 -8361 0
0 0 0 879 1194222 -7482 0
0 0 0 871 1195093 -6611 0
0 0 0 786 1195879 -5825 0
0 0 0 772 1196651 -5053 0
0 0 0 783 1197434 -4270 0
0 0 0 825 1198259 -3445 0
0 0 0 868 1199127 -2577 0
60 1 S102 814 1199941 -1763 0
60 1 S102 767 1200708 -996 0
60 1 S102 764 1201472 -232 0
60 2 S102 771 1202243 539 0
60 2 S102 833 1203076 1372 0
60 2 S102 865 1203941 2237 0
60 2 S102 875 1204816 3112 0
60 2 S102 857 1205673 3969 0
60 2 S102 819 1206492 4788 0
60 2 S102 812 1207304 5600 0
60 2 S102 833 1208137 6433 0
0 0 0 887 1209024 -12806 0
0 0 0 905 1209929 -11901 0
0 0 0 873 1210802 -11028 0
0 0 0 833 1211635 -10195 0
0 0 0 856 1212491 -9339 0
0 0 0 908 1213399 -8431 0
0 0 0 906 1214305 -7525 0
0 0 0 800 1215105 -6725 0
0 0 0 752 1215857 -5973 0
0 0 0 708 1216565 -5265 0
0 0 0 689 1217254 -4576 0
0 0 0 681 1217935 -3895 0
0 0 0 683 1218618 -3212 0
0 0 0 690 1219308 -2522 0
61 1 S106 696 1220004 -1826 0
61 1 S106 720 1220724 -1106 0
61 1 S106 755 1221479 -351 0
61 2 S106 815 1222294 464 0
61 2 S106 822 1223116 1286 0
61 2 S106 808 1223924 2094 0
61 2 S106 769 1224693 2863 0
61 2 S106 741 1225434 3604 0
61 2 S106 752 1226186 4356 0
61 2 S106 779 1226965 5135 0
61 2 S106 844 1227809 5979 0
61 2 S106 893 1228702 6872 0
0 0 0 906 1229608 -6198 0
0 0 0 898 1230506 -5300 0
0 0 0 831 1231337 -4469 0
0 0 0 842 1232179 -3627 0
0 0 0 896 1233075 -2731 0
62 1 S112 923 1233998 -1808 0
62 1 S112 877 1234875 -931 0
62 1 S112 860 1235735 -71 0
62 2 S112 907 1236642 836 0
62 2 S112 952 1237594 1788 0
62 2 S112 953 1238547 2741 0
62 2 S112 869 1239416 3610 0
62 2 S112 832 1240248 4442 0
62 2 S112 870 1241118 5312 0
62 2 S112 926 1242044 6238 0
0 0 0 941 1242985 -11455 0
0 0 0 887 1243872 -10568 0
0 0 0 875 1244747 -9693 0
0 0 0 909 1245656 -8784 0
0 0 0 875 1246531 -7909 0
0 0 0 794 1247325 -7115 0
0 0 0 749 1248074 -6366 0
0 0 0 750 1248824 -5616 0
0 0 0 779 1249603 -4837 0
0 0 0 876 1250479 -3961 0
0 0 0 933 1251412 -3028 0
0 0 0 900 1252312 -2128 0
63 1 S102 842 1253154 -1286 0
63 1 S102 837 1253991 -449 0
63 2 S102 852 1254843 403 0
63 2 S102 931 1255774 1334 0
63 2 S102 926 1256700 2260 0
63 2 S102 874 1257574 3134 0
63 2 S102 817 1258391 3951 0
63 2 S102 821 1259212 4772 0
63 2 S102 845 1260057 5617 0
63 2 S102 882 1260939 6499 0
0 0 0 900 1261839 -9975 0
0 0 0 884 1262723 -9091 0
0 0 0 833 1263556 -8258 0
0 0 0 854 1264410 -7404 0
0 0 0 917 1265327 -6487 0
0 0 0 868 1266195 -5619 0
0 0 0 793 1266988 -4826 0
0 0 0 785 1267773 -4041 0
0 0 0 805 1268578 -3236 0
0 0 0 822 1269400 -2414 0
64 1 S112 808 1270208 -1606 0
64 1 S112 763 1270971 -843 0
64 1 S112 726 1271697 -117 0
64 2 S112 720 1272417 603 0
64 2 S112 758 1273175 1361 0
64 2 S112 832 1274007 2193 0
64 2 S112 874 1274881 3067 0
64 2 S112 855 1275736 3922 0
64 2 S112 798 1276534 4720 0
64 2 S112 777 1277311 5497 0
64 2 S112 798 1278109 6295 0
0 0 0 840 1278949 -7471 0
0 0 0 879 1279828 -6592 0
0 0 0 847 1280675 -5745 0
0 0 0 809 1281484 -4936 0
0 0 0 783 1282267 -4153 0
0 0 0 769 1283036 -3384 0
0 0 0 773 1283809 -2611 0
65 1 S106 758 1284567 -1853 0
65 1 S106 778 1285345 -1075 0
65 1 S106 791 1286136 -284 0
65 2 S106 811 1286947 527 0
65 2 S106 846 1287793 1373 0
65 2 S106 844 1288637 2217 0
65 2 S106 820 1289457 3037 0
65 2 S106 804 1290261 3841 0
65 2 S106 840 1291101 4681 0
65 2 S106 947 1292048 5628 0
65 2 S106 964 1293012 6592 0
0 0 0 964 1293976 -7895 0
0 0 0 919 1294895 -6976 0
0 0 0 851 1295746 -6125 0
0 0 0 855 1296601 -5270 0
0 0 0 864 1297465 -4406 0
0 0 0 868 1298333 -3538 0
0 0 0 770 1299103 -2768 0
0 0 0 754 1299857 -2014 0
66 1 S116 737 1300594 -1277 0
66 1 S116 732 1301326 -545 0
66 2 S116 694 1302020 149 0
66 2 S116 691 1302711 840 0
66 2 S116 709 1303420 1549 0
66 2 S116 729 1304149 2278 0
66 2 S116 772 1304921 3050 0
66 2 S116 822 1305743 3872 0
66 2 S116 843 1306586 4715 0
66 2 S116 829 1307415 5544 0
66 2 S116 797 1308212 6341 0
0 0 0 767 1308979 -11857 0
0 0 0 770 1309749 -11087 0
0 0 0 777 1310526 -10310 0
0 0 0 831 1311357 -9479 0
0 0 0 858 1312215 -8621 0
0 0 0 806 1313021 -7815 0
0 0 0 805 1313826 -7010 0
0 0 0 868 1314694 -6142 0
0 0 0 967 1315661 -5175 0
0 0 0 973 1316634 -4202 0
0 0 0 904 1317538 -3298 0
0 0 0 867 1318405 -2431 0
67 1 S102 873 1319278 -1558 0
67 1 S102 899 1320177 -659 0
67 2 S102 902 1321079 243 0
67 2 S102 872 1321951 1115 0
67 2 S102 852 1322803 1967 0
67 2 S102 864 1323667 2831 0
67 2 S102 913 1324580 3744 0
67 2 S102 951 1325531 4695 0
67 2 S102 922 1326453 5617 0
67 2 S102 879 1327332 6496 0
0 0 0 890 1328222 -7220 0
0 0 0 923 1329145 -6297 0
0 0 0 900 1330045 -5397 0
0 0 0 815 1330860 -4582 0
0 0 0 753 1331613 -3829 0
0 0 0 709 1332322 -3120 0
0 0 0 765 1333087 -2355 0
68 1 S106 847 1333934 -1508 0
68 1 S106 959 1334893 -549 0
68 2 S106 915 1335808 366 0
68 2 S106 885 1336693 1251 0
68 2 S106 851 1337544 2102 0
68 2 S106 831 1338375 2933 0
68 2 S106 809 1339184 3742 0
68 2 S106 774 1339958 4516 0
68 2 S106 731 1340689 5247 0
68 2 S106 721 1341410 5968 0
68 2 S106 730 1342140 6698 0
0 0 0 823 1342963 -10268 0
0 0 0 884 1343847 -9384 0
0 0 0 905 1344752 -8479 0
0 0 0 861 1345613 -7618 0
0 0 0 830 1346443 -6788 0
0 0 0 851 1347294 -5937 0
0 0 0 913 1348207 -5024 0
0 0 0 999 1349206 -4025 0
0 0 0 1001 1350207 -3024 0
0 0 0 969 1351176 -2055 0
69 1 S102 958 1352134 -1097 0
69 1 S102 917 1353051 -180 0
69 2 S102 863 1353914 683 0
69 2 S102 884 1354798 1567 0
69 2 S102 929 1355727 2496 0
69 2 S102 983 1356710 3479 0
69 2 S102 963 1357673 4442 0
69 2 S102 902 1358575 5344 0
69 2 S102 851 1359426 6195 0
69 2 S102 833 1360259 7028 0
0 0 0 883 1361142 -8418 0
0 0 0 908 1362050 -7510 0
0 0 0 878 1362928 -6632 0
0 0 0 831 1363759 -5801 0
0 0 0 810 1364569 -4991 0
0 0 0 766 1365335 -4225 0
0 0 0 723 1366058 -3502 0
0 0 0 665 1366723 -2837 0
0 0 0 649 1367372 -2188 0
70 1 S112 638 1368010 -1550 0
70 1 S112 638 1368648 -912 0
70 1 S112 634 1369282 -278 0
70 2 S112 660 1369942 382 0
70 2 S112 707 1370649 1089 0
70 2 S112 723 1371372 1812 0
70 2 S112 710 1372082 2522 0
70 2 S112 680 1372762 3202 0
70 2 S112 668 1373430 3870 0
70 2 S112 671 1374101 4541 0
70 2 S112 682 1374783 5223 0
70 2 S112 719 1375502 5942 0
70 2 S112 771 1376273 6713 0
0 0 0 798 1377071 -10626 0
0 0 0 774 1377845 -9852 0
0 0 0 785 1378630 -9067 0
0 0 0 799 1379429 -8268 0
0 0 0 871 1380300 -7397 0
0 0 0 883 1381183 -6514 0
0 0 0 859 1382042 -5655 0
0 0 0 871 1382913 -4784 0
0 0 0 891 1383804 -3893 0
0 0 0 893 1384697 -3000 0
0 0 0 854 1385551 -2146 0
71 1 S116 814 1386365 -1332 0
71 1 S116 796 1387161 -536 0
71 2 S116 822 1387983 286 0
71 2 S116 914 1388897 1200 0
71 2 S116 1007 1389904 2207 0
71 2 S116 968 1390872 3175 0
71 2 S116 913 1391785 4088 0
71 2 S116 869 1392654 4957 0
71 2 S116 812 1393466 5769 0
71 2 S116 813 1394279 6582 0
0 0 0 854 1395133 -8811 0
0 0 0 929 1396062 -7882 0
0 0 0 958 1397020 -6924 0
0 0 0 870 1397890 -6054 0
0 0 0 882 1398772 -5172 0
0 0 0 894 1399666 -4278 0
0 0 0 916 1400582 -3362 0
0 0 0 840 1401422 -2522 0
72 1 S102 808 1402230 -1714 0
72 1 S102 839 1403069 -875 0
72 2 S102 882 1403951 7 0
72 2 S102 957 1404908 964 0
72 2 S102 953 1405861 1917 0
72 2 S102 892 1406753 2809 0
72 2 S102 880 1407633 3689 0
72 2 S102 883 1408516 4572 0
72 2 S102 924 1409440 5496 0
72 2 S102 896 1410336 6392 0
0 0 0 848 1411184 -7001 0
0 0 0 864 1412048 -6137 0
0 0 0 925 1412973 -5212 0
0 0 0 882 1413855 -4330 0
0 0 0 853 1414708 -3477 0
0 0 0 858 1415566 -2619 0
73 1 S116 879 1416445 -1740 0
73 1 S116 855 1417300 -885 0
73 1 S116 800 1418100 -85 0
73 2 S116 808 1418908 723 0
73 2 S116 869 1419777 1592 0
73 2 S116 931 1420708 2523 0
73 2 S116 941 1421649 3464 0
73 2 S116 932 1422581 4396 0
73 2 S116 909 1423490 5305 0
73 2 S116 906 1424396 6211 0
0 0 0 924 1425320 -9891 0
0 0 0 946 1426266 -8945 0
0 0 0 904 1427170 -8041 0
0 0 0 830 1428000 -7211 0
0 0 0 823 1428823 -6388 0
0 0 0 807 1429630 -5581 0
0 0 0 796 1430426 -4785 0
0 0 0 748 1431174 -4037 0
0 0 0 714 1431888 -3323 0
0 0 0 697 1432585 -2626 0
74 1 S106 735 1433320 -1891 0
74 1 S106 818 1434138 -1073 0
74 1 S106 924 1435062 -149 0
74 2 S106 887 1435949 738 0
74 2 S106 855 1436804 1593 0
74 2 S106 827 1437631 2420 0
74 2 S106 782 1438413 3202 0
74 2 S106 745 1439158 3947 0
74 2 S106 718 1439876 4665 0
74 2 S106 703 1440579 5368 0
74 2 S106 713 1441292 6081 0
74 2 S106 734 1442026 6815 0
0 0 0 810 1442836 -5671 0
0 0 0 861 1443697 -4810 0
0 0 0 865 1444562 -3945 0
0 0 0 878 1445440 -3067 0
0 0 0 877 1446317 -2190 0
75 1 S112 864 1447181 -1326 0
75 1 S112 871 1448052 -455 0
75 2 S112 912 1448964 457 0
75 2 S112 994 1449958 1451 0
75 2 S112 1011 1450969 2462 0
75 2 S112 962 1451931 3424 0
75 2 S112 905 1452836 4329 0
75 2 S112 904 1453740 5233 0
75 2 S112 933 1454673 6166 0
0 0 0 978 1455651 -8108 0
0 0 0 952 1456603 -7156 0
0 0 0 845 1457448 -6311 0
0 0 0 831 1458279 -5480 0
0 0 0 860 1459139 -4620 0
0 0 0 863 1460002 -3757 0
0 0 0 747 1460749 -3010 0
0 0 0 735 1461484 -2275 0
76 1 S116 696 1462180 -1579 0
76 1 S116 688 1462868 -891 0
76 1 S116 754 1463622 -137 0
76 2 S116 808 1464430 671 0
76 2 S116 844 1465274 1515 0
76 2 S116 847 1466121 2362 0
76 2 S116 809 1466930 3171 0
76 2 S116 833 1467763 4004 0
76 2 S116 848 1468611 4852 0
76 2 S116 856 1469467 5708 0
76 2 S116 873 1470340 6581 0
0 0 0 867 1471207 -6428 0
0 0 0 840 1472047 -5588 0
0 0 0 858 1472905 -4730 0
0 0 0 890 1473795 -3840 0
0 0 0 927 1474722 -2913 0
0 0 0 896 1475618 -2017 0
77 1 S106 880 1476498 -1137 0
77 1 S106 910 1477408 -227 0
77 2 S106 967 1478375 740 0
77 2 S106 972 1479347 1712 0
77 2 S106 929 1480276 2641 0
77 2 S106 910 1481186 3551 0
77 2 S106 904 1482090 4455 0
77 2 S106 918 1483008 5373 0
77 2 S106 948 1483956 6321 0
0 0 0 935 1484891 -8444 0
0 0 0 884 1485775 -7560 0
0 0 0 804 1486579 -6756 0
0 0 0 795 1487374 -5961 0
0 0 0 832 1488206 -5129 0
0 0 0 930 1489136 -4199 0
0 0 0 926 1490062 -3273 0
0 0 0 861 1490923 -2412 0
78 1 S112 848 1491771 -1564 0
78 1 S112 855 1492626 -709 0
78 2 S112 909 1493535 200 0
78 2 S112 910 1494445 1110 0
78 2 S112 862 1495307 1972 0
78 2 S112 822 1496129 2794 0
78 2 S112 830 1496959 3624 0
78 2 S112 861 1497820 4485 0
78 2 S112 911 1498731 5396 0
78 2 S112 917 1499648 6313 0
0 0 0 870 1500518 -11169 0
0 0 0 839 1501357 -10330 0
0 0 0 823 1502180 -9507 0
0 0 0 871 1503051 -8636 0
0 0 0 879 1503930 -7757 0
0 0 0 834 1504764 -6923 0
0 0 0 773 1505537 -6150 0
0 0 0 752 1506289 -5398 0
0 0 0 793 1507082 -4605 0
0 0 0 858 1507940 -3747 0
0 0 0 913 1508853 -2834 0
79 1 S102 905 1509758 -1929 0
79 1 S102 840 1510598 -1089 0
79 1 S102 820 1511418 -269 0
79 2 S102 814 1512232 545 0
79 2 S102 849 1513081 1394 0
79 2 S102 873 1513954 2267 0
79 2 S102 873 1514827 3140 0
79 2 S102 833 1515660 3973 0
79 2 S102 802 1516462 4775 0
79 2 S102 814 1517276 5589 0
79 2 S102 858 1518134 6447 0
0 0 0 930 1519064 -8406 0
0 0 0 917 1519981 -7489 0
0 0 0 841 1520822 -6648 0
0 0 0 805 1521627 -5843 0
0 0 0 804 1522431 -5039 0
0 0 0 849 1523280 -4190 0
0 0 0 846 1524126 -3344 0
0 0 0 814 1524940 -2530 0
80 1 S116 814 1525754 -1716 0
80 1 S116 864 1526618 -852 0
80 2 S116 927 1527545 75 0
80 2 S116 940 1528485 1015 0
80 2 S116 902 1529387 1917 0
80 2 S116 827 1530214 2744 0
80 2 S116 821 1531035 3565 0
80 2 S116 846 1531881 4411 0
80 2 S116 865 1532746 5276 0
80 2 S116 869 1533615 6145 0
80 2 S116 857 1534472 7002 0
