T_0039
BeatCount Mean SD BeatCountNoOutliers MeanNoOutliers SDNoOutliers
1819 852,025288620121 65,9495541650387 1764 858,054421768707 54,0015386179064

Trial TrialStatus Trialtype IBI AbsPosition RelPosition Outlier
0 0 0 843 1598 -14144 0
0 0 0 835 2433 -13309 0
0 0 0 800 3233 -12509 0
0 0 0 838 4071 -11671 0
0 0 0 841 4912 -10830 0
0 0 0 838 5750 -9992 0
0 0 0 808 6558 -9184 0
0 0 0 839 7397 -8345 0
0 0 0 823 8220 -7522 0
0 0 0 836 9056 -6686 0
0 0 0 882 9938 -5804 0
0 0 0 930 10868 -4874 0
0 0 0 922 11790 -3952 0
0 0 0 921 12711 -3031 0
0 0 0 936 13647 -2095 0
1 1 S112 939 14586 -1156 0
1 1 S112 866 15452 -290 0
1 2 S112 884 16336 594 0
1 2 S112 890 17226 1484 0
1 2 S112 864 18090 2348 0
1 2 S112 828 18918 3176 0
1 2 S112 889 19807 4065 0
1 2 S112 915 20722 4980 0
1 2 S112 920 21642 5900 0
1 2 S112 915 22557 6815 0
0 0 0 927 23484 -10859 0
0 0 0 868 24352 -9991 0
0 0 0 860 25212 -9131 0
0 0 0 863 26075 -8268 0
0 0 0 856 26931 -7412 0
0 0 0 803 27734 -6609 0
0 0 0 845 28579 -5764 0
0 0 0 891 29470 -4873 0
0 0 0 893 30363 -3980 0
0 0 0 889 31252 -3091 0
0 0 0 927 32179 -2164 0
2 1 S102 941 33120 -1223 0
2 1 S102 859 33979 -364 0
2 2 S102 876 34855 512 0
2 2 S102 885 35740 1397 0
2 2 S102 865 36605 2262 0
2 2 S102 869 37474 3131 0
2 2 S102 896 38370 4027 0
2 2 S102 896 39266 4923 0
2 2 S102 861 40127 5784 0
2 2 S102 916 41043 6700 0
0 0 0 925 41968 -9517 0
0 0 0 855 42823 -8662 0
0 0 0 880 43703 -7782 0
0 0 0 897 44600 -6885 0
0 0 0 840 45440 -6045 0
0 0 0 871 46311 -5174 0
0 0 0 890 47201 -4284 0
0 0 0 891 48092 -3393 0
0 0 0 876 48968 -2517 0
3 1 S116 907 49875 -1610 0
3 1 S116 915 50790 -695 0
3 2 S116 857 51647 162 0
3 2 S116 908 52555 1070 0
3 2 S116 864 53419 1934 0
3 2 S116 890 54309 2824 0
3 2 S116 912 55221 3736 0
3 2 S116 933 56154 4669 0
3 2 S116 916 57070 5585 0
3 2 S116 921 57991 6506 0
0 0 0 936 58927 -12153 0
0 0 0 918 59845 -11235 0
0 0 0 836 60681 -10399 0
0 0 0 859 61540 -9540 0
0 0 0 850 62390 -8690 0
0 0 0 821 63211 -7869 0
0 0 0 834 64045 -7035 0
0 0 0 863 64908 -6172 0
0 0 0 880 65788 -5292 0
0 0 0 807 66595 -4485 0
0 0 0 821 67416 -3664 0
0 0 0 836 68252 -2828 0
4 1 S106 840 69092 -1988 0
4 1 S106 842 69934 -1146 0
4 1 S106 891 70825 -255 0
4 2 S106 924 71749 669 0
4 2 S106 896 72645 1565 0
4 2 S106 922 73567 2487 0
4 2 S106 916 74483 3403 0
4 2 S106 857 75340 4260 0
4 2 S106 845 76185 5105 0
4 2 S106 869 77054 5974 0
4 2 S106 884 77938 6858 0
0 0 0 884 78822 -6632 0
0 0 0 853 79675 -5779 0
0 0 0 868 80543 -4911 0
0 0 0 847 81390 -4064 0
0 0 0 824 82214 -3240 0
0 0 0 855 83069 -2385 0
5 1 S116 868 83937 -1517 0
5 1 S116 819 84756 -698 0
5 2 S116 801 85557 103 0
5 2 S116 826 86383 929 0
5 2 S116 875 87258 1804 0
5 2 S116 875 88133 2679 0
5 2 S116 850 88983 3529 0
5 2 S116 884 89867 4413 0
5 2 S116 885 90752 5298 0
5 2 S116 870 91622 6168 0
5 2 S116 832 92454 7000 0
0 0 0 852 93306 -10467 0
0 0 0 835 94141 -9632 0
0 0 0 771 94912 -8861 0
0 0 0 795 95707 -8066 0
0 0 0 833 96540 -7233 0
0 0 0 837 97377 -6396 0
0 0 0 819 98196 -5577 0
0 0 0 856 99052 -4721 0
0 0 0 865 99917 -3856 0
0 0 0 836 100753 -3020 0
0 0 0 857 101610 -2163 0
6 1 S106 884 102494 -1279 0
6 1 S106 878 103372 -401 0
6 2 S106 834 104206 433 0
6 2 S106 861 105067 1294 0
6 2 S106 842 105909 2136 0
6 2 S106 798 106707 2934 0
6 2 S106 844 107551 3778 0
6 2 S106 883 108434 4661 0
6 2 S106 891 109325 5552 0
6 2 S106 881 110206 6433 0
0 0 0 901 111107 -10007 0
0 0 0 873 111980 -9134 0
0 0 0 804 112784 -8330 0
0 0 0 810 113594 -7520 0
0 0 0 810 114404 -6710 0
0 0 0 767 115171 -5943 0
0 0 0 687 115858 -5256 0
0 0 0 700 116558 -4556 0
0 0 0 734 117292 -3822 0
0 0 0 734 118026 -3088 0
0 0 0 692 118718 -2396 0
7 1 S102 651 119369 -1745 1
7 1 S102 697 120066 -1048 0
7 1 S102 782 120848 -266 0
7 2 S102 824 121672 558 0
7 2 S102 827 122499 1385 0
7 2 S102 840 123339 2225 0
7 2 S102 854 124193 3079 0
7 2 S102 835 125028 3914 0
7 2 S102 802 125830 4716 0
7 2 S102 817 126647 5533 0
7 2 S102 823 127470 6356 0
0 0 0 800 128270 -8129 0
0 0 0 808 129078 -7321 0
0 0 0 818 129896 -6503 0
0 0 0 795 130691 -5708 0
0 0 0 786 131477 -4922 0
0 0 0 822 132299 -4100 0
0 0 0 844 133143 -3256 0
0 0 0 842 133985 -2414 0
8 1 S112 819 134804 -1595 0
8 1 S112 856 135660 -739 0
8 2 S112 840 136500 101 0
8 2 S112 827 137327 928 0
8 2 S112 815 138142 1743 0
8 2 S112 843 138985 2586 0
8 2 S112 849 139834 3435 0
8 2 S112 829 140663 4264 0
8 2 S112 795 141458 5059 0
8 2 S112 829 142287 5888 0
8 2 S112 820 143107 6708 0
0 0 0 851 143958 -7710 0
0 0 0 825 144783 -6885 0
0 0 0 833 145616 -6052 0
0 0 0 830 146446 -5222 0
0 0 0 796 147242 -4426 0
0 0 0 820 148062 -3606 0
0 0 0 826 148888 -2780 0
9 1 S116 796 149684 -1984 0
9 1 S116 834 150518 -1150 0
9 1 S116 855 151373 -295 0
9 2 S116 820 152193 525 0
9 2 S116 834 153027 1359 0
9 2 S116 852 153879 2211 0
9 2 S116 875 154754 3086 0
9 2 S116 866 155620 3952 0
9 2 S116 872 156492 4824 0
9 2 S116 883 157375 5707 0
9 2 S116 890 158265 6597 0
0 0 0 873 159138 -13137 0
0 0 0 869 160007 -12268 0
0 0 0 860 160867 -11408 0
0 0 0 832 161699 -10576 0
0 0 0 796 162495 -9780 0
0 0 0 827 163322 -8953 0
0 0 0 838 164160 -8115 0
0 0 0 825 164985 -7290 0
0 0 0 827 165812 -6463 0
0 0 0 843 166655 -5620 0
0 0 0 857 167512 -4763 0
0 0 0 827 168339 -3936 0
0 0 0 849 169188 -3087 0
0 0 0 868 170056 -2219 0
10 1 S102 874 170930 -1345 0
10 1 S102 849 171779 -496 0
10 2 S102 845 172624 349 0
10 2 S102 861 173485 1210 0
10 2 S102 840 174325 2050 0
10 2 S102 799 175124 2849 0
10 2 S102 831 175955 3680 0
10 2 S102 831 176786 4511 0
10 2 S102 806 177592 5317 0
10 2 S102 778 178370 6095 0
10 2 S102 790 179160 6885 0
0 0 0 800 179960 -10037 0
0 0 0 784 180744 -9253 0
0 0 0 800 181544 -8453 0
0 0 0 807 182351 -7646 0
0 0 0 780 183131 -6866 0
0 0 0 786 183917 -6080 0
0 0 0 800 184717 -5280 0
0 0 0 813 185530 -4467 0
0 0 0 783 186313 -3684 0
0 0 0 789 187102 -2895 0
0 0 0 804 187906 -2091 0
11 1 S112 815 188721 -1276 0
11 1 S112 745 189466 -531 0
11 2 S112 742 190208 211 0
11 2 S112 785 190993 996 0
11 2 S112 840 191833 1836 0
11 2 S112 862 192695 2698 0
11 2 S112 846 193541 3544 0
11 2 S112 892 194433 4436 0
11 2 S112 905 195338 5341 0
11 2 S112 904 196242 6245 0
0 0 0 863 197105 -8774 0
0 0 0 850 197955 -7924 0
0 0 0 834 198789 -7090 0
0 0 0 797 199586 -6293 0
0 0 0 807 200393 -5486 0
0 0 0 813 201206 -4673 0
0 0 0 793 201999 -3880 0
0 0 0 820 202819 -3060 0
0 0 0 843 203662 -2217 0
12 1 S116 829 204491 -1388 0
12 1 S116 806 205297 -582 0
12 2 S116 844 206141 262 0
12 2 S116 853 206994 1115 0
12 2 S116 865 207859 1980 0
12 2 S116 848 208707 2828 0
12 2 S116 877 209584 3705 0
12 2 S116 885 210469 4590 0
12 2 S116 879 211348 5469 0
12 2 S116 862 212210 6331 0
0 0 0 886 213096 -12246 0
0 0 0 884 213980 -11362 0
0 0 0 815 214795 -10547 0
0 0 0 822 215617 -9725 0
0 0 0 833 216450 -8892 0
0 0 0 810 217260 -8082 0
0 0 0 784 218044 -7298 0
0 0 0 805 218849 -6493 0
0 0 0 830 219679 -5663 0
0 0 0 812 220491 -4851 0
0 0 0 806 221297 -4045 0
0 0 0 854 222151 -3191 0
0 0 0 886 223037 -2305 0
13 1 S112 872 223909 -1433 0
13 1 S112 839 224748 -594 0
13 2 S112 860 225608 266 0
13 2 S112 859 226467 1125 0
13 2 S112 851 227318 1976 0
13 2 S112 788 228106 2764 0
13 2 S112 813 228919 3577 0
13 2 S112 815 229734 4392 0
13 2 S112 831 230565 5223 0
13 2 S112 796 231361 6019 0
13 2 S112 837 232198 6856 0
0 0 0 846 233044 -12491 0
0 0 0 826 233870 -11665 0
0 0 0 773 234643 -10892 0
0 0 0 797 235440 -10095 0
0 0 0 824 236264 -9271 0
0 0 0 804 237068 -8467 0
0 0 0 806 237874 -7661 0
0 0 0 836 238710 -6825 0
0 0 0 827 239537 -5998 0
0 0 0 763 240300 -5235 0
0 0 0 715 241015 -4520 0
0 0 0 688 241703 -3832 0
0 0 0 675 242378 -3157 1
0 0 0 751 243129 -2406 0
14 1 S106 809 243938 -1597 0
14 1 S106 807 244745 -790 0
14 2 S106 827 245572 37 0
14 2 S106 852 246424 889 0
14 2 S106 867 247291 1756 0
14 2 S106 841 248132 2597 0
14 2 S106 835 248967 3432 0
14 2 S106 843 249810 4275 0
14 2 S106 853 250663 5128 0
14 2 S106 832 251495 5960 0
14 2 S106 823 252318 6783 0
0 0 0 855 253173 -11294 0
0 0 0 869 254042 -10425 0
0 0 0 823 254865 -9602 0
0 0 0 867 255732 -8735 0
0 0 0 868 256600 -7867 0
0 0 0 833 257433 -7034 0
0 0 0 852 258285 -6182 0
0 0 0 864 259149 -5318 0
0 0 0 834 259983 -4484 0
0 0 0 803 260786 -3681 0
0 0 0 825 261611 -2856 0
0 0 0 836 262447 -2020 0
15 1 S116 810 263257 -1210 0
15 1 S116 828 264085 -382 0
15 2 S116 857 264942 475 0
15 2 S116 889 265831 1364 0
15 2 S116 866 266697 2230 0
15 2 S116 885 267582 3115 0
15 2 S116 905 268487 4020 0
15 2 S116 905 269392 4925 0
15 2 S116 849 270241 5774 0
15 2 S116 860 271101 6634 0
0 0 0 860 271961 -9483 0
0 0 0 850 272811 -8633 0
0 0 0 795 273606 -7838 0
0 0 0 819 274425 -7019 0
0 0 0 827 275252 -6192 0
0 0 0 798 276050 -5394 0
0 0 0 818 276868 -4576 0
0 0 0 848 277716 -3728 0
0 0 0 831 278547 -2897 0
0 0 0 776 279323 -2121 0
16 1 S116 798 280121 -1323 0
16 1 S116 819 280940 -504 0
16 2 S116 844 281784 340 0
16 2 S116 816 282600 1156 0
16 2 S116 861 283461 2017 0
16 2 S116 873 284334 2890 0
16 2 S116 860 285194 3750 0
16 2 S116 847 286041 4597 0
16 2 S116 880 286921 5477 0
16 2 S116 893 287814 6370 0
0 0 0 848 288662 -8531 0
0 0 0 861 289523 -7670 0
0 0 0 864 290387 -6806 0
0 0 0 853 291240 -5953 0
0 0 0 807 292047 -5146 0
0 0 0 851 292898 -4295 0
0 0 0 848 293746 -3447 0
0 0 0 821 294567 -2626 0
17 1 S106 805 295372 -1821 0
17 1 S106 841 296213 -980 0
17 1 S106 845 297058 -135 0
17 2 S106 843 297901 708 0
17 2 S106 891 298792 1599 0
17 2 S106 913 299705 2512 0
17 2 S106 902 300607 3414 0
17 2 S106 868 301475 4282 0
17 2 S106 884 302359 5166 0
17 2 S106 874 303233 6040 0
17 2 S106 870 304103 6910 0
0 0 0 827 304930 -12091 0
0 0 0 836 305766 -11255 0
0 0 0 844 306610 -10411 0
0 0 0 828 307438 -9583 0
0 0 0 844 308282 -8739 0
0 0 0 855 309137 -7884 0
0 0 0 828 309965 -7056 0
0 0 0 840 310805 -6216 0
0 0 0 862 311667 -5354 0
0 0 0 858 312525 -4496 0
0 0 0 803 313328 -3693 0
0 0 0 803 314131 -2890 0
0 0 0 760 314891 -2130 0
18 1 S102 705 315596 -1425 0
18 1 S102 670 316266 -755 1
18 1 S102 647 316913 -108 1
18 2 S102 690 317603 582 0
18 2 S102 795 318398 1377 0
18 2 S102 824 319222 2201 0
18 2 S102 834 320056 3035 0
18 2 S102 790 320846 3825 0
18 2 S102 809 321655 4634 0
18 2 S102 842 322497 5476 0
18 2 S102 858 323355 6334 0
0 0 0 843 324198 -7329 0
0 0 0 836 325034 -6493 0
0 0 0 827 325861 -5666 0
0 0 0 815 326676 -4851 0
0 0 0 749 327425 -4102 0
0 0 0 754 328179 -3348 0
0 0 0 724 328903 -2624 0
19 1 S106 696 329599 -1928 0
19 1 S106 801 330400 -1127 0
19 1 S106 860 331260 -267 0
19 2 S106 854 332114 587 0
19 2 S106 911 333025 1498 0
19 2 S106 930 333955 2428 0
19 2 S106 935 334890 3363 0
19 2 S106 874 335764 4237 0
19 2 S106 904 336668 5141 0
19 2 S106 917 337585 6058 0
19 2 S106 903 338488 6961 0
0 0 0 846 339334 -10777 0
0 0 0 868 340202 -9909 0
0 0 0 867 341069 -9042 0
0 0 0 812 341881 -8230 0
0 0 0 857 342738 -7373 0
0 0 0 869 343607 -6504 0
0 0 0 838 344445 -5666 0
0 0 0 830 345275 -4836 0
0 0 0 863 346138 -3973 0
0 0 0 863 347001 -3110 0
0 0 0 822 347823 -2288 0
20 1 S112 854 348677 -1434 0
20 1 S112 862 349539 -572 0
20 2 S112 818 350357 246 0
20 2 S112 860 351217 1106 0
20 2 S112 892 352109 1998 0
20 2 S112 917 353026 2915 0
20 2 S112 860 353886 3775 0
20 2 S112 876 354762 4651 0
20 2 S112 898 355660 5549 0
20 2 S112 898 356558 6447 0
0 0 0 840 357398 -9822 0
0 0 0 847 358245 -8975 0
0 0 0 845 359090 -8130 0
0 0 0 820 359910 -7310 0
0 0 0 815 360725 -6495 0
0 0 0 840 361565 -5655 0
0 0 0 846 362411 -4809 0
0 0 0 832 363243 -3977 0
0 0 0 879 364122 -3098 0
0 0 0 885 365007 -2213 0
21 1 S106 838 365845 -1375 0
21 1 S106 864 366709 -511 0
21 2 S106 878 367587 367 0
21 2 S106 875 368462 1242 0
21 2 S106 870 369332 2112 0
21 2 S106 902 370234 3014 0
21 2 S106 916 371150 3930 0
21 2 S106 883 372033 4813 0
21 2 S106 852 372885 5665 0
21 2 S106 907 373792 6572 0
0 0 0 908 374700 -11121 0
0 0 0 893 375593 -10228 0
0 0 0 828 376421 -9400 0
0 0 0 872 377293 -8528 0
0 0 0 865 378158 -7663 0
0 0 0 825 378983 -6838 0
0 0 0 857 379840 -5981 0
0 0 0 872 380712 -5109 0
0 0 0 872 381584 -4237 0
0 0 0 850 382434 -3387 0
0 0 0 884 383318 -2503 0
22 1 S116 871 384189 -1632 0
22 1 S116 817 385006 -815 0
22 2 S116 846 385852 31 0
22 2 S116 824 386676 855 0
22 2 S116 784 387460 1639 0
22 2 S116 837 388297 2476 0
22 2 S116 895 389192 3371 0
22 2 S116 936 390128 4307 0
22 2 S116 914 391042 5221 0
22 2 S116 923 391965 6144 0
0 0 0 940 392905 -10224 0
0 0 0 879 393784 -9345 0
0 0 0 866 394650 -8479 0
0 0 0 857 395507 -7622 0
0 0 0 823 396330 -6799 0
0 0 0 809 397139 -5990 0
0 0 0 836 397975 -5154 0
0 0 0 860 398835 -4294 0
0 0 0 821 399656 -3473 0
0 0 0 854 400510 -2619 0
23 1 S112 891 401401 -1728 0
23 1 S112 894 402295 -834 0
23 2 S112 840 403135 6 0
23 2 S112 875 404010 881 0
23 2 S112 902 404912 1783 0
23 2 S112 891 405803 2674 0
23 2 S112 855 406658 3529 0
23 2 S112 824 407482 4353 0
23 2 S112 858 408340 5211 0
23 2 S112 883 409223 6094 0
23 2 S112 884 410107 6978 0
0 0 0 884 410991 -8998 0
0 0 0 827 411818 -8171 0
0 0 0 845 412663 -7326 0
0 0 0 836 413499 -6490 0
0 0 0 792 414291 -5698 0
0 0 0 842 415133 -4856 0
0 0 0 862 415995 -3994 0
0 0 0 861 416856 -3133 0
0 0 0 894 417750 -2239 0
24 1 S106 922 418672 -1317 0
24 1 S106 934 419606 -383 0
24 2 S106 914 420520 531 0
24 2 S106 866 421386 1397 0
24 2 S106 880 422266 2277 0
24 2 S106 867 423133 3144 0
24 2 S106 845 423978 3989 0
24 2 S106 879 424857 4868 0
24 2 S106 896 425753 5764 0
24 2 S106 888 426641 6652 0
0 0 0 816 427457 -7668 0
0 0 0 796 428253 -6872 0
0 0 0 767 429020 -6105 0
0 0 0 745 429765 -5360 0
0 0 0 708 430473 -4652 0
0 0 0 744 431217 -3908 0
0 0 0 721 431938 -3187 0
0 0 0 785 432723 -2402 0
25 1 S102 859 433582 -1543 0
25 1 S102 901 434483 -642 0
25 2 S102 885 435368 243 0
25 2 S102 890 436258 1133 0
25 2 S102 900 437158 2033 0
25 2 S102 908 438066 2941 0
25 2 S102 873 438939 3814 0
25 2 S102 864 439803 4678 0
25 2 S102 881 440684 5559 0
25 2 S102 865 441549 6424 0
0 0 0 812 442361 -6640 0
0 0 0 851 443212 -5789 0
0 0 0 866 444078 -4923 0
0 0 0 820 444898 -4103 0
0 0 0 844 445742 -3259 0
0 0 0 855 446597 -2404 0
26 1 S116 829 447426 -1575 0
26 1 S116 819 448245 -756 0
26 2 S116 859 449104 103 0
26 2 S116 884 449988 987 0
26 2 S116 883 450871 1870 0
26 2 S116 930 451801 2800 0
26 2 S116 950 452751 3750 0
26 2 S116 924 453675 4674 0
26 2 S116 920 454595 5594 0
26 2 S116 934 455529 6528 0
0 0 0 937 456466 -6428 0
0 0 0 890 457356 -5538 0
0 0 0 871 458227 -4667 0
0 0 0 887 459114 -3780 0
0 0 0 883 459997 -2897 0
0 0 0 843 460840 -2054 0
27 1 S106 876 461716 -1178 0
27 1 S106 883 462599 -295 0
27 2 S106 833 463432 538 0
27 2 S106 868 464300 1406 0
27 2 S106 893 465193 2299 0
27 2 S106 905 466098 3204 0
27 2 S106 861 466959 4065 0
27 2 S106 902 467861 4967 0
27 2 S106 911 468772 5878 0
27 2 S106 890 469662 6768 0
0 0 0 837 470499 -6238 0
0 0 0 887 471386 -5351 0
0 0 0 872 472258 -4479 0
0 0 0 817 473075 -3662 0
0 0 0 828 473903 -2834 0
0 0 0 785 474688 -2049 0
28 1 S102 729 475417 -1320 0
28 1 S102 732 476149 -588 0
28 2 S102 715 476864 127 0
28 2 S102 754 477618 881 0
28 2 S102 835 478453 1716 0
28 2 S102 852 479305 2568 0
28 2 S102 824 480129 3392 0
28 2 S102 819 480948 4211 0
28 2 S102 848 481796 5059 0
28 2 S102 868 482664 5927 0
28 2 S102 851 483515 6778 0
0 0 0 854 484369 -10455 0
0 0 0 871 485240 -9584 0
0 0 0 854 486094 -8730 0
0 0 0 797 486891 -7933 0
0 0 0 811 487702 -7122 0
0 0 0 809 488511 -6313 0
0 0 0 781 489292 -5532 0
0 0 0 808 490100 -4724 0
0 0 0 854 490954 -3870 0
0 0 0 834 491788 -3036 0
0 0 0 762 492550 -2274 0
29 1 S112 736 493286 -1538 0
29 1 S112 854 494140 -684 0
29 2 S112 939 495079 255 0
29 2 S112 966 496045 1221 0
29 2 S112 977 497022 2198 0
29 2 S112 976 497998 3174 0
29 2 S112 969 498967 4143 0
29 2 S112 940 499907 5083 0
29 2 S112 935 500842 6018 0
29 2 S112 916 501758 6934 0
0 0 0 892 502650 -8122 0
0 0 0 826 503476 -7296 0
0 0 0 821 504297 -6475 0
0 0 0 830 505127 -5645 0
0 0 0 856 505983 -4789 0
0 0 0 812 506795 -3977 0
0 0 0 841 507636 -3136 0
0 0 0 864 508500 -2272 0
30 1 S112 858 509358 -1414 0
30 1 S112 860 510218 -554 0
30 2 S112 892 511110 338 0
30 2 S112 901 512011 1239 0
30 2 S112 877 512888 2116 0
30 2 S112 925 513813 3041 0
30 2 S112 941 514754 3982 0
30 2 S112 919 515673 4901 0
30 2 S112 883 516556 5784 0
30 2 S112 909 517465 6693 0
0 0 0 901 518366 -9117 0
0 0 0 851 519217 -8266 0
0 0 0 837 520054 -7429 0
0 0 0 849 520903 -6580 0
0 0 0 829 521732 -5751 0
0 0 0 812 522544 -4939 0
0 0 0 882 523426 -4057 0
0 0 0 914 524340 -3143 0
0 0 0 896 525236 -2247 0
31 1 S106 869 526105 -1378 0
31 1 S106 902 527007 -476 0
31 2 S106 902 527909 426 0
31 2 S106 875 528784 1301 0
31 2 S106 869 529653 2170 0
31 2 S106 889 530542 3059 0
31 2 S106 888 531430 3947 0
31 2 S106 835 532265 4782 0
31 2 S106 873 533138 5655 0
31 2 S106 905 534043 6560 0
0 0 0 913 534956 -8559 0
0 0 0 864 535820 -7695 0
0 0 0 832 536652 -6863 0
0 0 0 834 537486 -6029 0
0 0 0 771 538257 -5258 0
0 0 0 711 538968 -4547 0
0 0 0 688 539656 -3859 0
0 0 0 679 540335 -3180 1
0 0 0 774 541109 -2406 0
32 1 S102 816 541925 -1590 0
32 1 S102 841 542766 -749 0
32 2 S102 813 543579 64 0
32 2 S102 851 544430 915 0
32 2 S102 875 545305 1790 0
32 2 S102 837 546142 2627 0
32 2 S102 856 546998 3483 0
32 2 S102 877 547875 4360 0
32 2 S102 844 548719 5204 0
32 2 S102 826 549545 6030 0
32 2 S102 855 550400 6885 0
0 0 0 863 551263 -9560 0
0 0 0 830 552093 -8730 0
0 0 0 845 552938 -7885 0
0 0 0 858 553796 -7027 0
0 0 0 861 554657 -6166 0
0 0 0 821 555478 -5345 0
0 0 0 875 556353 -4470 0
0 0 0 891 557244 -3579 0
0 0 0 866 558110 -2713 0
33 1 S112 866 558976 -1847 0
33 1 S112 887 559863 -960 0
33 1 S112 896 560759 -64 0
33 2 S112 858 561617 794 0
33 2 S112 852 562469 1646 0
33 2 S112 881 563350 2527 0
33 2 S112 876 564226 3403 0
33 2 S112 847 565073 4250 0
33 2 S112 837 565910 5087 0
33 2 S112 892 566802 5979 0
33 2 S112 903 567705 6882 0
0 0 0 906 568611 -12089 0
0 0 0 830 569441 -11259 0
0 0 0 870 570311 -10389 0
0 0 0 865 571176 -9524 0
0 0 0 814 571990 -8710 0
0 0 0 845 572835 -7865 0
0 0 0 851 573686 -7014 0
0 0 0 825 574511 -6189 0
0 0 0 863 575374 -5326 0
0 0 0 899 576273 -4427 0
0 0 0 900 577173 -3527 0
0 0 0 852 578025 -2675 0
34 1 S106 890 578915 -1785 0
34 1 S106 891 579806 -894 0
34 1 S106 829 580635 -65 0
34 2 S106 883 581518 818 0
34 2 S106 906 582424 1724 0
34 2 S106 904 583328 2628 0
34 2 S106 845 584173 3473 0
34 2 S106 895 585068 4368 0
34 2 S106 901 585969 5269 0
34 2 S106 898 586867 6167 0
34 2 S106 851 587718 7018 0
0 0 0 894 588612 -8219 0
0 0 0 887 589499 -7332 0
0 0 0 833 590332 -6499 0
0 0 0 846 591178 -5653 0
0 0 0 842 592020 -4811 0
0 0 0 851 592871 -3960 0
0 0 0 826 593697 -3134 0
0 0 0 875 594572 -2259 0
35 1 S102 896 595468 -1363 0
35 1 S102 866 596334 -497 0
35 2 S102 824 597158 327 0
35 2 S102 765 597923 1092 0
35 2 S102 718 598641 1810 0
35 2 S102 831 599472 2641 0
35 2 S102 888 600360 3529 0
35 2 S102 884 601244 4413 0
35 2 S102 873 602117 5286 0
35 2 S102 902 603019 6188 0
0 0 0 908 603927 -7659 0
0 0 0 850 604777 -6809 0
0 0 0 863 605640 -5946 0
0 0 0 873 606513 -5073 0
0 0 0 821 607334 -4252 0
0 0 0 806 608140 -3446 0
0 0 0 832 608972 -2614 0
36 1 S106 844 609816 -1770 0
36 1 S106 803 610619 -967 0
36 1 S106 863 611482 -104 0
36 2 S106 890 612372 786 0
36 2 S106 877 613249 1663 0
36 2 S106 893 614142 2556 0
36 2 S106 900 615042 3456 0
36 2 S106 889 615931 4345 0
36 2 S106 833 616764 5178 0
36 2 S106 876 617640 6054 0
36 2 S106 870 618510 6924 0
0 0 0 840 619350 -8681 0
0 0 0 809 620159 -7872 0
0 0 0 856 621015 -7016 0
0 0 0 880 621895 -6136 0
0 0 0 835 622730 -5301 0
0 0 0 855 623585 -4446 0
0 0 0 886 624471 -3560 0
0 0 0 907 625378 -2653 0
37 1 S116 854 626232 -1799 0
37 1 S116 856 627088 -943 0
37 1 S116 867 627955 -76 0
37 2 S116 842 628797 766 0
37 2 S116 852 629649 1618 0
37 2 S116 876 630525 2494 0
37 2 S116 904 631429 3398 0
37 2 S116 878 632307 4276 0
37 2 S116 896 633203 5172 0
37 2 S116 923 634126 6095 0
0 0 0 940 635066 -11550 0
0 0 0 892 635958 -10658 0
0 0 0 871 636829 -9787 0
0 0 0 860 637689 -8927 0
0 0 0 818 638507 -8109 0
0 0 0 819 639326 -7290 0
0 0 0 844 640170 -6446 0
0 0 0 860 641030 -5586 0
0 0 0 813 641843 -4773 0
0 0 0 864 642707 -3909 0
0 0 0 884 643591 -3025 0
0 0 0 852 644443 -2173 0
38 1 S102 853 645296 -1320 0
38 1 S102 886 646182 -434 0
38 2 S102 896 647078 462 0
38 2 S102 835 647913 1297 0
38 2 S102 881 648794 2178 0
38 2 S102 898 649692 3076 0
38 2 S102 888 650580 3964 0
38 2 S102 841 651421 4805 0
38 2 S102 866 652287 5671 0
38 2 S102 864 653151 6535 0
0 0 0 847 653998 -8931 0
0 0 0 857 654855 -8074 0
0 0 0 857 655712 -7217 0
0 0 0 823 656535 -6394 0
0 0 0 815 657350 -5579 0
0 0 0 842 658192 -4737 0
0 0 0 868 659060 -3869 0
0 0 0 835 659895 -3034 0
0 0 0 881 660776 -2153 0
39 1 S116 899 661675 -1254 0
39 1 S116 874 662549 -380 0
39 2 S116 884 663433 504 0
39 2 S116 898 664331 1402 0
39 2 S116 908 665239 2310 0
39 2 S116 867 666106 3177 0
39 2 S116 902 667008 4079 0
39 2 S116 914 667922 4993 0
39 2 S116 891 668813 5884 0
39 2 S116 851 669664 6735 0
0 0 0 900 670564 -5760 0
0 0 0 890 671454 -4870 0
0 0 0 829 672283 -4041 0
0 0 0 834 673117 -3207 0
0 0 0 851 673968 -2356 0
40 1 S112 837 674805 -1519 0
40 1 S112 826 675631 -693 0
40 2 S112 865 676496 172 0
40 2 S112 906 677402 1078 0
40 2 S112 911 678313 1989 0
40 2 S112 841 679154 2830 0
40 2 S112 840 679994 3670 0
40 2 S112 884 680878 4554 0
40 2 S112 897 681775 5451 0
40 2 S112 907 682682 6358 0
0 0 0 867 683549 -187555 0
0 0 0 892 684441 -186663 0
0 0 0 877 685318 -185786 0
0 0 0 824 686142 -184962 0
0 0 0 848 686990 -184114 0
0 0 0 843 687833 -183271 0
0 0 0 755 688588 -182516 0
0 0 0 776 689364 -181740 0
0 0 0 768 690132 -180972 0
0 0 0 756 690888 -180216 0
0 0 0 679 691567 -179537 1
0 0 0 660 692227 -178877 1
0 0 0 687 692914 -178190 0
0 0 0 712 693626 -177478 0
0 0 0 748 694374 -176730 0
0 0 0 1466 695840 -175264 1
0 0 0 677 696517 -174587 1
0 0 0 707 697224 -173880 0
0 0 0 730 697954 -173150 0
0 0 0 700 698654 -172450 0
0 0 0 668 699322 -171782 1
0 0 0 658 699980 -171124 1
0 0 0 661 700641 -170463 1
0 0 0 678 701319 -169785 1
0 0 0 697 702016 -169088 0
0 0 0 661 702677 -168427 1
0 0 0 677 703354 -167750 1
0 0 0 650 704004 -167100 1
0 0 0 653 704657 -166447 1
0 0 0 644 705301 -165803 1
0 0 0 633 705934 -165170 1
0 0 0 634 706568 -164536 1
0 0 0 632 707200 -163904 1
0 0 0 604 707804 -163300 1
0 0 0 591 708395 -162709 1
0 0 0 602 708997 -162107 1
0 0 0 615 709612 -161492 1
0 0 0 611 710223 -160881 1
0 0 0 701 710924 -160180 0
0 0 0 804 711728 -159376 0
0 0 0 762 712490 -158614 0
0 0 0 798 713288 -157816 0
0 0 0 829 714117 -156987 0
0 0 0 803 714920 -156184 0
0 0 0 781 715701 -155403 0
0 0 0 745 716446 -154658 0
0 0 0 687 717133 -153971 0
0 0 0 661 717794 -153310 1
0 0 0 633 718427 -152677 1
0 0 0 630 719057 -152047 1
0 0 0 609 719666 -151438 1
0 0 0 607 720273 -150831 1
0 0 0 594 720867 -150237 1
0 0 0 587 721454 -149650 1
0 0 0 571 722025 -149079 1
0 0 0 578 722603 -148501 1
0 0 0 623 723226 -147878 1
0 0 0 691 723917 -147187 0
0 0 0 683 724600 -146504 0
0 0 0 666 725266 -145838 1
0 0 0 687 725953 -145151 0
0 0 0 633 726586 -144518 1
0 0 0 704 727290 -143814 0
0 0 0 861 728151 -142953 0
0 0 0 826 728977 -142127 0
0 0 0 782 729759 -141345 0
0 0 0 821 730580 -140524 0
0 0 0 816 731396 -139708 0
0 0 0 778 732174 -138930 0
0 0 0 794 732968 -138136 0
0 0 0 722 733690 -137414 0
0 0 0 795 734485 -136619 0
0 0 0 769 735254 -135850 0
0 0 0 710 735964 -135140 0
0 0 0 692 736656 -134448 0
0 0 0 638 737294 -133810 1
0 0 0 658 737952 -133152 1
0 0 0 711 738663 -132441 0
0 0 0 805 739468 -131636 0
0 0 0 734 740202 -130902 0
0 0 0 790 740992 -130112 0
0 0 0 884 741876 -129228 0
0 0 0 883 742759 -128345 0
0 0 0 798 743557 -127547 0
0 0 0 782 744339 -126765 0
0 0 0 720 745059 -126045 0
0 0 0 713 745772 -125332 0
0 0 0 697 746469 -124635 0
0 0 0 652 747121 -123983 1
0 0 0 639 747760 -123344 1
0 0 0 617 748377 -122727 1
0 0 0 621 748998 -122106 1
0 0 0 657 749655 -121449 1
0 0 0 752 750407 -120697 0
0 0 0 791 751198 -119906 0
0 0 0 708 751906 -119198 0
0 0 0 757 752663 -118441 0
0 0 0 864 753527 -117577 0
0 0 0 814 754341 -116763 0
0 0 0 670 755011 -116093 1
0 0 0 653 755664 -115440 1
0 0 0 671 756335 -114769 1
0 0 0 865 757200 -113904 0
0 0 0 895 758095 -113009 0
0 0 0 912 759007 -112097 0
0 0 0 919 759926 -111178 0
0 0 0 925 760851 -110253 0
0 0 0 912 761763 -109341 0
0 0 0 914 762677 -108427 0
0 0 0 903 763580 -107524 0
0 0 0 887 764467 -106637 0
0 0 0 869 765336 -105768 0
0 0 0 858 766194 -104910 0
0 0 0 846 767040 -104064 0
0 0 0 835 767875 -103229 0
0 0 0 819 768694 -102410 0
0 0 0 777 769471 -101633 0
0 0 0 690 770161 -100943 0
0 0 0 664 770825 -100279 1
0 0 0 686 771511 -99593 0
0 0 0 678 772189 -98915 1
0 0 0 671 772860 -98244 1
0 0 0 752 773612 -97492 0
0 0 0 791 774403 -96701 0
0 0 0 873 775276 -95828 0
0 0 0 917 776193 -94911 0
0 0 0 930 777123 -93981 0
0 0 0 840 777963 -93141 0
0 0 0 809 778772 -92332 0
0 0 0 798 779570 -91534 0
0 0 0 776 780346 -90758 0
0 0 0 776 781122 -89982 0
0 0 0 879 782001 -89103 0
0 0 0 764 782765 -88339 0
0 0 0 868 783633 -87471 0
0 0 0 900 784533 -86571 0
0 0 0 920 785453 -85651 0
0 0 0 876 786329 -84775 0
0 0 0 915 787244 -83860 0
0 0 0 924 788168 -82936 0
0 0 0 890 789058 -82046 0
0 0 0 878 789936 -81168 0
0 0 0 892 790828 -80276 0
0 0 0 903 791731 -79373 0
0 0 0 879 792610 -78494 0
0 0 0 920 793530 -77574 0
0 0 0 931 794461 -76643 0
0 0 0 873 795334 -75770 0
0 0 0 908 796242 -74862 0
0 0 0 897 797139 -73965 0
0 0 0 860 797999 -73105 0
0 0 0 887 798886 -72218 0
0 0 0 923 799809 -71295 0
0 0 0 891 800700 -70404 0
0 0 0 904 801604 -69500 0
0 0 0 920 802524 -68580 0
0 0 0 899 803423 -67681 0
0 0 0 783 804206 -66898 0
0 0 0 696 804902 -66202 0
0 0 0 686 805588 -65516 0
0 0 0 662 806250 -64854 1
0 0 0 767 807017 -64087 0
0 0 0 931 807948 -63156 0
0 0 0 954 808902 -62202 0
0 0 0 1009 809911 -61193 0
0 0 0 1005 810916 -60188 0
0 0 0 950 811866 -59238 0
0 0 0 905 812771 -58333 0
0 0 0 810 813581 -57523 0
0 0 0 718 814299 -56805 0
0 0 0 692 814991 -56113 0
0 0 0 679 815670 -55434 1
0 0 0 653 816323 -54781 1
0 0 0 695 817018 -54086 0
0 0 0 811 817829 -53275 0
0 0 0 768 818597 -52507 0
0 0 0 730 819327 -51777 0
0 0 0 873 820200 -50904 0
0 0 0 834 821034 -50070 0
0 0 0 927 821961 -49143 0
0 0 0 951 822912 -48192 0
0 0 0 866 823778 -47326 0
0 0 0 855 824633 -46471 0
0 0 0 866 825499 -45605 0
0 0 0 868 826367 -44737 0
0 0 0 847 827214 -43890 0
0 0 0 881 828095 -43009 0
0 0 0 859 828954 -42150 0
0 0 0 899 829853 -41251 0
0 0 0 921 830774 -40330 0
0 0 0 870 831644 -39460 0
0 0 0 935 832579 -38525 0
0 0 0 948 833527 -37577 0
0 0 0 891 834418 -36686 0
0 0 0 845 835263 -35841 0
0 0 0 833 836096 -35008 0
0 0 0 870 836966 -34138 0
0 0 0 879 837845 -33259 0
0 0 0 878 838723 -32381 0
0 0 0 919 839642 -31462 0
0 0 0 923 840565 -30539 0
0 0 0 888 841453 -29651 0
0 0 0 908 842361 -28743 0
0 0 0 917 843278 -27826 0
0 0 0 875 844153 -26951 0
0 0 0 842 844995 -26109 0
0 0 0 859 845854 -25250 0
0 0 0 882 846736 -24368 0
0 0 0 860 847596 -23508 0
0 0 0 905 848501 -22603 0
0 0 0 925 849426 -21678 0
0 0 0 892 850318 -20786 0
0 0 0 900 851218 -19886 0
0 0 0 918 852136 -18968 0
0 0 0 895 853031 -18073 0
0 0 0 812 853843 -17261 0
0 0 0 827 854670 -16434 0
0 0 0 860 855530 -15574 0
0 0 0 846 856376 -14728 0
0 0 0 844 857220 -13884 0
0 0 0 885 858105 -12999 0
0 0 0 897 859002 -12102 0
0 0 0 836 859838 -11266 0
0 0 0 893 860731 -10373 0
0 0 0 918 861649 -9455 0
0 0 0 922 862571 -8533 0
0 0 0 911 863482 -7622 0
0 0 0 950 864432 -6672 0
0 0 0 971 865403 -5701 0
0 0 0 938 866341 -4763 0
0 0 0 936 867277 -3827 0
0 0 0 875 868152 -2952 0
0 0 0 753 868905 -2199 0
41 1 S102 759 869664 -1440 0
41 1 S102 818 870482 -622 0
41 2 S102 741 871223 119 0
41 2 S102 793 872016 912 0
41 2 S102 731 872747 1643 0
41 2 S102 794 873541 2437 0
41 2 S102 807 874348 3244 0
41 2 S102 885 875233 4129 0
41 2 S102 927 876160 5056 0
41 2 S102 930 877090 5986 0
41 2 S102 924 878014 6910 0
0 0 0 940 878954 -6689 0
0 0 0 922 879876 -5767 0
0 0 0 904 880780 -4863 0
0 0 0 898 881678 -3965 0
0 0 0 831 882509 -3134 0
0 0 0 837 883346 -2297 0
42 1 S112 844 884190 -1453 0
42 1 S112 794 884984 -659 0
42 2 S112 801 885785 142 0
42 2 S112 906 886691 1048 0
42 2 S112 966 887657 2014 0
42 2 S112 958 888615 2972 0
42 2 S112 919 889534 3891 0
42 2 S112 961 890495 4852 0
42 2 S112 968 891463 5820 0
42 2 S112 925 892388 6745 0
0 0 0 932 893320 -10609 0
0 0 0 924 894244 -9685 0
0 0 0 902 895146 -8783 0
0 0 0 915 896061 -7868 0
0 0 0 916 896977 -6952 0
0 0 0 879 897856 -6073 0
0 0 0 895 898751 -5178 0
0 0 0 913 899664 -4265 0
0 0 0 896 900560 -3369 0
0 0 0 868 901428 -2501 0
43 1 S116 906 902334 -1595 0
43 1 S116 922 903256 -673 0
43 2 S116 879 904135 206 0
43 2 S116 916 905051 1122 0
43 2 S116 930 905981 2052 0
43 2 S116 951 906932 3003 0
43 2 S116 936 907868 3939 0
43 2 S116 937 908805 4876 0
43 2 S116 953 909758 5829 0
43 2 S116 956 910714 6785 0
0 0 0 917 911631 -7732 0
0 0 0 921 912552 -6811 0
0 0 0 894 913446 -5917 0
0 0 0 823 914269 -5094 0
0 0 0 849 915118 -4245 0
0 0 0 868 915986 -3377 0
0 0 0 811 916797 -2566 0
44 1 S102 812 917609 -1754 0
44 1 S102 861 918470 -893 0
44 2 S102 924 919394 31 0
44 2 S102 915 920309 946 0
44 2 S102 946 921255 1892 0
44 2 S102 951 922206 2843 0
44 2 S102 936 923142 3779 0
44 2 S102 837 923979 4616 0
44 2 S102 839 924818 5455 0
44 2 S102 867 925685 6322 0
0 0 0 884 926569 -9638 0
0 0 0 919 927488 -8719 0
0 0 0 931 928419 -7788 0
0 0 0 878 929297 -6910 0
0 0 0 772 930069 -6138 0
0 0 0 699 930768 -5439 0
0 0 0 762 931530 -4677 0
0 0 0 957 932487 -3720 0
0 0 0 986 933473 -2734 0
45 1 S116 1005 934478 -1729 0
45 1 S116 997 935475 -732 0
45 2 S116 996 936471 264 0
45 2 S116 983 937454 1247 0
45 2 S116 965 938419 2212 0
45 2 S116 944 939363 3156 0
45 2 S116 933 940296 4089 0
45 2 S116 928 941224 5017 0
45 2 S116 898 942122 5915 0
45 2 S116 895 943017 6810 0
0 0 0 910 943927 -12870 0
0 0 0 903 944830 -11967 0
0 0 0 846 945676 -11121 0
0 0 0 867 946543 -10254 0
0 0 0 879 947422 -9375 0
0 0 0 826 948248 -8549 0
0 0 0 824 949072 -7725 0
0 0 0 792 949864 -6933 0
0 0 0 754 950618 -6179 0
0 0 0 710 951328 -5469 0
0 0 0 683 952011 -4786 0
0 0 0 714 952725 -4072 0
0 0 0 819 953544 -3253 0
0 0 0 870 954414 -2383 0
46 1 S102 855 955269 -1528 0
46 1 S102 875 956144 -653 0
46 2 S102 901 957045 248 0
46 2 S102 905 957950 1153 0
46 2 S102 843 958793 1996 0
46 2 S102 874 959667 2870 0
46 2 S102 884 960551 3754 0
46 2 S102 839 961390 4593 0
46 2 S102 855 962245 5448 0
46 2 S102 870 963115 6318 0
0 0 0 862 963977 -9581 0
0 0 0 822 964799 -8759 0
0 0 0 847 965646 -7912 0
0 0 0 858 966504 -7054 0
0 0 0 800 967304 -6254 0
0 0 0 840 968144 -5414 0
0 0 0 860 969004 -4554 0
0 0 0 827 969831 -3727 0
0 0 0 846 970677 -2881 0
0 0 0 857 971534 -2024 0
47 1 S112 873 972407 -1151 0
47 1 S112 824 973231 -327 0
47 2 S112 833 974064 506 0
47 2 S112 837 974901 1343 0
47 2 S112 828 975729 2171 0
47 2 S112 885 976614 3056 0
47 2 S112 907 977521 3963 0
47 2 S112 912 978433 4875 0
47 2 S112 893 979326 5768 0
47 2 S112 884 980210 6652 0
0 0 0 904 981114 -12471 0
0 0 0 894 982008 -11577 0
0 0 0 853 982861 -10724 0
0 0 0 813 983674 -9911 0
0 0 0 828 984502 -9083 0
0 0 0 837 985339 -8246 0
0 0 0 790 986129 -7456 0
0 0 0 810 986939 -6646 0
0 0 0 860 987799 -5786 0
0 0 0 897 988696 -4889 0
0 0 0 893 989589 -3996 0
0 0 0 924 990513 -3072 0
0 0 0 942 991455 -2130 0
48 1 S116 910 992365 -1220 0
48 1 S116 890 993255 -330 0
48 2 S116 896 994151 566 0
48 2 S116 918 995069 1484 0
48 2 S116 872 995941 2356 0
48 2 S116 889 996830 3245 0
48 2 S116 923 997753 4168 0
48 2 S116 935 998688 5103 0
48 2 S116 909 999597 6012 0
48 2 S116 909 1000506 6921 0
0 0 0 930 1001436 -7252 0
0 0 0 902 1002338 -6350 0
0 0 0 851 1003189 -5499 0
0 0 0 890 1004079 -4609 0
0 0 0 864 1004943 -3745 0
0 0 0 826 1005769 -2919 0
0 0 0 877 1006646 -2042 0
49 1 S112 903 1007549 -1139 0
49 1 S112 863 1008412 -276 0
49 2 S112 890 1009302 614 0
49 2 S112 926 1010228 1540 0
49 2 S112 931 1011159 2471 0
49 2 S112 840 1011999 3311 0
49 2 S112 845 1012844 4156 0
49 2 S112 877 1013721 5033 0
49 2 S112 917 1014638 5950 0
49 2 S112 935 1015573 6885 0
0 0 0 934 1016507 -11677 0
0 0 0 858 1017365 -10819 0
0 0 0 886 1018251 -9933 0
0 0 0 887 1019138 -9046 0
0 0 0 844 1019982 -8202 0
0 0 0 849 1020831 -7353 0
0 0 0 871 1021702 -6482 0
0 0 0 886 1022588 -5596 0
0 0 0 835 1023423 -4761 0
0 0 0 877 1024300 -3884 0
0 0 0 894 1025194 -2990 0
0 0 0 859 1026053 -2131 0
50 1 S106 860 1026913 -1271 0
50 1 S106 854 1027767 -417 0
50 2 S106 801 1028568 384 0
50 2 S106 755 1029323 1139 0
50 2 S106 776 1030099 1915 0
50 2 S106 756 1030855 2671 0
50 2 S106 841 1031696 3512 0
50 2 S106 889 1032585 4401 0
50 2 S106 909 1033494 5310 0
50 2 S106 862 1034356 6172 0
0 0 0 876 1035232 -7474 0
0 0 0 890 1036122 -6584 0
0 0 0 858 1036980 -5726 0
0 0 0 796 1037776 -4930 0
0 0 0 809 1038585 -4121 0
0 0 0 812 1039397 -3309 0
0 0 0 798 1040195 -2511 0
51 1 S112 737 1040932 -1774 0
51 1 S112 801 1041733 -973 0
51 1 S112 858 1042591 -115 0
51 2 S112 844 1043435 729 0
51 2 S112 836 1044271 1565 0
51 2 S112 890 1045161 2455 0
51 2 S112 923 1046084 3378 0
51 2 S112 932 1047016 4310 0
51 2 S112 884 1047900 5194 0
51 2 S112 905 1048805 6099 0
51 2 S112 903 1049708 7002 0
0 0 0 885 1050593 -6702 0
0 0 0 851 1051444 -5851 0
0 0 0 863 1052307 -4988 0
0 0 0 847 1053154 -4141 0
0 0 0 814 1053968 -3327 0
0 0 0 857 1054825 -2470 0
52 1 S116 876 1055701 -1594 0
52 1 S116 834 1056535 -760 0
52 2 S116 869 1057404 109 0
52 2 S116 878 1058282 987 0
52 2 S116 915 1059197 1902 0
52 2 S116 891 1060088 2793 0
52 2 S116 903 1060991 3696 0
52 2 S116 918 1061909 4614 0
52 2 S116 917 1062826 5531 0
52 2 S116 875 1063701 6406 0
0 0 0 906 1064607 -9814 0
0 0 0 913 1065520 -8901 0
0 0 0 875 1066395 -8026 0
0 0 0 873 1067268 -7153 0
0 0 0 894 1068162 -6259 0
0 0 0 884 1069046 -5375 0
0 0 0 831 1069877 -4544 0
0 0 0 843 1070720 -3701 0
0 0 0 826 1071546 -2875 0
0 0 0 777 1072323 -2098 0
53 1 S106 809 1073132 -1289 0
53 1 S106 834 1073966 -455 0
53 2 S106 836 1074802 381 0
53 2 S106 847 1075649 1228 0
53 2 S106 901 1076550 2129 0
53 2 S106 907 1077457 3036 0
53 2 S106 866 1078323 3902 0
53 2 S106 891 1079214 4793 0
53 2 S106 894 1080108 5687 0
53 2 S106 883 1080991 6570 0
0 0 0 830 1081821 -6542 0
0 0 0 835 1082656 -5707 0
0 0 0 825 1083481 -4882 0
0 0 0 775 1084256 -4107 0
0 0 0 802 1085058 -3305 0
0 0 0 838 1085896 -2467 0
54 1 S102 857 1086753 -1610 0
54 1 S102 827 1087580 -783 0
54 2 S102 875 1088455 92 0
54 2 S102 894 1089349 986 0
54 2 S102 856 1090205 1842 0
54 2 S102 872 1091077 2714 0
54 2 S102 879 1091956 3593 0
54 2 S102 864 1092820 4457 0
54 2 S102 833 1093653 5290 0
54 2 S102 864 1094517 6154 0
54 2 S102 876 1095393 7030 0
0 0 0 858 1096251 -12255 0
0 0 0 807 1097058 -11448 0
0 0 0 841 1097899 -10607 0
0 0 0 841 1098740 -9766 0
0 0 0 809 1099549 -8957 0
0 0 0 810 1100359 -8147 0
0 0 0 770 1101129 -7377 0
0 0 0 722 1101851 -6655 0
0 0 0 694 1102545 -5961 0
0 0 0 675 1103220 -5286 1
0 0 0 730 1103950 -4556 0
0 0 0 794 1104744 -3762 0
0 0 0 819 1105563 -2943 0
0 0 0 836 1106399 -2107 0
55 1 S106 878 1107277 -1229 0
55 1 S106 899 1108176 -330 0
55 2 S106 859 1109035 529 0
55 2 S106 891 1109926 1420 0
55 2 S106 904 1110830 2324 0
55 2 S106 894 1111724 3218 0
55 2 S106 870 1112594 4088 0
55 2 S106 895 1113489 4983 0
55 2 S106 909 1114398 5892 0
55 2 S106 885 1115283 6777 0
0 0 0 852 1116135 -7076 0
0 0 0 883 1117018 -6193 0
0 0 0 883 1117901 -5310 0
0 0 0 819 1118720 -4491 0
0 0 0 856 1119576 -3635 0
0 0 0 864 1120440 -2771 0
56 1 S116 837 1121277 -1934 0
56 1 S116 868 1122145 -1066 0
56 1 S116 897 1123042 -169 0
56 2 S116 880 1123922 711 0
56 2 S116 902 1124824 1613 0
56 2 S116 939 1125763 2552 0
56 2 S116 937 1126700 3489 0
56 2 S116 894 1127594 4383 0
56 2 S116 948 1128542 5331 0
56 2 S116 949 1129491 6280 0
0 0 0 932 1130423 -8654 0
0 0 0 921 1131344 -7733 0
0 0 0 902 1132246 -6831 0
0 0 0 828 1133074 -6003 0
0 0 0 845 1133919 -5158 0
0 0 0 849 1134768 -4309 0
0 0 0 809 1135577 -3500 0
0 0 0 821 1136398 -2679 0
57 1 S106 861 1137259 -1818 0
57 1 S106 871 1138130 -947 0
57 1 S106 868 1138998 -79 0
57 2 S106 917 1139915 838 0
57 2 S106 930 1140845 1768 0
57 2 S106 892 1141737 2660 0
57 2 S106 905 1142642 3565 0
57 2 S106 925 1143567 4490 0
57 2 S106 891 1144458 5381 0
57 2 S106 846 1145304 6227 0
0 0 0 890 1146194 -9925 0
0 0 0 907 1147101 -9018 0
0 0 0 895 1147996 -8123 0
0 0 0 879 1148875 -7244 0
0 0 0 905 1149780 -6339 0
0 0 0 897 1150677 -5442 0
0 0 0 855 1151532 -4587 0
0 0 0 883 1152415 -3704 0
0 0 0 895 1153310 -2809 0
58 1 S102 865 1154175 -1944 0
58 1 S102 855 1155030 -1089 0
58 1 S102 888 1155918 -201 0
58 2 S102 909 1156827 708 0
58 2 S102 889 1157716 1597 0
58 2 S102 916 1158632 2513 0
58 2 S102 898 1159530 3411 0
58 2 S102 872 1160402 4283 0
58 2 S102 905 1161307 5188 0
58 2 S102 914 1162221 6102 0
58 2 S102 910 1163131 7012 0
0 0 0 870 1164001 -6807 0
0 0 0 905 1164906 -5902 0
0 0 0 870 1165776 -5032 0
0 0 0 853 1166629 -4179 0
0 0 0 823 1167452 -3356 0
0 0 0 767 1168219 -2589 0
59 1 S112 708 1168927 -1881 0
59 1 S112 756 1169683 -1125 0
59 1 S112 914 1170597 -211 0
59 2 S112 957 1171554 746 0
59 2 S112 987 1172541 1733 0
59 2 S112 960 1173501 2693 0
59 2 S112 958 1174459 3651 0
59 2 S112 962 1175421 4613 0
59 2 S112 941 1176362 5554 0
59 2 S112 895 1177257 6449 0
0 0 0 889 1178146 -10334 0
0 0 0 872 1179018 -9462 0
0 0 0 836 1179854 -8626 0
0 0 0 857 1180711 -7769 0
0 0 0 882 1181593 -6887 0
0 0 0 847 1182440 -6040 0
0 0 0 859 1183299 -5181 0
0 0 0 888 1184187 -4293 0
0 0 0 882 1185069 -3411 0
0 0 0 880 1185949 -2531 0
60 1 S102 900 1186849 -1631 0
60 1 S102 888 1187737 -743 0
60 2 S102 851 1188588 108 0
60 2 S102 865 1189453 973 0
60 2 S102 848 1190301 1821 0
60 2 S102 806 1191107 2627 0
60 2 S102 854 1191961 3481 0
60 2 S102 870 1192831 4351 0
60 2 S102 854 1193685 5205 0
60 2 S102 844 1194529 6049 0
60 2 S102 881 1195410 6930 0
0 0 0 878 1196288 -9235 0
0 0 0 835 1197123 -8400 0
0 0 0 854 1197977 -7546 0
0 0 0 840 1198817 -6706 0
0 0 0 807 1199624 -5899 0
0 0 0 849 1200473 -5050 0
0 0 0 877 1201350 -4173 0
0 0 0 855 1202205 -3318 0
0 0 0 866 1203071 -2452 0
61 1 S106 888 1203959 -1564 0
61 1 S106 879 1204838 -685 0
61 2 S106 852 1205690 167 0
61 2 S106 887 1206577 1054 0
61 2 S106 904 1207481 1958 0
61 2 S106 880 1208361 2838 0
61 2 S106 898 1209259 3736 0
61 2 S106 914 1210173 4650 0
61 2 S106 896 1211069 5546 0
61 2 S106 881 1211950 6427 0
0 0 0 912 1212862 -6520 0
0 0 0 914 1213776 -5606 0
0 0 0 852 1214628 -4754 0
0 0 0 856 1215484 -3898 0
0 0 0 856 1216340 -3042 0
0 0 0 813 1217153 -2229 0
62 1 S112 822 1217975 -1407 0
62 1 S112 863 1218838 -544 0
62 2 S112 877 1219715 333 0
62 2 S112 855 1220570 1188 0
62 2 S112 910 1221480 2098 0
62 2 S112 922 1222402 3020 0
62 2 S112 854 1223256 3874 0
62 2 S112 841 1224097 4715 0
62 2 S112 867 1224964 5582 0
62 2 S112 876 1225840 6458 0
0 0 0 841 1226681 -11385 0
0 0 0 856 1227537 -10529 0
0 0 0 858 1228395 -9671 0
0 0 0 819 1229214 -8852 0
0 0 0 834 1230048 -8018 0
0 0 0 818 1230866 -7200 0
0 0 0 743 1231609 -6457 0
0 0 0 734 1232343 -5723 0
0 0 0 831 1233174 -4892 0
0 0 0 874 1234048 -4018 0
0 0 0 923 1234971 -3095 0
0 0 0 912 1235883 -2183 0
63 1 S102 954 1236837 -1229 0
63 1 S102 949 1237786 -280 0
63 2 S102 907 1238693 627 0
63 2 S102 920 1239613 1547 0
63 2 S102 922 1240535 2469 0
63 2 S102 914 1241449 3383 0
63 2 S102 876 1242325 4259 0
63 2 S102 918 1243243 5177 0
63 2 S102 899 1244142 6076 0
63 2 S102 826 1244968 6902 0
0 0 0 775 1245743 -7642 0
0 0 0 731 1246474 -6911 0
0 0 0 687 1247161 -6224 0
0 0 0 749 1247910 -5475 0
0 0 0 831 1248741 -4644 0
0 0 0 864 1249605 -3780 0
0 0 0 823 1250428 -2957 0
0 0 0 891 1251319 -2066 0
64 1 S112 929 1252248 -1137 0
64 1 S112 928 1253176 -209 0
64 2 S112 875 1254051 666 0
64 2 S112 885 1254936 1551 0
64 2 S112 861 1255797 2412 0
64 2 S112 838 1256635 3250 0
64 2 S112 853 1257488 4103 0
64 2 S112 880 1258368 4983 0
64 2 S112 886 1259254 5869 0
64 2 S112 891 1260145 6760 0
0 0 0 926 1261071 -7930 0
0 0 0 899 1261970 -7031 0
0 0 0 895 1262865 -6136 0
0 0 0 915 1263780 -5221 0
0 0 0 889 1264669 -4332 0
0 0 0 883 1265552 -3449 0
0 0 0 918 1266470 -2531 0
65 1 S106 922 1267392 -1609 0
65 1 S106 887 1268279 -722 0
65 2 S106 908 1269187 186 0
65 2 S106 930 1270117 1116 0
65 2 S106 909 1271026 2025 0
65 2 S106 897 1271923 2922 0
65 2 S106 931 1272854 3853 0
65 2 S106 919 1273773 4772 0
65 2 S106 869 1274642 5641 0
65 2 S106 894 1275536 6535 0
0 0 0 891 1276427 -6881 0
0 0 0 849 1277276 -6032 0
0 0 0 895 1278171 -5137 0
0 0 0 897 1279068 -4240 0
0 0 0 854 1279922 -3386 0
0 0 0 887 1280809 -2499 0
66 1 S116 887 1281696 -1612 0
66 1 S116 853 1282549 -759 0
66 2 S116 866 1283415 107 0
66 2 S116 924 1284339 1031 0
66 2 S116 964 1285303 1995 0
66 2 S116 973 1286276 2968 0
66 2 S116 945 1287221 3913 0
66 2 S116 965 1288186 4878 0
66 2 S116 964 1289150 5842 0
66 2 S116 930 1290080 6772 0
0 0 0 853 1290933 -11358 0
0 0 0 861 1291794 -10497 0
0 0 0 841 1292635 -9656 0
0 0 0 771 1293406 -8885 0
0 0 0 804 1294210 -8081 0
0 0 0 853 1295063 -7228 0
0 0 0 844 1295907 -6384 0
0 0 0 931 1296838 -5453 0
0 0 0 930 1297768 -4523 0
0 0 0 958 1298726 -3565 0
0 0 0 972 1299698 -2593 0
67 1 S102 973 1300671 -1620 0
67 1 S102 944 1301615 -676 0
67 2 S102 973 1302588 297 0
67 2 S102 968 1303556 1265 0
67 2 S102 927 1304483 2192 0
67 2 S102 893 1305376 3085 0
67 2 S102 923 1306299 4008 0
67 2 S102 948 1307247 4956 0
67 2 S102 920 1308167 5876 0
67 2 S102 932 1309099 6808 0
0 0 0 935 1310034 -5702 0
0 0 0 892 1310926 -4810 0
0 0 0 874 1311800 -3936 0
0 0 0 908 1312708 -3028 0
0 0 0 896 1313604 -2132 0
68 1 S106 878 1314482 -1254 0
68 1 S106 932 1315414 -322 0
68 2 S106 944 1316358 622 0
68 2 S106 910 1317268 1532 0
68 2 S106 919 1318187 2451 0
68 2 S106 920 1319107 3371 0
68 2 S106 870 1319977 4241 0
68 2 S106 865 1320842 5106 0
68 2 S106 888 1321730 5994 0
68 2 S106 899 1322629 6893 0
0 0 0 847 1323476 -9485 0
0 0 0 880 1324356 -8605 0
0 0 0 884 1325240 -7721 0
0 0 0 876 1326116 -6845 0
0 0 0 869 1326985 -5976 0
0 0 0 901 1327886 -5075 0
0 0 0 898 1328784 -4177 0
0 0 0 854 1329638 -3323 0
0 0 0 886 1330524 -2437 0
69 1 S102 902 1331426 -1535 0
69 1 S102 890 1332316 -645 0
69 2 S102 861 1333177 216 0
69 2 S102 894 1334071 1110 0
69 2 S102 912 1334983 2022 0
69 2 S102 877 1335860 2899 0
69 2 S102 862 1336722 3761 0
69 2 S102 911 1337633 4672 0
69 2 S102 919 1338552 5591 0
69 2 S102 906 1339458 6497 0
0 0 0 855 1340313 -9922 0
0 0 0 875 1341188 -9047 0
0 0 0 874 1342062 -8173 0
0 0 0 841 1342903 -7332 0
0 0 0 867 1343770 -6465 0
0 0 0 816 1344586 -5649 0
0 0 0 763 1345349 -4886 0
0 0 0 731 1346080 -4155 0
0 0 0 711 1346791 -3444 0
0 0 0 801 1347592 -2643 0
70 1 S112 853 1348445 -1790 0
70 1 S112 834 1349279 -956 0
70 1 S112 871 1350150 -85 0
70 2 S112 908 1351058 823 0
70 2 S112 930 1351988 1753 0
70 2 S112 874 1352862 2627 0
70 2 S112 868 1353730 3495 0
70 2 S112 889 1354619 4384 0
70 2 S112 905 1355524 5289 0
70 2 S112 871 1356395 6160 0
70 2 S112 828 1357223 6988 0
0 0 0 870 1358093 -11208 0
0 0 0 876 1358969 -10332 0
0 0 0 834 1359803 -9498 0
0 0 0 859 1360662 -8639 0
0 0 0 873 1361535 -7766 0
0 0 0 840 1362375 -6926 0
0 0 0 852 1363227 -6074 0
0 0 0 864 1364091 -5210 0
0 0 0 866 1364957 -4344 0
0 0 0 831 1365788 -3513 0
0 0 0 872 1366660 -2641 0
71 1 S116 886 1367546 -1755 0
71 1 S116 831 1368377 -924 0
71 1 S116 748 1369125 -176 0
71 2 S116 691 1369816 515 0
71 2 S116 737 1370553 1252 0
71 2 S116 792 1371345 2044 0
71 2 S116 917 1372262 2961 0
71 2 S116 958 1373220 3919 0
71 2 S116 960 1374180 4879 0
71 2 S116 949 1375129 5828 0
71 2 S116 944 1376073 6772 0
0 0 0 935 1377008 -10479 0
0 0 0 923 1377931 -9556 0
0 0 0 902 1378833 -8654 0
0 0 0 897 1379730 -7757 0
0 0 0 900 1380630 -6857 0
0 0 0 859 1381489 -5998 0
0 0 0 778 1382267 -5220 0
0 0 0 769 1383036 -4451 0
0 0 0 835 1383871 -3616 0
0 0 0 876 1384747 -2740 0
72 1 S102 910 1385657 -1830 0
72 1 S102 872 1386529 -958 0
72 1 S102 917 1387446 -41 0
72 2 S102 959 1388405 918 0
72 2 S102 940 1389345 1858 0
72 2 S102 853 1390198 2711 0
72 2 S102 908 1391106 3619 0
72 2 S102 945 1392051 4564 0
72 2 S102 952 1393003 5516 0
72 2 S102 919 1393922 6435 0
0 0 0 907 1394829 -9253 0
0 0 0 959 1395788 -8294 0
0 0 0 940 1396728 -7354 0
0 0 0 863 1397591 -6491 0
0 0 0 891 1398482 -5600 0
0 0 0 908 1399390 -4692 0
0 0 0 867 1400257 -3825 0
0 0 0 811 1401068 -3014 0
0 0 0 854 1401922 -2160 0
73 1 S116 873 1402795 -1287 0
73 1 S116 893 1403688 -394 0
73 2 S116 870 1404558 476 0
73 2 S116 885 1405443 1361 0
73 2 S116 905 1406348 2266 0
73 2 S116 915 1407263 3181 0
73 2 S116 895 1408158 4076 0
73 2 S116 865 1409023 4941 0
73 2 S116 890 1409913 5831 0
73 2 S116 888 1410801 6719 0
0 0 0 855 1411656 -10364 0
0 0 0 826 1412482 -9538 0
0 0 0 835 1413317 -8703 0
0 0 0 837 1414154 -7866 0
0 0 0 790 1414944 -7076 0
0 0 0 814 1415758 -6262 0
0 0 0 834 1416592 -5428 0
0 0 0 784 1417376 -4644 0
0 0 0 815 1418191 -3829 0
0 0 0 868 1419059 -2961 0
0 0 0 855 1419914 -2106 0
74 1 S106 819 1420733 -1287 0
74 1 S106 859 1421592 -428 0
74 2 S106 881 1422473 453 0
74 2 S106 859 1423332 1312 0
74 2 S106 869 1424201 2181 0
74 2 S106 882 1425083 3063 0
74 2 S106 882 1425965 3945 0
74 2 S106 853 1426818 4798 0
74 2 S106 897 1427715 5695 0
74 2 S106 904 1428619 6599 0
0 0 0 872 1429491 -5841 0
0 0 0 880 1430371 -4961 0
0 0 0 870 1431241 -4091 0
0 0 0 806 1432047 -3285 0
0 0 0 759 1432806 -2526 0
75 1 S112 732 1433538 -1794 0
75 1 S112 703 1434241 -1091 0
75 1 S112 719 1434960 -372 0
75 2 S112 839 1435799 467 0
75 2 S112 847 1436646 1314 0
75 2 S112 915 1437561 2229 0
75 2 S112 936 1438497 3165 0
75 2 S112 919 1439416 4084 0
75 2 S112 852 1440268 4936 0
75 2 S112 888 1441156 5824 0
75 2 S112 898 1442054 6722 0
0 0 0 850 1442904 -6835 0
0 0 0 837 1443741 -5998 0
0 0 0 836 1444577 -5162 0
0 0 0 813 1445390 -4349 0
0 0 0 723 1446113 -3626 0
0 0 0 756 1446869 -2870 0
0 0 0 791 1447660 -2079 0
76 1 S116 832 1448492 -1247 0
76 1 S116 814 1449306 -433 0
76 2 S116 852 1450158 419 0
76 2 S116 861 1451019 1280 0
76 2 S116 888 1451907 2168 0
76 2 S116 879 1452786 3047 0
76 2 S116 856 1453642 3903 0
76 2 S116 875 1454517 4778 0
76 2 S116 900 1455417 5678 0
76 2 S116 895 1456312 6573 0
0 0 0 892 1457204 -8185 0
0 0 0 912 1458116 -7273 0
0 0 0 908 1459024 -6365 0
0 0 0 875 1459899 -5490 0
0 0 0 893 1460792 -4597 0
0 0 0 862 1461654 -3735 0
0 0 0 794 1462448 -2941 0
0 0 0 813 1463261 -2128 0
77 1 S106 841 1464102 -1287 0
77 1 S106 845 1464947 -442 0
77 2 S106 823 1465770 381 0
77 2 S106 875 1466645 1256 0
77 2 S106 895 1467540 2151 0
77 2 S106 889 1468429 3040 0
77 2 S106 845 1469274 3885 0
77 2 S106 875 1470149 4760 0
77 2 S106 876 1471025 5636 0
77 2 S106 848 1471873 6484 0
0 0 0 866 1472739 -9046 0
0 0 0 910 1473649 -8136 0
0 0 0 925 1474574 -7211 0
0 0 0 864 1475438 -6347 0
0 0 0 907 1476345 -5440 0
0 0 0 905 1477250 -4535 0
0 0 0 850 1478100 -3685 0
0 0 0 852 1478952 -2833 0
0 0 0 824 1479776 -2009 0
78 1 S112 808 1480584 -1201 0
78 1 S112 830 1481414 -371 0
78 2 S112 877 1482291 506 0
78 2 S112 919 1483210 1425 0
78 2 S112 895 1484105 2320 0
78 2 S112 884 1484989 3204 0
78 2 S112 911 1485900 4115 0
78 2 S112 903 1486803 5018 0
78 2 S112 859 1487662 5877 0
78 2 S112 859 1488521 6736 0
0 0 0 870 1489391 -11757 0
0 0 0 825 1490216 -10932 0
0 0 0 814 1491030 -10118 0
0 0 0 841 1491871 -9277 0
0 0 0 835 1492706 -8442 0
0 0 0 788 1493494 -7654 0
0 0 0 818 1494312 -6836 0
0 0 0 840 1495152 -5996 0
0 0 0 815 1495967 -5181 0
0 0 0 761 1496728 -4420 0
0 0 0 802 1497530 -3618 0
0 0 0 818 1498348 -2800 0
79 1 S102 840 1499188 -1960 0
79 1 S102 848 1500036 -1112 0
79 1 S102 889 1500925 -223 0
79 2 S102 892 1501817 669 0
79 2 S102 849 1502666 1518 0
79 2 S102 869 1503535 2387 0
79 2 S102 870 1504405 3257 0
79 2 S102 878 1505283 4135 0
79 2 S102 839 1506122 4974 0
79 2 S102 835 1506957 5809 0
79 2 S102 847 1507804 6656 0
0 0 0 855 1508659 -8720 0
0 0 0 845 1509504 -7875 0
0 0 0 837 1510341 -7038 0
0 0 0 854 1511195 -6184 0
0 0 0 853 1512048 -5331 0
0 0 0 819 1512867 -4512 0
0 0 0 846 1513713 -3666 0
0 0 0 850 1514563 -2816 0
80 1 S116 854 1515417 -1962 0
80 1 S116 823 1516240 -1139 0
80 1 S116 860 1517100 -279 0
80 2 S116 877 1517977 598 0
80 2 S116 907 1518884 1505 0
80 2 S116 872 1519756 2377 0
80 2 S116 855 1520611 3232 0
80 2 S116 887 1521498 4119 0
80 2 S116 913 1522411 5032 0
80 2 S116 901 1523312 5933 0
80 2 S116 862 1524174 6795 0
