T_0018
BeatCount Mean SD BeatCountNoOutliers MeanNoOutliers SDNoOutliers
2145 716,729603729604 60,5001432794158 2105 712,590023752969 52,6316687117692

Trial TrialStatus Trialtype IBI AbsPosition RelPosition Outlier
0 0 0 744 1384 -15351 0
0 0 0 718 2102 -14633 0
0 0 0 702 2804 -13931 0
0 0 0 686 3490 -13245 0
0 0 0 676 4166 -12569 0
0 0 0 659 4825 -11910 0
0 0 0 666 5491 -11244 0
0 0 0 674 6165 -10570 0
0 0 0 726 6891 -9844 0
0 0 0 778 7669 -9066 0
0 0 0 764 8433 -8302 0
0 0 0 780 9213 -7522 0
0 0 0 787 10000 -6735 0
0 0 0 751 10751 -5984 0
0 0 0 730 11481 -5254 0
0 0 0 730 12211 -4524 0
0 0 0 722 12933 -3802 0
0 0 0 702 13635 -3100 0
0 0 0 685 14320 -2415 0
1 1 S112 668 14988 -1747 0
1 1 S112 654 15642 -1093 0
1 1 S112 639 16281 -454 0
1 2 S112 638 16919 184 0
1 2 S112 636 17555 820 0
1 2 S112 655 18210 1475 0
1 2 S112 689 18899 2164 0
1 2 S112 695 19594 2859 0
1 2 S112 692 20286 3551 0
1 2 S112 720 21006 4271 0
1 2 S112 774 21780 5045 0
1 2 S112 842 22622 5887 0
1 2 S112 837 23459 6724 0
0 0 0 843 24302 -11084 0
0 0 0 839 25141 -10245 0
0 0 0 813 25954 -9432 0
0 0 0 786 26740 -8646 0
0 0 0 757 27497 -7889 0
0 0 0 735 28232 -7154 0
0 0 0 713 28945 -6441 0
0 0 0 700 29645 -5741 0
0 0 0 693 30338 -5048 0
0 0 0 692 31030 -4356 0
0 0 0 701 31731 -3655 0
0 0 0 722 32453 -2933 0
0 0 0 733 33186 -2200 0
2 1 S102 763 33949 -1437 0
2 1 S102 773 34722 -664 0
2 2 S102 799 35521 135 0
2 2 S102 821 36342 956 0
2 2 S102 811 37153 1767 0
2 2 S102 813 37966 2580 0
2 2 S102 809 38775 3389 0
2 2 S102 789 39564 4178 0
2 2 S102 762 40326 4940 0
2 2 S102 747 41073 5687 0
2 2 S102 723 41796 6410 0
0 0 0 710 42506 -10138 0
0 0 0 693 43199 -9445 0
0 0 0 680 43879 -8765 0
0 0 0 695 44574 -8070 0
0 0 0 713 45287 -7357 0
0 0 0 714 46001 -6643 0
0 0 0 725 46726 -5918 0
0 0 0 721 47447 -5197 0
0 0 0 715 48162 -4482 0
0 0 0 725 48887 -3757 0
0 0 0 738 49625 -3019 0
0 0 0 746 50371 -2273 0
3 1 S116 732 51103 -1541 0
3 1 S116 726 51829 -815 0
3 1 S116 713 52542 -102 0
3 2 S116 699 53241 597 0
3 2 S116 707 53948 1304 0
3 2 S116 725 54673 2029 0
3 2 S116 759 55432 2788 0
3 2 S116 764 56196 3552 0
3 2 S116 759 56955 4311 0
3 2 S116 758 57713 5069 0
3 2 S116 760 58473 5829 0
3 2 S116 753 59226 6582 0
0 0 0 740 59966 -12108 0
0 0 0 741 60707 -11367 0
0 0 0 746 61453 -10621 0
0 0 0 739 62192 -9882 0
0 0 0 744 62936 -9138 0
0 0 0 738 63674 -8400 0
0 0 0 729 64403 -7671 0
0 0 0 724 65127 -6947 0
0 0 0 723 65850 -6224 0
0 0 0 728 66578 -5496 0
0 0 0 732 67310 -4764 0
0 0 0 717 68027 -4047 0
0 0 0 711 68738 -3336 0
0 0 0 707 69445 -2629 0
4 1 S106 706 70151 -1923 0
4 1 S106 702 70853 -1221 0
4 1 S106 699 71552 -522 0
4 2 S106 702 72254 180 0
4 2 S106 718 72972 898 0
4 2 S106 735 73707 1633 0
4 2 S106 747 74454 2380 0
4 2 S106 771 75225 3151 0
4 2 S106 788 76013 3939 0
4 2 S106 762 76775 4701 0
4 2 S106 762 77537 5463 0
4 2 S106 751 78288 6214 0
4 2 S106 745 79033 6959 0
0 0 0 743 79776 -8031 0
0 0 0 742 80518 -7289 0
0 0 0 748 81266 -6541 0
0 0 0 739 82005 -5802 0
0 0 0 745 82750 -5057 0
0 0 0 735 83485 -4322 0
0 0 0 726 84211 -3596 0
0 0 0 708 84919 -2888 0
0 0 0 696 85615 -2192 0
5 1 S116 671 86286 -1521 0
5 1 S116 648 86934 -873 0
5 1 S116 644 87578 -229 0
5 2 S116 640 88218 411 0
5 2 S116 634 88852 1045 0
5 2 S116 640 89492 1685 0
5 2 S116 654 90146 2339 0
5 2 S116 660 90806 2999 0
5 2 S116 656 91462 3655 0
5 2 S116 663 92125 4318 0
5 2 S116 685 92810 5003 0
5 2 S116 689 93499 5692 0
5 2 S116 686 94185 6378 0
0 0 0 681 94866 -11160 0
0 0 0 695 95561 -10465 0
0 0 0 709 96270 -9756 0
0 0 0 723 96993 -9033 0
0 0 0 723 97716 -8310 0
0 0 0 732 98448 -7578 0
0 0 0 748 99196 -6830 0
0 0 0 746 99942 -6084 0
0 0 0 727 100669 -5357 0
0 0 0 722 101391 -4635 0
0 0 0 721 102112 -3914 0
0 0 0 711 102823 -3203 0
0 0 0 708 103531 -2495 0
6 1 S106 705 104236 -1790 0
6 1 S106 692 104928 -1098 0
6 1 S106 680 105608 -418 0
6 2 S106 670 106278 252 0
6 2 S106 678 106956 930 0
6 2 S106 701 107657 1631 0
6 2 S106 724 108381 2355 0
6 2 S106 704 109085 3059 0
6 2 S106 706 109791 3765 0
6 2 S106 698 110489 4463 0
6 2 S106 709 111198 5172 0
6 2 S106 716 111914 5888 0
6 2 S106 728 112642 6616 0
0 0 0 726 113368 -12751 0
0 0 0 745 114113 -12006 0
0 0 0 760 114873 -11246 0
0 0 0 778 115651 -10468 0
0 0 0 781 116432 -9687 0
0 0 0 791 117223 -8896 0
0 0 0 771 117994 -8125 0
0 0 0 753 118747 -7372 0
0 0 0 730 119477 -6642 0
0 0 0 705 120182 -5937 0
0 0 0 687 120869 -5250 0
0 0 0 668 121537 -4582 0
0 0 0 668 122205 -3914 0
0 0 0 661 122866 -3253 0
0 0 0 666 123532 -2587 0
7 1 S102 671 124203 -1916 0
7 1 S102 684 124887 -1232 0
7 1 S102 688 125575 -544 0
7 2 S102 696 126271 152 0
7 2 S102 708 126979 860 0
7 2 S102 763 127742 1623 0
7 2 S102 786 128528 2409 0
7 2 S102 804 129332 3213 0
7 2 S102 807 130139 4020 0
7 2 S102 789 130928 4809 0
7 2 S102 768 131696 5577 0
7 2 S102 749 132445 6326 0
0 0 0 737 133182 -8587 0
0 0 0 719 133901 -7868 0
0 0 0 718 134619 -7150 0
0 0 0 715 135334 -6435 0
0 0 0 718 136052 -5717 0
0 0 0 709 136761 -5008 0
0 0 0 706 137467 -4302 0
0 0 0 703 138170 -3599 0
0 0 0 707 138877 -2892 0
0 0 0 701 139578 -2191 0
8 1 S112 715 140293 -1476 0
8 1 S112 721 141014 -755 0
8 1 S112 726 141740 -29 0
8 2 S112 724 142464 695 0
8 2 S112 751 143215 1446 0
8 2 S112 786 144001 2232 0
8 2 S112 779 144780 3011 0
8 2 S112 770 145550 3781 0
8 2 S112 780 146330 4561 0
8 2 S112 795 147125 5356 0
8 2 S112 770 147895 6126 0
8 2 S112 777 148672 6903 0
0 0 0 783 149455 -7301 0
0 0 0 773 150228 -6528 0
0 0 0 751 150979 -5777 0
0 0 0 750 151729 -5027 0
0 0 0 729 152458 -4298 0
0 0 0 721 153179 -3577 0
0 0 0 713 153892 -2864 0
0 0 0 720 154612 -2144 0
9 1 S116 738 155350 -1406 0
9 1 S116 762 156112 -644 0
9 2 S116 792 156904 148 0
9 2 S116 813 157717 961 0
9 2 S116 808 158525 1769 0
9 2 S116 805 159330 2574 0
9 2 S116 796 160126 3370 0
9 2 S116 767 160893 4137 0
9 2 S116 752 161645 4889 0
9 2 S116 742 162387 5631 0
9 2 S116 731 163118 6362 0
0 0 0 713 163831 -11775 0
0 0 0 702 164533 -11073 0
0 0 0 701 165234 -10372 0
0 0 0 718 165952 -9654 0
0 0 0 734 166686 -8920 0
0 0 0 741 167427 -8179 0
0 0 0 748 168175 -7431 0
0 0 0 757 168932 -6674 0
0 0 0 762 169694 -5912 0
0 0 0 761 170455 -5151 0
0 0 0 767 171222 -4384 0
0 0 0 752 171974 -3632 0
0 0 0 755 172729 -2877 0
0 0 0 768 173497 -2109 0
10 1 S102 752 174249 -1357 0
10 1 S102 734 174983 -623 0
10 2 S102 724 175707 101 0
10 2 S102 713 176420 814 0
10 2 S102 710 177130 1524 0
10 2 S102 707 177837 2231 0
10 2 S102 712 178549 2943 0
10 2 S102 724 179273 3667 0
10 2 S102 721 179994 4388 0
10 2 S102 718 180712 5106 0
10 2 S102 715 181427 5821 0
10 2 S102 715 182142 6536 0
0 0 0 706 182848 -11177 0
0 0 0 707 183555 -10470 0
0 0 0 713 184268 -9757 0
0 0 0 727 184995 -9030 0
0 0 0 712 185707 -8318 0
0 0 0 721 186428 -7597 0
0 0 0 724 187152 -6873 0
0 0 0 722 187874 -6151 0
0 0 0 711 188585 -5440 0
0 0 0 712 189297 -4728 0
0 0 0 715 190012 -4013 0
0 0 0 711 190723 -3302 0
0 0 0 709 191432 -2593 0
11 1 S112 716 192148 -1877 0
11 1 S112 722 192870 -1155 0
11 1 S112 725 193595 -430 0
11 2 S112 737 194332 307 0
11 2 S112 747 195079 1054 0
11 2 S112 724 195803 1778 0
11 2 S112 715 196518 2493 0
11 2 S112 712 197230 3205 0
11 2 S112 727 197957 3932 0
11 2 S112 731 198688 4663 0
11 2 S112 730 199418 5393 0
11 2 S112 729 200147 6122 0
11 2 S112 732 200879 6854 0
0 0 0 715 201594 -8594 0
0 0 0 709 202303 -7885 0
0 0 0 702 203005 -7183 0
0 0 0 695 203700 -6488 0
0 0 0 687 204387 -5801 0
0 0 0 684 205071 -5117 0
0 0 0 676 205747 -4441 0
0 0 0 666 206413 -3775 0
0 0 0 657 207070 -3118 0
0 0 0 655 207725 -2463 0
12 1 S116 655 208380 -1808 0
12 1 S116 648 209028 -1160 0
12 1 S116 663 209691 -497 0
12 2 S116 681 210372 184 0
12 2 S116 685 211057 869 0
12 2 S116 706 211763 1575 0
12 2 S116 732 212495 2307 0
12 2 S116 723 213218 3030 0
12 2 S116 720 213938 3750 0
12 2 S116 724 214662 4474 0
12 2 S116 751 215413 5225 0
12 2 S116 768 216181 5993 0
12 2 S116 756 216937 6749 0
0 0 0 748 217685 -11370 0
0 0 0 745 218430 -10625 0
0 0 0 749 219179 -9876 0
0 0 0 737 219916 -9139 0
0 0 0 732 220648 -8407 0
0 0 0 724 221372 -7683 0
0 0 0 715 222087 -6968 0
0 0 0 703 222790 -6265 0
0 0 0 705 223495 -5560 0
0 0 0 729 224224 -4831 0
0 0 0 742 224966 -4089 0
0 0 0 744 225710 -3345 0
0 0 0 748 226458 -2597 0
13 1 S112 749 227207 -1848 0
13 1 S112 735 227942 -1113 0
13 1 S112 732 228674 -381 0
13 2 S112 726 229400 345 0
13 2 S112 711 230111 1056 0
13 2 S112 708 230819 1764 0
13 2 S112 717 231536 2481 0
13 2 S112 732 232268 3213 0
13 2 S112 734 233002 3947 0
13 2 S112 739 233741 4686 0
13 2 S112 748 234489 5434 0
13 2 S112 749 235238 6183 0
13 2 S112 750 235988 6933 0
0 0 0 737 236725 -11892 0
0 0 0 740 237465 -11152 0
0 0 0 749 238214 -10403 0
0 0 0 757 238971 -9646 0
0 0 0 768 239739 -8878 0
0 0 0 751 240490 -8127 0
0 0 0 756 241246 -7371 0
0 0 0 738 241984 -6633 0
0 0 0 743 242727 -5890 0
0 0 0 743 243470 -5147 0
0 0 0 730 244200 -4417 0
0 0 0 737 244937 -3680 0
0 0 0 723 245660 -2957 0
0 0 0 725 246385 -2232 0
14 1 S106 717 247102 -1515 0
14 1 S106 732 247834 -783 0
14 1 S106 742 248576 -41 0
14 2 S106 729 249305 688 0
14 2 S106 709 250014 1397 0
14 2 S106 695 250709 2092 0
14 2 S106 690 251399 2782 0
14 2 S106 675 252074 3457 0
14 2 S106 668 252742 4125 0
14 2 S106 658 253400 4783 0
14 2 S106 653 254053 5436 0
14 2 S106 639 254692 6075 0
14 2 S106 629 255321 6704 0
0 0 0 637 255958 -10812 0
0 0 0 643 256601 -10169 0
0 0 0 645 257246 -9524 0
0 0 0 667 257913 -8857 0
0 0 0 683 258596 -8174 0
0 0 0 678 259274 -7496 0
0 0 0 687 259961 -6809 0
0 0 0 686 260647 -6123 0
0 0 0 702 261349 -5421 0
0 0 0 702 262051 -4719 0
0 0 0 700 262751 -4019 0
0 0 0 696 263447 -3323 0
0 0 0 704 264151 -2619 0
15 1 S116 685 264836 -1934 0
15 1 S116 677 265513 -1257 0
15 1 S116 689 266202 -568 0
15 2 S116 698 266900 130 0
15 2 S116 690 267590 820 0
15 2 S116 702 268292 1522 0
15 2 S116 694 268986 2216 0
15 2 S116 687 269673 2903 0
15 2 S116 695 270368 3598 0
15 2 S116 719 271087 4317 0
15 2 S116 734 271821 5051 0
15 2 S116 745 272566 5796 0
15 2 S116 765 273331 6561 0
0 0 0 773 274104 -9411 0
0 0 0 771 274875 -8640 0
0 0 0 754 275629 -7886 0
0 0 0 751 276380 -7135 0
0 0 0 736 277116 -6399 0
0 0 0 712 277828 -5687 0
0 0 0 698 278526 -4989 0
0 0 0 688 279214 -4301 0
0 0 0 660 279874 -3641 0
0 0 0 659 280533 -2982 0
0 0 0 660 281193 -2322 0
16 1 S116 689 281882 -1633 0
16 1 S116 684 282566 -949 0
16 1 S116 682 283248 -267 0
16 2 S116 691 283939 424 0
16 2 S116 750 284689 1174 0
16 2 S116 772 285461 1946 0
16 2 S116 824 286285 2770 0
16 2 S116 863 287148 3633 0
16 2 S116 854 288002 4487 0
16 2 S116 851 288853 5338 0
16 2 S116 850 289703 6188 0
16 2 S116 806 290509 6994 0
0 0 0 777 291286 -10830 0
0 0 0 760 292046 -10070 0
0 0 0 743 292789 -9327 0
0 0 0 728 293517 -8599 0
0 0 0 725 294242 -7874 0
0 0 0 722 294964 -7152 0
0 0 0 714 295678 -6438 0
0 0 0 717 296395 -5721 0
0 0 0 706 297101 -5015 0
0 0 0 719 297820 -4296 0
0 0 0 733 298553 -3563 0
0 0 0 779 299332 -2784 0
17 1 S106 816 300148 -1968 0
17 1 S106 833 300981 -1135 0
17 1 S106 853 301834 -282 0
17 2 S106 854 302688 572 0
17 2 S106 831 303519 1403 0
17 2 S106 808 304327 2211 0
17 2 S106 776 305103 2987 0
17 2 S106 748 305851 3735 0
17 2 S106 726 306577 4461 0
17 2 S106 707 307284 5168 0
17 2 S106 700 307984 5868 0
17 2 S106 682 308666 6550 0
0 0 0 675 309341 -11790 0
0 0 0 670 310011 -11120 0
0 0 0 697 310708 -10423 0
0 0 0 707 311415 -9716 0
0 0 0 744 312159 -8972 0
0 0 0 774 312933 -8198 0
0 0 0 798 313731 -7400 0
0 0 0 820 314551 -6580 0
0 0 0 822 315373 -5758 0
0 0 0 800 316173 -4958 0
0 0 0 797 316970 -4161 0
0 0 0 767 317737 -3394 0
0 0 0 736 318473 -2658 0
18 1 S102 725 319198 -1933 0
18 1 S102 713 319911 -1220 0
18 1 S102 718 320629 -502 0
18 2 S102 708 321337 206 0
18 2 S102 711 322048 917 0
18 2 S102 705 322753 1622 0
18 2 S102 704 323457 2326 0
18 2 S102 707 324164 3033 0
18 2 S102 700 324864 3733 0
18 2 S102 693 325557 4426 0
18 2 S102 689 326246 5115 0
18 2 S102 690 326936 5805 0
18 2 S102 697 327633 6502 0
0 0 0 695 328328 -7591 0
0 0 0 711 329039 -6880 0
0 0 0 714 329753 -6166 0
0 0 0 716 330469 -5450 0
0 0 0 701 331170 -4749 0
0 0 0 691 331861 -4058 0
0 0 0 674 332535 -3384 0
0 0 0 656 333191 -2728 0
0 0 0 651 333842 -2077 0
19 1 S106 653 334495 -1424 0
19 1 S106 661 335156 -763 0
19 1 S106 655 335811 -108 0
19 2 S106 650 336461 542 0
19 2 S106 657 337118 1199 0
19 2 S106 680 337798 1879 0
19 2 S106 687 338485 2566 0
19 2 S106 693 339178 3259 0
19 2 S106 707 339885 3966 0
19 2 S106 744 340629 4710 0
19 2 S106 772 341401 5482 0
19 2 S106 785 342186 6267 0
0 0 0 784 342970 -12561 0
0 0 0 774 343744 -11787 0
0 0 0 758 344502 -11029 0
0 0 0 748 345250 -10281 0
0 0 0 730 345980 -9551 0
0 0 0 711 346691 -8840 0
0 0 0 689 347380 -8151 0
0 0 0 662 348042 -7489 0
0 0 0 645 348687 -6844 0
0 0 0 640 349327 -6204 0
0 0 0 646 349973 -5558 0
0 0 0 666 350639 -4892 0
0 0 0 704 351343 -4188 0
0 0 0 730 352073 -3458 0
0 0 0 755 352828 -2703 0
20 1 S112 764 353592 -1939 0
20 1 S112 785 354377 -1154 0
20 1 S112 776 355153 -378 0
20 2 S112 749 355902 371 0
20 2 S112 742 356644 1113 0
20 2 S112 730 357374 1843 0
20 2 S112 713 358087 2556 0
20 2 S112 700 358787 3256 0
20 2 S112 687 359474 3943 0
20 2 S112 672 360146 4615 0
20 2 S112 665 360811 5280 0
20 2 S112 652 361463 5932 0
20 2 S112 649 362112 6581 0
0 0 0 646 362758 -9385 0
0 0 0 652 363410 -8733 0
0 0 0 643 364053 -8090 0
0 0 0 646 364699 -7444 0
0 0 0 661 365360 -6783 0
0 0 0 711 366071 -6072 0
0 0 0 739 366810 -5333 0
0 0 0 750 367560 -4583 0
0 0 0 743 368303 -3840 0
0 0 0 735 369038 -3105 0
0 0 0 739 369777 -2366 0
21 1 S106 727 370504 -1639 0
21 1 S106 716 371220 -923 0
21 1 S106 712 371932 -211 0
21 2 S106 703 372635 492 0
21 2 S106 694 373329 1186 0
21 2 S106 682 374011 1868 0
21 2 S106 684 374695 2552 0
21 2 S106 680 375375 3232 0
21 2 S106 662 376037 3894 0
21 2 S106 656 376693 4550 0
21 2 S106 649 377342 5199 0
21 2 S106 642 377984 5841 0
21 2 S106 630 378614 6471 0
0 0 0 628 379242 -13342 0
0 0 0 627 379869 -12715 0
0 0 0 637 380506 -12078 0
0 0 0 637 381143 -11441 0
0 0 0 647 381790 -10794 0
0 0 0 657 382447 -10137 0
0 0 0 680 383127 -9457 0
0 0 0 685 383812 -8772 0
0 0 0 661 384473 -8111 0
0 0 0 660 385133 -7451 0
0 0 0 637 385770 -6814 0
0 0 0 642 386412 -6172 0
0 0 0 648 387060 -5524 0
0 0 0 676 387736 -4848 0
0 0 0 743 388479 -4105 0
0 0 0 748 389227 -3357 0
0 0 0 741 389968 -2616 0
22 1 S116 755 390723 -1861 0
22 1 S116 744 391467 -1117 0
22 1 S116 739 392206 -378 0
22 2 S116 713 392919 335 0
22 2 S116 712 393631 1047 0
22 2 S116 689 394320 1736 0
22 2 S116 682 395002 2418 0
22 2 S116 670 395672 3088 0
22 2 S116 683 396355 3771 0
22 2 S116 676 397031 4447 0
22 2 S116 662 397693 5109 0
22 2 S116 657 398350 5766 0
22 2 S116 661 399011 6427 0
0 0 0 664 399675 -9272 0
0 0 0 661 400336 -8611 0
0 0 0 661 400997 -7950 0
0 0 0 668 401665 -7282 0
0 0 0 657 402322 -6625 0
0 0 0 665 402987 -5960 0
0 0 0 670 403657 -5290 0
0 0 0 694 404351 -4596 0
0 0 0 723 405074 -3873 0
0 0 0 786 405860 -3087 0
0 0 0 807 406667 -2280 0
23 1 S112 783 407450 -1497 0
23 1 S112 783 408233 -714 0
23 2 S112 820 409053 106 0
23 2 S112 819 409872 925 0
23 2 S112 793 410665 1718 0
23 2 S112 765 411430 2483 0
23 2 S112 771 412201 3254 0
23 2 S112 759 412960 4013 0
23 2 S112 729 413689 4742 0
23 2 S112 707 414396 5449 0
23 2 S112 691 415087 6140 0
23 2 S112 678 415765 6818 0
0 0 0 668 416433 -10004 0
0 0 0 655 417088 -9349 0
0 0 0 656 417744 -8693 0
0 0 0 663 418407 -8030 0
0 0 0 667 419074 -7363 0
0 0 0 678 419752 -6685 0
0 0 0 673 420425 -6012 0
0 0 0 663 421088 -5349 0
0 0 0 658 421746 -4691 0
0 0 0 659 422405 -4032 0
0 0 0 684 423089 -3348 0
0 0 0 697 423786 -2651 0
24 1 S106 723 424509 -1928 0
24 1 S106 761 425270 -1167 0
24 1 S106 790 426060 -377 0
24 2 S106 771 426831 394 0
24 2 S106 791 427622 1185 0
24 2 S106 770 428392 1955 0
24 2 S106 730 429122 2685 0
24 2 S106 718 429840 3403 0
24 2 S106 706 430546 4109 0
24 2 S106 666 431212 4775 0
24 2 S106 639 431851 5414 0
24 2 S106 618 432469 6032 0
24 2 S106 608 433077 6640 0
0 0 0 601 433678 -9851 0
0 0 0 602 434280 -9249 0
0 0 0 631 434911 -8618 0
0 0 0 654 435565 -7964 0
0 0 0 708 436273 -7256 0
0 0 0 723 436996 -6533 0
0 0 0 740 437736 -5793 0
0 0 0 764 438500 -5029 0
0 0 0 796 439296 -4233 0
0 0 0 815 440111 -3418 0
0 0 0 868 440979 -2550 0
25 1 S102 859 441838 -1691 0
25 1 S102 873 442711 -818 1
25 2 S102 872 443583 54 0
25 2 S102 879 444462 933 1
25 2 S102 857 445319 1790 0
25 2 S102 828 446147 2618 0
25 2 S102 808 446955 3426 0
25 2 S102 788 447743 4214 0
25 2 S102 759 448502 4973 0
25 2 S102 745 449247 5718 0
25 2 S102 737 449984 6455 0
0 0 0 734 450718 -8544 0
0 0 0 740 451458 -7804 0
0 0 0 744 452202 -7060 0
0 0 0 745 452947 -6315 0
0 0 0 750 453697 -5565 0
0 0 0 739 454436 -4826 0
0 0 0 723 455159 -4103 0
0 0 0 719 455878 -3384 0
0 0 0 705 456583 -2679 0
26 1 S116 698 457281 -1981 0
26 1 S116 685 457966 -1296 0
26 1 S116 678 458644 -618 0
26 2 S116 676 459320 58 0
26 2 S116 677 459997 735 0
26 2 S116 671 460668 1406 0
26 2 S116 672 461340 2078 0
26 2 S116 675 462015 2753 0
26 2 S116 690 462705 3443 0
26 2 S116 712 463417 4155 0
26 2 S116 722 464139 4877 0
26 2 S116 713 464852 5590 0
26 2 S116 712 465564 6302 0
26 2 S116 712 466276 7014 0
0 0 0 710 466986 -6484 0
0 0 0 697 467683 -5787 0
0 0 0 689 468372 -5098 0
0 0 0 674 469046 -4424 0
0 0 0 662 469708 -3762 0
0 0 0 651 470359 -3111 0
0 0 0 648 471007 -2463 0
27 1 S106 640 471647 -1823 0
27 1 S106 643 472290 -1180 0
27 1 S106 647 472937 -533 0
27 2 S106 653 473590 120 0
27 2 S106 669 474259 789 0
27 2 S106 672 474931 1461 0
27 2 S106 708 475639 2169 0
27 2 S106 737 476376 2906 0
27 2 S106 802 477178 3708 0
27 2 S106 804 477982 4512 0
27 2 S106 823 478805 5335 0
27 2 S106 803 479608 6138 0
27 2 S106 759 480367 6897 0
0 0 0 743 481110 -7413 0
0 0 0 716 481826 -6697 0
0 0 0 692 482518 -6005 0
0 0 0 676 483194 -5329 0
0 0 0 655 483849 -4674 0
0 0 0 634 484483 -4040 0
0 0 0 617 485100 -3423 0
0 0 0 614 485714 -2809 0
0 0 0 596 486310 -2213 0
28 1 S102 587 486897 -1626 0
28 1 S102 582 487479 -1044 0
28 1 S102 586 488065 -458 0
28 2 S102 595 488660 137 0
28 2 S102 643 489303 780 0
28 2 S102 686 489989 1466 0
28 2 S102 734 490723 2200 0
28 2 S102 797 491520 2997 0
28 2 S102 870 492390 3867 0
28 2 S102 867 493257 4734 0
28 2 S102 896 494153 5630 1
28 2 S102 879 495032 6509 1
0 0 0 856 495888 -12148 0
0 0 0 845 496733 -11303 0
0 0 0 797 497530 -10506 0
0 0 0 758 498288 -9748 0
0 0 0 736 499024 -9012 0
0 0 0 710 499734 -8302 0
0 0 0 685 500419 -7617 0
0 0 0 671 501090 -6946 0
0 0 0 657 501747 -6289 0
0 0 0 646 502393 -5643 0
0 0 0 640 503033 -5003 0
0 0 0 653 503686 -4350 0
0 0 0 694 504380 -3656 0
0 0 0 717 505097 -2939 0
0 0 0 718 505815 -2221 0
29 1 S112 745 506560 -1476 0
29 1 S112 757 507317 -719 0
29 2 S112 762 508079 43 0
29 2 S112 791 508870 834 0
29 2 S112 809 509679 1643 0
29 2 S112 798 510477 2441 0
29 2 S112 778 511255 3219 0
29 2 S112 765 512020 3984 0
29 2 S112 752 512772 4736 0
29 2 S112 730 513502 5466 0
29 2 S112 727 514229 6193 0
29 2 S112 714 514943 6907 0
0 0 0 706 515649 -6495 0
0 0 0 712 516361 -5783 0
0 0 0 708 517069 -5075 0
0 0 0 715 517784 -4360 0
0 0 0 705 518489 -3655 0
0 0 0 705 519194 -2950 0
0 0 0 696 519890 -2254 0
30 1 S112 695 520585 -1559 0
30 1 S112 682 521267 -877 0
30 1 S112 674 521941 -203 0
30 2 S112 662 522603 459 0
30 2 S112 645 523248 1104 0
30 2 S112 628 523876 1732 0
30 2 S112 623 524499 2355 0
30 2 S112 616 525115 2971 0
30 2 S112 626 525741 3597 0
30 2 S112 631 526372 4228 0
30 2 S112 649 527021 4877 0
30 2 S112 669 527690 5546 0
30 2 S112 730 528420 6276 0
30 2 S112 750 529170 7026 0
0 0 0 787 529957 -7456 0
0 0 0 800 530757 -6656 0
0 0 0 792 531549 -5864 0
0 0 0 765 532314 -5099 0
0 0 0 758 533072 -4341 0
0 0 0 737 533809 -3604 0
0 0 0 699 534508 -2905 0
0 0 0 690 535198 -2215 0
31 1 S106 667 535865 -1548 0
31 1 S106 653 536518 -895 0
31 1 S106 641 537159 -254 0
31 2 S106 639 537798 385 0
31 2 S106 637 538435 1022 0
31 2 S106 639 539074 1661 0
31 2 S106 643 539717 2304 0
31 2 S106 657 540374 2961 0
31 2 S106 674 541048 3635 0
31 2 S106 698 541746 4333 0
31 2 S106 715 542461 5048 0
31 2 S106 720 543181 5768 0
31 2 S106 733 543914 6501 0
0 0 0 741 544655 -8457 0
0 0 0 736 545391 -7721 0
0 0 0 743 546134 -6978 0
0 0 0 735 546869 -6243 0
0 0 0 723 547592 -5520 0
0 0 0 715 548307 -4805 0
0 0 0 702 549009 -4103 0
0 0 0 692 549701 -3411 0
0 0 0 682 550383 -2729 0
0 0 0 680 551063 -2049 0
32 1 S102 691 551754 -1358 0
32 1 S102 689 552443 -669 0
32 2 S102 692 553135 23 0
32 2 S102 693 553828 716 0
32 2 S102 695 554523 1411 0
32 2 S102 688 555211 2099 0
32 2 S102 685 555896 2784 0
32 2 S102 677 556573 3461 0
32 2 S102 679 557252 4140 0
32 2 S102 680 557932 4820 0
32 2 S102 685 558617 5505 0
32 2 S102 682 559299 6187 0
32 2 S102 692 559991 6879 0
0 0 0 684 560675 -9546 0
0 0 0 689 561364 -8857 0
0 0 0 685 562049 -8172 0
0 0 0 680 562729 -7492 0
0 0 0 684 563413 -6808 0
0 0 0 678 564091 -6130 0
0 0 0 679 564770 -5451 0
0 0 0 676 565446 -4775 0
0 0 0 684 566130 -4091 0
0 0 0 670 566800 -3421 0
0 0 0 651 567451 -2770 0
0 0 0 650 568101 -2120 0
33 1 S112 650 568751 -1470 0
33 1 S112 664 569415 -806 0
33 1 S112 670 570085 -136 0
33 2 S112 669 570754 533 0
33 2 S112 676 571430 1209 0
33 2 S112 687 572117 1896 0
33 2 S112 682 572799 2578 0
33 2 S112 685 573484 3263 0
33 2 S112 693 574177 3956 0
33 2 S112 703 574880 4659 0
33 2 S112 693 575573 5352 0
33 2 S112 704 576277 6056 0
33 2 S112 716 576993 6772 0
0 0 0 727 577720 -12279 0
0 0 0 718 578438 -11561 0
0 0 0 716 579154 -10845 0
0 0 0 718 579872 -10127 0
0 0 0 719 580591 -9408 0
0 0 0 718 581309 -8690 0
0 0 0 706 582015 -7984 0
0 0 0 697 582712 -7287 0
0 0 0 688 583400 -6599 0
0 0 0 689 584089 -5910 0
0 0 0 701 584790 -5209 0
0 0 0 710 585500 -4499 0
0 0 0 724 586224 -3775 0
0 0 0 732 586956 -3043 0
0 0 0 749 587705 -2294 0
34 1 S106 730 588435 -1564 0
34 1 S106 738 589173 -826 0
34 1 S106 726 589899 -100 0
34 2 S106 711 590610 611 0
34 2 S106 695 591305 1306 0
34 2 S106 688 591993 1994 0
34 2 S106 680 592673 2674 0
34 2 S106 674 593347 3348 0
34 2 S106 658 594005 4006 0
34 2 S106 644 594649 4650 0
34 2 S106 638 595287 5288 0
34 2 S106 623 595910 5911 0
34 2 S106 606 596516 6517 0
0 0 0 595 597111 -8688 0
0 0 0 588 597699 -8100 0
0 0 0 582 598281 -7518 0
0 0 0 578 598859 -6940 0
0 0 0 579 599438 -6361 0
0 0 0 584 600022 -5777 0
0 0 0 592 600614 -5185 0
0 0 0 600 601214 -4585 0
0 0 0 599 601813 -3986 0
0 0 0 601 602414 -3385 0
0 0 0 604 603018 -2781 0
0 0 0 615 603633 -2166 0
35 1 S102 624 604257 -1542 0
35 1 S102 624 604881 -918 0
35 1 S102 648 605529 -270 0
35 2 S102 679 606208 409 0
35 2 S102 748 606956 1157 0
35 2 S102 804 607760 1961 0
35 2 S102 814 608574 2775 0
35 2 S102 803 609377 3578 0
35 2 S102 793 610170 4371 0
35 2 S102 767 610937 5138 0
35 2 S102 733 611670 5871 0
35 2 S102 717 612387 6588 0
0 0 0 701 613088 -6620 0
0 0 0 690 613778 -5930 0
0 0 0 674 614452 -5256 0
0 0 0 676 615128 -4580 0
0 0 0 672 615800 -3908 0
0 0 0 677 616477 -3231 0
0 0 0 669 617146 -2562 0
36 1 S106 667 617813 -1895 0
36 1 S106 670 618483 -1225 0
36 1 S106 685 619168 -540 0
36 2 S106 677 619845 137 0
36 2 S106 693 620538 830 0
36 2 S106 703 621241 1533 0
36 2 S106 700 621941 2233 0
36 2 S106 694 622635 2927 0
36 2 S106 693 623328 3620 0
36 2 S106 691 624019 4311 0
36 2 S106 689 624708 5000 0
36 2 S106 673 625381 5673 0
36 2 S106 665 626046 6338 0
36 2 S106 654 626700 6992 0
0 0 0 643 627343 -9822 0
0 0 0 638 627981 -9184 0
0 0 0 633 628614 -8551 0
0 0 0 630 629244 -7921 0
0 0 0 628 629872 -7293 0
0 0 0 634 630506 -6659 0
0 0 0 632 631138 -6027 0
0 0 0 633 631771 -5394 0
0 0 0 637 632408 -4757 0
0 0 0 645 633053 -4112 0
0 0 0 657 633710 -3455 0
0 0 0 668 634378 -2787 0
0 0 0 669 635047 -2118 0
37 1 S116 675 635722 -1443 0
37 1 S116 683 636405 -760 0
37 1 S116 674 637079 -86 0
37 2 S116 669 637748 583 0
37 2 S116 665 638413 1248 0
37 2 S116 669 639082 1917 0
37 2 S116 667 639749 2584 0
37 2 S116 667 640416 3251 0
37 2 S116 661 641077 3912 0
37 2 S116 666 641743 4578 0
37 2 S116 657 642400 5235 0
37 2 S116 650 643050 5885 0
37 2 S116 649 643699 6534 0
0 0 0 653 644352 -10950 0
0 0 0 652 645004 -10298 0
0 0 0 656 645660 -9642 0
0 0 0 661 646321 -8981 0
0 0 0 673 646994 -8308 0
0 0 0 675 647669 -7633 0
0 0 0 684 648353 -6949 0
0 0 0 686 649039 -6263 0
0 0 0 697 649736 -5566 0
0 0 0 706 650442 -4860 0
0 0 0 708 651150 -4152 0
0 0 0 715 651865 -3437 0
0 0 0 708 652573 -2729 0
0 0 0 708 653281 -2021 0
38 1 S102 692 653973 -1329 0
38 1 S102 689 654662 -640 0
38 2 S102 683 655345 43 0
38 2 S102 685 656030 728 0
38 2 S102 692 656722 1420 0
38 2 S102 698 657420 2118 0
38 2 S102 715 658135 2833 0
38 2 S102 724 658859 3557 0
38 2 S102 741 659600 4298 0
38 2 S102 730 660330 5028 0
38 2 S102 737 661067 5765 0
38 2 S102 732 661799 6497 0
0 0 0 722 662521 -9293 0
0 0 0 717 663238 -8576 0
0 0 0 703 663941 -7873 0
0 0 0 702 664643 -7171 0
0 0 0 694 665337 -6477 0
0 0 0 688 666025 -5789 0
0 0 0 677 666702 -5112 0
0 0 0 679 667381 -4433 0
0 0 0 673 668054 -3760 0
0 0 0 676 668730 -3084 0
0 0 0 677 669407 -2407 0
39 1 S116 682 670089 -1725 0
39 1 S116 684 670773 -1041 0
39 1 S116 687 671460 -354 0
39 2 S116 691 672151 337 0
39 2 S116 690 672841 1027 0
39 2 S116 697 673538 1724 0
39 2 S116 691 674229 2415 0
39 2 S116 687 674916 3102 0
39 2 S116 681 675597 3783 0
39 2 S116 672 676269 4455 0
39 2 S116 675 676944 5130 0
39 2 S116 688 677632 5818 0
39 2 S116 686 678318 6504 0
0 0 0 684 679002 -7666 0
0 0 0 679 679681 -6987 0
0 0 0 687 680368 -6300 0
0 0 0 690 681058 -5610 0
0 0 0 690 681748 -4920 0
0 0 0 691 682439 -4229 0
0 0 0 698 683137 -3531 0
0 0 0 682 683819 -2849 0
0 0 0 678 684497 -2171 0
40 1 S112 674 685171 -1497 0
40 1 S112 669 685840 -828 0
40 1 S112 668 686508 -160 0
40 2 S112 673 687181 513 0
40 2 S112 690 687871 1203 0
40 2 S112 710 688581 1913 0
40 2 S112 733 689314 2646 0
40 2 S112 762 690076 3408 0
40 2 S112 754 690830 4162 0
40 2 S112 730 691560 4892 0
40 2 S112 728 692288 5620 0
40 2 S112 715 693003 6335 0
0 0 0 704 693707 -187558 0
0 0 0 689 694396 -186869 0
0 0 0 672 695068 -186197 0
0 0 0 664 695732 -185533 0
0 0 0 660 696392 -184873 0
0 0 0 662 697054 -184211 0
0 0 0 668 697722 -183543 0
0 0 0 662 698384 -182881 0
0 0 0 665 699049 -182216 0
0 0 0 671 699720 -181545 0
0 0 0 676 700396 -180869 0
0 0 0 694 701090 -180175 0
0 0 0 693 701783 -179482 0
0 0 0 717 702500 -178765 0
0 0 0 724 703224 -178041 0
0 0 0 718 703942 -177323 0
0 0 0 707 704649 -176616 0
0 0 0 679 705328 -175937 0
0 0 0 661 705989 -175276 0
0 0 0 650 706639 -174626 0
0 0 0 632 707271 -173994 0
0 0 0 625 707896 -173369 0
0 0 0 616 708512 -172753 0
0 0 0 607 709119 -172146 0
0 0 0 593 709712 -171553 0
0 0 0 589 710301 -170964 0
0 0 0 583 710884 -170381 0
0 0 0 578 711462 -169803 0
0 0 0 578 712040 -169225 0
0 0 0 579 712619 -168646 0
0 0 0 586 713205 -168060 0
0 0 0 596 713801 -167464 0
0 0 0 639 714440 -166825 0
0 0 0 700 715140 -166125 0
0 0 0 745 715885 -165380 0
0 0 0 790 716675 -164590 0
0 0 0 837 717512 -163753 0
0 0 0 825 718337 -162928 0
0 0 0 850 719187 -162078 0
0 0 0 843 720030 -161235 0
0 0 0 804 720834 -160431 0
0 0 0 791 721625 -159640 0
0 0 0 791 722416 -158849 0
0 0 0 782 723198 -158067 0
0 0 0 757 723955 -157310 0
0 0 0 730 724685 -156580 0
0 0 0 716 725401 -155864 0
0 0 0 702 726103 -155162 0
0 0 0 699 726802 -154463 0
0 0 0 692 727494 -153771 0
0 0 0 693 728187 -153078 0
0 0 0 691 728878 -152387 0
0 0 0 713 729591 -151674 0
0 0 0 730 730321 -150944 0
0 0 0 742 731063 -150202 0
0 0 0 758 731821 -149444 0
0 0 0 779 732600 -148665 0
0 0 0 782 733382 -147883 0
0 0 0 790 734172 -147093 0
0 0 0 788 734960 -146305 0
0 0 0 778 735738 -145527 0
0 0 0 759 736497 -144768 0
0 0 0 750 737247 -144018 0
0 0 0 747 737994 -143271 0
0 0 0 753 738747 -142518 0
0 0 0 752 739499 -141766 0
0 0 0 759 740258 -141007 0
0 0 0 754 741012 -140253 0
0 0 0 742 741754 -139511 0
0 0 0 734 742488 -138777 0
0 0 0 739 743227 -138038 0
0 0 0 754 743981 -137284 0
0 0 0 767 744748 -136517 0
0 0 0 760 745508 -135757 0
0 0 0 775 746283 -134982 0
0 0 0 784 747067 -134198 0
0 0 0 780 747847 -133418 0
0 0 0 758 748605 -132660 0
0 0 0 741 749346 -131919 0
0 0 0 741 750087 -131178 0
0 0 0 748 750835 -130430 0
0 0 0 742 751577 -129688 0
0 0 0 721 752298 -128967 0
0 0 0 713 753011 -128254 0
0 0 0 705 753716 -127549 0
0 0 0 722 754438 -126827 0
0 0 0 737 755175 -126090 0
0 0 0 748 755923 -125342 0
0 0 0 770 756693 -124572 0
0 0 0 793 757486 -123779 0
0 0 0 802 758288 -122977 0
0 0 0 816 759104 -122161 0
0 0 0 838 759942 -121323 0
0 0 0 848 760790 -120475 0
0 0 0 804 761594 -119671 0
0 0 0 786 762380 -118885 0
0 0 0 771 763151 -118114 0
0 0 0 764 763915 -117350 0
0 0 0 736 764651 -116614 0
0 0 0 723 765374 -115891 0
0 0 0 717 766091 -115174 0
0 0 0 726 766817 -114448 0
0 0 0 724 767541 -113724 0
0 0 0 735 768276 -112989 0
0 0 0 748 769024 -112241 0
0 0 0 771 769795 -111470 0
0 0 0 746 770541 -110724 0
0 0 0 761 771302 -109963 0
0 0 0 768 772070 -109195 0
0 0 0 761 772831 -108434 0
0 0 0 757 773588 -107677 0
0 0 0 759 774347 -106918 0
0 0 0 732 775079 -106186 0
0 0 0 714 775793 -105472 0
0 0 0 698 776491 -104774 0
0 0 0 695 777186 -104079 0
0 0 0 714 777900 -103365 0
0 0 0 714 778614 -102651 0
0 0 0 721 779335 -101930 0
0 0 0 732 780067 -101198 0
0 0 0 738 780805 -100460 0
0 0 0 744 781549 -99716 0
0 0 0 741 782290 -98975 0
0 0 0 728 783018 -98247 0
0 0 0 699 783717 -97548 0
0 0 0 680 784397 -96868 0
0 0 0 661 785058 -96207 0
0 0 0 666 785724 -95541 0
0 0 0 659 786383 -94882 0
0 0 0 676 787059 -94206 0
0 0 0 679 787738 -93527 0
0 0 0 681 788419 -92846 0
0 0 0 688 789107 -92158 0
0 0 0 694 789801 -91464 0
0 0 0 731 790532 -90733 0
0 0 0 755 791287 -89978 0
0 0 0 779 792066 -89199 0
0 0 0 787 792853 -88412 0
0 0 0 763 793616 -87649 0
0 0 0 748 794364 -86901 0
0 0 0 723 795087 -86178 0
0 0 0 691 795778 -85487 0
0 0 0 668 796446 -84819 0
0 0 0 631 797077 -84188 0
0 0 0 613 797690 -83575 0
0 0 0 593 798283 -82982 0
0 0 0 585 798868 -82397 0
0 0 0 576 799444 -81821 0
0 0 0 570 800014 -81251 0
0 0 0 564 800578 -80687 0
0 0 0 564 801142 -80123 0
0 0 0 565 801707 -79558 0
0 0 0 574 802281 -78984 0
0 0 0 606 802887 -78378 0
0 0 0 651 803538 -77727 0
0 0 0 758 804296 -76969 0
0 0 0 883 805179 -76086 1
0 0 0 946 806125 -75140 1
0 0 0 1022 807147 -74118 1
0 0 0 1040 808187 -73078 1
0 0 0 962 809149 -72116 1
0 0 0 978 810127 -71138 1
0 0 0 886 811013 -70252 1
0 0 0 823 811836 -69429 0
0 0 0 790 812626 -68639 0
0 0 0 786 813412 -67853 0
0 0 0 762 814174 -67091 0
0 0 0 758 814932 -66333 0
0 0 0 756 815688 -65577 0
0 0 0 760 816448 -64817 0
0 0 0 757 817205 -64060 0
0 0 0 761 817966 -63299 0
0 0 0 757 818723 -62542 0
0 0 0 760 819483 -61782 0
0 0 0 756 820239 -61026 0
0 0 0 748 820987 -60278 0
0 0 0 747 821734 -59531 0
0 0 0 735 822469 -58796 0
0 0 0 734 823203 -58062 0
0 0 0 732 823935 -57330 0
0 0 0 741 824676 -56589 0
0 0 0 738 825414 -55851 0
0 0 0 740 826154 -55111 0
0 0 0 730 826884 -54381 0
0 0 0 723 827607 -53658 0
0 0 0 716 828323 -52942 0
0 0 0 713 829036 -52229 0
0 0 0 708 829744 -51521 0
0 0 0 714 830458 -50807 0
0 0 0 713 831171 -50094 0
0 0 0 721 831892 -49373 0
0 0 0 716 832608 -48657 0
0 0 0 719 833327 -47938 0
0 0 0 714 834041 -47224 0
0 0 0 715 834756 -46509 0
0 0 0 708 835464 -45801 0
0 0 0 691 836155 -45110 0
0 0 0 687 836842 -44423 0
0 0 0 694 837536 -43729 0
0 0 0 704 838240 -43025 0
0 0 0 705 838945 -42320 0
0 0 0 709 839654 -41611 0
0 0 0 717 840371 -40894 0
0 0 0 739 841110 -40155 0
0 0 0 737 841847 -39418 0
0 0 0 737 842584 -38681 0
0 0 0 735 843319 -37946 0
0 0 0 724 844043 -37222 0
0 0 0 719 844762 -36503 0
0 0 0 718 845480 -35785 0
0 0 0 736 846216 -35049 0
0 0 0 726 846942 -34323 0
0 0 0 741 847683 -33582 0
0 0 0 738 848421 -32844 0
0 0 0 734 849155 -32110 0
0 0 0 729 849884 -31381 0
0 0 0 734 850618 -30647 0
0 0 0 751 851369 -29896 0
0 0 0 740 852109 -29156 0
0 0 0 746 852855 -28410 0
0 0 0 754 853609 -27656 0
0 0 0 761 854370 -26895 0
0 0 0 748 855118 -26147 0
0 0 0 752 855870 -25395 0
0 0 0 753 856623 -24642 0
0 0 0 744 857367 -23898 0
0 0 0 739 858106 -23159 0
0 0 0 734 858840 -22425 0
0 0 0 742 859582 -21683 0
0 0 0 738 860320 -20945 0
0 0 0 746 861066 -20199 0
0 0 0 755 861821 -19444 0
0 0 0 764 862585 -18680 0
0 0 0 780 863365 -17900 0
0 0 0 812 864177 -17088 0
0 0 0 817 864994 -16271 0
0 0 0 787 865781 -15484 0
0 0 0 767 866548 -14717 0
0 0 0 741 867289 -13976 0
0 0 0 720 868009 -13256 0
0 0 0 708 868717 -12548 0
0 0 0 716 869433 -11832 0
0 0 0 726 870159 -11106 0
0 0 0 728 870887 -10378 0
0 0 0 748 871635 -9630 0
0 0 0 777 872412 -8853 0
0 0 0 784 873196 -8069 0
0 0 0 778 873974 -7291 0
0 0 0 803 874777 -6488 0
0 0 0 783 875560 -5705 0
0 0 0 752 876312 -4953 0
0 0 0 750 877062 -4203 0
0 0 0 737 877799 -3466 0
0 0 0 726 878525 -2740 0
0 0 0 716 879241 -2024 0
41 1 S102 706 879947 -1318 0
41 1 S102 671 880618 -647 0
41 2 S102 663 881281 16 0
41 2 S102 659 881940 675 0
41 2 S102 663 882603 1338 0
41 2 S102 663 883266 2001 0
41 2 S102 716 883982 2717 0
41 2 S102 756 884738 3473 0
41 2 S102 790 885528 4263 0
41 2 S102 779 886307 5042 0
41 2 S102 795 887102 5837 0
41 2 S102 815 887917 6652 0
0 0 0 798 888715 -7553 0
0 0 0 807 889522 -6746 0
0 0 0 777 890299 -5969 0
0 0 0 752 891051 -5217 0
0 0 0 728 891779 -4489 0
0 0 0 707 892486 -3782 0
0 0 0 693 893179 -3089 0
0 0 0 677 893856 -2412 0
42 1 S112 664 894520 -1748 0
42 1 S112 655 895175 -1093 0
42 1 S112 657 895832 -436 0
42 2 S112 666 896498 230 0
42 2 S112 695 897193 925 0
42 2 S112 736 897929 1661 0
42 2 S112 804 898733 2465 0
42 2 S112 825 899558 3290 0
42 2 S112 877 900435 4167 1
42 2 S112 911 901346 5078 1
42 2 S112 884 902230 5962 1
42 2 S112 885 903115 6847 1
0 0 0 863 903978 -10029 0
0 0 0 807 904785 -9222 0
0 0 0 800 905585 -8422 0
0 0 0 778 906363 -7644 0
0 0 0 753 907116 -6891 0
0 0 0 747 907863 -6144 0
0 0 0 736 908599 -5408 0
0 0 0 734 909333 -4674 0
0 0 0 729 910062 -3945 0
0 0 0 733 910795 -3212 0
0 0 0 746 911541 -2466 0
43 1 S116 747 912288 -1719 0
43 1 S116 770 913058 -949 0
43 1 S116 800 913858 -149 0
43 2 S116 794 914652 645 0
43 2 S116 815 915467 1460 0
43 2 S116 829 916296 2289 0
43 2 S116 839 917135 3128 0
43 2 S116 831 917966 3959 0
43 2 S116 847 918813 4806 0
43 2 S116 848 919661 5654 0
43 2 S116 821 920482 6475 0
0 0 0 830 921312 -7102 0
0 0 0 805 922117 -6297 0
0 0 0 764 922881 -5533 0
0 0 0 748 923629 -4785 0
0 0 0 729 924358 -4056 0
0 0 0 715 925073 -3341 0
0 0 0 712 925785 -2629 0
44 1 S102 695 926480 -1934 0
44 1 S102 688 927168 -1246 0
44 1 S102 684 927852 -562 0
44 2 S102 667 928519 105 0
44 2 S102 666 929185 771 0
44 2 S102 672 929857 1443 0
44 2 S102 669 930526 2112 0
44 2 S102 669 931195 2781 0
44 2 S102 671 931866 3452 0
44 2 S102 675 932541 4127 0
44 2 S102 665 933206 4792 0
44 2 S102 658 933864 5450 0
44 2 S102 652 934516 6102 0
44 2 S102 652 935168 6754 0
0 0 0 649 935817 -8976 0
0 0 0 641 936458 -8335 0
0 0 0 650 937108 -7685 0
0 0 0 675 937783 -7010 0
0 0 0 684 938467 -6326 0
0 0 0 676 939143 -5650 0
0 0 0 678 939821 -4972 0
0 0 0 677 940498 -4295 0
0 0 0 684 941182 -3611 0
0 0 0 686 941868 -2925 0
0 0 0 703 942571 -2222 0
45 1 S116 725 943296 -1497 0
45 1 S116 714 944010 -783 0
45 1 S116 711 944721 -72 0
45 2 S116 705 945426 633 0
45 2 S116 708 946134 1341 0
45 2 S116 699 946833 2040 0
45 2 S116 696 947529 2736 0
45 2 S116 695 948224 3431 0
45 2 S116 699 948923 4130 0
45 2 S116 692 949615 4822 0
45 2 S116 683 950298 5505 0
45 2 S116 683 950981 6188 0
45 2 S116 688 951669 6876 0
0 0 0 686 952355 -12216 0
0 0 0 685 953040 -11531 0
0 0 0 688 953728 -10843 0
0 0 0 700 954428 -10143 0
0 0 0 729 955157 -9414 0
0 0 0 737 955894 -8677 0
0 0 0 743 956637 -7934 0
0 0 0 740 957377 -7194 0
0 0 0 724 958101 -6470 0
0 0 0 690 958791 -5780 0
0 0 0 692 959483 -5088 0
0 0 0 680 960163 -4408 0
0 0 0 668 960831 -3740 0
0 0 0 688 961519 -3052 0
0 0 0 727 962246 -2325 0
46 1 S102 735 962981 -1590 0
46 1 S102 740 963721 -850 0
46 1 S102 743 964464 -107 0
46 2 S102 738 965202 631 0
46 2 S102 745 965947 1376 0
46 2 S102 746 966693 2122 0
46 2 S102 741 967434 2863 0
46 2 S102 728 968162 3591 0
46 2 S102 724 968886 4315 0
46 2 S102 713 969599 5028 0
46 2 S102 705 970304 5733 0
46 2 S102 693 970997 6426 0
0 0 0 686 971683 -10362 0
0 0 0 675 972358 -9687 0
0 0 0 681 973039 -9006 0
0 0 0 695 973734 -8311 0
0 0 0 704 974438 -7607 0
0 0 0 734 975172 -6873 0
0 0 0 734 975906 -6139 0
0 0 0 736 976642 -5403 0
0 0 0 725 977367 -4678 0
0 0 0 725 978092 -3953 0
0 0 0 719 978811 -3234 0
0 0 0 720 979531 -2514 0
47 1 S112 716 980247 -1798 0
47 1 S112 718 980965 -1080 0
47 1 S112 716 981681 -364 0
47 2 S112 712 982393 348 0
47 2 S112 699 983092 1047 0
47 2 S112 710 983802 1757 0
47 2 S112 752 984554 2509 0
47 2 S112 826 985380 3335 0
47 2 S112 836 986216 4171 0
47 2 S112 834 987050 5005 0
47 2 S112 829 987879 5834 0
47 2 S112 810 988689 6644 0
0 0 0 771 989460 -12529 0
0 0 0 754 990214 -11775 0
0 0 0 739 990953 -11036 0
0 0 0 721 991674 -10315 0
0 0 0 702 992376 -9613 0
0 0 0 698 993074 -8915 0
0 0 0 685 993759 -8230 0
0 0 0 680 994439 -7550 0
0 0 0 677 995116 -6873 0
0 0 0 697 995813 -6176 0
0 0 0 749 996562 -5427 0
0 0 0 777 997339 -4650 0
0 0 0 894 998233 -3756 1
0 0 0 962 999195 -2794 1
48 1 S116 966 1000161 -1828 1
48 1 S116 1010 1001171 -818 1
48 2 S116 985 1002156 167 1
48 2 S116 912 1003068 1079 1
48 2 S116 886 1003954 1965 1
48 2 S116 852 1004806 2817 0
48 2 S116 800 1005606 3617 0
48 2 S116 768 1006374 4385 0
48 2 S116 752 1007126 5137 0
48 2 S116 730 1007856 5867 0
48 2 S116 707 1008563 6574 0
0 0 0 697 1009260 -9075 0
0 0 0 692 1009952 -8383 0
0 0 0 696 1010648 -7687 0
0 0 0 712 1011360 -6975 0
0 0 0 729 1012089 -6246 0
0 0 0 744 1012833 -5502 0
0 0 0 757 1013590 -4745 0
0 0 0 745 1014335 -4000 0
0 0 0 766 1015101 -3234 0
0 0 0 787 1015888 -2447 0
49 1 S112 778 1016666 -1669 0
49 1 S112 784 1017450 -885 0
49 1 S112 777 1018227 -108 0
49 2 S112 767 1018994 659 0
49 2 S112 753 1019747 1412 0
49 2 S112 766 1020513 2178 0
49 2 S112 767 1021280 2945 0
49 2 S112 767 1022047 3712 0
49 2 S112 765 1022812 4477 0
49 2 S112 761 1023573 5238 0
49 2 S112 756 1024329 5994 0
49 2 S112 737 1025066 6731 0
0 0 0 738 1025804 -12624 0
0 0 0 741 1026545 -11883 0
0 0 0 736 1027281 -11147 0
0 0 0 728 1028009 -10419 0
0 0 0 732 1028741 -9687 0
0 0 0 741 1029482 -8946 0
0 0 0 720 1030202 -8226 0
0 0 0 711 1030913 -7515 0
0 0 0 697 1031610 -6818 0
0 0 0 687 1032297 -6131 0
0 0 0 674 1032971 -5457 0
0 0 0 671 1033642 -4786 0
0 0 0 679 1034321 -4107 0
0 0 0 679 1035000 -3428 0
0 0 0 700 1035700 -2728 0
0 0 0 714 1036414 -2014 0
50 1 S106 749 1037163 -1265 0
50 1 S106 753 1037916 -512 0
50 2 S106 787 1038703 275 0
50 2 S106 798 1039501 1073 0
50 2 S106 765 1040266 1838 0
50 2 S106 737 1041003 2575 0
50 2 S106 711 1041714 3286 0
50 2 S106 686 1042400 3972 0
50 2 S106 660 1043060 4632 0
50 2 S106 631 1043691 5263 0
50 2 S106 618 1044309 5881 0
50 2 S106 600 1044909 6481 0
0 0 0 585 1045494 -6230 0
0 0 0 571 1046065 -5659 0
0 0 0 568 1046633 -5091 0
0 0 0 564 1047197 -4527 0
0 0 0 575 1047772 -3952 0
0 0 0 589 1048361 -3363 0
0 0 0 630 1048991 -2733 0
0 0 0 681 1049672 -2052 0
51 1 S112 784 1050456 -1268 0
51 1 S112 878 1051334 -390 1
51 2 S112 986 1052320 596 1
51 2 S112 1058 1053378 1654 1
51 2 S112 1049 1054427 2703 1
51 2 S112 985 1055412 3688 1
51 2 S112 1001 1056413 4689 1
51 2 S112 970 1057383 5659 1
51 2 S112 876 1058259 6535 1
0 0 0 869 1059128 -6207 0
0 0 0 840 1059968 -5367 0
0 0 0 792 1060760 -4575 0
0 0 0 772 1061532 -3803 0
0 0 0 742 1062274 -3061 0
0 0 0 717 1062991 -2344 0
52 1 S116 698 1063689 -1646 0
52 1 S116 692 1064381 -954 0
52 1 S116 703 1065084 -251 0
52 2 S116 699 1065783 448 0
52 2 S116 745 1066528 1193 0
52 2 S116 769 1067297 1962 0
52 2 S116 779 1068076 2741 0
52 2 S116 835 1068911 3576 0
52 2 S116 870 1069781 4446 0
52 2 S116 860 1070641 5306 0
52 2 S116 841 1071482 6147 0
52 2 S116 833 1072315 6980 0
0 0 0 817 1073132 -9013 0
0 0 0 786 1073918 -8227 0
0 0 0 786 1074704 -7441 0
0 0 0 775 1075479 -6666 0
0 0 0 747 1076226 -5919 0
0 0 0 750 1076976 -5169 0
0 0 0 741 1077717 -4428 0
0 0 0 735 1078452 -3693 0
0 0 0 730 1079182 -2963 0
0 0 0 727 1079909 -2236 0
53 1 S106 726 1080635 -1510 0
53 1 S106 722 1081357 -788 0
53 1 S106 719 1082076 -69 0
53 2 S106 721 1082797 652 0
53 2 S106 732 1083529 1384 0
53 2 S106 749 1084278 2133 0
53 2 S106 743 1085021 2876 0
53 2 S106 759 1085780 3635 0
53 2 S106 755 1086535 4390 0
53 2 S106 742 1087277 5132 0
53 2 S106 748 1088025 5880 0
53 2 S106 756 1088781 6636 0
0 0 0 771 1089552 -8525 0
0 0 0 758 1090310 -7767 0
0 0 0 760 1091070 -7007 0
0 0 0 751 1091821 -6256 0
0 0 0 748 1092569 -5508 0
0 0 0 736 1093305 -4772 0
0 0 0 732 1094037 -4040 0
0 0 0 724 1094761 -3316 0
0 0 0 711 1095472 -2605 0
54 1 S102 719 1096191 -1886 0
54 1 S102 722 1096913 -1164 0
54 1 S102 729 1097642 -435 0
54 2 S102 724 1098366 289 0
54 2 S102 736 1099102 1025 0
54 2 S102 730 1099832 1755 0
54 2 S102 736 1100568 2491 0
54 2 S102 729 1101297 3220 0
54 2 S102 732 1102029 3952 0
54 2 S102 730 1102759 4682 0
54 2 S102 732 1103491 5414 0
54 2 S102 721 1104212 6135 0
54 2 S102 723 1104935 6858 0
0 0 0 731 1105666 -9984 0
0 0 0 723 1106389 -9261 0
0 0 0 723 1107112 -8538 0
0 0 0 705 1107817 -7833 0
0 0 0 697 1108514 -7136 0
0 0 0 657 1109171 -6479 0
0 0 0 651 1109822 -5828 0
0 0 0 639 1110461 -5189 0
0 0 0 624 1111085 -4565 0
0 0 0 624 1111709 -3941 0
0 0 0 625 1112334 -3316 0
0 0 0 627 1112961 -2689 0
0 0 0 634 1113595 -2055 0
55 1 S106 640 1114235 -1415 0
55 1 S106 638 1114873 -777 0
55 1 S106 637 1115510 -140 0
55 2 S106 635 1116145 495 0
55 2 S106 638 1116783 1133 0
55 2 S106 631 1117414 1764 0
55 2 S106 630 1118044 2394 0
55 2 S106 642 1118686 3036 0
55 2 S106 647 1119333 3683 0
55 2 S106 648 1119981 4331 0
55 2 S106 633 1120614 4964 0
55 2 S106 638 1121252 5602 0
55 2 S106 645 1121897 6247 0
55 2 S106 663 1122560 6910 0
0 0 0 674 1123234 -6873 0
0 0 0 702 1123936 -6171 0
0 0 0 719 1124655 -5452 0
0 0 0 738 1125393 -4714 0
0 0 0 704 1126097 -4010 0
0 0 0 688 1126785 -3322 0
0 0 0 670 1127455 -2652 0
0 0 0 645 1128100 -2007 0
56 1 S116 628 1128728 -1379 0
56 1 S116 617 1129345 -762 0
56 1 S116 610 1129955 -152 0
56 2 S116 609 1130564 457 0
56 2 S116 618 1131182 1075 0
56 2 S116 635 1131817 1710 0
56 2 S116 642 1132459 2352 0
56 2 S116 657 1133116 3009 0
56 2 S116 666 1133782 3675 0
56 2 S116 666 1134448 4341 0
56 2 S116 664 1135112 5005 0
56 2 S116 654 1135766 5659 0
56 2 S116 649 1136415 6308 0
56 2 S116 644 1137059 6952 0
0 0 0 644 1137703 -7556 0
0 0 0 661 1138364 -6895 0
0 0 0 696 1139060 -6199 0
0 0 0 755 1139815 -5444 0
0 0 0 785 1140600 -4659 0
0 0 0 810 1141410 -3849 0
0 0 0 811 1142221 -3038 0
0 0 0 797 1143018 -2241 0
57 1 S106 805 1143823 -1436 0
57 1 S106 810 1144633 -626 0
57 2 S106 812 1145445 186 0
57 2 S106 819 1146264 1005 0
57 2 S106 789 1147053 1794 0
57 2 S106 807 1147860 2601 0
57 2 S106 815 1148675 3416 0
57 2 S106 798 1149473 4214 0
57 2 S106 768 1150241 4982 0
57 2 S106 772 1151013 5754 0
57 2 S106 751 1151764 6505 0
0 0 0 750 1152514 -8263 0
0 0 0 737 1153251 -7526 0
0 0 0 734 1153985 -6792 0
0 0 0 717 1154702 -6075 0
0 0 0 710 1155412 -5365 0
0 0 0 694 1156106 -4671 0
0 0 0 692 1156798 -3979 0
0 0 0 688 1157486 -3291 0
0 0 0 698 1158184 -2593 0
58 1 S102 683 1158867 -1910 0
58 1 S102 694 1159561 -1216 0
58 1 S102 689 1160250 -527 0
58 2 S102 701 1160951 174 0
58 2 S102 688 1161639 862 0
58 2 S102 692 1162331 1554 0
58 2 S102 683 1163014 2237 0
58 2 S102 689 1163703 2926 0
58 2 S102 683 1164386 3609 0
58 2 S102 685 1165071 4294 0
58 2 S102 688 1165759 4982 0
58 2 S102 706 1166465 5688 0
58 2 S102 710 1167175 6398 0
0 0 0 730 1167905 -7013 0
0 0 0 742 1168647 -6271 0
0 0 0 725 1169372 -5546 0
0 0 0 729 1170101 -4817 0
0 0 0 712 1170813 -4105 0
0 0 0 695 1171508 -3410 0
0 0 0 694 1172202 -2716 0
0 0 0 681 1172883 -2035 0
59 1 S112 684 1173567 -1351 0
59 1 S112 675 1174242 -676 0
59 2 S112 684 1174926 8 0
59 2 S112 679 1175605 687 0
59 2 S112 673 1176278 1360 0
59 2 S112 664 1176942 2024 0
59 2 S112 680 1177622 2704 0
59 2 S112 704 1178326 3408 0
59 2 S112 731 1179057 4139 0
59 2 S112 739 1179796 4878 0
59 2 S112 753 1180549 5631 0
59 2 S112 761 1181310 6392 0
0 0 0 748 1182058 -9471 0
0 0 0 751 1182809 -8720 0
0 0 0 738 1183547 -7982 0
0 0 0 730 1184277 -7252 0
0 0 0 721 1184998 -6531 0
0 0 0 707 1185705 -5824 0
0 0 0 696 1186401 -5128 0
0 0 0 684 1187085 -4444 0
0 0 0 675 1187760 -3769 0
0 0 0 654 1188414 -3115 0
0 0 0 640 1189054 -2475 0
60 1 S102 639 1189693 -1836 0
60 1 S102 652 1190345 -1184 0
60 1 S102 652 1190997 -532 0
60 2 S102 661 1191658 129 0
60 2 S102 660 1192318 789 0
60 2 S102 674 1192992 1463 0
60 2 S102 673 1193665 2136 0
60 2 S102 690 1194355 2826 0
60 2 S102 700 1195055 3526 0
60 2 S102 726 1195781 4252 0
60 2 S102 722 1196503 4974 0
60 2 S102 732 1197235 5706 0
60 2 S102 728 1197963 6434 0
0 0 0 735 1198698 -11383 0
0 0 0 727 1199425 -10656 0
0 0 0 728 1200153 -9928 0
0 0 0 727 1200880 -9201 0
0 0 0 706 1201586 -8495 0
0 0 0 694 1202280 -7801 0
0 0 0 682 1202962 -7119 0
0 0 0 685 1203647 -6434 0
0 0 0 680 1204327 -5754 0
0 0 0 684 1205011 -5070 0
0 0 0 683 1205694 -4387 0
0 0 0 697 1206391 -3690 0
0 0 0 691 1207082 -2999 0
0 0 0 697 1207779 -2302 0
61 1 S106 698 1208477 -1604 0
61 1 S106 706 1209183 -898 0
61 1 S106 701 1209884 -197 0
61 2 S106 699 1210583 502 0
61 2 S106 698 1211281 1200 0
61 2 S106 684 1211965 1884 0
61 2 S106 687 1212652 2571 0
61 2 S106 692 1213344 3263 0
61 2 S106 712 1214056 3975 0
61 2 S106 694 1214750 4669 0
61 2 S106 698 1215448 5367 0
61 2 S106 699 1216147 6066 0
61 2 S106 700 1216847 6766 0
0 0 0 690 1217537 -8094 0
0 0 0 697 1218234 -7397 0
0 0 0 692 1218926 -6705 0
0 0 0 697 1219623 -6008 0
0 0 0 690 1220313 -5318 0
0 0 0 691 1221004 -4627 0
0 0 0 684 1221688 -3943 0
0 0 0 681 1222369 -3262 0
0 0 0 683 1223052 -2579 0
62 1 S112 681 1223733 -1898 0
62 1 S112 690 1224423 -1208 0
62 1 S112 708 1225131 -500 0
62 2 S112 724 1225855 224 0
62 2 S112 764 1226619 988 0
62 2 S112 769 1227388 1757 0
62 2 S112 782 1228170 2539 0
62 2 S112 801 1228971 3340 0
62 2 S112 774 1229745 4114 0
62 2 S112 781 1230526 4895 0
62 2 S112 780 1231306 5675 0
62 2 S112 764 1232070 6439 0
0 0 0 739 1232809 -11257 0
0 0 0 730 1233539 -10527 0
0 0 0 716 1234255 -9811 0
0 0 0 697 1234952 -9114 0
0 0 0 687 1235639 -8427 0
0 0 0 672 1236311 -7755 0
0 0 0 668 1236979 -7087 0
0 0 0 669 1237648 -6418 0
0 0 0 666 1238314 -5752 0
0 0 0 688 1239002 -5064 0
0 0 0 701 1239703 -4363 0
0 0 0 728 1240431 -3635 0
0 0 0 743 1241174 -2892 0
0 0 0 768 1241942 -2124 0
63 1 S102 796 1242738 -1328 0
63 1 S102 800 1243538 -528 0
63 2 S102 800 1244338 272 0
63 2 S102 774 1245112 1046 0
63 2 S102 784 1245896 1830 0
63 2 S102 789 1246685 2619 0
63 2 S102 759 1247444 3378 0
63 2 S102 741 1248185 4119 0
63 2 S102 728 1248913 4847 0
63 2 S102 727 1249640 5574 0
63 2 S102 707 1250347 6281 0
63 2 S102 698 1251045 6979 0
0 0 0 686 1251731 -8466 0
0 0 0 683 1252414 -7783 0
0 0 0 681 1253095 -7102 0
0 0 0 680 1253775 -6422 0
0 0 0 668 1254443 -5754 0
0 0 0 675 1255118 -5079 0
0 0 0 664 1255782 -4415 0
0 0 0 680 1256462 -3735 0
0 0 0 686 1257148 -3049 0
0 0 0 718 1257866 -2331 0
64 1 S112 725 1258591 -1606 0
64 1 S112 748 1259339 -858 0
64 1 S112 753 1260092 -105 0
64 2 S112 765 1260857 660 0
64 2 S112 747 1261604 1407 0
64 2 S112 759 1262363 2166 0
64 2 S112 760 1263123 2926 0
64 2 S112 740 1263863 3666 0
64 2 S112 740 1264603 4406 0
64 2 S112 731 1265334 5137 0
64 2 S112 718 1266052 5855 0
64 2 S112 698 1266750 6553 0
0 0 0 689 1267439 -9386 0
0 0 0 683 1268122 -8703 0
0 0 0 690 1268812 -8013 0
0 0 0 702 1269514 -7311 0
0 0 0 712 1270226 -6599 0
0 0 0 725 1270951 -5874 0
0 0 0 757 1271708 -5117 0
0 0 0 775 1272483 -4342 0
0 0 0 787 1273270 -3555 0
0 0 0 782 1274052 -2773 0
0 0 0 764 1274816 -2009 0
65 1 S106 763 1275579 -1246 0
65 1 S106 746 1276325 -500 0
65 2 S106 731 1277056 231 0
65 2 S106 729 1277785 960 0
65 2 S106 715 1278500 1675 0
65 2 S106 702 1279202 2377 0
65 2 S106 691 1279893 3068 0
65 2 S106 685 1280578 3753 0
65 2 S106 679 1281257 4432 0
65 2 S106 695 1281952 5127 0
65 2 S106 701 1282653 5828 0
65 2 S106 709 1283362 6537 0
0 0 0 713 1284075 -8052 0
0 0 0 722 1284797 -7330 0
0 0 0 720 1285517 -6610 0
0 0 0 727 1286244 -5883 0
0 0 0 724 1286968 -5159 0
0 0 0 713 1287681 -4446 0
0 0 0 693 1288374 -3753 0
0 0 0 682 1289056 -3071 0
0 0 0 669 1289725 -2402 0
66 1 S116 649 1290374 -1753 0
66 1 S116 651 1291025 -1102 0
66 1 S116 647 1291672 -455 0
66 2 S116 648 1292320 193 0
66 2 S116 651 1292971 844 0
66 2 S116 675 1293646 1519 0
66 2 S116 721 1294367 2240 0
66 2 S116 829 1295196 3069 0
66 2 S116 857 1296053 3926 0
66 2 S116 905 1296958 4831 1
66 2 S116 883 1297841 5714 1
66 2 S116 849 1298690 6563 0
0 0 0 870 1299560 -11002 0
0 0 0 840 1300400 -10162 0
0 0 0 792 1301192 -9370 0
0 0 0 776 1301968 -8594 0
0 0 0 737 1302705 -7857 0
0 0 0 710 1303415 -7147 0
0 0 0 691 1304106 -6456 0
0 0 0 659 1304765 -5797 0
0 0 0 648 1305413 -5149 0
0 0 0 643 1306056 -4506 0
0 0 0 647 1306703 -3859 0
0 0 0 650 1307353 -3209 0
0 0 0 668 1308021 -2541 0
67 1 S102 679 1308700 -1862 0
67 1 S102 709 1309409 -1153 0
67 1 S102 723 1310132 -430 0
67 2 S102 760 1310892 330 0
67 2 S102 782 1311674 1112 0
67 2 S102 806 1312480 1918 0
67 2 S102 819 1313299 2737 0
67 2 S102 828 1314127 3565 0
67 2 S102 815 1314942 4380 0
67 2 S102 800 1315742 5180 0
67 2 S102 776 1316518 5956 0
67 2 S102 751 1317269 6707 0
0 0 0 713 1317982 -6058 0
0 0 0 703 1318685 -5355 0
0 0 0 685 1319370 -4670 0
0 0 0 692 1320062 -3978 0
0 0 0 672 1320734 -3306 0
0 0 0 668 1321402 -2638 0
68 1 S106 660 1322062 -1978 0
68 1 S106 660 1322722 -1318 0
68 1 S106 685 1323407 -633 0
68 2 S106 726 1324133 93 0
68 2 S106 787 1324920 880 0
68 2 S106 762 1325682 1642 0
68 2 S106 754 1326436 2396 0
68 2 S106 753 1327189 3149 0
68 2 S106 745 1327934 3894 0
68 2 S106 732 1328666 4626 0
68 2 S106 731 1329397 5357 0
68 2 S106 718 1330115 6075 0
68 2 S106 716 1330831 6791 0
0 0 0 708 1331539 -11450 0
0 0 0 690 1332229 -10760 0
0 0 0 683 1332912 -10077 0
0 0 0 672 1333584 -9405 0
0 0 0 668 1334252 -8737 0
0 0 0 660 1334912 -8077 0
0 0 0 659 1335571 -7418 0
0 0 0 656 1336227 -6762 0
0 0 0 671 1336898 -6091 0
0 0 0 677 1337575 -5414 0
0 0 0 688 1338263 -4726 0
0 0 0 707 1338970 -4019 0
0 0 0 743 1339713 -3276 0
0 0 0 761 1340474 -2515 0
69 1 S102 782 1341256 -1733 0
69 1 S102 771 1342027 -962 0
69 1 S102 758 1342785 -204 0
69 2 S102 753 1343538 549 0
69 2 S102 737 1344275 1286 0
69 2 S102 718 1344993 2004 0
69 2 S102 703 1345696 2707 0
69 2 S102 695 1346391 3402 0
69 2 S102 686 1347077 4088 0
69 2 S102 678 1347755 4766 0
69 2 S102 648 1348403 5414 0
69 2 S102 641 1349044 6055 0
69 2 S102 628 1349672 6683 0
0 0 0 611 1350283 -9069 0
0 0 0 599 1350882 -8470 0
0 0 0 591 1351473 -7879 0
0 0 0 588 1352061 -7291 0
0 0 0 588 1352649 -6703 0
0 0 0 596 1353245 -6107 0
0 0 0 610 1353855 -5497 0
0 0 0 614 1354469 -4883 0
0 0 0 628 1355097 -4255 0
0 0 0 632 1355729 -3623 0
0 0 0 635 1356364 -2988 0
0 0 0 648 1357012 -2340 0
70 1 S112 671 1357683 -1669 0
70 1 S112 688 1358371 -981 0
70 1 S112 706 1359077 -275 0
70 2 S112 694 1359771 419 0
70 2 S112 710 1360481 1129 0
70 2 S112 723 1361204 1852 0
70 2 S112 755 1361959 2607 0
70 2 S112 756 1362715 3363 0
70 2 S112 784 1363499 4147 0
70 2 S112 787 1364286 4934 0
70 2 S112 781 1365067 5715 0
70 2 S112 771 1365838 6486 0
0 0 0 767 1366605 -11199 0
0 0 0 758 1367363 -10441 0
0 0 0 742 1368105 -9699 0
0 0 0 742 1368847 -8957 0
0 0 0 732 1369579 -8225 0
0 0 0 720 1370299 -7505 0
0 0 0 705 1371004 -6800 0
0 0 0 700 1371704 -6100 0
0 0 0 694 1372398 -5406 0
0 0 0 698 1373096 -4708 0
0 0 0 703 1373799 -4005 0
0 0 0 705 1374504 -3300 0
0 0 0 718 1375222 -2582 0
71 1 S116 707 1375929 -1875 0
71 1 S116 699 1376628 -1176 0
71 1 S116 696 1377324 -480 0
71 2 S116 709 1378033 229 0
71 2 S116 699 1378732 928 0
71 2 S116 713 1379445 1641 0
71 2 S116 717 1380162 2358 0
71 2 S116 728 1380890 3086 0
71 2 S116 725 1381615 3811 0
71 2 S116 732 1382347 4543 0
71 2 S116 723 1383070 5266 0
71 2 S116 711 1383781 5977 0
71 2 S116 715 1384496 6692 0
0 0 0 717 1385213 -10230 0
0 0 0 714 1385927 -9516 0
0 0 0 706 1386633 -8810 0
0 0 0 714 1387347 -8096 0
0 0 0 716 1388063 -7380 0
0 0 0 720 1388783 -6660 0
0 0 0 714 1389497 -5946 0
0 0 0 712 1390209 -5234 0
0 0 0 713 1390922 -4521 0
0 0 0 699 1391621 -3822 0
0 0 0 697 1392318 -3125 0
0 0 0 687 1393005 -2438 0
72 1 S102 687 1393692 -1751 0
72 1 S102 678 1394370 -1073 0
72 1 S102 674 1395044 -399 0
72 2 S102 674 1395718 275 0
72 2 S102 684 1396402 959 0
72 2 S102 696 1397098 1655 0
72 2 S102 688 1397786 2343 0
72 2 S102 687 1398473 3030 0
72 2 S102 693 1399166 3723 0
72 2 S102 710 1399876 4433 0
72 2 S102 736 1400612 5169 0
72 2 S102 746 1401358 5915 0
72 2 S102 733 1402091 6648 0
0 0 0 732 1402823 -7326 0
0 0 0 723 1403546 -6603 0
0 0 0 728 1404274 -5875 0
0 0 0 707 1404981 -5168 0
0 0 0 700 1405681 -4468 0
0 0 0 681 1406362 -3787 0
0 0 0 663 1407025 -3124 0
0 0 0 658 1407683 -2466 0
73 1 S116 648 1408331 -1818 0
73 1 S116 661 1408992 -1157 0
73 1 S116 675 1409667 -482 0
73 2 S116 732 1410399 250 0
73 2 S116 771 1411170 1021 0
73 2 S116 861 1412031 1882 0
73 2 S116 847 1412878 2729 0
73 2 S116 894 1413772 3623 1
73 2 S116 878 1414650 4501 1
73 2 S116 823 1415473 5324 0
73 2 S116 800 1416273 6124 0
73 2 S116 761 1417034 6885 0
0 0 0 730 1417764 -8466 0
0 0 0 707 1418471 -7759 0
0 0 0 694 1419165 -7065 0
0 0 0 680 1419845 -6385 0
0 0 0 657 1420502 -5728 0
0 0 0 652 1421154 -5076 0
0 0 0 648 1421802 -4428 0
0 0 0 645 1422447 -3783 0
0 0 0 641 1423088 -3142 0
0 0 0 649 1423737 -2493 0
74 1 S106 664 1424401 -1829 0
74 1 S106 730 1425131 -1099 0
74 1 S106 789 1425920 -310 0
74 2 S106 933 1426853 623 1
74 2 S106 954 1427807 1577 1
74 2 S106 953 1428760 2530 1
74 2 S106 974 1429734 3504 1
74 2 S106 902 1430636 4406 1
74 2 S106 858 1431494 5264 0
74 2 S106 850 1432344 6114 0
74 2 S106 813 1433157 6927 0
0 0 0 771 1433928 -6542 0
0 0 0 752 1434680 -5790 0
0 0 0 733 1435413 -5057 0
0 0 0 720 1436133 -4337 0
0 0 0 683 1436816 -3654 0
0 0 0 660 1437476 -2994 0
0 0 0 645 1438121 -2349 0
75 1 S112 648 1438769 -1701 0
75 1 S112 649 1439418 -1052 0
75 1 S112 654 1440072 -398 0
75 2 S112 656 1440728 258 0
75 2 S112 657 1441385 915 0
75 2 S112 644 1442029 1559 0
75 2 S112 626 1442655 2185 0
75 2 S112 617 1443272 2802 0
75 2 S112 617 1443889 3419 0
75 2 S112 622 1444511 4041 0
75 2 S112 632 1445143 4673 0
75 2 S112 651 1445794 5324 0
75 2 S112 662 1446456 5986 0
75 2 S112 677 1447133 6663 0
0 0 0 693 1447826 -6918 0
0 0 0 700 1448526 -6218 0
0 0 0 688 1449214 -5530 0
0 0 0 686 1449900 -4844 0
0 0 0 679 1450579 -4165 0
0 0 0 677 1451256 -3488 0
0 0 0 668 1451924 -2820 0
0 0 0 664 1452588 -2156 0
76 1 S116 670 1453258 -1486 0
76 1 S116 680 1453938 -806 0
76 1 S116 686 1454624 -120 0
76 2 S116 695 1455319 575 0
76 2 S116 720 1456039 1295 0
76 2 S116 730 1456769 2025 0
76 2 S116 747 1457516 2772 0
76 2 S116 757 1458273 3529 0
76 2 S116 745 1459018 4274 0
76 2 S116 737 1459755 5011 0
76 2 S116 725 1460480 5736 0
76 2 S116 719 1461199 6455 0
0 0 0 705 1461904 -6203 0
0 0 0 696 1462600 -5507 0
0 0 0 685 1463285 -4822 0
0 0 0 661 1463946 -4161 0
0 0 0 650 1464596 -3511 0
0 0 0 636 1465232 -2875 0
0 0 0 631 1465863 -2244 0
77 1 S106 630 1466493 -1614 0
77 1 S106 641 1467134 -973 0
77 1 S106 653 1467787 -320 0
77 2 S106 658 1468445 338 0
77 2 S106 663 1469108 1001 0
77 2 S106 676 1469784 1677 0
77 2 S106 687 1470471 2364 0
77 2 S106 712 1471183 3076 0
77 2 S106 723 1471906 3799 0
77 2 S106 719 1472625 4518 0
77 2 S106 736 1473361 5254 0
77 2 S106 726 1474087 5980 0
77 2 S106 720 1474807 6700 0
0 0 0 707 1475514 -9934 0
0 0 0 696 1476210 -9238 0
0 0 0 683 1476893 -8555 0
0 0 0 675 1477568 -7880 0
0 0 0 677 1478245 -7203 0
0 0 0 675 1478920 -6528 0
0 0 0 674 1479594 -5854 0
0 0 0 679 1480273 -5175 0
0 0 0 676 1480949 -4499 0
0 0 0 695 1481644 -3804 0
0 0 0 689 1482333 -3115 0
0 0 0 698 1483031 -2417 0
78 1 S112 702 1483733 -1715 0
78 1 S112 718 1484451 -997 0
78 1 S112 699 1485150 -298 0
78 2 S112 697 1485847 399 0
78 2 S112 678 1486525 1077 0
78 2 S112 673 1487198 1750 0
78 2 S112 664 1487862 2414 0
78 2 S112 668 1488530 3082 0
78 2 S112 676 1489206 3758 0
78 2 S112 675 1489881 4433 0
78 2 S112 675 1490556 5108 0
78 2 S112 686 1491242 5794 0
78 2 S112 712 1491954 6506 0
0 0 0 751 1492705 -12089 0
0 0 0 782 1493487 -11307 0
0 0 0 771 1494258 -10536 0
0 0 0 768 1495026 -9768 0
0 0 0 759 1495785 -9009 0
0 0 0 735 1496520 -8274 0
0 0 0 711 1497231 -7563 0
0 0 0 702 1497933 -6861 0
0 0 0 693 1498626 -6168 0
0 0 0 686 1499312 -5482 0
0 0 0 684 1499996 -4798 0
0 0 0 677 1500673 -4121 0
0 0 0 681 1501354 -3440 0
0 0 0 683 1502037 -2757 0
0 0 0 685 1502722 -2072 0
79 1 S102 684 1503406 -1388 0
79 1 S102 692 1504098 -696 0
79 1 S102 684 1504782 -12 0
79 2 S102 681 1505463 669 0
79 2 S102 696 1506159 1365 0
79 2 S102 749 1506908 2114 0
79 2 S102 784 1507692 2898 0
79 2 S102 766 1508458 3664 0
79 2 S102 763 1509221 4427 0
79 2 S102 754 1509975 5181 0
79 2 S102 734 1510709 5915 0
79 2 S102 715 1511424 6630 0
0 0 0 701 1512125 -8485 0
0 0 0 688 1512813 -7797 0
0 0 0 676 1513489 -7121 0
0 0 0 664 1514153 -6457 0
0 0 0 650 1514803 -5807 0
0 0 0 630 1515433 -5177 0
0 0 0 628 1516061 -4549 0
0 0 0 612 1516673 -3937 0
0 0 0 604 1517277 -3333 0
0 0 0 607 1517884 -2726 0
0 0 0 624 1518508 -2102 0
80 1 S116 626 1519134 -1476 0
80 1 S116 643 1519777 -833 0
80 1 S116 644 1520421 -189 0
80 2 S116 645 1521066 456 0
80 2 S116 652 1521718 1108 0
80 2 S116 684 1522402 1792 0
80 2 S116 739 1523141 2531 0
80 2 S116 776 1523917 3307 0
80 2 S116 801 1524718 4108 0
80 2 S116 777 1525495 4885 0
80 2 S116 756 1526251 5641 0
80 2 S116 756 1527007 6397 0
