T_0061
BeatCount Mean SD BeatCountNoOutliers MeanNoOutliers SDNoOutliers
1814 862,577177508269 74,8175744075987 1802 862,317425083241 72,0301159183362

Trial TrialStatus Trialtype IBI AbsPosition RelPosition Outlier
0 0 0 880 1483 -14280 0
0 0 0 826 2309 -13454 0
0 0 0 832 3141 -12622 0
0 0 0 827 3968 -11795 0
0 0 0 774 4742 -11021 0
0 0 0 810 5552 -10211 0
0 0 0 823 6375 -9388 0
0 0 0 757 7132 -8631 0
0 0 0 725 7857 -7906 0
0 0 0 706 8563 -7200 0
0 0 0 746 9309 -6454 0
0 0 0 821 10130 -5633 0
0 0 0 911 11041 -4722 0
0 0 0 910 11951 -3812 0
0 0 0 919 12870 -2893 0
0 0 0 877 13747 -2016 0
1 1 S112 861 14608 -1155 0
1 1 S112 874 15482 -281 0
1 2 S112 868 16350 587 0
1 2 S112 845 17195 1432 0
1 2 S112 857 18052 2289 0
1 2 S112 856 18908 3145 0
1 2 S112 873 19781 4018 0
1 2 S112 842 20623 4860 0
1 2 S112 862 21485 5722 0
1 2 S112 873 22358 6595 0
0 0 0 893 23251 -11013 0
0 0 0 885 24136 -10128 0
0 0 0 901 25037 -9227 0
0 0 0 937 25974 -8290 0
0 0 0 928 26902 -7362 0
0 0 0 903 27805 -6459 0
0 0 0 929 28734 -5530 0
0 0 0 902 29636 -4628 0
0 0 0 906 30542 -3722 0
0 0 0 893 31435 -2829 0
2 1 S102 836 32271 -1993 0
2 1 S102 865 33136 -1128 0
2 1 S102 873 34009 -255 0
2 2 S102 831 34840 576 0
2 2 S102 873 35713 1449 0
2 2 S102 902 36615 2351 0
2 2 S102 862 37477 3213 0
2 2 S102 889 38366 4102 0
2 2 S102 864 39230 4966 0
2 2 S102 793 40023 5759 0
2 2 S102 839 40862 6598 0
0 0 0 821 41683 -8861 0
0 0 0 847 42530 -8014 0
0 0 0 823 43353 -7191 0
0 0 0 780 44133 -6411 0
0 0 0 778 44911 -5633 0
0 0 0 765 45676 -4868 0
0 0 0 761 46437 -4107 0
0 0 0 744 47181 -3363 0
0 0 0 701 47882 -2662 0
3 1 S116 711 48593 -1951 0
3 1 S116 727 49320 -1224 0
3 1 S116 763 50083 -461 0
3 2 S116 764 50847 303 0
3 2 S116 844 51691 1147 0
3 2 S116 863 52554 2010 0
3 2 S116 885 53439 2895 0
3 2 S116 931 54370 3826 0
3 2 S116 945 55315 4771 0
3 2 S116 900 56215 5671 0
3 2 S116 919 57134 6590 0
0 0 0 930 58064 -13121 0
0 0 0 909 58973 -12212 0
0 0 0 927 59900 -11285 0
0 0 0 944 60844 -10341 0
0 0 0 909 61753 -9432 0
0 0 0 911 62664 -8521 0
0 0 0 890 63554 -7631 0
0 0 0 833 64387 -6798 0
0 0 0 846 65233 -5952 0
0 0 0 889 66122 -5063 0
0 0 0 868 66990 -4195 0
0 0 0 902 67892 -3293 0
0 0 0 917 68809 -2376 0
4 1 S106 888 69697 -1488 0
4 1 S106 903 70600 -585 0
4 2 S106 898 71498 313 0
4 2 S106 871 72369 1184 0
4 2 S106 882 73251 2066 0
4 2 S106 854 74105 2920 0
4 2 S106 846 74951 3766 0
4 2 S106 858 75809 4624 0
4 2 S106 815 76624 5439 0
4 2 S106 833 77457 6272 0
0 0 0 845 78302 -7720 0
0 0 0 822 79124 -6898 0
0 0 0 763 79887 -6135 0
0 0 0 766 80653 -5369 0
0 0 0 805 81458 -4564 0
0 0 0 827 82285 -3737 0
0 0 0 894 83179 -2843 0
5 1 S116 850 84029 -1993 0
5 1 S116 875 84904 -1118 0
5 1 S116 907 85811 -211 0
5 2 S116 866 86677 655 0
5 2 S116 902 87579 1557 0
5 2 S116 901 88480 2458 0
5 2 S116 859 89339 3317 0
5 2 S116 861 90200 4178 0
5 2 S116 862 91062 5040 0
5 2 S116 834 91896 5874 0
5 2 S116 848 92744 6722 0
0 0 0 856 93600 -9166 0
0 0 0 846 94446 -8320 0
0 0 0 824 95270 -7496 0
0 0 0 857 96127 -6639 0
0 0 0 842 96969 -5797 0
0 0 0 789 97758 -5008 0
0 0 0 810 98568 -4198 0
0 0 0 824 99392 -3374 0
0 0 0 769 100161 -2605 0
6 1 S106 791 100952 -1814 0
6 1 S106 806 101758 -1008 0
6 1 S106 796 102554 -212 0
6 2 S106 829 103383 617 0
6 2 S106 870 104253 1487 0
6 2 S106 852 105105 2339 0
6 2 S106 790 105895 3129 0
6 2 S106 745 106640 3874 0
6 2 S106 733 107373 4607 0
6 2 S106 732 108105 5339 0
6 2 S106 741 108846 6080 0
6 2 S106 820 109666 6900 0
0 0 0 882 110548 -10703 0
0 0 0 899 111447 -9804 0
0 0 0 922 112369 -8882 0
0 0 0 876 113245 -8006 0
0 0 0 848 114093 -7158 0
0 0 0 845 114938 -6313 0
0 0 0 807 115745 -5506 0
0 0 0 810 116555 -4696 0
0 0 0 825 117380 -3871 0
0 0 0 806 118186 -3065 0
0 0 0 802 118988 -2263 0
7 1 S102 819 119807 -1444 0
7 1 S102 818 120625 -626 0
7 2 S102 846 121471 220 0
7 2 S102 875 122346 1095 0
7 2 S102 902 123248 1997 0
7 2 S102 898 124146 2895 0
7 2 S102 935 125081 3830 0
7 2 S102 913 125994 4743 0
7 2 S102 922 126916 5665 0
7 2 S102 914 127830 6579 0
0 0 0 877 128707 -7863 0
0 0 0 899 129606 -6964 0
0 0 0 879 130485 -6085 0
0 0 0 832 131317 -5253 0
0 0 0 848 132165 -4405 0
0 0 0 818 132983 -3587 0
0 0 0 810 133793 -2777 0
8 1 S112 825 134618 -1952 0
8 1 S112 784 135402 -1168 0
8 1 S112 810 136212 -358 0
8 2 S112 821 137033 463 0
8 2 S112 814 137847 1277 0
8 2 S112 828 138675 2105 0
8 2 S112 851 139526 2956 0
8 2 S112 830 140356 3786 0
8 2 S112 815 141171 4601 0
8 2 S112 835 142006 5436 0
8 2 S112 835 142841 6271 0
0 0 0 817 143658 -8628 0
0 0 0 817 144475 -7811 0
0 0 0 843 145318 -6968 0
0 0 0 790 146108 -6178 0
0 0 0 835 146943 -5343 0
0 0 0 856 147799 -4487 0
0 0 0 789 148588 -3698 0
0 0 0 805 149393 -2893 0
0 0 0 829 150222 -2064 0
9 1 S116 830 151052 -1234 0
9 1 S116 861 151913 -373 0
9 2 S116 891 152804 518 0
9 2 S116 880 153684 1398 0
9 2 S116 893 154577 2291 0
9 2 S116 903 155480 3194 0
9 2 S116 863 156343 4057 0
9 2 S116 859 157202 4916 0
9 2 S116 872 158074 5788 0
9 2 S116 844 158918 6632 0
0 0 0 847 159765 -12813 0
0 0 0 880 160645 -11933 0
0 0 0 881 161526 -11052 0
0 0 0 865 162391 -10187 0
0 0 0 903 163294 -9284 0
0 0 0 867 164161 -8417 0
0 0 0 834 164995 -7583 0
0 0 0 814 165809 -6769 0
0 0 0 778 166587 -5991 0
0 0 0 789 167376 -5202 0
0 0 0 798 168174 -4404 0
0 0 0 780 168954 -3624 0
0 0 0 831 169785 -2793 0
10 1 S102 847 170632 -1946 0
10 1 S102 807 171439 -1139 0
10 1 S102 825 172264 -314 0
10 2 S102 829 173093 515 0
10 2 S102 801 173894 1316 0
10 2 S102 786 174680 2102 0
10 2 S102 803 175483 2905 0
10 2 S102 790 176273 3695 0
10 2 S102 773 177046 4468 0
10 2 S102 810 177856 5278 0
10 2 S102 833 178689 6111 0
10 2 S102 802 179491 6913 0
0 0 0 851 180342 -10738 0
0 0 0 868 181210 -9870 0
0 0 0 844 182054 -9026 0
0 0 0 862 182916 -8164 0
0 0 0 872 183788 -7292 0
0 0 0 835 184623 -6457 0
0 0 0 845 185468 -5612 0
0 0 0 846 186314 -4766 0
0 0 0 817 187131 -3949 0
0 0 0 824 187955 -3125 0
0 0 0 813 188768 -2312 0
11 1 S112 777 189545 -1535 0
11 1 S112 800 190345 -735 0
11 2 S112 812 191157 77 0
11 2 S112 777 191934 854 0
11 2 S112 829 192763 1683 0
11 2 S112 843 193606 2526 0
11 2 S112 827 194433 3353 0
11 2 S112 866 195299 4219 0
11 2 S112 885 196184 5104 0
11 2 S112 855 197039 5959 0
11 2 S112 884 197923 6843 0
0 0 0 890 198813 -8464 0
0 0 0 853 199666 -7611 0
0 0 0 861 200527 -6750 0
0 0 0 888 201415 -5862 0
0 0 0 836 202251 -5026 0
0 0 0 846 203097 -4180 0
0 0 0 791 203888 -3389 0
0 0 0 772 204660 -2617 0
12 1 S116 793 205453 -1824 0
12 1 S116 782 206235 -1042 0
12 1 S116 789 207024 -253 0
12 2 S116 817 207841 564 0
12 2 S116 818 208659 1382 0
12 2 S116 821 209480 2203 0
12 2 S116 835 210315 3038 0
12 2 S116 850 211165 3888 0
12 2 S116 823 211988 4711 0
12 2 S116 846 212834 5557 0
12 2 S116 845 213679 6402 0
0 0 0 822 214501 -11658 0
0 0 0 853 215354 -10805 0
0 0 0 856 216210 -9949 0
0 0 0 794 217004 -9155 0
0 0 0 803 217807 -8352 0
0 0 0 790 218597 -7562 0
0 0 0 755 219352 -6807 0
0 0 0 741 220093 -6066 0
0 0 0 733 220826 -5333 0
0 0 0 765 221591 -4568 0
0 0 0 806 222397 -3762 0
0 0 0 780 223177 -2982 0
0 0 0 850 224027 -2132 0
13 1 S112 839 224866 -1293 0
13 1 S112 787 225653 -506 0
13 2 S112 788 226441 282 0
13 2 S112 822 227263 1104 0
13 2 S112 857 228120 1961 0
13 2 S112 841 228961 2802 0
13 2 S112 869 229830 3671 0
13 2 S112 912 230742 4583 0
13 2 S112 879 231621 5462 0
13 2 S112 874 232495 6336 0
0 0 0 875 233370 -11042 0
0 0 0 862 234232 -10180 0
0 0 0 894 235126 -9286 0
0 0 0 927 236053 -8359 0
0 0 0 898 236951 -7461 0
0 0 0 880 237831 -6581 0
0 0 0 892 238723 -5689 0
0 0 0 856 239579 -4833 0
0 0 0 880 240459 -3953 0
0 0 0 898 241357 -3055 0
0 0 0 910 242267 -2145 0
14 1 S106 887 243154 -1258 0
14 1 S106 904 244058 -354 0
14 2 S106 855 244913 501 0
14 2 S106 870 245783 1371 0
14 2 S106 854 246637 2225 0
14 2 S106 791 247428 3016 0
14 2 S106 745 248173 3761 0
14 2 S106 711 248884 4472 0
14 2 S106 706 249590 5178 0
14 2 S106 775 250365 5953 0
14 2 S106 830 251195 6783 0
0 0 0 897 252092 -10341 0
0 0 0 925 253017 -9416 0
0 0 0 995 254012 -8421 0
0 0 0 928 254940 -7493 0
0 0 0 995 255935 -6498 0
0 0 0 1010 256945 -5488 0
0 0 0 965 257910 -4523 0
0 0 0 956 258866 -3567 0
0 0 0 939 259805 -2628 0
15 1 S116 857 260662 -1771 0
15 1 S116 844 261506 -927 0
15 1 S116 847 262353 -80 0
15 2 S116 860 263213 780 0
15 2 S116 864 264077 1644 0
15 2 S116 883 264960 2527 0
15 2 S116 920 265880 3447 0
15 2 S116 907 266787 4354 0
15 2 S116 942 267729 5296 0
15 2 S116 961 268690 6257 0
0 0 0 925 269615 -10126 0
0 0 0 954 270569 -9172 0
0 0 0 960 271529 -8212 0
0 0 0 894 272423 -7318 0
0 0 0 885 273308 -6433 0
0 0 0 870 274178 -5563 0
0 0 0 828 275006 -4735 0
0 0 0 846 275852 -3889 0
0 0 0 854 276706 -3035 0
0 0 0 816 277522 -2219 0
16 1 S116 869 278391 -1350 0
16 1 S116 859 279250 -491 0
16 2 S116 816 280066 325 0
16 2 S116 850 280916 1175 0
16 2 S116 839 281755 2014 0
16 2 S116 791 282546 2805 0
16 2 S116 852 283398 3657 0
16 2 S116 869 284267 4526 0
16 2 S116 827 285094 5353 0
16 2 S116 769 285863 6122 0
16 2 S116 753 286616 6875 0
0 0 0 753 287369 -10409 0
0 0 0 744 288113 -9665 0
0 0 0 743 288856 -8922 0
0 0 0 742 289598 -8180 0
0 0 0 729 290327 -7451 0
0 0 0 769 291096 -6682 0
0 0 0 837 291933 -5845 0
0 0 0 852 292785 -4993 0
0 0 0 786 293571 -4207 0
0 0 0 758 294329 -3449 0
0 0 0 791 295120 -2658 0
17 1 S106 820 295940 -1838 0
17 1 S106 804 296744 -1034 0
17 1 S106 812 297556 -222 0
17 2 S106 784 298340 562 0
17 2 S106 809 299149 1371 0
17 2 S106 863 300012 2234 0
17 2 S106 903 300915 3137 0
17 2 S106 914 301829 4051 0
17 2 S106 918 302747 4969 0
17 2 S106 949 303696 5918 0
17 2 S106 958 304654 6876 0
0 0 0 925 305579 -10866 0
0 0 0 949 306528 -9917 0
0 0 0 948 307476 -8969 0
0 0 0 884 308360 -8085 0
0 0 0 913 309273 -7172 0
0 0 0 891 310164 -6281 0
0 0 0 825 310989 -5456 0
0 0 0 839 311828 -4617 0
0 0 0 819 312647 -3798 0
0 0 0 765 313412 -3033 0
0 0 0 821 314233 -2212 0
18 1 S102 822 315055 -1390 0
18 1 S102 792 315847 -598 0
18 2 S102 832 316679 234 0
18 2 S102 891 317570 1125 0
18 2 S102 876 318446 2001 0
18 2 S102 788 319234 2789 0
18 2 S102 775 320009 3564 0
18 2 S102 791 320800 4355 0
18 2 S102 848 321648 5203 0
18 2 S102 935 322583 6138 0
18 2 S102 881 323464 7019 0
0 0 0 912 324376 -6144 0
0 0 0 951 325327 -5193 0
0 0 0 953 326280 -4240 0
0 0 0 907 327187 -3333 0
0 0 0 911 328098 -2422 0
19 1 S106 902 329000 -1520 0
19 1 S106 853 329853 -667 0
19 2 S106 871 330724 204 0
19 2 S106 880 331604 1084 0
19 2 S106 824 332428 1908 0
19 2 S106 863 333291 2771 0
19 2 S106 863 334154 3634 0
19 2 S106 819 334973 4453 0
19 2 S106 872 335845 5325 0
19 2 S106 879 336724 6204 0
0 0 0 851 337575 -10071 0
0 0 0 871 338446 -9200 0
0 0 0 900 339346 -8300 0
0 0 0 842 340188 -7458 0
0 0 0 870 341058 -6588 0
0 0 0 876 341934 -5712 0
0 0 0 801 342735 -4911 0
0 0 0 818 343553 -4093 0
0 0 0 834 344387 -3259 0
0 0 0 881 345268 -2378 0
20 1 S112 856 346124 -1522 0
20 1 S112 865 346989 -657 0
20 2 S112 901 347890 244 0
20 2 S112 852 348742 1096 0
20 2 S112 892 349634 1988 0
20 2 S112 892 350526 2880 0
20 2 S112 862 351388 3742 0
20 2 S112 821 352209 4563 0
20 2 S112 849 353058 5412 0
20 2 S112 854 353912 6266 0
0 0 0 871 354783 -8563 0
0 0 0 851 355634 -7712 0
0 0 0 862 356496 -6850 0
0 0 0 845 357341 -6005 0
0 0 0 807 358148 -5198 0
0 0 0 813 358961 -4385 0
0 0 0 824 359785 -3561 0
0 0 0 815 360600 -2746 0
21 1 S106 795 361395 -1951 0
21 1 S106 832 362227 -1119 0
21 1 S106 833 363060 -286 0
21 2 S106 802 363862 516 0
21 2 S106 842 364704 1358 0
21 2 S106 869 365573 2227 0
21 2 S106 809 366382 3036 0
21 2 S106 830 367212 3866 0
21 2 S106 872 368084 4738 0
21 2 S106 911 368995 5649 0
21 2 S106 912 369907 6561 0
0 0 0 902 370809 -12663 0
0 0 0 924 371733 -11739 0
0 0 0 909 372642 -10830 0
0 0 0 869 373511 -9961 0
0 0 0 893 374404 -9068 0
0 0 0 871 375275 -8197 0
0 0 0 784 376059 -7413 0
0 0 0 794 376853 -6619 0
0 0 0 801 377654 -5818 0
0 0 0 798 378452 -5020 0
0 0 0 755 379207 -4265 0
0 0 0 750 379957 -3515 0
0 0 0 784 380741 -2731 0
22 1 S116 836 381577 -1895 0
22 1 S116 855 382432 -1040 0
22 1 S116 825 383257 -215 0
22 2 S116 861 384118 646 0
22 2 S116 874 384992 1520 0
22 2 S116 881 385873 2401 0
22 2 S116 886 386759 3287 0
22 2 S116 907 387666 4194 0
22 2 S116 889 388555 5083 0
22 2 S116 899 389454 5982 0
22 2 S116 909 390363 6891 0
0 0 0 941 391304 -10802 0
0 0 0 927 392231 -9875 0
0 0 0 870 393101 -9005 0
0 0 0 877 393978 -8128 0
0 0 0 902 394880 -7226 0
0 0 0 909 395789 -6317 0
0 0 0 836 396625 -5481 0
0 0 0 794 397419 -4687 0
0 0 0 790 398209 -3897 0
0 0 0 806 399015 -3091 0
0 0 0 796 399811 -2295 0
23 1 S112 783 400594 -1512 0
23 1 S112 832 401426 -680 0
23 2 S112 881 402307 201 0
23 2 S112 916 403223 1117 0
23 2 S112 910 404133 2027 0
23 2 S112 947 405080 2974 0
23 2 S112 949 406029 3923 0
23 2 S112 921 406950 4844 0
23 2 S112 907 407857 5751 0
23 2 S112 917 408774 6668 0
0 0 0 916 409690 -10354 0
0 0 0 872 410562 -9482 0
0 0 0 809 411371 -8673 0
0 0 0 850 412221 -7823 0
0 0 0 891 413112 -6932 0
0 0 0 870 413982 -6062 0
0 0 0 821 414803 -5241 0
0 0 0 819 415622 -4422 0
0 0 0 829 416451 -3593 0
0 0 0 845 417296 -2748 0
24 1 S106 819 418115 -1929 0
24 1 S106 869 418984 -1060 0
24 1 S106 869 419853 -191 0
24 2 S106 829 420682 638 0
24 2 S106 863 421545 1501 0
24 2 S106 865 422410 2366 0
24 2 S106 929 423339 3295 0
24 2 S106 806 424145 4101 0
24 2 S106 794 424939 4895 0
24 2 S106 821 425760 5716 0
24 2 S106 880 426640 6596 0
0 0 0 902 427542 -10688 0
0 0 0 886 428428 -9802 0
0 0 0 863 429291 -8939 0
0 0 0 903 430194 -8036 0
0 0 0 944 431138 -7092 0
0 0 0 907 432045 -6185 0
0 0 0 864 432909 -5321 0
0 0 0 869 433778 -4452 0
0 0 0 861 434639 -3591 0
0 0 0 841 435480 -2750 0
25 1 S102 841 436321 -1909 0
25 1 S102 832 437153 -1077 0
25 1 S102 801 437954 -276 0
25 2 S102 749 438703 473 0
25 2 S102 703 439406 1176 0
25 2 S102 695 440101 1871 0
25 2 S102 694 440795 2565 0
25 2 S102 688 441483 3253 0
25 2 S102 679 442162 3932 0
25 2 S102 678 442840 4610 0
25 2 S102 742 443582 5352 0
25 2 S102 891 444473 6243 0
0 0 0 911 445384 -8927 0
0 0 0 954 446338 -7973 0
0 0 0 978 447316 -6995 0
0 0 0 1006 448322 -5989 0
0 0 0 996 449318 -4993 0
0 0 0 939 450257 -4054 0
0 0 0 845 451102 -3209 0
0 0 0 797 451899 -2412 0
26 1 S116 772 452671 -1640 0
26 1 S116 747 453418 -893 0
26 1 S116 757 454175 -136 0
26 2 S116 790 454965 654 0
26 2 S116 845 455810 1499 0
26 2 S116 878 456688 2377 0
26 2 S116 855 457543 3232 0
26 2 S116 918 458461 4150 0
26 2 S116 940 459401 5090 0
26 2 S116 951 460352 6041 0
26 2 S116 923 461275 6964 0
0 0 0 933 462208 -7272 0
0 0 0 922 463130 -6350 0
0 0 0 907 464037 -5443 0
0 0 0 922 464959 -4521 0
0 0 0 874 465833 -3647 0
0 0 0 854 466687 -2793 0
27 1 S106 858 467545 -1935 0
27 1 S106 823 468368 -1112 0
27 1 S106 819 469187 -293 0
27 2 S106 825 470012 532 0
27 2 S106 827 470839 1359 0
27 2 S106 828 471667 2187 0
27 2 S106 851 472518 3038 0
27 2 S106 856 473374 3894 0
27 2 S106 833 474207 4727 0
27 2 S106 862 475069 5589 0
27 2 S106 874 475943 6463 0
0 0 0 874 476817 -9292 0
0 0 0 945 477762 -8347 0
0 0 0 979 478741 -7368 0
0 0 0 873 479614 -6495 0
0 0 0 911 480525 -5584 0
0 0 0 934 481459 -4650 0
0 0 0 890 482349 -3760 0
0 0 0 854 483203 -2906 0
0 0 0 862 484065 -2044 0
28 1 S102 853 484918 -1191 0
28 1 S102 836 485754 -355 0
28 2 S102 850 486604 495 0
28 2 S102 852 487456 1347 0
28 2 S102 818 488274 2165 0
28 2 S102 871 489145 3036 0
28 2 S102 873 490018 3909 0
28 2 S102 835 490853 4744 0
28 2 S102 867 491720 5611 0
28 2 S102 888 492608 6499 0
0 0 0 832 493440 -10955 0
0 0 0 848 494288 -10107 0
0 0 0 882 495170 -9225 0
0 0 0 848 496018 -8377 0
0 0 0 814 496832 -7563 0
0 0 0 871 497703 -6692 0
0 0 0 901 498604 -5791 0
0 0 0 899 499503 -4892 0
0 0 0 908 500411 -3984 0
0 0 0 932 501343 -3052 0
0 0 0 866 502209 -2186 0
29 1 S112 864 503073 -1322 0
29 1 S112 840 503913 -482 0
29 2 S112 799 504712 317 0
29 2 S112 773 505485 1090 0
29 2 S112 807 506292 1897 0
29 2 S112 843 507135 2740 0
29 2 S112 820 507955 3560 0
29 2 S112 803 508758 4363 0
29 2 S112 831 509589 5194 0
29 2 S112 836 510425 6030 0
29 2 S112 829 511254 6859 0
0 0 0 824 512078 -8580 0
0 0 0 841 512919 -7739 0
0 0 0 800 513719 -6939 0
0 0 0 749 514468 -6190 0
0 0 0 747 515215 -5443 0
0 0 0 778 515993 -4665 0
0 0 0 787 516780 -3878 0
0 0 0 815 517595 -3063 0
0 0 0 765 518360 -2298 0
30 1 S112 765 519125 -1533 0
30 1 S112 781 519906 -752 0
30 2 S112 793 520699 41 0
30 2 S112 777 521476 818 0
30 2 S112 833 522309 1651 0
30 2 S112 919 523228 2570 0
30 2 S112 960 524188 3530 0
30 2 S112 873 525061 4403 0
30 2 S112 827 525888 5230 0
30 2 S112 861 526749 6091 0
30 2 S112 874 527623 6965 0
0 0 0 878 528501 -8056 0
0 0 0 866 529367 -7190 0
0 0 0 901 530268 -6289 0
0 0 0 889 531157 -5400 0
0 0 0 895 532052 -4505 0
0 0 0 869 532921 -3636 0
0 0 0 896 533817 -2740 0
31 1 S106 896 534713 -1844 0
31 1 S106 868 535581 -976 0
31 1 S106 886 536467 -90 0
31 2 S106 932 537399 842 0
31 2 S106 954 538353 1796 0
31 2 S106 914 539267 2710 0
31 2 S106 900 540167 3610 0
31 2 S106 919 541086 4529 0
31 2 S106 929 542015 5458 0
31 2 S106 902 542917 6360 0
0 0 0 943 543860 -9905 0
0 0 0 976 544836 -8929 0
0 0 0 910 545746 -8019 0
0 0 0 965 546711 -7054 0
0 0 0 959 547670 -6095 0
0 0 0 890 548560 -5205 0
0 0 0 890 549450 -4315 0
0 0 0 874 550324 -3441 0
0 0 0 794 551118 -2647 0
32 1 S102 762 551880 -1885 0
32 1 S102 742 552622 -1143 0
32 1 S102 812 553434 -331 0
32 2 S102 801 554235 470 0
32 2 S102 920 555155 1390 0
32 2 S102 916 556071 2306 0
32 2 S102 869 556940 3175 0
32 2 S102 900 557840 4075 0
32 2 S102 935 558775 5010 0
32 2 S102 942 559717 5952 0
32 2 S102 917 560634 6869 0
0 0 0 930 561564 -11001 0
0 0 0 952 562516 -10049 0
0 0 0 958 563474 -9091 0
0 0 0 967 564441 -8124 0
0 0 0 959 565400 -7165 0
0 0 0 895 566295 -6270 0
0 0 0 892 567187 -5378 0
0 0 0 897 568084 -4481 0
0 0 0 867 568951 -3614 0
0 0 0 796 569747 -2818 0
0 0 0 790 570537 -2028 0
33 1 S112 840 571377 -1188 0
33 1 S112 880 572257 -308 0
33 2 S112 820 573077 512 0
33 2 S112 889 573966 1401 0
33 2 S112 912 574878 2313 0
33 2 S112 962 575840 3275 0
33 2 S112 942 576782 4217 0
33 2 S112 1016 577798 5233 0
33 2 S112 1037 578835 6270 0
0 0 0 1020 579855 -12621 0
0 0 0 1027 580882 -11594 0
0 0 0 985 581867 -10609 0
0 0 0 941 582808 -9668 0
0 0 0 962 583770 -8706 0
0 0 0 934 584704 -7772 0
0 0 0 846 585550 -6926 0
0 0 0 787 586337 -6139 0
0 0 0 781 587118 -5358 0
0 0 0 776 587894 -4582 0
0 0 0 797 588691 -3785 0
0 0 0 813 589504 -2972 0
0 0 0 788 590292 -2184 0
34 1 S106 829 591121 -1355 0
34 1 S106 786 591907 -569 0
34 2 S106 802 592709 233 0
34 2 S106 860 593569 1093 0
34 2 S106 881 594450 1974 0
34 2 S106 814 595264 2788 0
34 2 S106 845 596109 3633 0
34 2 S106 859 596968 4492 0
34 2 S106 892 597860 5384 0
34 2 S106 912 598772 6296 0
0 0 0 900 599672 -9946 0
0 0 0 979 600651 -8967 0
0 0 0 1000 601651 -7967 0
0 0 0 941 602592 -7026 0
0 0 0 914 603506 -6112 0
0 0 0 931 604437 -5181 0
0 0 0 891 605328 -4290 0
0 0 0 925 606253 -3365 0
0 0 0 938 607191 -2427 0
35 1 S102 870 608061 -1557 0
35 1 S102 898 608959 -659 0
35 2 S102 935 609894 276 0
35 2 S102 890 610784 1166 0
35 2 S102 843 611627 2009 0
35 2 S102 878 612505 2887 0
35 2 S102 830 613335 3717 0
35 2 S102 774 614109 4491 0
35 2 S102 737 614846 5228 0
35 2 S102 730 615576 5958 0
35 2 S102 719 616295 6677 0
0 0 0 709 617004 -6224 0
0 0 0 701 617705 -5523 0
0 0 0 729 618434 -4794 0
0 0 0 802 619236 -3992 0
0 0 0 856 620092 -3136 0
0 0 0 867 620959 -2269 0
36 1 S106 813 621772 -1456 0
36 1 S106 847 622619 -609 0
36 2 S106 867 623486 258 0
36 2 S106 866 624352 1124 0
36 2 S106 843 625195 1967 0
36 2 S106 854 626049 2821 0
36 2 S106 869 626918 3690 0
36 2 S106 892 627810 4582 0
36 2 S106 883 628693 5465 0
36 2 S106 931 629624 6396 0
0 0 0 953 630577 -10291 0
0 0 0 959 631536 -9332 0
0 0 0 855 632391 -8477 0
0 0 0 880 633271 -7597 0
0 0 0 911 634182 -6686 0
0 0 0 898 635080 -5788 0
0 0 0 820 635900 -4968 0
0 0 0 819 636719 -4149 0
0 0 0 787 637506 -3362 0
0 0 0 850 638356 -2512 0
37 1 S116 810 639166 -1702 0
37 1 S116 763 639929 -939 0
37 1 S116 776 640705 -163 0
37 2 S116 804 641509 641 0
37 2 S116 880 642389 1521 0
37 2 S116 844 643233 2365 0
37 2 S116 784 644017 3149 0
37 2 S116 808 644825 3957 0
37 2 S116 830 645655 4787 0
37 2 S116 873 646528 5660 0
37 2 S116 876 647404 6536 0
0 0 0 883 648287 -13204 0
0 0 0 884 649171 -12320 0
0 0 0 903 650074 -11417 0
0 0 0 867 650941 -10550 0
0 0 0 826 651767 -9724 0
0 0 0 839 652606 -8885 0
0 0 0 852 653458 -8033 0
0 0 0 866 654324 -7167 0
0 0 0 833 655157 -6334 0
0 0 0 771 655928 -5563 0
0 0 0 856 656784 -4707 0
0 0 0 894 657678 -3813 0
0 0 0 931 658609 -2882 0
38 1 S102 951 659560 -1931 0
38 1 S102 978 660538 -953 0
38 2 S102 998 661536 45 0
38 2 S102 1022 662558 1067 0
38 2 S102 1016 663574 2083 0
38 2 S102 1002 664576 3085 0
38 2 S102 981 665557 4066 0
38 2 S102 976 666533 5042 0
38 2 S102 959 667492 6001 0
38 2 S102 944 668436 6945 0
0 0 0 938 669374 -8364 0
0 0 0 931 670305 -7433 0
0 0 0 866 671171 -6567 0
0 0 0 838 672009 -5729 0
0 0 0 821 672830 -4908 0
0 0 0 802 673632 -4106 0
0 0 0 771 674403 -3335 0
0 0 0 790 675193 -2545 0
39 1 S116 851 676044 -1694 0
39 1 S116 876 676920 -818 0
39 2 S116 856 677776 38 0
39 2 S116 911 678687 949 0
39 2 S116 904 679591 1853 0
39 2 S116 896 680487 2749 0
39 2 S116 907 681394 3656 0
39 2 S116 889 682283 4545 0
39 2 S116 846 683129 5391 0
39 2 S116 865 683994 6256 0
0 0 0 876 684870 -9397 0
0 0 0 881 685751 -8516 0
0 0 0 821 686572 -7695 0
0 0 0 835 687407 -6860 0
0 0 0 876 688283 -5984 0
0 0 0 948 689231 -5036 0
0 0 0 858 690089 -4178 0
0 0 0 880 690969 -3298 0
0 0 0 885 691854 -2413 0
40 1 S112 853 692707 -1560 0
40 1 S112 843 693550 -717 0
40 2 S112 879 694429 162 0
40 2 S112 896 695325 1058 0
40 2 S112 865 696190 1923 0
40 2 S112 903 697093 2826 0
40 2 S112 915 698008 3741 0
40 2 S112 885 698893 4626 0
40 2 S112 811 699704 5437 0
40 2 S112 759 700463 6196 0
40 2 S112 777 701240 6973 0
0 0 0 763 702003 -188884 0
0 0 0 838 702841 -188046 0
0 0 0 965 703806 -187081 0
0 0 0 959 704765 -186122 0
0 0 0 926 705691 -185196 0
0 0 0 967 706658 -184229 0
0 0 0 948 707606 -183281 0
0 0 0 927 708533 -182354 0
0 0 0 918 709451 -181436 0
0 0 0 958 710409 -180478 0
0 0 0 971 711380 -179507 0
0 0 0 929 712309 -178578 0
0 0 0 946 713255 -177632 0
0 0 0 977 714232 -176655 0
0 0 0 912 715144 -175743 0
0 0 0 919 716063 -174824 0
0 0 0 922 716985 -173902 0
0 0 0 921 717906 -172981 0
0 0 0 969 718875 -172012 0
0 0 0 986 719861 -171026 0
0 0 0 988 720849 -170038 0
0 0 0 935 721784 -169103 0
0 0 0 968 722752 -168135 0
0 0 0 988 723740 -167147 0
0 0 0 955 724695 -166192 0
0 0 0 846 725541 -165346 0
0 0 0 843 726384 -164503 0
0 0 0 827 727211 -163676 0
0 0 0 791 728002 -162885 0
0 0 0 765 728767 -162120 0
0 0 0 788 729555 -161332 0
0 0 0 820 730375 -160512 0
0 0 0 860 731235 -159652 0
0 0 0 884 732119 -158768 0
0 0 0 825 732944 -157943 0
0 0 0 799 733743 -157144 0
0 0 0 738 734481 -156406 0
0 0 0 765 735246 -155641 0
0 0 0 750 735996 -154891 0
0 0 0 723 736719 -154168 0
0 0 0 708 737427 -153460 0
0 0 0 710 738137 -152750 0
0 0 0 716 738853 -152034 0
0 0 0 726 739579 -151308 0
0 0 0 738 740317 -150570 0
0 0 0 705 741022 -149865 0
0 0 0 717 741739 -149148 0
0 0 0 762 742501 -148386 0
0 0 0 841 743342 -147545 0
0 0 0 916 744258 -146629 0
0 0 0 917 745175 -145712 0
0 0 0 946 746121 -144766 0
0 0 0 967 747088 -143799 0
0 0 0 990 748078 -142809 0
0 0 0 976 749054 -141833 0
0 0 0 967 750021 -140866 0
0 0 0 944 750965 -139922 0
0 0 0 918 751883 -139004 0
0 0 0 862 752745 -138142 0
0 0 0 888 753633 -137254 0
0 0 0 892 754525 -136362 0
0 0 0 928 755453 -135434 0
0 0 0 923 756376 -134511 0
0 0 0 958 757334 -133553 0
0 0 0 1036 758370 -132517 0
0 0 0 917 759287 -131600 0
0 0 0 866 760153 -130734 0
0 0 0 875 761028 -129859 0
0 0 0 878 761906 -128981 0
0 0 0 820 762726 -128161 0
0 0 0 826 763552 -127335 0
0 0 0 837 764389 -126498 0
0 0 0 822 765211 -125676 0
0 0 0 773 765984 -124903 0
0 0 0 787 766771 -124116 0
0 0 0 790 767561 -123326 0
0 0 0 770 768331 -122556 0
0 0 0 779 769110 -121777 0
0 0 0 766 769876 -121011 0
0 0 0 749 770625 -120262 0
0 0 0 732 771357 -119530 0
0 0 0 723 772080 -118807 0
0 0 0 721 772801 -118086 0
0 0 0 699 773500 -117387 0
0 0 0 714 774214 -116673 0
0 0 0 701 774915 -115972 0
0 0 0 718 775633 -115254 0
0 0 0 708 776341 -114546 0
0 0 0 701 777042 -113845 0
0 0 0 687 777729 -113158 0
0 0 0 681 778410 -112477 0
0 0 0 669 779079 -111808 1
0 0 0 665 779744 -111143 1
0 0 0 665 780409 -110478 1
0 0 0 678 781087 -109800 0
0 0 0 695 781782 -109105 0
0 0 0 697 782479 -108408 0
0 0 0 689 783168 -107719 0
0 0 0 694 783862 -107025 0
0 0 0 696 784558 -106329 0
0 0 0 688 785246 -105641 0
0 0 0 675 785921 -104966 0
0 0 0 668 786589 -104298 1
0 0 0 659 787248 -103639 1
0 0 0 668 787916 -102971 1
0 0 0 690 788606 -102281 0
0 0 0 694 789300 -101587 0
0 0 0 705 790005 -100882 0
0 0 0 713 790718 -100169 0
0 0 0 1451 792169 -98718 1
0 0 0 774 792943 -97944 0
0 0 0 770 793713 -97174 0
0 0 0 753 794466 -96421 0
0 0 0 791 795257 -95630 0
0 0 0 828 796085 -94802 0
0 0 0 834 796919 -93968 0
0 0 0 789 797708 -93179 0
0 0 0 787 798495 -92392 0
0 0 0 801 799296 -91591 0
0 0 0 763 800059 -90828 0
0 0 0 786 800845 -90042 0
0 0 0 837 801682 -89205 0
0 0 0 889 802571 -88316 0
0 0 0 797 803368 -87519 0
0 0 0 792 804160 -86727 0
0 0 0 814 804974 -85913 0
0 0 0 775 805749 -85138 0
0 0 0 785 806534 -84353 0
0 0 0 782 807316 -83571 0
0 0 0 757 808073 -82814 0
0 0 0 781 808854 -82033 0
0 0 0 803 809657 -81230 0
0 0 0 779 810436 -80451 0
0 0 0 796 811232 -79655 0
0 0 0 798 812030 -78857 0
0 0 0 756 812786 -78101 0
0 0 0 751 813537 -77350 0
0 0 0 721 814258 -76629 0
0 0 0 695 814953 -75934 0
0 0 0 680 815633 -75254 0
0 0 0 687 816320 -74567 0
0 0 0 692 817012 -73875 0
0 0 0 720 817732 -73155 0
0 0 0 684 818416 -72471 0
0 0 0 731 819147 -71740 0
0 0 0 847 819994 -70893 0
0 0 0 850 820844 -70043 0
0 0 0 830 821674 -69213 0
0 0 0 827 822501 -68386 0
0 0 0 892 823393 -67494 0
0 0 0 887 824280 -66607 0
0 0 0 833 825113 -65774 0
0 0 0 858 825971 -64916 0
0 0 0 861 826832 -64055 0
0 0 0 886 827718 -63169 0
0 0 0 822 828540 -62347 0
0 0 0 837 829377 -61510 0
0 0 0 843 830220 -60667 0
0 0 0 808 831028 -59859 0
0 0 0 902 831930 -58957 0
0 0 0 842 832772 -58115 0
0 0 0 794 833566 -57321 0
0 0 0 774 834340 -56547 0
0 0 0 803 835143 -55744 0
0 0 0 769 835912 -54975 0
0 0 0 780 836692 -54195 0
0 0 0 827 837519 -53368 0
0 0 0 965 838484 -52403 0
0 0 0 987 839471 -51416 0
0 0 0 1005 840476 -50411 0
0 0 0 995 841471 -49416 0
0 0 0 974 842445 -48442 0
0 0 0 975 843420 -47467 0
0 0 0 1011 844431 -46456 0
0 0 0 1014 845445 -45442 0
0 0 0 942 846387 -44500 0
0 0 0 990 847377 -43510 0
0 0 0 995 848372 -42515 0
0 0 0 1011 849383 -41504 0
0 0 0 960 850343 -40544 0
0 0 0 1010 851353 -39534 0
0 0 0 1045 852398 -38489 0
0 0 0 1074 853472 -37415 1
0 0 0 961 854433 -36454 0
0 0 0 1008 855441 -35446 0
0 0 0 1018 856459 -34428 0
0 0 0 916 857375 -33512 0
0 0 0 930 858305 -32582 0
0 0 0 995 859300 -31587 0
0 0 0 983 860283 -30604 0
0 0 0 898 861181 -29706 0
0 0 0 980 862161 -28726 0
0 0 0 1070 863231 -27656 1
0 0 0 1047 864278 -26609 0
0 0 0 971 865249 -25638 0
0 0 0 991 866240 -24647 0
0 0 0 1016 867256 -23631 0
0 0 0 925 868181 -22706 0
0 0 0 945 869126 -21761 0
0 0 0 995 870121 -20766 0
0 0 0 1076 871197 -19690 1
0 0 0 896 872093 -18794 0
0 0 0 918 873011 -17876 0
0 0 0 958 873969 -16918 0
0 0 0 970 874939 -15948 0
0 0 0 897 875836 -15051 0
0 0 0 891 876727 -14160 0
0 0 0 942 877669 -13218 0
0 0 0 973 878642 -12245 0
0 0 0 915 879557 -11330 0
0 0 0 926 880483 -10404 0
0 0 0 981 881464 -9423 0
0 0 0 976 882440 -8447 0
0 0 0 892 883332 -7555 0
0 0 0 910 884242 -6645 0
0 0 0 932 885174 -5713 0
0 0 0 900 886074 -4813 0
0 0 0 925 886999 -3888 0
0 0 0 894 887893 -2994 0
0 0 0 814 888707 -2180 0
41 1 S102 785 889492 -1395 0
41 1 S102 839 890331 -556 0
41 2 S102 969 891300 413 0
41 2 S102 926 892226 1339 0
41 2 S102 876 893102 2215 0
41 2 S102 908 894010 3123 0
41 2 S102 927 894937 4050 0
41 2 S102 867 895804 4917 0
41 2 S102 894 896698 5811 0
41 2 S102 929 897627 6740 0
0 0 0 869 898496 -9019 0
0 0 0 815 899311 -8204 0
0 0 0 799 900110 -7405 0
0 0 0 809 900919 -6596 0
0 0 0 781 901700 -5815 0
0 0 0 818 902518 -4997 0
0 0 0 792 903310 -4205 0
0 0 0 739 904049 -3466 0
0 0 0 782 904831 -2684 0
42 1 S112 860 905691 -1824 0
42 1 S112 966 906657 -858 0
42 2 S112 1002 907659 144 0
42 2 S112 1018 908677 1162 0
42 2 S112 1028 909705 2190 0
42 2 S112 1003 910708 3193 0
42 2 S112 991 911699 4184 0
42 2 S112 1011 912710 5195 0
42 2 S112 1018 913728 6213 0
0 0 0 998 914726 -10528 0
0 0 0 958 915684 -9570 0
0 0 0 1005 916689 -8565 0
0 0 0 1026 917715 -7539 0
0 0 0 1007 918722 -6532 0
0 0 0 911 919633 -5621 0
0 0 0 949 920582 -4672 0
0 0 0 961 921543 -3711 0
0 0 0 948 922491 -2763 0
43 1 S116 1025 923516 -1738 0
43 1 S116 1067 924583 -671 1
43 2 S116 937 925520 266 0
43 2 S116 923 926443 1189 0
43 2 S116 968 927411 2157 0
43 2 S116 1016 928427 3173 0
43 2 S116 960 929387 4133 0
43 2 S116 988 930375 5121 0
43 2 S116 1021 931396 6142 0
0 0 0 1009 932405 -9460 0
0 0 0 990 933395 -8470 0
0 0 0 1007 934402 -7463 0
0 0 0 934 935336 -6529 0
0 0 0 1011 936347 -5518 0
0 0 0 1017 937364 -4501 0
0 0 0 880 938244 -3621 0
0 0 0 914 939158 -2707 0
44 1 S102 891 940049 -1816 0
44 1 S102 821 940870 -995 0
44 1 S102 824 941694 -171 0
44 2 S102 799 942493 628 0
44 2 S102 863 943356 1491 0
44 2 S102 809 944165 2300 0
44 2 S102 882 945047 3182 0
44 2 S102 954 946001 4136 0
44 2 S102 881 946882 5017 0
44 2 S102 955 947837 5972 0
44 2 S102 981 948818 6953 0
0 0 0 903 949721 -9949 0
0 0 0 978 950699 -8971 0
0 0 0 958 951657 -8013 0
0 0 0 888 952545 -7125 0
0 0 0 944 953489 -6181 0
0 0 0 901 954390 -5280 0
0 0 0 880 955270 -4400 0
0 0 0 918 956188 -3482 0
0 0 0 830 957018 -2652 0
45 1 S116 818 957836 -1834 0
45 1 S116 829 958665 -1005 0
45 1 S116 836 959501 -169 0
45 2 S116 794 960295 625 0
45 2 S116 837 961132 1462 0
45 2 S116 887 962019 2349 0
45 2 S116 980 962999 3329 0
45 2 S116 936 963935 4265 0
45 2 S116 940 964875 5205 0
45 2 S116 981 965856 6186 0
0 0 0 973 966829 -13481 0
0 0 0 970 967799 -12511 0
0 0 0 993 968792 -11518 0
0 0 0 963 969755 -10555 0
0 0 0 984 970739 -9571 0
0 0 0 1010 971749 -8561 0
0 0 0 862 972611 -7699 0
0 0 0 790 973401 -6909 0
0 0 0 775 974176 -6134 0
0 0 0 819 974995 -5315 0
0 0 0 984 975979 -4331 0
0 0 0 1087 977066 -3244 1
0 0 0 982 978048 -2262 0
46 1 S102 940 978988 -1322 0
46 1 S102 947 979935 -375 0
46 2 S102 993 980928 618 0
46 2 S102 1020 981948 1638 0
46 2 S102 1029 982977 2667 0
46 2 S102 1020 983997 3687 0
46 2 S102 924 984921 4611 0
46 2 S102 935 985856 5546 0
46 2 S102 902 986758 6448 0
0 0 0 823 987581 -9009 0
0 0 0 811 988392 -8198 0
0 0 0 813 989205 -7385 0
0 0 0 816 990021 -6569 0
0 0 0 776 990797 -5793 0
0 0 0 817 991614 -4976 0
0 0 0 860 992474 -4116 0
0 0 0 792 993266 -3324 0
0 0 0 828 994094 -2496 0
47 1 S112 883 994977 -1613 0
47 1 S112 941 995918 -672 0
47 2 S112 878 996796 206 0
47 2 S112 918 997714 1124 0
47 2 S112 966 998680 2090 0
47 2 S112 930 999610 3020 0
47 2 S112 910 1000520 3930 0
47 2 S112 951 1001471 4881 0
47 2 S112 993 1002464 5874 0
47 2 S112 986 1003450 6860 0
0 0 0 989 1004439 -11034 0
0 0 0 965 1005404 -10069 0
0 0 0 866 1006270 -9203 0
0 0 0 889 1007159 -8314 0
0 0 0 868 1008027 -7446 0
0 0 0 840 1008867 -6606 0
0 0 0 841 1009708 -5765 0
0 0 0 898 1010606 -4867 0
0 0 0 940 1011546 -3927 0
0 0 0 876 1012422 -3051 0
0 0 0 891 1013313 -2160 0
48 1 S116 905 1014218 -1255 0
48 1 S116 887 1015105 -368 0
48 2 S116 938 1016043 570 0
48 2 S116 1001 1017044 1571 0
48 2 S116 991 1018035 2562 0
48 2 S116 920 1018955 3482 0
48 2 S116 988 1019943 4470 0
48 2 S116 1004 1020947 5474 0
48 2 S116 872 1021819 6346 0
0 0 0 835 1022654 -6447 0
0 0 0 893 1023547 -5554 0
0 0 0 971 1024518 -4583 0
0 0 0 901 1025419 -3682 0
0 0 0 876 1026295 -2806 0
49 1 S112 946 1027241 -1860 0
49 1 S112 983 1028224 -877 0
49 2 S112 928 1029152 51 0
49 2 S112 956 1030108 1007 0
49 2 S112 970 1031078 1977 0
49 2 S112 955 1032033 2932 0
49 2 S112 909 1032942 3841 0
49 2 S112 936 1033878 4777 0
49 2 S112 927 1034805 5704 0
49 2 S112 898 1035703 6602 0
0 0 0 934 1036637 -11462 0
0 0 0 959 1037596 -10503 0
0 0 0 881 1038477 -9622 0
0 0 0 915 1039392 -8707 0
0 0 0 892 1040284 -7815 0
0 0 0 902 1041186 -6913 0
0 0 0 914 1042100 -5999 0
0 0 0 940 1043040 -5059 0
0 0 0 946 1043986 -4113 0
0 0 0 911 1044897 -3202 0
0 0 0 923 1045820 -2279 0
50 1 S106 911 1046731 -1368 0
50 1 S106 869 1047600 -499 0
50 2 S106 887 1048487 388 0
50 2 S106 904 1049391 1292 0
50 2 S106 843 1050234 2135 0
50 2 S106 809 1051043 2944 0
50 2 S106 826 1051869 3770 0
50 2 S106 841 1052710 4611 0
50 2 S106 859 1053569 5470 0
50 2 S106 833 1054402 6303 0
0 0 0 884 1055286 -7452 0
0 0 0 910 1056196 -6542 0
0 0 0 865 1057061 -5677 0
0 0 0 867 1057928 -4810 0
0 0 0 860 1058788 -3950 0
0 0 0 799 1059587 -3151 0
0 0 0 788 1060375 -2363 0
51 1 S112 761 1061136 -1602 0
51 1 S112 745 1061881 -857 0
51 1 S112 742 1062623 -115 0
51 2 S112 770 1063393 655 0
51 2 S112 827 1064220 1482 0
51 2 S112 829 1065049 2311 0
51 2 S112 863 1065912 3174 0
51 2 S112 927 1066839 4101 0
51 2 S112 926 1067765 5027 0
51 2 S112 873 1068638 5900 0
51 2 S112 898 1069536 6798 0
0 0 0 921 1070457 -7483 0
0 0 0 914 1071371 -6569 0
0 0 0 927 1072298 -5642 0
0 0 0 946 1073244 -4696 0
0 0 0 889 1074133 -3807 0
0 0 0 862 1074995 -2945 0
0 0 0 901 1075896 -2044 0
52 1 S116 847 1076743 -1197 0
52 1 S116 803 1077546 -394 0
52 2 S116 794 1078340 400 0
52 2 S116 902 1079242 1302 0
52 2 S116 910 1080152 2212 0
52 2 S116 985 1081137 3197 0
52 2 S116 935 1082072 4132 0
52 2 S116 987 1083059 5119 0
52 2 S116 998 1084057 6117 0
0 0 0 930 1084987 -9930 0
0 0 0 968 1085955 -8962 0
0 0 0 939 1086894 -8023 0
0 0 0 908 1087802 -7115 0
0 0 0 881 1088683 -6234 0
0 0 0 838 1089521 -5396 0
0 0 0 767 1090288 -4629 0
0 0 0 772 1091060 -3857 0
0 0 0 778 1091838 -3079 0
0 0 0 823 1092661 -2256 0
53 1 S106 955 1093616 -1301 0
53 1 S106 846 1094462 -455 0
53 2 S106 880 1095342 425 0
53 2 S106 936 1096278 1361 0
53 2 S106 951 1097229 2312 0
53 2 S106 962 1098191 3274 0
53 2 S106 970 1099161 4244 0
53 2 S106 928 1100089 5172 0
53 2 S106 948 1101037 6120 0
0 0 0 958 1101995 -6582 0
0 0 0 879 1102874 -5703 0
0 0 0 922 1103796 -4781 0
0 0 0 892 1104688 -3889 0
0 0 0 827 1105515 -3062 0
0 0 0 858 1106373 -2204 0
54 1 S102 882 1107255 -1322 0
54 1 S102 860 1108115 -462 0
54 2 S102 879 1108994 417 0
54 2 S102 917 1109911 1334 0
54 2 S102 924 1110835 2258 0
54 2 S102 916 1111751 3174 0
54 2 S102 956 1112707 4130 0
54 2 S102 949 1113656 5079 0
54 2 S102 937 1114593 6016 0
54 2 S102 944 1115537 6960 0
0 0 0 896 1116433 -10994 0
0 0 0 936 1117369 -10058 0
0 0 0 970 1118339 -9088 0
0 0 0 875 1119214 -8213 0
0 0 0 809 1120023 -7404 0
0 0 0 745 1120768 -6659 0
0 0 0 754 1121522 -5905 0
0 0 0 750 1122272 -5155 0
0 0 0 758 1123030 -4397 0
0 0 0 768 1123798 -3629 0
0 0 0 823 1124621 -2806 0
55 1 S106 923 1125544 -1883 0
55 1 S106 826 1126370 -1057 0
55 1 S106 880 1127250 -177 0
55 2 S106 925 1128175 748 0
55 2 S106 917 1129092 1665 0
55 2 S106 899 1129991 2564 0
55 2 S106 872 1130863 3436 0
55 2 S106 828 1131691 4264 0
55 2 S106 804 1132495 5068 0
55 2 S106 772 1133267 5840 0
55 2 S106 797 1134064 6637 0
0 0 0 820 1134884 -6286 0
0 0 0 828 1135712 -5458 0
0 0 0 881 1136593 -4577 0
0 0 0 925 1137518 -3652 0
0 0 0 942 1138460 -2710 0
56 1 S116 913 1139373 -1797 0
56 1 S116 967 1140340 -830 0
56 2 S116 988 1141328 158 0
56 2 S116 951 1142279 1109 0
56 2 S116 950 1143229 2059 0
56 2 S116 913 1144142 2972 0
56 2 S116 870 1145012 3842 0
56 2 S116 892 1145904 4734 0
56 2 S116 898 1146802 5632 0
56 2 S116 837 1147639 6469 0
0 0 0 795 1148434 -7044 0
0 0 0 788 1149222 -6256 0
0 0 0 779 1150001 -5477 0
0 0 0 767 1150768 -4710 0
0 0 0 760 1151528 -3950 0
0 0 0 772 1152300 -3178 0
0 0 0 879 1153179 -2299 0
57 1 S106 985 1154164 -1314 0
57 1 S106 978 1155142 -336 0
57 2 S106 995 1156137 659 0
57 2 S106 986 1157123 1645 0
57 2 S106 920 1158043 2565 0
57 2 S106 945 1158988 3510 0
57 2 S106 931 1159919 4441 0
57 2 S106 890 1160809 5331 0
57 2 S106 906 1161715 6237 0
0 0 0 902 1162617 -10599 0
0 0 0 914 1163531 -9685 0
0 0 0 880 1164411 -8805 0
0 0 0 827 1165238 -7978 0
0 0 0 931 1166169 -7047 0
0 0 0 898 1167067 -6149 0
0 0 0 933 1168000 -5216 0
0 0 0 936 1168936 -4280 0
0 0 0 908 1169844 -3372 0
0 0 0 915 1170759 -2457 0
58 1 S102 897 1171656 -1560 0
58 1 S102 856 1172512 -704 0
58 2 S102 880 1173392 176 0
58 2 S102 891 1174283 1067 0
58 2 S102 864 1175147 1931 0
58 2 S102 896 1176043 2827 0
58 2 S102 904 1176947 3731 0
58 2 S102 840 1177787 4571 0
58 2 S102 823 1178610 5394 0
58 2 S102 830 1179440 6224 0
58 2 S102 802 1180242 7026 0
0 0 0 771 1181013 -7224 0
0 0 0 817 1181830 -6407 0
0 0 0 942 1182772 -5465 0
0 0 0 933 1183705 -4532 0
0 0 0 871 1184576 -3661 0
0 0 0 888 1185464 -2773 0
59 1 S112 880 1186344 -1893 0
59 1 S112 828 1187172 -1065 0
59 1 S112 833 1188005 -232 0
59 2 S112 826 1188831 594 0
59 2 S112 816 1189647 1410 0
59 2 S112 781 1190428 2191 0
59 2 S112 810 1191238 3001 0
59 2 S112 853 1192091 3854 0
59 2 S112 892 1192983 4746 0
59 2 S112 877 1193860 5623 0
59 2 S112 918 1194778 6541 0
0 0 0 929 1195707 -10202 0
0 0 0 934 1196641 -9268 0
0 0 0 943 1197584 -8325 0
0 0 0 971 1198555 -7354 0
0 0 0 920 1199475 -6434 0
0 0 0 817 1200292 -5617 0
0 0 0 813 1201105 -4804 0
0 0 0 802 1201907 -4002 0
0 0 0 785 1202692 -3217 0
0 0 0 803 1203495 -2414 0
60 1 S102 868 1204363 -1546 0
60 1 S102 913 1205276 -633 0
60 2 S102 863 1206139 230 0
60 2 S102 946 1207085 1176 0
60 2 S102 981 1208066 2157 0
60 2 S102 955 1209021 3112 0
60 2 S102 875 1209896 3987 0
60 2 S102 856 1210752 4843 0
60 2 S102 826 1211578 5669 0
60 2 S102 777 1212355 6446 0
0 0 0 734 1213089 -11338 0
0 0 0 711 1213800 -10627 0
0 0 0 765 1214565 -9862 0
0 0 0 918 1215483 -8944 0
0 0 0 908 1216391 -8036 0
0 0 0 878 1217269 -7158 0
0 0 0 866 1218135 -6292 0
0 0 0 866 1219001 -5426 0
0 0 0 888 1219889 -4538 0
0 0 0 837 1220726 -3701 0
0 0 0 907 1221633 -2794 0
61 1 S106 922 1222555 -1872 0
61 1 S106 911 1223466 -961 0
61 1 S106 872 1224338 -89 0
61 2 S106 914 1225252 825 0
61 2 S106 874 1226126 1699 0
61 2 S106 828 1226954 2527 0
61 2 S106 812 1227766 3339 0
61 2 S106 804 1228570 4143 0
61 2 S106 800 1229370 4943 0
61 2 S106 804 1230174 5747 0
61 2 S106 822 1230996 6569 0
0 0 0 935 1231931 -8743 0
0 0 0 1004 1232935 -7739 0
0 0 0 1041 1233976 -6698 0
0 0 0 1027 1235003 -5671 0
0 0 0 948 1235951 -4723 0
0 0 0 900 1236851 -3823 0
0 0 0 861 1237712 -2962 0
0 0 0 879 1238591 -2083 0
62 1 S112 907 1239498 -1176 0
62 1 S112 902 1240400 -274 0
62 2 S112 942 1241342 668 0
62 2 S112 952 1242294 1620 0
62 2 S112 866 1243160 2486 0
62 2 S112 803 1243963 3289 0
62 2 S112 795 1244758 4084 0
62 2 S112 811 1245569 4895 0
62 2 S112 892 1246461 5787 0
62 2 S112 863 1247324 6650 0
0 0 0 869 1248193 -11413 0
0 0 0 923 1249116 -10490 0
0 0 0 934 1250050 -9556 0
0 0 0 905 1250955 -8651 0
0 0 0 900 1251855 -7751 0
0 0 0 881 1252736 -6870 0
0 0 0 854 1253590 -6016 0
0 0 0 871 1254461 -5145 0
0 0 0 874 1255335 -4271 0
0 0 0 869 1256204 -3402 0
0 0 0 858 1257062 -2544 0
63 1 S102 862 1257924 -1682 0
63 1 S102 887 1258811 -795 0
63 2 S102 897 1259708 102 0
63 2 S102 901 1260609 1003 0
63 2 S102 891 1261500 1894 0
63 2 S102 916 1262416 2810 0
63 2 S102 933 1263349 3743 0
63 2 S102 815 1264164 4558 0
63 2 S102 767 1264931 5325 0
63 2 S102 819 1265750 6144 0
63 2 S102 798 1266548 6942 0
0 0 0 771 1267319 -10905 0
0 0 0 758 1268077 -10147 0
0 0 0 759 1268836 -9388 0
0 0 0 801 1269637 -8587 0
0 0 0 809 1270446 -7778 0
0 0 0 846 1271292 -6932 0
0 0 0 732 1272024 -6200 0
0 0 0 802 1272826 -5398 0
0 0 0 786 1273612 -4612 0
0 0 0 737 1274349 -3875 0
0 0 0 712 1275061 -3163 0
0 0 0 699 1275760 -2464 0
64 1 S112 697 1276457 -1767 0
64 1 S112 706 1277163 -1061 0
64 1 S112 712 1277875 -349 0
64 2 S112 726 1278601 377 0
64 2 S112 747 1279348 1124 0
64 2 S112 759 1280107 1883 0
64 2 S112 774 1280881 2657 0
64 2 S112 790 1281671 3447 0
64 2 S112 801 1282472 4248 0
64 2 S112 822 1283294 5070 0
64 2 S112 804 1284098 5874 0
64 2 S112 784 1284882 6658 0
0 0 0 768 1285650 -7760 0
0 0 0 749 1286399 -7011 0
0 0 0 747 1287146 -6264 0
0 0 0 819 1287965 -5445 0
0 0 0 870 1288835 -4575 0
0 0 0 836 1289671 -3739 0
0 0 0 853 1290524 -2886 0
0 0 0 869 1291393 -2017 0
65 1 S106 892 1292285 -1125 0
65 1 S106 857 1293142 -268 0
65 2 S106 897 1294039 629 0
65 2 S106 895 1294934 1524 0
65 2 S106 844 1295778 2368 0
65 2 S106 845 1296623 3213 0
65 2 S106 842 1297465 4055 0
65 2 S106 846 1298311 4901 0
65 2 S106 885 1299196 5786 0
65 2 S106 861 1300057 6647 0
0 0 0 820 1300877 -7901 0
0 0 0 810 1301687 -7091 0
0 0 0 849 1302536 -6242 0
0 0 0 847 1303383 -5395 0
0 0 0 889 1304272 -4506 0
0 0 0 815 1305087 -3691 0
0 0 0 818 1305905 -2873 0
0 0 0 825 1306730 -2048 0
66 1 S116 853 1307583 -1195 0
66 1 S116 889 1308472 -306 0
66 2 S116 845 1309317 539 0
66 2 S116 845 1310162 1384 0
66 2 S116 840 1311002 2224 0
66 2 S116 839 1311841 3063 0
66 2 S116 805 1312646 3868 0
66 2 S116 793 1313439 4661 0
66 2 S116 782 1314221 5443 0
66 2 S116 780 1315001 6223 0
66 2 S116 771 1315772 6994 0
0 0 0 749 1316521 -11272 0
0 0 0 770 1317291 -10502 0
0 0 0 796 1318087 -9706 0
0 0 0 794 1318881 -8912 0
0 0 0 769 1319650 -8143 0
0 0 0 783 1320433 -7360 0
0 0 0 795 1321228 -6565 0
0 0 0 740 1321968 -5825 0
0 0 0 767 1322735 -5058 0
0 0 0 781 1323516 -4277 0
0 0 0 797 1324313 -3480 0
0 0 0 774 1325087 -2706 0
67 1 S102 774 1325861 -1932 0
67 1 S102 786 1326647 -1146 0
67 1 S102 799 1327446 -347 0
67 2 S102 779 1328225 432 0
67 2 S102 780 1329005 1212 0
67 2 S102 780 1329785 1992 0
67 2 S102 752 1330537 2744 0
67 2 S102 724 1331261 3468 0
67 2 S102 708 1331969 4176 0
67 2 S102 714 1332683 4890 0
67 2 S102 707 1333390 5597 0
67 2 S102 699 1334089 6296 0
67 2 S102 696 1334785 6992 0
0 0 0 735 1335520 -7940 0
0 0 0 891 1336411 -7049 0
0 0 0 919 1337330 -6130 0
0 0 0 906 1338236 -5224 0
0 0 0 875 1339111 -4349 0
0 0 0 847 1339958 -3502 0
0 0 0 819 1340777 -2683 0
68 1 S106 819 1341596 -1864 0
68 1 S106 802 1342398 -1062 0
68 1 S106 805 1343203 -257 0
68 2 S106 804 1344007 547 0
68 2 S106 855 1344862 1402 0
68 2 S106 903 1345765 2305 0
68 2 S106 901 1346666 3206 0
68 2 S106 900 1347566 4106 0
68 2 S106 962 1348528 5068 0
68 2 S106 1003 1349531 6071 0
0 0 0 998 1350529 -13173 0
0 0 0 948 1351477 -12225 0
0 0 0 943 1352420 -11282 0
0 0 0 905 1353325 -10377 0
0 0 0 833 1354158 -9544 0
0 0 0 855 1355013 -8689 0
0 0 0 827 1355840 -7862 0
0 0 0 831 1356671 -7031 0
0 0 0 826 1357497 -6205 0
0 0 0 757 1358254 -5448 0
0 0 0 797 1359051 -4651 0
0 0 0 795 1359846 -3856 0
0 0 0 761 1360607 -3095 0
0 0 0 785 1361392 -2310 0
69 1 S102 760 1362152 -1550 0
69 1 S102 812 1362964 -738 0
69 2 S102 846 1363810 108 0
69 2 S102 796 1364606 904 0
69 2 S102 829 1365435 1733 0
69 2 S102 847 1366282 2580 0
69 2 S102 858 1367140 3438 0
69 2 S102 800 1367940 4238 0
69 2 S102 807 1368747 5045 0
69 2 S102 809 1369556 5854 0
69 2 S102 835 1370391 6689 0
0 0 0 858 1371249 -8236 0
0 0 0 838 1372087 -7398 0
0 0 0 879 1372966 -6519 0
0 0 0 868 1373834 -5651 0
0 0 0 852 1374686 -4799 0
0 0 0 836 1375522 -3963 0
0 0 0 818 1376340 -3145 0
0 0 0 805 1377145 -2340 0
70 1 S112 810 1377955 -1530 0
70 1 S112 784 1378739 -746 0
70 2 S112 804 1379543 58 0
70 2 S112 847 1380390 905 0
70 2 S112 823 1381213 1728 0
70 2 S112 877 1382090 2605 0
70 2 S112 929 1383019 3534 0
70 2 S112 953 1383972 4487 0
70 2 S112 903 1384875 5390 0
70 2 S112 937 1385812 6327 0
0 0 0 965 1386777 -12569 0
0 0 0 981 1387758 -11588 0
0 0 0 979 1388737 -10609 0
0 0 0 1001 1389738 -9608 0
0 0 0 991 1390729 -8617 0
0 0 0 911 1391640 -7706 0
0 0 0 934 1392574 -6772 0
0 0 0 937 1393511 -5835 0
0 0 0 881 1394392 -4954 0
0 0 0 888 1395280 -4066 0
0 0 0 910 1396190 -3156 0
0 0 0 890 1397080 -2266 0
71 1 S116 824 1397904 -1442 0
71 1 S116 819 1398723 -623 0
71 2 S116 794 1399517 171 0
71 2 S116 783 1400300 954 0
71 2 S116 776 1401076 1730 0
71 2 S116 780 1401856 2510 0
71 2 S116 778 1402634 3288 0
71 2 S116 784 1403418 4072 0
71 2 S116 860 1404278 4932 0
71 2 S116 931 1405209 5863 0
71 2 S116 925 1406134 6788 0
0 0 0 921 1407055 -8869 0
0 0 0 895 1407950 -7974 0
0 0 0 837 1408787 -7137 0
0 0 0 828 1409615 -6309 0
0 0 0 811 1410426 -5498 0
0 0 0 787 1411213 -4711 0
0 0 0 771 1411984 -3940 0
0 0 0 762 1412746 -3178 0
0 0 0 757 1413503 -2421 0
72 1 S102 799 1414302 -1622 0
72 1 S102 798 1415100 -824 0
72 2 S102 830 1415930 6 0
72 2 S102 915 1416845 921 0
72 2 S102 919 1417764 1840 0
72 2 S102 901 1418665 2741 0
72 2 S102 933 1419598 3674 0
72 2 S102 889 1420487 4563 0
72 2 S102 895 1421382 5458 0
72 2 S102 916 1422298 6374 0
0 0 0 868 1423166 -7960 0
0 0 0 905 1424071 -7055 0
0 0 0 927 1424998 -6128 0
0 0 0 971 1425969 -5157 0
0 0 0 937 1426906 -4220 0
0 0 0 922 1427828 -3298 0
0 0 0 848 1428676 -2450 0
73 1 S116 875 1429551 -1575 0
73 1 S116 865 1430416 -710 0
73 2 S116 808 1431224 98 0
73 2 S116 887 1432111 985 0
73 2 S116 935 1433046 1920 0
73 2 S116 897 1433943 2817 0
73 2 S116 924 1434867 3741 0
73 2 S116 993 1435860 4734 0
73 2 S116 919 1436779 5653 0
73 2 S116 951 1437730 6604 0
0 0 0 960 1438690 -9927 0
0 0 0 906 1439596 -9021 0
0 0 0 937 1440533 -8084 0
0 0 0 925 1441458 -7159 0
0 0 0 850 1442308 -6309 0
0 0 0 861 1443169 -5448 0
0 0 0 881 1444050 -4567 0
0 0 0 842 1444892 -3725 0
0 0 0 845 1445737 -2880 0
74 1 S106 883 1446620 -1997 0
74 1 S106 867 1447487 -1130 0
74 1 S106 786 1448273 -344 0
74 2 S106 808 1449081 464 0
74 2 S106 830 1449911 1294 0
74 2 S106 851 1450762 2145 0
74 2 S106 890 1451652 3035 0
74 2 S106 858 1452510 3893 0
74 2 S106 900 1453410 4793 0
74 2 S106 895 1454305 5688 0
74 2 S106 882 1455187 6570 0
0 0 0 905 1456092 -8191 0
0 0 0 902 1456994 -7289 0
0 0 0 825 1457819 -6464 0
0 0 0 846 1458665 -5618 0
0 0 0 881 1459546 -4737 0
0 0 0 871 1460417 -3866 0
0 0 0 860 1461277 -3006 0
0 0 0 901 1462178 -2105 0
75 1 S112 887 1463065 -1218 0
75 1 S112 821 1463886 -397 0
75 2 S112 828 1464714 431 0
75 2 S112 831 1465545 1262 0
75 2 S112 857 1466402 2119 0
75 2 S112 885 1467287 3004 0
75 2 S112 882 1468169 3886 0
75 2 S112 948 1469117 4834 0
75 2 S112 974 1470091 5808 0
75 2 S112 1019 1471110 6827 0
0 0 0 973 1472083 -8464 0
0 0 0 1000 1473083 -7464 0
0 0 0 1004 1474087 -6460 0
0 0 0 961 1475048 -5499 0
0 0 0 934 1475982 -4565 0
0 0 0 908 1476890 -3657 0
0 0 0 879 1477769 -2778 0
76 1 S116 859 1478628 -1919 0
76 1 S116 857 1479485 -1062 0
76 1 S116 844 1480329 -218 0
76 2 S116 783 1481112 565 0
76 2 S116 794 1481906 1359 0
76 2 S116 848 1482754 2207 0
76 2 S116 982 1483736 3189 0
76 2 S116 976 1484712 4165 0
76 2 S116 911 1485623 5076 0
76 2 S116 959 1486582 6035 0
76 2 S116 988 1487570 7023 0
0 0 0 918 1488488 -5935 0
0 0 0 885 1489373 -5050 0
0 0 0 871 1490244 -4179 0
0 0 0 829 1491073 -3350 0
0 0 0 777 1491850 -2573 0
77 1 S106 729 1492579 -1844 0
77 1 S106 736 1493315 -1108 0
77 1 S106 766 1494081 -342 0
77 2 S106 879 1494960 537 0
77 2 S106 929 1495889 1466 0
77 2 S106 886 1496775 2352 0
77 2 S106 901 1497676 3253 0
77 2 S106 924 1498600 4177 0
77 2 S106 896 1499496 5073 0
77 2 S106 831 1500327 5904 0
77 2 S106 808 1501135 6712 0
0 0 0 788 1501923 -11117 0
0 0 0 780 1502703 -10337 0
0 0 0 785 1503488 -9552 0
0 0 0 757 1504245 -8795 0
0 0 0 787 1505032 -8008 0
0 0 0 845 1505877 -7163 0
0 0 0 893 1506770 -6270 0
0 0 0 846 1507616 -5424 0
0 0 0 796 1508412 -4628 0
0 0 0 828 1509240 -3800 0
0 0 0 865 1510105 -2935 0
0 0 0 881 1510986 -2054 0
78 1 S112 897 1511883 -1157 0
78 1 S112 859 1512742 -298 0
78 2 S112 870 1513612 572 0
78 2 S112 888 1514500 1460 0
78 2 S112 868 1515368 2328 0
78 2 S112 858 1516226 3186 0
78 2 S112 895 1517121 4081 0
78 2 S112 928 1518049 5009 0
78 2 S112 921 1518970 5930 0
78 2 S112 935 1519905 6865 0
0 0 0 955 1520860 -12688 0
0 0 0 956 1521816 -11732 0
0 0 0 928 1522744 -10804 0
0 0 0 956 1523700 -9848 0
0 0 0 944 1524644 -8904 0
0 0 0 848 1525492 -8056 0
0 0 0 847 1526339 -7209 0
0 0 0 841 1527180 -6368 0
0 0 0 816 1527996 -5552 0
0 0 0 822 1528818 -4730 0
0 0 0 814 1529632 -3916 0
0 0 0 780 1530412 -3136 0
0 0 0 792 1531204 -2344 0
79 1 S102 805 1532009 -1539 0
79 1 S102 839 1532848 -700 0
79 2 S102 781 1533629 81 0
79 2 S102 778 1534407 859 0
79 2 S102 826 1535233 1685 0
79 2 S102 882 1536115 2567 0
79 2 S102 903 1537018 3470 0
79 2 S102 863 1537881 4333 0
79 2 S102 893 1538774 5226 0
79 2 S102 918 1539692 6144 0
0 0 0 890 1540582 -9776 0
0 0 0 891 1541473 -8885 0
0 0 0 883 1542356 -8002 0
0 0 0 817 1543173 -7185 0
0 0 0 793 1543966 -6392 0
0 0 0 772 1544738 -5620 0
0 0 0 783 1545521 -4837 0
0 0 0 786 1546307 -4051 0
0 0 0 760 1547067 -3291 0
0 0 0 784 1547851 -2507 0
80 1 S116 837 1548688 -1670 0
80 1 S116 820 1549508 -850 0
80 1 S116 845 1550353 -5 0
80 2 S116 869 1551222 864 0
80 2 S116 896 1552118 1760 0
80 2 S116 890 1553008 2650 0
80 2 S116 941 1553949 3591 0
80 2 S116 974 1554923 4565 0
80 2 S116 996 1555919 5561 0
80 2 S116 963 1556882 6524 0
