T_0007
BeatCount Mean SD BeatCountNoOutliers MeanNoOutliers SDNoOutliers
1799 879,04891606448 56,2176847993321 1776 879,564189189189 53,4631225899012

Trial TrialStatus Trialtype IBI AbsPosition RelPosition Outlier
0 0 0 849 1347 -15301 0
0 0 0 877 2224 -14424 0
0 0 0 872 3096 -13552 0
0 0 0 854 3950 -12698 0
0 0 0 896 4846 -11802 0
0 0 0 885 5731 -10917 0
0 0 0 854 6585 -10063 0
0 0 0 916 7501 -9147 0
0 0 0 887 8388 -8260 0
0 0 0 911 9299 -7349 0
0 0 0 957 10256 -6392 0
0 0 0 926 11182 -5466 0
0 0 0 947 12129 -4519 0
0 0 0 911 13040 -3608 0
0 0 0 878 13918 -2730 0
1 1 S112 916 14834 -1814 0
1 1 S112 931 15765 -883 0
1 2 S112 928 16693 45 0
1 2 S112 944 17637 989 0
1 2 S112 967 18604 1956 0
1 2 S112 924 19528 2880 0
1 2 S112 910 20438 3790 0
1 2 S112 936 21374 4726 0
1 2 S112 932 22306 5658 0
1 2 S112 878 23184 6536 0
0 0 0 894 24078 -11768 0
0 0 0 903 24981 -10865 0
0 0 0 898 25879 -9967 0
0 0 0 846 26725 -9121 0
0 0 0 879 27604 -8242 0
0 0 0 881 28485 -7361 0
0 0 0 832 29317 -6529 0
0 0 0 880 30197 -5649 0
0 0 0 833 31030 -4816 0
0 0 0 834 31864 -3982 0
0 0 0 838 32702 -3144 0
0 0 0 827 33529 -2317 0
2 1 S102 790 34319 -1527 0
2 1 S102 827 35146 -700 0
2 2 S102 851 35997 151 0
2 2 S102 817 36814 968 0
2 2 S102 870 37684 1838 0
2 2 S102 868 38552 2706 0
2 2 S102 836 39388 3542 0
2 2 S102 852 40240 4394 0
2 2 S102 887 41127 5281 0
2 2 S102 894 42021 6175 0
2 2 S102 844 42865 7019 0
0 0 0 908 43773 -9497 0
0 0 0 933 44706 -8564 0
0 0 0 883 45589 -7681 0
0 0 0 900 46489 -6781 0
0 0 0 898 47387 -5883 0
0 0 0 834 48221 -5049 0
0 0 0 777 48998 -4272 0
0 0 0 741 49739 -3531 0
0 0 0 720 50459 -2811 1
0 0 0 718 51177 -2093 1
3 1 S116 720 51897 -1373 1
3 1 S116 783 52680 -590 0
3 2 S116 857 53537 267 0
3 2 S116 883 54420 1150 0
3 2 S116 988 55408 2138 0
3 2 S116 1005 56413 3143 0
3 2 S116 947 57360 4090 0
3 2 S116 960 58320 5050 0
3 2 S116 967 59287 6017 0
3 2 S116 893 60180 6910 0
0 0 0 889 61069 -11067 0
0 0 0 939 62008 -10128 0
0 0 0 888 62896 -9240 0
0 0 0 872 63768 -8368 0
0 0 0 885 64653 -7483 0
0 0 0 841 65494 -6642 0
0 0 0 835 66329 -5807 0
0 0 0 899 67228 -4908 0
0 0 0 905 68133 -4003 0
0 0 0 829 68962 -3174 0
0 0 0 873 69835 -2301 0
4 1 S106 886 70721 -1415 0
4 1 S106 827 71548 -588 0
4 2 S106 825 72373 237 0
4 2 S106 850 73223 1087 0
4 2 S106 893 74116 1980 0
4 2 S106 834 74950 2814 0
4 2 S106 829 75779 3643 0
4 2 S106 867 76646 4510 0
4 2 S106 889 77535 5399 0
4 2 S106 839 78374 6238 0
0 0 0 841 79215 -7543 0
0 0 0 872 80087 -6671 0
0 0 0 857 80944 -5814 0
0 0 0 813 81757 -5001 0
0 0 0 831 82588 -4170 0
0 0 0 813 83401 -3357 0
0 0 0 765 84166 -2592 0
5 1 S116 782 84948 -1810 0
5 1 S116 782 85730 -1028 0
5 1 S116 760 86490 -268 0
5 2 S116 793 87283 525 0
5 2 S116 887 88170 1412 0
5 2 S116 891 89061 2303 0
5 2 S116 858 89919 3161 0
5 2 S116 893 90812 4054 0
5 2 S116 912 91724 4966 0
5 2 S116 873 92597 5839 0
5 2 S116 834 93431 6673 0
0 0 0 894 94325 -9592 0
0 0 0 938 95263 -8654 0
0 0 0 901 96164 -7753 0
0 0 0 870 97034 -6883 0
0 0 0 918 97952 -5965 0
0 0 0 919 98871 -5046 0
0 0 0 854 99725 -4192 0
0 0 0 900 100625 -3292 0
0 0 0 921 101546 -2371 0
6 1 S106 889 102435 -1482 0
6 1 S106 872 103307 -610 0
6 2 S106 928 104235 318 0
6 2 S106 964 105199 1282 0
6 2 S106 947 106146 2229 0
6 2 S106 951 107097 3180 0
6 2 S106 954 108051 4134 0
6 2 S106 946 108997 5080 0
6 2 S106 919 109916 5999 0
6 2 S106 949 110865 6948 0
0 0 0 947 111812 -11302 0
0 0 0 911 112723 -10391 0
0 0 0 915 113638 -9476 0
0 0 0 916 114554 -8560 0
0 0 0 820 115374 -7740 0
0 0 0 777 116151 -6963 0
0 0 0 757 116908 -6206 0
0 0 0 775 117683 -5431 0
0 0 0 832 118515 -4599 0
0 0 0 875 119390 -3724 0
0 0 0 836 120226 -2888 0
7 1 S102 888 121114 -2000 0
7 1 S102 924 122038 -1076 0
7 1 S102 879 122917 -197 0
7 2 S102 879 123796 682 0
7 2 S102 944 124740 1626 0
7 2 S102 885 125625 2511 0
7 2 S102 905 126530 3416 0
7 2 S102 957 127487 4373 0
7 2 S102 947 128434 5320 0
7 2 S102 889 129323 6209 0
0 0 0 944 130267 -10702 0
0 0 0 980 131247 -9722 0
0 0 0 914 132161 -8808 0
0 0 0 924 133085 -7884 0
0 0 0 974 134059 -6910 0
0 0 0 897 134956 -6013 0
0 0 0 896 135852 -5117 0
0 0 0 960 136812 -4157 0
0 0 0 889 137701 -3268 0
0 0 0 895 138596 -2373 0
8 1 S112 925 139521 -1448 0
8 1 S112 894 140415 -554 0
8 2 S112 893 141308 339 0
8 2 S112 1021 142329 1360 0
8 2 S112 990 143319 2350 0
8 2 S112 908 144227 3258 0
8 2 S112 951 145178 4209 0
8 2 S112 952 146130 5161 0
8 2 S112 892 147022 6053 0
8 2 S112 899 147921 6952 0
0 0 0 1002 148923 -8393 0
0 0 0 995 149918 -7398 0
0 0 0 915 150833 -6483 0
0 0 0 1036 151869 -5447 1
0 0 0 1028 152897 -4419 1
0 0 0 928 153825 -3491 0
0 0 0 966 154791 -2525 0
9 1 S116 880 155671 -1645 0
9 1 S116 811 156482 -834 0
9 1 S116 790 157272 -44 0
9 2 S116 813 158085 769 0
9 2 S116 844 158929 1613 0
9 2 S116 917 159846 2530 0
9 2 S116 968 160814 3498 0
9 2 S116 895 161709 4393 0
9 2 S116 903 162612 5296 0
9 2 S116 946 163558 6242 0
0 0 0 1016 164574 -12835 0
0 0 0 951 165525 -11884 0
0 0 0 998 166523 -10886 0
0 0 0 1018 167541 -9868 0
0 0 0 954 168495 -8914 0
0 0 0 953 169448 -7961 0
0 0 0 911 170359 -7050 0
0 0 0 853 171212 -6197 0
0 0 0 892 172104 -5305 0
0 0 0 912 173016 -4393 0
0 0 0 866 173882 -3527 0
0 0 0 910 174792 -2617 0
10 1 S102 970 175762 -1647 0
10 1 S102 907 176669 -740 0
10 2 S102 999 177668 259 0
10 2 S102 1034 178702 1293 1
10 2 S102 928 179630 2221 0
10 2 S102 972 180602 3193 0
10 2 S102 983 181585 4176 0
10 2 S102 910 182495 5086 0
10 2 S102 925 183420 6011 0
10 2 S102 943 184363 6954 0
0 0 0 882 185245 -11428 0
0 0 0 919 186164 -10509 0
0 0 0 976 187140 -9533 0
0 0 0 951 188091 -8582 0
0 0 0 887 188978 -7695 0
0 0 0 918 189896 -6777 0
0 0 0 824 190720 -5953 0
0 0 0 775 191495 -5178 0
0 0 0 788 192283 -4390 0
0 0 0 763 193046 -3627 0
0 0 0 807 193853 -2820 0
11 1 S112 859 194712 -1961 0
11 1 S112 845 195557 -1116 0
11 1 S112 915 196472 -201 0
11 2 S112 922 197394 721 0
11 2 S112 928 198322 1649 0
11 2 S112 967 199289 2616 0
11 2 S112 952 200241 3568 0
11 2 S112 895 201136 4463 0
11 2 S112 924 202060 5387 0
11 2 S112 943 203003 6330 0
0 0 0 903 203906 -8102 0
0 0 0 907 204813 -7195 0
0 0 0 940 205753 -6255 0
0 0 0 877 206630 -5378 0
0 0 0 888 207518 -4490 0
0 0 0 869 208387 -3621 0
0 0 0 842 209229 -2779 0
12 1 S116 844 210073 -1935 0
12 1 S116 878 210951 -1057 0
12 1 S116 865 211816 -192 0
12 2 S116 824 212640 632 0
12 2 S116 925 213565 1557 0
12 2 S116 996 214561 2553 0
12 2 S116 931 215492 3484 0
12 2 S116 916 216408 4400 0
12 2 S116 943 217351 5343 0
12 2 S116 966 218317 6309 0
0 0 0 948 219265 -11907 0
0 0 0 906 220171 -11001 0
0 0 0 939 221110 -10062 0
0 0 0 910 222020 -9152 0
0 0 0 855 222875 -8297 0
0 0 0 881 223756 -7416 0
0 0 0 805 224561 -6611 0
0 0 0 774 225335 -5837 0
0 0 0 792 226127 -5045 0
0 0 0 819 226946 -4226 0
0 0 0 850 227796 -3376 0
0 0 0 853 228649 -2523 0
13 1 S112 852 229501 -1671 0
13 1 S112 917 230418 -754 0
13 2 S112 875 231293 121 0
13 2 S112 863 232156 984 0
13 2 S112 962 233118 1946 0
13 2 S112 962 234080 2908 0
13 2 S112 917 234997 3825 0
13 2 S112 973 235970 4798 0
13 2 S112 955 236925 5753 0
13 2 S112 909 237834 6662 0
0 0 0 933 238767 -12498 0
0 0 0 1019 239786 -11479 0
0 0 0 941 240727 -10538 0
0 0 0 913 241640 -9625 0
0 0 0 947 242587 -8678 0
0 0 0 942 243529 -7736 0
0 0 0 891 244420 -6845 0
0 0 0 918 245338 -5927 0
0 0 0 968 246306 -4959 0
0 0 0 916 247222 -4043 0
0 0 0 948 248170 -3095 0
0 0 0 963 249133 -2132 0
14 1 S106 917 250050 -1215 0
14 1 S106 953 251003 -262 0
14 2 S106 954 251957 692 0
14 2 S106 956 252913 1648 0
14 2 S106 1000 253913 2648 0
14 2 S106 1001 254914 3649 0
14 2 S106 962 255876 4611 0
14 2 S106 876 256752 5487 0
14 2 S106 916 257668 6403 0
0 0 0 955 258623 -12287 0
0 0 0 919 259542 -11368 0
0 0 0 866 260408 -10502 0
0 0 0 896 261304 -9606 0
0 0 0 898 262202 -8708 0
0 0 0 847 263049 -7861 0
0 0 0 816 263865 -7045 0
0 0 0 797 264662 -6248 0
0 0 0 750 265412 -5498 0
0 0 0 735 266147 -4763 0
0 0 0 741 266888 -4022 0
0 0 0 778 267666 -3244 0
0 0 0 863 268529 -2381 0
15 1 S116 867 269396 -1514 0
15 1 S116 820 270216 -694 0
15 2 S116 869 271085 175 0
15 2 S116 926 272011 1101 0
15 2 S116 912 272923 2013 0
15 2 S116 881 273804 2894 0
15 2 S116 946 274750 3840 0
15 2 S116 950 275700 4790 0
15 2 S116 893 276593 5683 0
15 2 S116 939 277532 6622 0
0 0 0 951 278483 -9735 0
0 0 0 879 279362 -8856 0
0 0 0 896 280258 -7960 0
0 0 0 941 281199 -7019 0
0 0 0 871 282070 -6148 0
0 0 0 825 282895 -5323 0
0 0 0 878 283773 -4445 0
0 0 0 887 284660 -3558 0
0 0 0 850 285510 -2708 0
16 1 S116 938 286448 -1770 0
16 1 S116 943 287391 -827 0
16 2 S116 876 288267 49 0
16 2 S116 901 289168 950 0
16 2 S116 970 290138 1920 0
16 2 S116 913 291051 2833 0
16 2 S116 906 291957 3739 0
16 2 S116 988 292945 4727 0
16 2 S116 995 293940 5722 0
16 2 S116 1028 294968 6750 1
0 0 0 1039 296007 -10597 1
0 0 0 928 296935 -9669 0
0 0 0 974 297909 -8695 0
0 0 0 973 298882 -7722 0
0 0 0 930 299812 -6792 0
0 0 0 848 300660 -5944 0
0 0 0 876 301536 -5068 0
0 0 0 796 302332 -4272 0
0 0 0 821 303153 -3451 0
0 0 0 836 303989 -2615 0
17 1 S106 860 304849 -1755 0
17 1 S106 915 305764 -840 0
17 2 S106 909 306673 69 0
17 2 S106 891 307564 960 0
17 2 S106 976 308540 1936 0
17 2 S106 926 309466 2862 0
17 2 S106 872 310338 3734 0
17 2 S106 897 311235 4631 0
17 2 S106 932 312167 5563 0
17 2 S106 919 313086 6482 0
0 0 0 869 313955 -12294 0
0 0 0 915 314870 -11379 0
0 0 0 960 315830 -10419 0
0 0 0 907 316737 -9512 0
0 0 0 897 317634 -8615 0
0 0 0 906 318540 -7709 0
0 0 0 847 319387 -6862 0
0 0 0 798 320185 -6064 0
0 0 0 775 320960 -5289 0
0 0 0 805 321765 -4484 0
0 0 0 811 322576 -3673 0
0 0 0 799 323375 -2874 0
0 0 0 859 324234 -2015 0
18 1 S102 912 325146 -1103 0
18 1 S102 874 326020 -229 0
18 2 S102 869 326889 640 0
18 2 S102 981 327870 1621 0
18 2 S102 946 328816 2567 0
18 2 S102 908 329724 3475 0
18 2 S102 969 330693 4444 0
18 2 S102 932 331625 5376 0
18 2 S102 874 332499 6250 0
0 0 0 938 333437 -9191 0
0 0 0 967 334404 -8224 0
0 0 0 908 335312 -7316 0
0 0 0 903 336215 -6413 0
0 0 0 987 337202 -5426 0
0 0 0 939 338141 -4487 0
0 0 0 845 338986 -3642 0
0 0 0 880 339866 -2762 0
19 1 S106 882 340748 -1880 0
19 1 S106 818 341566 -1062 0
19 1 S106 849 342415 -213 0
19 2 S106 890 343305 677 0
19 2 S106 899 344204 1576 0
19 2 S106 914 345118 2490 0
19 2 S106 945 346063 3435 0
19 2 S106 1004 347067 4439 0
19 2 S106 956 348023 5395 0
19 2 S106 948 348971 6343 0
0 0 0 974 349945 -13290 0
0 0 0 926 350871 -12364 0
0 0 0 868 351739 -11496 0
0 0 0 833 352572 -10663 0
0 0 0 900 353472 -9763 0
0 0 0 948 354420 -8815 0
0 0 0 891 355311 -7924 0
0 0 0 835 356146 -7089 0
0 0 0 873 357019 -6216 0
0 0 0 891 357910 -5325 0
0 0 0 842 358752 -4483 0
0 0 0 901 359653 -3582 0
0 0 0 897 360550 -2685 0
20 1 S112 838 361388 -1847 0
20 1 S112 890 362278 -957 0
20 1 S112 905 363183 -52 0
20 2 S112 862 364045 810 0
20 2 S112 921 364966 1731 0
20 2 S112 927 365893 2658 0
20 2 S112 924 366817 3582 0
20 2 S112 960 367777 4542 0
20 2 S112 1000 368777 5542 0
20 2 S112 939 369716 6481 0
0 0 0 881 370597 -10742 0
0 0 0 929 371526 -9813 0
0 0 0 943 372469 -8870 0
0 0 0 887 373356 -7983 0
0 0 0 906 374262 -7077 0
0 0 0 904 375166 -6173 0
0 0 0 852 376018 -5321 0
0 0 0 842 376860 -4479 0
0 0 0 882 377742 -3597 0
0 0 0 878 378620 -2719 0
21 1 S106 791 379411 -1928 0
21 1 S106 759 380170 -1169 0
21 1 S106 776 380946 -393 0
21 2 S106 782 381728 389 0
21 2 S106 852 382580 1241 0
21 2 S106 933 383513 2174 0
21 2 S106 999 384512 3173 0
21 2 S106 949 385461 4122 0
21 2 S106 999 386460 5121 0
21 2 S106 1025 387485 6146 1
0 0 0 949 388434 -13313 0
0 0 0 935 389369 -12378 0
0 0 0 959 390328 -11419 0
0 0 0 938 391266 -10481 0
0 0 0 896 392162 -9585 0
0 0 0 946 393108 -8639 0
0 0 0 923 394031 -7716 0
0 0 0 857 394888 -6859 0
0 0 0 885 395773 -5974 0
0 0 0 904 396677 -5070 0
0 0 0 860 397537 -4210 0
0 0 0 847 398384 -3363 0
0 0 0 888 399272 -2475 0
22 1 S116 892 400164 -1583 0
22 1 S116 826 400990 -757 0
22 2 S116 822 401812 65 0
22 2 S116 888 402700 953 0
22 2 S116 986 403686 1939 0
22 2 S116 965 404651 2904 0
22 2 S116 909 405560 3813 0
22 2 S116 946 406506 4759 0
22 2 S116 948 407454 5707 0
22 2 S116 909 408363 6616 0
0 0 0 915 409278 -9810 0
0 0 0 933 410211 -8877 0
0 0 0 906 411117 -7971 0
0 0 0 855 411972 -7116 0
0 0 0 885 412857 -6231 0
0 0 0 893 413750 -5338 0
0 0 0 850 414600 -4488 0
0 0 0 877 415477 -3611 0
0 0 0 920 416397 -2691 0
23 1 S112 872 417269 -1819 0
23 1 S112 857 418126 -962 0
23 1 S112 882 419008 -80 0
23 2 S112 866 419874 786 0
23 2 S112 889 420763 1675 0
23 2 S112 915 421678 2590 0
23 2 S112 921 422599 3511 0
23 2 S112 873 423472 4384 0
23 2 S112 840 424312 5224 0
23 2 S112 891 425203 6115 0
0 0 0 921 426124 -10073 0
0 0 0 874 426998 -9199 0
0 0 0 873 427871 -8326 0
0 0 0 884 428755 -7442 0
0 0 0 851 429606 -6591 0
0 0 0 787 430393 -5804 0
0 0 0 824 431217 -4980 0
0 0 0 780 431997 -4200 0
0 0 0 769 432766 -3431 0
0 0 0 800 433566 -2631 0
24 1 S106 820 434386 -1811 0
24 1 S106 868 435254 -943 0
24 1 S106 835 436089 -108 0
24 2 S106 792 436881 684 0
24 2 S106 863 437744 1547 0
24 2 S106 880 438624 2427 0
24 2 S106 832 439456 3259 0
24 2 S106 853 440309 4112 0
24 2 S106 870 441179 4982 0
24 2 S106 916 442095 5898 0
24 2 S106 892 442987 6790 0
0 0 0 855 443842 -10574 0
0 0 0 875 444717 -9699 0
0 0 0 850 445567 -8849 0
0 0 0 843 446410 -8006 0
0 0 0 890 447300 -7116 0
0 0 0 889 448189 -6227 0
0 0 0 849 449038 -5378 0
0 0 0 855 449893 -4523 0
0 0 0 903 450796 -3620 0
0 0 0 878 451674 -2742 0
25 1 S102 845 452519 -1897 0
25 1 S102 862 453381 -1035 0
25 1 S102 872 454253 -163 0
25 2 S102 826 455079 663 0
25 2 S102 878 455957 1541 0
25 2 S102 872 456829 2413 0
25 2 S102 841 457670 3254 0
25 2 S102 853 458523 4107 0
25 2 S102 918 459441 5025 0
25 2 S102 934 460375 5959 0
25 2 S102 908 461283 6867 0
0 0 0 985 462268 -6986 0
0 0 0 978 463246 -6008 0
0 0 0 907 464153 -5101 0
0 0 0 944 465097 -4157 0
0 0 0 896 465993 -3261 0
0 0 0 838 466831 -2423 0
26 1 S116 889 467720 -1534 0
26 1 S116 901 468621 -633 0
26 2 S116 852 469473 219 0
26 2 S116 912 470385 1131 0
26 2 S116 970 471355 2101 0
26 2 S116 903 472258 3004 0
26 2 S116 892 473150 3896 0
26 2 S116 926 474076 4822 0
26 2 S116 957 475033 5779 0
26 2 S116 919 475952 6698 0
0 0 0 972 476924 -8477 0
0 0 0 969 477893 -7508 0
0 0 0 887 478780 -6621 0
0 0 0 808 479588 -5813 0
0 0 0 851 480439 -4962 0
0 0 0 875 481314 -4087 0
0 0 0 857 482171 -3230 0
0 0 0 781 482952 -2449 0
27 1 S106 787 483739 -1662 0
27 1 S106 769 484508 -893 0
27 1 S106 783 485291 -110 0
27 2 S106 814 486105 704 0
27 2 S106 883 486988 1587 0
27 2 S106 863 487851 2450 0
27 2 S106 874 488725 3324 0
27 2 S106 908 489633 4232 0
27 2 S106 891 490524 5123 0
27 2 S106 837 491361 5960 0
27 2 S106 866 492227 6826 0
0 0 0 867 493094 -7891 0
0 0 0 839 493933 -7052 0
0 0 0 822 494755 -6230 0
0 0 0 866 495621 -5364 0
0 0 0 914 496535 -4450 0
0 0 0 868 497403 -3582 0
0 0 0 833 498236 -2749 0
28 1 S102 862 499098 -1887 0
28 1 S102 882 499980 -1005 0
28 1 S102 824 500804 -181 0
28 2 S102 863 501667 682 0
28 2 S102 923 502590 1605 0
28 2 S102 882 503472 2487 0
28 2 S102 879 504351 3366 0
28 2 S102 912 505263 4278 0
28 2 S102 919 506182 5197 0
28 2 S102 867 507049 6064 0
28 2 S102 914 507963 6978 0
0 0 0 952 508915 -11533 0
0 0 0 914 509829 -10619 0
0 0 0 863 510692 -9756 0
0 0 0 901 511593 -8855 0
0 0 0 896 512489 -7959 0
0 0 0 839 513328 -7120 0
0 0 0 872 514200 -6248 0
0 0 0 887 515087 -5361 0
0 0 0 853 515940 -4508 0
0 0 0 885 516825 -3623 0
0 0 0 875 517700 -2748 0
29 1 S112 838 518538 -1910 0
29 1 S112 840 519378 -1070 0
29 1 S112 857 520235 -213 0
29 2 S112 836 521071 623 0
29 2 S112 918 521989 1541 0
29 2 S112 940 522929 2481 0
29 2 S112 883 523812 3364 0
29 2 S112 926 524738 4290 0
29 2 S112 911 525649 5201 0
29 2 S112 862 526511 6063 0
29 2 S112 930 527441 6993 0
0 0 0 911 528352 -7912 0
0 0 0 863 529215 -7049 0
0 0 0 907 530122 -6142 0
0 0 0 910 531032 -5232 0
0 0 0 821 531853 -4411 0
0 0 0 782 532635 -3629 0
0 0 0 750 533385 -2879 0
0 0 0 762 534147 -2117 0
30 1 S112 765 534912 -1352 0
30 1 S112 762 535674 -590 0
30 2 S112 798 536472 208 0
30 2 S112 834 537306 1042 0
30 2 S112 832 538138 1874 0
30 2 S112 861 538999 2735 0
30 2 S112 910 539909 3645 0
30 2 S112 905 540814 4550 0
30 2 S112 863 541677 5413 0
30 2 S112 934 542611 6347 0
0 0 0 983 543594 -9994 0
0 0 0 918 544512 -9076 0
0 0 0 914 545426 -8162 0
0 0 0 934 546360 -7228 0
0 0 0 866 547226 -6362 0
0 0 0 854 548080 -5508 0
0 0 0 886 548966 -4622 0
0 0 0 877 549843 -3745 0
0 0 0 848 550691 -2897 0
0 0 0 871 551562 -2026 0
31 1 S106 904 552466 -1122 0
31 1 S106 851 553317 -271 0
31 2 S106 906 554223 635 0
31 2 S106 935 555158 1570 0
31 2 S106 911 556069 2481 0
31 2 S106 951 557020 3432 0
31 2 S106 990 558010 4422 0
31 2 S106 952 558962 5374 0
31 2 S106 906 559868 6280 0
0 0 0 936 560804 -11004 0
0 0 0 964 561768 -10040 0
0 0 0 893 562661 -9147 0
0 0 0 904 563565 -8243 0
0 0 0 951 564516 -7292 0
0 0 0 904 565420 -6388 0
0 0 0 814 566234 -5574 0
0 0 0 771 567005 -4803 0
0 0 0 836 567841 -3967 0
0 0 0 841 568682 -3126 0
0 0 0 883 569565 -2243 0
32 1 S102 907 570472 -1336 0
32 1 S102 884 571356 -452 0
32 2 S102 903 572259 451 0
32 2 S102 938 573197 1389 0
32 2 S102 879 574076 2268 0
32 2 S102 891 574967 3159 0
32 2 S102 910 575877 4069 0
32 2 S102 915 576792 4984 0
32 2 S102 861 577653 5845 0
32 2 S102 889 578542 6734 0
0 0 0 899 579441 -10769 0
0 0 0 905 580346 -9864 0
0 0 0 842 581188 -9022 0
0 0 0 842 582030 -8180 0
0 0 0 781 582811 -7399 0
0 0 0 764 583575 -6635 0
0 0 0 778 584353 -5857 0
0 0 0 766 585119 -5091 0
0 0 0 793 585912 -4298 0
0 0 0 798 586710 -3500 0
0 0 0 789 587499 -2711 0
33 1 S112 815 588314 -1896 0
33 1 S112 882 589196 -1014 0
33 1 S112 940 590136 -74 0
33 2 S112 920 591056 846 0
33 2 S112 883 591939 1729 0
33 2 S112 896 592835 2625 0
33 2 S112 911 593746 3536 0
33 2 S112 896 594642 4432 0
33 2 S112 840 595482 5272 0
33 2 S112 880 596362 6152 0
0 0 0 918 597280 -12525 0
0 0 0 929 598209 -11596 0
0 0 0 891 599100 -10705 0
0 0 0 942 600042 -9763 0
0 0 0 926 600968 -8837 0
0 0 0 838 601806 -7999 0
0 0 0 860 602666 -7139 0
0 0 0 856 603522 -6283 0
0 0 0 849 604371 -5434 0
0 0 0 800 605171 -4634 0
0 0 0 852 606023 -3782 0
0 0 0 886 606909 -2896 0
0 0 0 847 607756 -2049 0
34 1 S106 846 608602 -1203 0
34 1 S106 879 609481 -324 0
34 2 S106 884 610365 560 0
34 2 S106 869 611234 1429 0
34 2 S106 906 612140 2335 0
34 2 S106 906 613046 3241 0
34 2 S106 877 613923 4118 0
34 2 S106 859 614782 4977 0
34 2 S106 898 615680 5875 0
34 2 S106 928 616608 6803 0
0 0 0 903 617511 -9320 0
0 0 0 857 618368 -8463 0
0 0 0 872 619240 -7591 0
0 0 0 876 620116 -6715 0
0 0 0 839 620955 -5876 0
0 0 0 821 621776 -5055 0
0 0 0 794 622570 -4261 0
0 0 0 758 623328 -3503 0
0 0 0 747 624075 -2756 0
0 0 0 744 624819 -2012 0
35 1 S102 749 625568 -1263 0
35 1 S102 767 626335 -496 0
35 2 S102 801 627136 305 0
35 2 S102 799 627935 1104 0
35 2 S102 840 628775 1944 0
35 2 S102 855 629630 2799 0
35 2 S102 802 630432 3601 0
35 2 S102 818 631250 4419 0
35 2 S102 817 632067 5236 0
35 2 S102 821 632888 6057 0
35 2 S102 807 633695 6864 0
0 0 0 838 634533 -6622 0
0 0 0 879 635412 -5743 0
0 0 0 884 636296 -4859 0
0 0 0 868 637164 -3991 0
0 0 0 893 638057 -3098 0
0 0 0 843 638900 -2255 0
36 1 S106 805 639705 -1450 0
36 1 S106 776 640481 -674 0
36 2 S106 745 641226 71 0
36 2 S106 739 641965 810 0
36 2 S106 745 642710 1555 0
36 2 S106 782 643492 2337 0
36 2 S106 810 644302 3147 0
36 2 S106 786 645088 3933 0
36 2 S106 803 645891 4736 0
36 2 S106 838 646729 5574 0
36 2 S106 902 647631 6476 0
0 0 0 843 648474 -9989 0
0 0 0 859 649333 -9130 0
0 0 0 892 650225 -8238 0
0 0 0 849 651074 -7389 0
0 0 0 797 651871 -6592 0
0 0 0 829 652700 -5763 0
0 0 0 818 653518 -4945 0
0 0 0 786 654304 -4159 0
0 0 0 800 655104 -3359 0
0 0 0 818 655922 -2541 0
37 1 S116 822 656744 -1719 0
37 1 S116 813 657557 -906 0
37 1 S116 859 658416 -47 0
37 2 S116 888 659304 841 0
37 2 S116 888 660192 1729 0
37 2 S116 926 661118 2655 0
37 2 S116 920 662038 3575 0
37 2 S116 891 662929 4466 0
37 2 S116 848 663777 5314 0
37 2 S116 889 664666 6203 0
0 0 0 905 665571 -11493 0
0 0 0 886 666457 -10607 0
0 0 0 849 667306 -9758 0
0 0 0 895 668201 -8863 0
0 0 0 865 669066 -7998 0
0 0 0 816 669882 -7182 0
0 0 0 835 670717 -6347 0
0 0 0 863 671580 -5484 0
0 0 0 822 672402 -4662 0
0 0 0 857 673259 -3805 0
0 0 0 864 674123 -2941 0
0 0 0 853 674976 -2088 0
38 1 S102 852 675828 -1236 0
38 1 S102 873 676701 -363 0
38 2 S102 857 677558 494 0
38 2 S102 843 678401 1337 0
38 2 S102 876 679277 2213 0
38 2 S102 861 680138 3074 0
38 2 S102 830 680968 3904 0
38 2 S102 840 681808 4744 0
38 2 S102 868 682676 5612 0
38 2 S102 873 683549 6485 0
0 0 0 833 684382 -9310 0
0 0 0 864 685246 -8446 0
0 0 0 881 686127 -7565 0
0 0 0 851 686978 -6714 0
0 0 0 818 687796 -5896 0
0 0 0 849 688645 -5047 0
0 0 0 840 689485 -4207 0
0 0 0 828 690313 -3379 0
0 0 0 876 691189 -2503 0
39 1 S116 883 692072 -1620 0
39 1 S116 816 692888 -804 0
39 2 S116 848 693736 44 0
39 2 S116 870 694606 914 0
39 2 S116 884 695490 1798 0
39 2 S116 937 696427 2735 0
39 2 S116 989 697416 3724 0
39 2 S116 959 698375 4683 0
39 2 S116 908 699283 5591 0
39 2 S116 961 700244 6552 0
0 0 0 987 701231 -8243 0
0 0 0 906 702137 -7337 0
0 0 0 895 703032 -6442 0
0 0 0 905 703937 -5537 0
0 0 0 854 704791 -4683 0
0 0 0 816 705607 -3867 0
0 0 0 773 706380 -3094 0
0 0 0 760 707140 -2334 0
40 1 S112 780 707920 -1554 0
40 1 S112 787 708707 -767 0
40 2 S112 883 709590 116 0
40 2 S112 937 710527 1053 0
40 2 S112 895 711422 1948 0
40 2 S112 920 712342 2868 0
40 2 S112 928 713270 3796 0
40 2 S112 881 714151 4677 0
40 2 S112 893 715044 5570 0
40 2 S112 946 715990 6516 0
0 0 0 930 716920 -189157 0
0 0 0 885 717805 -188272 0
0 0 0 913 718718 -187359 0
0 0 0 942 719660 -186417 0
0 0 0 911 720571 -185506 0
0 0 0 958 721529 -184548 0
0 0 0 988 722517 -183560 0
0 0 0 894 723411 -182666 0
0 0 0 916 724327 -181750 0
0 0 0 908 725235 -180842 0
0 0 0 767 726002 -180075 0
0 0 0 773 726775 -179302 0
0 0 0 915 727690 -178387 0
0 0 0 929 728619 -177458 0
0 0 0 951 729570 -176507 0
0 0 0 961 730531 -175546 0
0 0 0 924 731455 -174622 0
0 0 0 949 732404 -173673 0
0 0 0 944 733348 -172729 0
0 0 0 935 734283 -171794 0
0 0 0 894 735177 -170900 0
0 0 0 891 736068 -170009 0
0 0 0 901 736969 -169108 0
0 0 0 915 737884 -168193 0
0 0 0 932 738816 -167261 0
0 0 0 881 739697 -166380 0
0 0 0 911 740608 -165469 0
0 0 0 870 741478 -164599 0
0 0 0 823 742301 -163776 0
0 0 0 784 743085 -162992 0
0 0 0 749 743834 -162243 0
0 0 0 759 744593 -161484 0
0 0 0 778 745371 -160706 0
0 0 0 791 746162 -159915 0
0 0 0 816 746978 -159099 0
0 0 0 856 747834 -158243 0
0 0 0 798 748632 -157445 0
0 0 0 758 749390 -156687 0
0 0 0 784 750174 -155903 0
0 0 0 775 750949 -155128 0
0 0 0 793 751742 -154335 0
0 0 0 817 752559 -153518 0
0 0 0 823 753382 -152695 0
0 0 0 815 754197 -151880 0
0 0 0 876 755073 -151004 0
0 0 0 899 755972 -150105 0
0 0 0 854 756826 -149251 0
0 0 0 861 757687 -148390 0
0 0 0 866 758553 -147524 0
0 0 0 843 759396 -146681 0
0 0 0 828 760224 -145853 0
0 0 0 870 761094 -144983 0
0 0 0 887 761981 -144096 0
0 0 0 839 762820 -143257 0
0 0 0 880 763700 -142377 0
0 0 0 893 764593 -141484 0
0 0 0 852 765445 -140632 0
0 0 0 843 766288 -139789 0
0 0 0 798 767086 -138991 0
0 0 0 762 767848 -138229 0
0 0 0 730 768578 -137499 1
0 0 0 711 769289 -136788 1
0 0 0 705 769994 -136083 1
0 0 0 719 770713 -135364 1
0 0 0 761 771474 -134603 0
0 0 0 853 772327 -133750 0
0 0 0 836 773163 -132914 0
0 0 0 818 773981 -132096 0
0 0 0 865 774846 -131231 0
0 0 0 858 775704 -130373 0
0 0 0 810 776514 -129563 0
0 0 0 832 777346 -128731 0
0 0 0 859 778205 -127872 0
0 0 0 855 779060 -127017 0
0 0 0 855 779915 -126162 0
0 0 0 927 780842 -125235 0
0 0 0 936 781778 -124299 0
0 0 0 898 782676 -123401 0
0 0 0 946 783622 -122455 0
0 0 0 955 784577 -121500 0
0 0 0 921 785498 -120579 0
0 0 0 897 786395 -119682 0
0 0 0 906 787301 -118776 0
0 0 0 894 788195 -117882 0
0 0 0 907 789102 -116975 0
0 0 0 886 789988 -116089 0
0 0 0 820 790808 -115269 0
0 0 0 859 791667 -114410 0
0 0 0 933 792600 -113477 0
0 0 0 958 793558 -112519 0
0 0 0 901 794459 -111618 0
0 0 0 852 795311 -110766 0
0 0 0 860 796171 -109906 0
0 0 0 857 797028 -109049 0
0 0 0 837 797865 -108212 0
0 0 0 842 798707 -107370 0
0 0 0 874 799581 -106496 0
0 0 0 894 800475 -105602 0
0 0 0 881 801356 -104721 0
0 0 0 892 802248 -103829 0
0 0 0 952 803200 -102877 0
0 0 0 930 804130 -101947 0
0 0 0 878 805008 -101069 0
0 0 0 896 805904 -100173 0
0 0 0 879 806783 -99294 0
0 0 0 831 807614 -98463 0
0 0 0 836 808450 -97627 0
0 0 0 826 809276 -96801 0
0 0 0 809 810085 -95992 0
0 0 0 800 810885 -95192 0
0 0 0 831 811716 -94361 0
0 0 0 853 812569 -93508 0
0 0 0 839 813408 -92669 0
0 0 0 877 814285 -91792 0
0 0 0 906 815191 -90886 0
0 0 0 885 816076 -90001 0
0 0 0 896 816972 -89105 0
0 0 0 905 817877 -88200 0
0 0 0 882 818759 -87318 0
0 0 0 853 819612 -86465 0
0 0 0 871 820483 -85594 0
0 0 0 863 821346 -84731 0
0 0 0 829 822175 -83902 0
0 0 0 879 823054 -83023 0
0 0 0 882 823936 -82141 0
0 0 0 835 824771 -81306 0
0 0 0 825 825596 -80481 0
0 0 0 859 826455 -79622 0
0 0 0 877 827332 -78745 0
0 0 0 833 828165 -77912 0
0 0 0 856 829021 -77056 0
0 0 0 873 829894 -76183 0
0 0 0 831 830725 -75352 0
0 0 0 822 831547 -74530 0
0 0 0 857 832404 -73673 0
0 0 0 819 833223 -72854 0
0 0 0 785 834008 -72069 0
0 0 0 779 834787 -71290 0
0 0 0 750 835537 -70540 0
0 0 0 727 836264 -69813 1
0 0 0 730 836994 -69083 1
0 0 0 749 837743 -68334 0
0 0 0 790 838533 -67544 0
0 0 0 866 839399 -66678 0
0 0 0 838 840237 -65840 0
0 0 0 793 841030 -65047 0
0 0 0 831 841861 -64216 0
0 0 0 830 842691 -63386 0
0 0 0 791 843482 -62595 0
0 0 0 816 844298 -61779 0
0 0 0 820 845118 -60959 0
0 0 0 790 845908 -60169 0
0 0 0 776 846684 -59393 0
0 0 0 807 847491 -58586 0
0 0 0 842 848333 -57744 0
0 0 0 823 849156 -56921 0
0 0 0 856 850012 -56065 0
0 0 0 949 850961 -55116 0
0 0 0 942 851903 -54174 0
0 0 0 887 852790 -53287 0
0 0 0 922 853712 -52365 0
0 0 0 945 854657 -51420 0
0 0 0 918 855575 -50502 0
0 0 0 904 856479 -49598 0
0 0 0 958 857437 -48640 0
0 0 0 958 858395 -47682 0
0 0 0 890 859285 -46792 0
0 0 0 929 860214 -45863 0
0 0 0 883 861097 -44980 0
0 0 0 861 861958 -44119 0
0 0 0 885 862843 -43234 0
0 0 0 852 863695 -42382 0
0 0 0 825 864520 -41557 0
0 0 0 829 865349 -40728 0
0 0 0 832 866181 -39896 0
0 0 0 809 866990 -39087 0
0 0 0 768 867758 -38319 0
0 0 0 783 868541 -37536 0
0 0 0 787 869328 -36749 0
0 0 0 860 870188 -35889 0
0 0 0 870 871058 -35019 0
0 0 0 836 871894 -34183 0
0 0 0 786 872680 -33397 0
0 0 0 761 873441 -32636 0
0 0 0 750 874191 -31886 0
0 0 0 719 874910 -31167 1
0 0 0 694 875604 -30473 1
0 0 0 698 876302 -29775 1
0 0 0 675 876977 -29100 1
0 0 0 719 877696 -28381 1
0 0 0 779 878475 -27602 0
0 0 0 868 879343 -26734 0
0 0 0 825 880168 -25909 0
0 0 0 802 880970 -25107 0
0 0 0 884 881854 -24223 0
0 0 0 899 882753 -23324 0
0 0 0 877 883630 -22447 0
0 0 0 833 884463 -21614 0
0 0 0 791 885254 -20823 0
0 0 0 782 886036 -20041 0
0 0 0 835 886871 -19206 0
0 0 0 874 887745 -18332 0
0 0 0 845 888590 -17487 0
0 0 0 853 889443 -16634 0
0 0 0 893 890336 -15741 0
0 0 0 864 891200 -14877 0
0 0 0 837 892037 -14040 0
0 0 0 881 892918 -13159 0
0 0 0 890 893808 -12269 0
0 0 0 847 894655 -11422 0
0 0 0 828 895483 -10594 0
0 0 0 878 896361 -9716 0
0 0 0 870 897231 -8846 0
0 0 0 810 898041 -8036 0
0 0 0 778 898819 -7258 0
0 0 0 774 899593 -6484 0
0 0 0 798 900391 -5686 0
0 0 0 845 901236 -4841 0
0 0 0 882 902118 -3959 0
0 0 0 822 902940 -3137 0
0 0 0 805 903745 -2332 0
41 1 S102 825 904570 -1507 0
41 1 S102 822 905392 -685 0
41 2 S102 875 906267 190 0
41 2 S102 896 907163 1086 0
41 2 S102 826 907989 1912 0
41 2 S102 792 908781 2704 0
41 2 S102 745 909526 3449 0
41 2 S102 739 910265 4188 0
41 2 S102 791 911056 4979 0
41 2 S102 830 911886 5809 0
41 2 S102 894 912780 6703 0
0 0 0 905 913685 -7462 0
0 0 0 857 914542 -6605 0
0 0 0 846 915388 -5759 0
0 0 0 899 916287 -4860 0
0 0 0 935 917222 -3925 0
0 0 0 908 918130 -3017 0
0 0 0 898 919028 -2119 0
42 1 S112 964 919992 -1155 0
42 1 S112 951 920943 -204 0
42 2 S112 866 921809 662 0
42 2 S112 908 922717 1570 0
42 2 S112 920 923637 2490 0
42 2 S112 891 924528 3381 0
42 2 S112 973 925501 4354 0
42 2 S112 1063 926564 5417 1
42 2 S112 986 927550 6403 0
0 0 0 931 928481 -9393 0
0 0 0 1008 929489 -8385 0
0 0 0 1034 930523 -7351 1
0 0 0 965 931488 -6386 0
0 0 0 881 932369 -5505 0
0 0 0 919 933288 -4586 0
0 0 0 922 934210 -3664 0
0 0 0 877 935087 -2787 0
43 1 S116 943 936030 -1844 0
43 1 S116 953 936983 -891 0
43 2 S116 919 937902 28 0
43 2 S116 883 938785 911 0
43 2 S116 1013 939798 1924 0
43 2 S116 1031 940829 2955 1
43 2 S116 968 941797 3923 0
43 2 S116 924 942721 4847 0
43 2 S116 957 943678 5804 0
43 2 S116 977 944655 6781 0
0 0 0 949 945604 -7390 0
0 0 0 919 946523 -6471 0
0 0 0 961 947484 -5510 0
0 0 0 935 948419 -4575 0
0 0 0 860 949279 -3715 0
0 0 0 875 950154 -2840 0
44 1 S102 889 951043 -1951 0
44 1 S102 847 951890 -1104 0
44 1 S102 872 952762 -232 0
44 2 S102 887 953649 655 0
44 2 S102 879 954528 1534 0
44 2 S102 865 955393 2399 0
44 2 S102 917 956310 3316 0
44 2 S102 944 957254 4260 0
44 2 S102 881 958135 5141 0
44 2 S102 884 959019 6025 0
44 2 S102 876 959895 6901 0
0 0 0 815 960710 -8580 0
0 0 0 829 961539 -7751 0
0 0 0 785 962324 -6966 0
0 0 0 774 963098 -6192 0
0 0 0 782 963880 -5410 0
0 0 0 795 964675 -4615 0
0 0 0 861 965536 -3754 0
0 0 0 899 966435 -2855 0
0 0 0 835 967270 -2020 0
45 1 S116 878 968148 -1142 0
45 1 S116 914 969062 -228 0
45 2 S116 860 969922 632 0
45 2 S116 895 970817 1527 0
45 2 S116 937 971754 2464 0
45 2 S116 961 972715 3425 0
45 2 S116 943 973658 4368 0
45 2 S116 920 974578 5288 0
45 2 S116 964 975542 6252 0
0 0 0 954 976496 -12572 0
0 0 0 939 977435 -11633 0
0 0 0 975 978410 -10658 0
0 0 0 942 979352 -9716 0
0 0 0 918 980270 -8798 0
0 0 0 940 981210 -7858 0
0 0 0 896 982106 -6962 0
0 0 0 858 982964 -6104 0
0 0 0 887 983851 -5217 0
0 0 0 892 984743 -4325 0
0 0 0 857 985600 -3468 0
0 0 0 899 986499 -2569 0
46 1 S102 927 987426 -1642 0
46 1 S102 903 988329 -739 0
46 2 S102 913 989242 174 0
46 2 S102 947 990189 1121 0
46 2 S102 932 991121 2053 0
46 2 S102 906 992027 2959 0
46 2 S102 956 992983 3915 0
46 2 S102 952 993935 4867 0
46 2 S102 878 994813 5745 0
46 2 S102 894 995707 6639 0
0 0 0 892 996599 -9877 0
0 0 0 839 997438 -9038 0
0 0 0 894 998332 -8144 0
0 0 0 927 999259 -7217 0
0 0 0 882 1000141 -6335 0
0 0 0 885 1001026 -5450 0
0 0 0 901 1001927 -4549 0
0 0 0 858 1002785 -3691 0
0 0 0 874 1003659 -2817 0
47 1 S112 911 1004570 -1906 0
47 1 S112 891 1005461 -1015 0
47 1 S112 880 1006341 -135 0
47 2 S112 917 1007258 782 0
47 2 S112 946 1008204 1728 0
47 2 S112 904 1009108 2632 0
47 2 S112 929 1010037 3561 0
47 2 S112 974 1011011 4535 0
47 2 S112 951 1011962 5486 0
47 2 S112 913 1012875 6399 0
0 0 0 958 1013833 -12089 0
0 0 0 968 1014801 -11121 0
0 0 0 920 1015721 -10201 0
0 0 0 898 1016619 -9303 0
0 0 0 915 1017534 -8388 0
0 0 0 898 1018432 -7490 0
0 0 0 843 1019275 -6647 0
0 0 0 838 1020113 -5809 0
0 0 0 848 1020961 -4961 0
0 0 0 827 1021788 -4134 0
0 0 0 822 1022610 -3312 0
0 0 0 907 1023517 -2405 0
48 1 S116 949 1024466 -1456 0
48 1 S116 883 1025349 -573 0
48 2 S116 924 1026273 351 0
48 2 S116 969 1027242 1320 0
48 2 S116 960 1028202 2280 0
48 2 S116 893 1029095 3173 0
48 2 S116 918 1030013 4091 0
48 2 S116 930 1030943 5021 0
48 2 S116 902 1031845 5923 0
48 2 S116 903 1032748 6826 0
0 0 0 940 1033688 -7519 0
0 0 0 928 1034616 -6591 0
0 0 0 864 1035480 -5727 0
0 0 0 889 1036369 -4838 0
0 0 0 819 1037188 -4019 0
0 0 0 773 1037961 -3246 0
0 0 0 775 1038736 -2471 0
49 1 S112 758 1039494 -1713 0
49 1 S112 779 1040273 -934 0
49 1 S112 804 1041077 -130 0
49 2 S112 802 1041879 672 0
49 2 S112 848 1042727 1520 0
49 2 S112 920 1043647 2440 0
49 2 S112 928 1044575 3368 0
49 2 S112 876 1045451 4244 0
49 2 S112 924 1046375 5168 0
49 2 S112 922 1047297 6090 0
49 2 S112 871 1048168 6961 0
0 0 0 878 1049046 -11342 0
0 0 0 910 1049956 -10432 0
0 0 0 898 1050854 -9534 0
0 0 0 849 1051703 -8685 0
0 0 0 876 1052579 -7809 0
0 0 0 871 1053450 -6938 0
0 0 0 849 1054299 -6089 0
0 0 0 891 1055190 -5198 0
0 0 0 883 1056073 -4315 0
0 0 0 824 1056897 -3491 0
0 0 0 856 1057753 -2635 0
50 1 S106 878 1058631 -1757 0
50 1 S106 856 1059487 -901 0
50 1 S106 827 1060314 -74 0
50 2 S106 881 1061195 807 0
50 2 S106 936 1062131 1743 0
50 2 S106 907 1063038 2650 0
50 2 S106 881 1063919 3531 0
50 2 S106 938 1064857 4469 0
50 2 S106 981 1065838 5450 0
50 2 S106 911 1066749 6361 0
0 0 0 867 1067616 -8373 0
0 0 0 876 1068492 -7497 0
0 0 0 874 1069366 -6623 0
0 0 0 845 1070211 -5778 0
0 0 0 784 1070995 -4994 0
0 0 0 796 1071791 -4198 0
0 0 0 827 1072618 -3371 0
0 0 0 894 1073512 -2477 0
51 1 S112 853 1074365 -1624 0
51 1 S112 878 1075243 -746 0
51 2 S112 926 1076169 180 0
51 2 S112 913 1077082 1093 0
51 2 S112 912 1077994 2005 0
51 2 S112 929 1078923 2934 0
51 2 S112 891 1079814 3825 0
51 2 S112 842 1080656 4667 0
51 2 S112 866 1081522 5533 0
51 2 S112 863 1082385 6396 0
0 0 0 824 1083209 -8430 0
0 0 0 839 1084048 -7591 0
0 0 0 884 1084932 -6707 0
0 0 0 894 1085826 -5813 0
0 0 0 867 1086693 -4946 0
0 0 0 903 1087596 -4043 0
0 0 0 890 1088486 -3153 0
0 0 0 864 1089350 -2289 0
52 1 S116 908 1090258 -1381 0
52 1 S116 911 1091169 -470 0
52 2 S116 860 1092029 390 0
52 2 S116 891 1092920 1281 0
52 2 S116 948 1093868 2229 0
52 2 S116 954 1094822 3183 0
52 2 S116 908 1095730 4091 0
52 2 S116 919 1096649 5010 0
52 2 S116 943 1097592 5953 0
52 2 S116 934 1098526 6887 0
0 0 0 885 1099411 -8972 0
0 0 0 924 1100335 -8048 0
0 0 0 931 1101266 -7117 0
0 0 0 850 1102116 -6267 0
0 0 0 862 1102978 -5405 0
0 0 0 878 1103856 -4527 0
0 0 0 859 1104715 -3668 0
0 0 0 829 1105544 -2839 0
53 1 S106 852 1106396 -1987 0
53 1 S106 860 1107256 -1127 0
53 1 S106 826 1108082 -301 0
53 2 S106 852 1108934 551 0
53 2 S106 909 1109843 1460 0
53 2 S106 926 1110769 2386 0
53 2 S106 860 1111629 3246 0
53 2 S106 887 1112516 4133 0
53 2 S106 888 1113404 5021 0
53 2 S106 852 1114256 5873 0
53 2 S106 817 1115073 6690 0
0 0 0 855 1115928 -7823 0
0 0 0 911 1116839 -6912 0
0 0 0 873 1117712 -6039 0
0 0 0 865 1118577 -5174 0
0 0 0 912 1119489 -4262 0
0 0 0 880 1120369 -3382 0
0 0 0 842 1121211 -2540 0
54 1 S102 887 1122098 -1653 0
54 1 S102 868 1122966 -785 0
54 2 S102 811 1123777 26 0
54 2 S102 849 1124626 875 0
54 2 S102 885 1125511 1760 0
54 2 S102 850 1126361 2610 0
54 2 S102 904 1127265 3514 0
54 2 S102 913 1128178 4427 0
54 2 S102 899 1129077 5326 0
54 2 S102 858 1129935 6184 0
0 0 0 896 1130831 -11885 0
0 0 0 903 1131734 -10982 0
0 0 0 863 1132597 -10119 0
0 0 0 881 1133478 -9238 0
0 0 0 881 1134359 -8357 0
0 0 0 833 1135192 -7524 0
0 0 0 844 1136036 -6680 0
0 0 0 867 1136903 -5813 0
0 0 0 836 1137739 -4977 0
0 0 0 834 1138573 -4143 0
0 0 0 861 1139434 -3282 0
0 0 0 869 1140303 -2413 0
55 1 S106 834 1141137 -1579 0
55 1 S106 877 1142014 -702 0
55 2 S106 917 1142931 215 0
55 2 S106 893 1143824 1108 0
55 2 S106 885 1144709 1993 0
55 2 S106 923 1145632 2916 0
55 2 S106 891 1146523 3807 0
55 2 S106 841 1147364 4648 0
55 2 S106 853 1148217 5501 0
55 2 S106 869 1149086 6370 0
0 0 0 861 1149947 -7690 0
0 0 0 843 1150790 -6847 0
0 0 0 886 1151676 -5961 0
0 0 0 905 1152581 -5056 0
0 0 0 829 1153410 -4227 0
0 0 0 838 1154248 -3389 0
0 0 0 822 1155070 -2567 0
56 1 S116 798 1155868 -1769 0
56 1 S116 783 1156651 -986 0
56 1 S116 822 1157473 -164 0
56 2 S116 877 1158350 713 0
56 2 S116 884 1159234 1597 0
56 2 S116 879 1160113 2476 0
56 2 S116 898 1161011 3374 0
56 2 S116 926 1161937 4300 0
56 2 S116 887 1162824 5187 0
56 2 S116 890 1163714 6077 0
56 2 S116 907 1164621 6984 0
0 0 0 926 1165547 -7624 0
0 0 0 847 1166394 -6777 0
0 0 0 869 1167263 -5908 0
0 0 0 894 1168157 -5014 0
0 0 0 834 1168991 -4180 0
0 0 0 842 1169833 -3338 0
0 0 0 886 1170719 -2452 0
57 1 S106 876 1171595 -1576 0
57 1 S106 840 1172435 -736 0
57 2 S106 889 1173324 153 0
57 2 S106 937 1174261 1090 0
57 2 S106 885 1175146 1975 0
57 2 S106 851 1175997 2826 0
57 2 S106 885 1176882 3711 0
57 2 S106 884 1177766 4595 0
57 2 S106 837 1178603 5432 0
57 2 S106 838 1179441 6270 0
0 0 0 843 1180284 -11488 0
0 0 0 814 1181098 -10674 0
0 0 0 817 1181915 -9857 0
0 0 0 853 1182768 -9004 0
0 0 0 898 1183666 -8106 0
0 0 0 825 1184491 -7281 0
0 0 0 758 1185249 -6523 0
0 0 0 865 1186114 -5658 0
0 0 0 840 1186954 -4818 0
0 0 0 854 1187808 -3964 0
0 0 0 875 1188683 -3089 0
0 0 0 879 1189562 -2210 0
58 1 S102 845 1190407 -1365 0
58 1 S102 865 1191272 -500 0
58 2 S102 877 1192149 377 0
58 2 S102 917 1193066 1294 0
58 2 S102 878 1193944 2172 0
58 2 S102 901 1194845 3073 0
58 2 S102 919 1195764 3992 0
58 2 S102 920 1196684 4912 0
58 2 S102 859 1197543 5771 0
58 2 S102 882 1198425 6653 0
0 0 0 884 1199309 -6621 0
0 0 0 877 1200186 -5744 0
0 0 0 835 1201021 -4909 0
0 0 0 810 1201831 -4099 0
0 0 0 782 1202613 -3317 0
0 0 0 750 1203363 -2567 0
59 1 S112 749 1204112 -1818 0
59 1 S112 746 1204858 -1072 0
59 1 S112 761 1205619 -311 0
59 2 S112 780 1206399 469 0
59 2 S112 823 1207222 1292 0
59 2 S112 809 1208031 2101 0
59 2 S112 802 1208833 2903 0
59 2 S112 834 1209667 3737 0
59 2 S112 848 1210515 4585 0
59 2 S112 808 1211323 5393 0
59 2 S112 834 1212157 6227 0
0 0 0 863 1213020 -9985 0
0 0 0 893 1213913 -9092 0
0 0 0 836 1214749 -8256 0
0 0 0 885 1215634 -7371 0
0 0 0 880 1216514 -6491 0
0 0 0 822 1217336 -5669 0
0 0 0 851 1218187 -4818 0
0 0 0 845 1219032 -3973 0
0 0 0 823 1219855 -3150 0
0 0 0 849 1220704 -2301 0
60 1 S102 862 1221566 -1439 0
60 1 S102 817 1222383 -622 0
60 2 S102 848 1223231 226 0
60 2 S102 881 1224112 1107 0
60 2 S102 850 1224962 1957 0
60 2 S102 820 1225782 2777 0
60 2 S102 845 1226627 3622 0
60 2 S102 857 1227484 4479 0
60 2 S102 819 1228303 5298 0
60 2 S102 863 1229166 6161 0
0 0 0 883 1230049 -11159 0
0 0 0 844 1230893 -10315 0
0 0 0 854 1231747 -9461 0
0 0 0 861 1232608 -8600 0
0 0 0 842 1233450 -7758 0
0 0 0 833 1234283 -6925 0
0 0 0 866 1235149 -6059 0
0 0 0 858 1236007 -5201 0
0 0 0 826 1236833 -4375 0
0 0 0 884 1237717 -3491 0
0 0 0 892 1238609 -2599 0
61 1 S106 843 1239452 -1756 0
61 1 S106 836 1240288 -920 0
61 1 S106 851 1241139 -69 0
61 2 S106 832 1241971 763 0
61 2 S106 842 1242813 1605 0
61 2 S106 893 1243706 2498 0
61 2 S106 916 1244622 3414 0
61 2 S106 890 1245512 4304 0
61 2 S106 894 1246406 5198 0
61 2 S106 946 1247352 6144 0
0 0 0 931 1248283 -8061 0
0 0 0 882 1249165 -7179 0
0 0 0 874 1250039 -6305 0
0 0 0 882 1250921 -5423 0
0 0 0 818 1251739 -4605 0
0 0 0 847 1252586 -3758 0
0 0 0 925 1253511 -2833 0
62 1 S112 930 1254441 -1903 0
62 1 S112 877 1255318 -1026 0
62 1 S112 963 1256281 -63 0
62 2 S112 990 1257271 927 0
62 2 S112 914 1258185 1841 0
62 2 S112 923 1259108 2764 0
62 2 S112 933 1260041 3697 0
62 2 S112 876 1260917 4573 0
62 2 S112 851 1261768 5424 0
62 2 S112 889 1262657 6313 0
0 0 0 975 1263632 -11827 0
0 0 0 908 1264540 -10919 0
0 0 0 856 1265396 -10063 0
0 0 0 921 1266317 -9142 0
0 0 0 897 1267214 -8245 0
0 0 0 853 1268067 -7392 0
0 0 0 902 1268969 -6490 0
0 0 0 910 1269879 -5580 0
0 0 0 888 1270767 -4692 0
0 0 0 922 1271689 -3770 0
0 0 0 947 1272636 -2823 0
63 1 S102 890 1273526 -1933 0
63 1 S102 902 1274428 -1031 0
63 1 S102 909 1275337 -122 0
63 2 S102 865 1276202 743 0
63 2 S102 843 1277045 1586 0
63 2 S102 884 1277929 2470 0
63 2 S102 893 1278822 3363 0
63 2 S102 861 1279683 4224 0
63 2 S102 912 1280595 5136 0
63 2 S102 937 1281532 6073 0
63 2 S102 904 1282436 6977 0
0 0 0 886 1283322 -9180 0
0 0 0 926 1284248 -8254 0
0 0 0 913 1285161 -7341 0
0 0 0 830 1285991 -6511 0
0 0 0 851 1286842 -5660 0
0 0 0 869 1287711 -4791 0
0 0 0 871 1288582 -3920 0
0 0 0 835 1289417 -3085 0
0 0 0 947 1290364 -2138 0
64 1 S112 952 1291316 -1186 0
64 1 S112 884 1292200 -302 0
64 2 S112 878 1293078 576 0
64 2 S112 957 1294035 1533 0
64 2 S112 925 1294960 2458 0
64 2 S112 863 1295823 3321 0
64 2 S112 895 1296718 4216 0
64 2 S112 892 1297610 5108 0
64 2 S112 876 1298486 5984 0
64 2 S112 831 1299317 6815 0
0 0 0 879 1300196 -8586 0
0 0 0 901 1301097 -7685 0
0 0 0 874 1301971 -6811 0
0 0 0 864 1302835 -5947 0
0 0 0 904 1303739 -5043 0
0 0 0 908 1304647 -4135 0
0 0 0 810 1305457 -3325 0
0 0 0 809 1306266 -2516 0
65 1 S106 771 1307037 -1745 0
65 1 S106 760 1307797 -985 0
65 1 S106 754 1308551 -231 0
65 2 S106 759 1309310 528 0
65 2 S106 814 1310124 1342 0
65 2 S106 877 1311001 2219 0
65 2 S106 856 1311857 3075 0
65 2 S106 868 1312725 3943 0
65 2 S106 908 1313633 4851 0
65 2 S106 972 1314605 5823 0
65 2 S106 897 1315502 6720 0
0 0 0 895 1316397 -8847 0
0 0 0 910 1317307 -7937 0
0 0 0 882 1318189 -7055 0
0 0 0 810 1318999 -6245 0
0 0 0 849 1319848 -5396 0
0 0 0 917 1320765 -4479 0
0 0 0 898 1321663 -3581 0
0 0 0 853 1322516 -2728 0
66 1 S116 892 1323408 -1836 0
66 1 S116 901 1324309 -935 0
66 1 S116 846 1325155 -89 0
66 2 S116 896 1326051 807 0
66 2 S116 990 1327041 1797 0
66 2 S116 994 1328035 2791 0
66 2 S116 945 1328980 3736 0
66 2 S116 1003 1329983 4739 0
66 2 S116 997 1330980 5736 0
66 2 S116 953 1331933 6689 0
0 0 0 982 1332915 -11709 0
0 0 0 980 1333895 -10729 0
0 0 0 919 1334814 -9810 0
0 0 0 919 1335733 -8891 0
0 0 0 931 1336664 -7960 0
0 0 0 900 1337564 -7060 0
0 0 0 914 1338478 -6146 0
0 0 0 934 1339412 -5212 0
0 0 0 897 1340309 -4315 0
0 0 0 880 1341189 -3435 0
0 0 0 897 1342086 -2538 0
67 1 S102 894 1342980 -1644 0
67 1 S102 859 1343839 -785 0
67 2 S102 910 1344749 125 0
67 2 S102 947 1345696 1072 0
67 2 S102 890 1346586 1962 0
67 2 S102 913 1347499 2875 0
67 2 S102 909 1348408 3784 0
67 2 S102 868 1349276 4652 0
67 2 S102 862 1350138 5514 0
67 2 S102 874 1351012 6388 0
0 0 0 865 1351877 -7038 0
0 0 0 834 1352711 -6204 0
0 0 0 880 1353591 -5324 0
0 0 0 871 1354462 -4453 0
0 0 0 816 1355278 -3637 0
0 0 0 839 1356117 -2798 0
68 1 S106 858 1356975 -1940 0
68 1 S106 816 1357791 -1124 0
68 1 S106 851 1358642 -273 0
68 2 S106 913 1359555 640 0
68 2 S106 885 1360440 1525 0
68 2 S106 871 1361311 2396 0
68 2 S106 939 1362250 3335 0
68 2 S106 908 1363158 4243 0
68 2 S106 839 1363997 5082 0
68 2 S106 823 1364820 5905 0
68 2 S106 852 1365672 6757 0
0 0 0 903 1366575 -11736 0
0 0 0 902 1367477 -10834 0
0 0 0 873 1368350 -9961 0
0 0 0 944 1369294 -9017 0
0 0 0 955 1370249 -8062 0
0 0 0 886 1371135 -7176 0
0 0 0 926 1372061 -6250 0
0 0 0 919 1372980 -5331 0
0 0 0 862 1373842 -4469 0
0 0 0 854 1374696 -3615 0
0 0 0 844 1375540 -2771 0
69 1 S102 835 1376375 -1936 0
69 1 S102 822 1377197 -1114 0
69 1 S102 876 1378073 -238 0
69 2 S102 905 1378978 667 0
69 2 S102 889 1379867 1556 0
69 2 S102 911 1380778 2467 0
69 2 S102 925 1381703 3392 0
69 2 S102 875 1382578 4267 0
69 2 S102 906 1383484 5173 0
69 2 S102 918 1384402 6091 0
69 2 S102 879 1385281 6970 0
0 0 0 871 1386152 -8920 0
0 0 0 892 1387044 -8028 0
0 0 0 891 1387935 -7137 0
0 0 0 823 1388758 -6314 0
0 0 0 858 1389616 -5456 0
0 0 0 878 1390494 -4578 0
0 0 0 849 1391343 -3729 0
0 0 0 906 1392249 -2823 0
70 1 S112 895 1393144 -1928 0
70 1 S112 848 1393992 -1080 0
70 1 S112 857 1394849 -223 0
70 2 S112 888 1395737 665 0
70 2 S112 920 1396657 1585 0
70 2 S112 867 1397524 2452 0
70 2 S112 931 1398455 3383 0
70 2 S112 961 1399416 4344 0
70 2 S112 890 1400306 5234 0
70 2 S112 866 1401172 6100 0
70 2 S112 906 1402078 7006 0
0 0 0 903 1402981 -12250 0
0 0 0 842 1403823 -11408 0
0 0 0 890 1404713 -10518 0
0 0 0 947 1405660 -9571 0
0 0 0 904 1406564 -8667 0
0 0 0 915 1407479 -7752 0
0 0 0 943 1408422 -6809 0
0 0 0 886 1409308 -5923 0
0 0 0 927 1410235 -4996 0
0 0 0 926 1411161 -4070 0
0 0 0 875 1412036 -3195 0
0 0 0 925 1412961 -2270 0
71 1 S116 933 1413894 -1337 0
71 1 S116 893 1414787 -444 0
71 2 S116 889 1415676 445 0
71 2 S116 956 1416632 1401 0
71 2 S116 992 1417624 2393 0
71 2 S116 925 1418549 3318 0
71 2 S116 942 1419491 4260 0
71 2 S116 978 1420469 5238 0
71 2 S116 966 1421435 6204 0
0 0 0 919 1422354 -9837 0
0 0 0 946 1423300 -8891 0
0 0 0 932 1424232 -7959 0
0 0 0 876 1425108 -7083 0
0 0 0 867 1425975 -6216 0
0 0 0 899 1426874 -5317 0
0 0 0 853 1427727 -4464 0
0 0 0 861 1428588 -3603 0
0 0 0 894 1429482 -2709 0
72 1 S102 865 1430347 -1844 0
72 1 S102 829 1431176 -1015 0
72 1 S102 861 1432037 -154 0
72 2 S102 878 1432915 724 0
72 2 S102 840 1433755 1564 0
72 2 S102 858 1434613 2422 0
72 2 S102 892 1435505 3314 0
72 2 S102 875 1436380 4189 0
72 2 S102 831 1437211 5020 0
72 2 S102 859 1438070 5879 0
72 2 S102 866 1438936 6745 0
0 0 0 854 1439790 -6642 0
0 0 0 893 1440683 -5749 0
0 0 0 904 1441587 -4845 0
0 0 0 881 1442468 -3964 0
0 0 0 822 1443290 -3142 0
0 0 0 880 1444170 -2262 0
73 1 S116 918 1445088 -1344 0
73 1 S116 874 1445962 -470 0
73 2 S116 854 1446816 384 0
73 2 S116 901 1447717 1285 0
73 2 S116 976 1448693 2261 0
73 2 S116 937 1449630 3198 0
73 2 S116 945 1450575 4143 0
73 2 S116 978 1451553 5121 0
73 2 S116 927 1452480 6048 0
73 2 S116 887 1453367 6935 0
0 0 0 948 1454315 -8861 0
0 0 0 963 1455278 -7898 0
0 0 0 891 1456169 -7007 0
0 0 0 860 1457029 -6147 0
0 0 0 845 1457874 -5302 0
0 0 0 812 1458686 -4490 0
0 0 0 767 1459453 -3723 0
0 0 0 787 1460240 -2936 0
0 0 0 768 1461008 -2168 0
74 1 S106 753 1461761 -1415 0
74 1 S106 801 1462562 -614 0
74 2 S106 797 1463359 183 0
74 2 S106 864 1464223 1047 0
74 2 S106 912 1465135 1959 0
74 2 S106 882 1466017 2841 0
74 2 S106 888 1466905 3729 0
74 2 S106 939 1467844 4668 0
74 2 S106 920 1468764 5588 0
74 2 S106 885 1469649 6473 0
0 0 0 920 1470569 -7246 0
0 0 0 907 1471476 -6339 0
0 0 0 845 1472321 -5494 0
0 0 0 851 1473172 -4643 0
0 0 0 826 1473998 -3817 0
0 0 0 771 1474769 -3046 0
0 0 0 808 1475577 -2238 0
75 1 S112 844 1476421 -1394 0
75 1 S112 848 1477269 -546 0
75 2 S112 916 1478185 370 0
75 2 S112 963 1479148 1333 0
75 2 S112 916 1480064 2249 0
75 2 S112 946 1481010 3195 0
75 2 S112 985 1481995 4180 0
75 2 S112 935 1482930 5115 0
75 2 S112 926 1483856 6041 0
75 2 S112 970 1484826 7011 0
0 0 0 912 1485738 -6633 0
0 0 0 911 1486649 -5722 0
0 0 0 919 1487568 -4803 0
0 0 0 886 1488454 -3917 0
0 0 0 853 1489307 -3064 0
0 0 0 921 1490228 -2143 0
76 1 S116 941 1491169 -1202 0
76 1 S116 890 1492059 -312 0
76 2 S116 932 1492991 620 0
76 2 S116 994 1493985 1614 0
76 2 S116 943 1494928 2557 0
76 2 S116 915 1495843 3472 0
76 2 S116 942 1496785 4414 0
76 2 S116 963 1497748 5377 0
76 2 S116 924 1498672 6301 0
0 0 0 943 1499615 -8687 0
0 0 0 956 1500571 -7731 0
0 0 0 933 1501504 -6798 0
0 0 0 910 1502414 -5888 0
0 0 0 968 1503382 -4920 0
0 0 0 932 1504314 -3988 0
0 0 0 862 1505176 -3126 0
0 0 0 877 1506053 -2249 0
77 1 S106 870 1506923 -1379 0
77 1 S106 829 1507752 -550 0
77 2 S106 834 1508586 284 0
77 2 S106 864 1509450 1148 0
77 2 S106 882 1510332 2030 0
77 2 S106 862 1511194 2892 0
77 2 S106 916 1512110 3808 0
77 2 S106 950 1513060 4758 0
77 2 S106 942 1514002 5700 0
77 2 S106 934 1514936 6634 0
0 0 0 955 1515891 -9404 0
0 0 0 920 1516811 -8484 0
0 0 0 850 1517661 -7634 0
0 0 0 877 1518538 -6757 0
0 0 0 839 1519377 -5918 0
0 0 0 787 1520164 -5131 0
0 0 0 812 1520976 -4319 0
0 0 0 837 1521813 -3482 0
0 0 0 828 1522641 -2654 0
78 1 S112 777 1523418 -1877 0
78 1 S112 845 1524263 -1032 0
78 1 S112 945 1525208 -87 0
78 2 S112 1022 1526230 935 0
78 2 S112 967 1527197 1902 0
78 2 S112 892 1528089 2794 0
78 2 S112 920 1529009 3714 0
78 2 S112 893 1529902 4607 0
78 2 S112 849 1530751 5456 0
78 2 S112 870 1531621 6326 0
0 0 0 890 1532511 -11783 0
0 0 0 881 1533392 -10902 0
0 0 0 873 1534265 -10029 0
0 0 0 903 1535168 -9126 0
0 0 0 868 1536036 -8258 0
0 0 0 801 1536837 -7457 0
0 0 0 788 1537625 -6669 0
0 0 0 760 1538385 -5909 0
0 0 0 764 1539149 -5145 0
0 0 0 777 1539926 -4368 0
0 0 0 772 1540698 -3596 0
0 0 0 821 1541519 -2775 0
79 1 S102 860 1542379 -1915 0
79 1 S102 857 1543236 -1058 0
79 1 S102 927 1544163 -131 0
79 2 S102 938 1545101 807 0
79 2 S102 935 1546036 1742 0
79 2 S102 895 1546931 2637 0
79 2 S102 926 1547857 3563 0
79 2 S102 942 1548799 4505 0
79 2 S102 879 1549678 5384 0
79 2 S102 907 1550585 6291 0
0 0 0 913 1551498 -9341 0
0 0 0 878 1552376 -8463 0
0 0 0 868 1553244 -7595 0
0 0 0 860 1554104 -6735 0
0 0 0 823 1554927 -5912 0
0 0 0 814 1555741 -5098 0
0 0 0 869 1556610 -4229 0
0 0 0 875 1557485 -3354 0
0 0 0 831 1558316 -2523 0
80 1 S116 906 1559222 -1617 0
80 1 S116 944 1560166 -673 0
80 2 S116 884 1561050 211 0
80 2 S116 928 1561978 1139 0
80 2 S116 979 1562957 2118 0
80 2 S116 908 1563865 3026 0
80 2 S116 913 1564778 3939 0
80 2 S116 934 1565712 4873 0
80 2 S116 889 1566601 5762 0
80 2 S116 857 1567458 6619 0
