T_0010
BeatCount Mean SD BeatCountNoOutliers MeanNoOutliers SDNoOutliers
2079 710,943722943723 83,1646800712272 2047 706,428920371275 75,0258942403717

Trial TrialStatus Trialtype IBI AbsPosition RelPosition Outlier
0 0 0 638 720 -15052 0
0 0 0 645 1365 -14407 0
0 0 0 637 2002 -13770 0
0 0 0 626 2628 -13144 0
0 0 0 615 3243 -12529 0
0 0 0 613 3856 -11916 0
0 0 0 614 4470 -11302 0
0 0 0 613 5083 -10689 0
0 0 0 625 5708 -10064 0
0 0 0 631 6339 -9433 0
0 0 0 639 6978 -8794 0
0 0 0 640 7618 -8154 0
0 0 0 647 8265 -7507 0
0 0 0 637 8902 -6870 0
0 0 0 631 9533 -6239 0
0 0 0 637 10170 -5602 0
0 0 0 640 10810 -4962 0
0 0 0 646 11456 -4316 0
0 0 0 634 12090 -3682 0
0 0 0 632 12722 -3050 0
0 0 0 652 13374 -2398 0
1 1 S112 657 14031 -1741 0
1 1 S112 673 14704 -1068 0
1 1 S112 673 15377 -395 0
1 2 S112 674 16051 279 0
1 2 S112 658 16709 937 0
1 2 S112 665 17374 1602 0
1 2 S112 686 18060 2288 0
1 2 S112 684 18744 2972 0
1 2 S112 678 19422 3650 0
1 2 S112 681 20103 4331 0
1 2 S112 672 20775 5003 0
1 2 S112 663 21438 5666 0
1 2 S112 649 22087 6315 0
1 2 S112 642 22729 6957 0
0 0 0 632 23361 -10547 0
0 0 0 631 23992 -9916 0
0 0 0 633 24625 -9283 0
0 0 0 627 25252 -8656 0
0 0 0 626 25878 -8030 0
0 0 0 623 26501 -7407 0
0 0 0 611 27112 -6796 0
0 0 0 613 27725 -6183 0
0 0 0 627 28352 -5556 0
0 0 0 640 28992 -4916 0
0 0 0 662 29654 -4254 0
0 0 0 686 30340 -3568 0
0 0 0 696 31036 -2872 0
0 0 0 716 31752 -2156 0
2 1 S102 715 32467 -1441 0
2 1 S102 689 33156 -752 0
2 1 S102 669 33825 -83 0
2 2 S102 653 34478 570 0
2 2 S102 647 35125 1217 0
2 2 S102 630 35755 1847 0
2 2 S102 610 36365 2457 0
2 2 S102 594 36959 3051 0
2 2 S102 586 37545 3637 0
2 2 S102 577 38122 4214 0
2 2 S102 570 38692 4784 0
2 2 S102 564 39256 5348 0
2 2 S102 560 39816 5908 0
2 2 S102 567 40383 6475 0
0 0 0 582 40965 -8975 0
0 0 0 574 41539 -8401 0
0 0 0 600 42139 -7801 0
0 0 0 629 42768 -7172 0
0 0 0 642 43410 -6530 0
0 0 0 646 44056 -5884 0
0 0 0 648 44704 -5236 0
0 0 0 649 45353 -4587 0
0 0 0 644 45997 -3943 0
0 0 0 655 46652 -3288 0
0 0 0 662 47314 -2626 0
3 1 S116 681 47995 -1945 0
3 1 S116 689 48684 -1256 0
3 1 S116 703 49387 -553 0
3 2 S116 690 50077 137 0
3 2 S116 684 50761 821 0
3 2 S116 699 51460 1520 0
3 2 S116 711 52171 2231 0
3 2 S116 709 52880 2940 0
3 2 S116 706 53586 3646 0
3 2 S116 709 54295 4355 0
3 2 S116 709 55004 5064 0
3 2 S116 702 55706 5766 0
3 2 S116 692 56398 6458 0
0 0 0 691 57089 -11219 0
0 0 0 692 57781 -10527 0
0 0 0 681 58462 -9846 0
0 0 0 673 59135 -9173 0
0 0 0 672 59807 -8501 0
0 0 0 667 60474 -7834 0
0 0 0 663 61137 -7171 0
0 0 0 664 61801 -6507 0
0 0 0 660 62461 -5847 0
0 0 0 664 63125 -5183 0
0 0 0 678 63803 -4505 0
0 0 0 678 64481 -3827 0
0 0 0 676 65157 -3151 0
0 0 0 675 65832 -2476 0
4 1 S106 672 66504 -1804 0
4 1 S106 677 67181 -1127 0
4 1 S106 676 67857 -451 0
4 2 S106 672 68529 221 0
4 2 S106 674 69203 895 0
4 2 S106 674 69877 1569 0
4 2 S106 675 70552 2244 0
4 2 S106 668 71220 2912 0
4 2 S106 665 71885 3577 0
4 2 S106 671 72556 4248 0
4 2 S106 683 73239 4931 0
4 2 S106 681 73920 5612 0
4 2 S106 675 74595 6287 0
4 2 S106 674 75269 6961 0
0 0 0 669 75938 -6280 0
0 0 0 668 76606 -5612 0
0 0 0 662 77268 -4950 0
0 0 0 654 77922 -4296 0
0 0 0 647 78569 -3649 0
0 0 0 643 79212 -3006 0
0 0 0 634 79846 -2372 0
5 1 S116 627 80473 -1745 0
5 1 S116 626 81099 -1119 0
5 1 S116 623 81722 -496 0
5 2 S116 619 82341 123 0
5 2 S116 608 82949 731 0
5 2 S116 610 83559 1341 0
5 2 S116 610 84169 1951 0
5 2 S116 611 84780 2562 0
5 2 S116 627 85407 3189 0
5 2 S116 641 86048 3830 0
5 2 S116 645 86693 4475 0
5 2 S116 664 87357 5139 0
5 2 S116 681 88038 5820 0
5 2 S116 701 88739 6521 0
0 0 0 701 89440 -8162 0
0 0 0 697 90137 -7465 0
0 0 0 693 90830 -6772 0
0 0 0 676 91506 -6096 0
0 0 0 688 92194 -5408 0
0 0 0 675 92869 -4733 0
0 0 0 672 93541 -4061 0
0 0 0 668 94209 -3393 0
0 0 0 664 94873 -2729 0
0 0 0 657 95530 -2072 0
6 1 S106 648 96178 -1424 0
6 1 S106 638 96816 -786 0
6 1 S106 632 97448 -154 0
6 2 S106 626 98074 472 0
6 2 S106 629 98703 1101 0
6 2 S106 636 99339 1737 0
6 2 S106 639 99978 2376 0
6 2 S106 644 100622 3020 0
6 2 S106 649 101271 3669 0
6 2 S106 655 101926 4324 0
6 2 S106 652 102578 4976 0
6 2 S106 652 103230 5628 0
6 2 S106 654 103884 6282 0
6 2 S106 646 104530 6928 0
0 0 0 649 105179 -10527 0
0 0 0 656 105835 -9871 0
0 0 0 653 106488 -9218 0
0 0 0 652 107140 -8566 0
0 0 0 655 107795 -7911 0
0 0 0 647 108442 -7264 0
0 0 0 642 109084 -6622 0
0 0 0 638 109722 -5984 0
0 0 0 638 110360 -5346 0
0 0 0 635 110995 -4711 0
0 0 0 638 111633 -4073 0
0 0 0 641 112274 -3432 0
0 0 0 648 112922 -2784 0
0 0 0 634 113556 -2150 0
7 1 S102 633 114189 -1517 0
7 1 S102 621 114810 -896 0
7 1 S102 608 115418 -288 0
7 2 S102 594 116012 306 0
7 2 S102 581 116593 887 0
7 2 S102 569 117162 1456 0
7 2 S102 559 117721 2015 0
7 2 S102 552 118273 2567 0
7 2 S102 550 118823 3117 0
7 2 S102 564 119387 3681 0
7 2 S102 581 119968 4262 0
7 2 S102 586 120554 4848 0
7 2 S102 594 121148 5442 0
7 2 S102 600 121748 6042 0
7 2 S102 617 122365 6659 0
0 0 0 622 122987 -9132 0
0 0 0 633 123620 -8499 0
0 0 0 630 124250 -7869 0
0 0 0 626 124876 -7243 0
0 0 0 627 125503 -6616 0
0 0 0 624 126127 -5992 0
0 0 0 627 126754 -5365 0
0 0 0 633 127387 -4732 0
0 0 0 635 128022 -4097 0
0 0 0 642 128664 -3455 0
0 0 0 638 129302 -2817 0
0 0 0 627 129929 -2190 0
8 1 S112 627 130556 -1563 0
8 1 S112 624 131180 -939 0
8 1 S112 622 131802 -317 0
8 2 S112 608 132410 291 0
8 2 S112 592 133002 883 0
8 2 S112 593 133595 1476 0
8 2 S112 611 134206 2087 0
8 2 S112 628 134834 2715 0
8 2 S112 670 135504 3385 0
8 2 S112 684 136188 4069 0
8 2 S112 718 136906 4787 0
8 2 S112 730 137636 5517 0
8 2 S112 742 138378 6259 0
8 2 S112 747 139125 7006 0
0 0 0 758 139883 -8532 0
0 0 0 722 140605 -7810 0
0 0 0 704 141309 -7106 0
0 0 0 702 142011 -6404 0
0 0 0 697 142708 -5707 0
0 0 0 685 143393 -5022 0
0 0 0 684 144077 -4338 0
0 0 0 670 144747 -3668 0
0 0 0 666 145413 -3002 0
0 0 0 661 146074 -2341 0
9 1 S116 651 146725 -1690 0
9 1 S116 652 147377 -1038 0
9 1 S116 649 148026 -389 0
9 2 S116 652 148678 263 0
9 2 S116 645 149323 908 0
9 2 S116 647 149970 1555 0
9 2 S116 646 150616 2201 0
9 2 S116 651 151267 2852 0
9 2 S116 648 151915 3500 0
9 2 S116 647 152562 4147 0
9 2 S116 637 153199 4784 0
9 2 S116 641 153840 5425 0
9 2 S116 648 154488 6073 0
9 2 S116 642 155130 6715 0
0 0 0 646 155776 -12119 0
0 0 0 653 156429 -11466 0
0 0 0 659 157088 -10807 0
0 0 0 655 157743 -10152 0
0 0 0 658 158401 -9494 0
0 0 0 661 159062 -8833 0
0 0 0 653 159715 -8180 0
0 0 0 652 160367 -7528 0
0 0 0 648 161015 -6880 0
0 0 0 641 161656 -6239 0
0 0 0 638 162294 -5601 0
0 0 0 635 162929 -4966 0
0 0 0 636 163565 -4330 0
0 0 0 644 164209 -3686 0
0 0 0 640 164849 -3046 0
0 0 0 641 165490 -2405 0
10 1 S102 649 166139 -1756 0
10 1 S102 657 166796 -1099 0
10 1 S102 661 167457 -438 0
10 2 S102 662 168119 224 0
10 2 S102 654 168773 878 0
10 2 S102 659 169432 1537 0
10 2 S102 658 170090 2195 0
10 2 S102 660 170750 2855 0
10 2 S102 658 171408 3513 0
10 2 S102 660 172068 4173 0
10 2 S102 653 172721 4826 0
10 2 S102 655 173376 5481 0
10 2 S102 653 174029 6134 0
10 2 S102 645 174674 6779 0
0 0 0 641 175315 -10186 0
0 0 0 641 175956 -9545 0
0 0 0 644 176600 -8901 0
0 0 0 639 177239 -8262 0
0 0 0 635 177874 -7627 0
0 0 0 631 178505 -6996 0
0 0 0 637 179142 -6359 0
0 0 0 640 179782 -5719 0
0 0 0 640 180422 -5079 0
0 0 0 634 181056 -4445 0
0 0 0 626 181682 -3819 0
0 0 0 622 182304 -3197 0
0 0 0 616 182920 -2581 0
11 1 S112 620 183540 -1961 0
11 1 S112 616 184156 -1345 0
11 1 S112 633 184789 -712 0
11 1 S112 648 185437 -64 0
11 2 S112 665 186102 601 0
11 2 S112 672 186774 1273 0
11 2 S112 697 187471 1970 0
11 2 S112 707 188178 2677 0
11 2 S112 698 188876 3375 0
11 2 S112 702 189578 4077 0
11 2 S112 691 190269 4768 0
11 2 S112 692 190961 5460 0
11 2 S112 675 191636 6135 0
11 2 S112 663 192299 6798 0
0 0 0 653 192952 -8448 0
0 0 0 638 193590 -7810 0
0 0 0 626 194216 -7184 0
0 0 0 619 194835 -6565 0
0 0 0 631 195466 -5934 0
0 0 0 641 196107 -5293 0
0 0 0 657 196764 -4636 0
0 0 0 663 197427 -3973 0
0 0 0 681 198108 -3292 0
0 0 0 699 198807 -2593 0
12 1 S116 690 199497 -1903 0
12 1 S116 689 200186 -1214 0
12 1 S116 679 200865 -535 0
12 2 S116 671 201536 136 0
12 2 S116 688 202224 824 0
12 2 S116 714 202938 1538 0
12 2 S116 720 203658 2258 0
12 2 S116 729 204387 2987 0
12 2 S116 719 205106 3706 0
12 2 S116 736 205842 4442 0
12 2 S116 733 206575 5175 0
12 2 S116 729 207304 5904 0
12 2 S116 722 208026 6626 0
0 0 0 734 208760 -11208 0
0 0 0 735 209495 -10473 0
0 0 0 715 210210 -9758 0
0 0 0 692 210902 -9066 0
0 0 0 680 211582 -8386 0
0 0 0 677 212259 -7709 0
0 0 0 682 212941 -7027 0
0 0 0 667 213608 -6360 0
0 0 0 668 214276 -5692 0
0 0 0 660 214936 -5032 0
0 0 0 658 215594 -4374 0
0 0 0 650 216244 -3724 0
0 0 0 655 216899 -3069 0
0 0 0 654 217553 -2415 0
13 1 S112 655 218208 -1760 0
13 1 S112 656 218864 -1104 0
13 1 S112 655 219519 -449 0
13 2 S112 660 220179 211 0
13 2 S112 668 220847 879 0
13 2 S112 697 221544 1576 0
13 2 S112 693 222237 2269 0
13 2 S112 697 222934 2966 0
13 2 S112 710 223644 3676 0
13 2 S112 710 224354 4386 0
13 2 S112 714 225068 5100 0
13 2 S112 701 225769 5801 0
13 2 S112 709 226478 6510 0
0 0 0 703 227181 -10874 0
0 0 0 690 227871 -10184 0
0 0 0 674 228545 -9510 0
0 0 0 664 229209 -8846 0
0 0 0 662 229871 -8184 0
0 0 0 663 230534 -7521 0
0 0 0 652 231186 -6869 0
0 0 0 645 231831 -6224 0
0 0 0 642 232473 -5582 0
0 0 0 640 233113 -4942 0
0 0 0 639 233752 -4303 0
0 0 0 645 234397 -3658 0
0 0 0 647 235044 -3011 0
0 0 0 643 235687 -2368 0
14 1 S106 649 236336 -1719 0
14 1 S106 648 236984 -1071 0
14 1 S106 641 237625 -430 0
14 2 S106 629 238254 199 0
14 2 S106 613 238867 812 0
14 2 S106 597 239464 1409 0
14 2 S106 589 240053 1998 0
14 2 S106 587 240640 2585 0
14 2 S106 604 241244 3189 0
14 2 S106 639 241883 3828 0
14 2 S106 672 242555 4500 0
14 2 S106 725 243280 5225 0
14 2 S106 697 243977 5922 0
14 2 S106 918 244895 6840 0
0 0 0 818 245713 -9815 0
0 0 0 787 246500 -9028 0
0 0 0 736 247236 -8292 0
0 0 0 708 247944 -7584 0
0 0 0 711 248655 -6873 0
0 0 0 725 249380 -6148 0
0 0 0 701 250081 -5447 0
0 0 0 690 250771 -4757 0
0 0 0 671 251442 -4086 0
0 0 0 661 252103 -3425 0
0 0 0 652 252755 -2773 0
0 0 0 644 253399 -2129 0
15 1 S116 634 254033 -1495 0
15 1 S116 626 254659 -869 0
15 1 S116 623 255282 -246 0
15 2 S116 619 255901 373 0
15 2 S116 633 256534 1006 0
15 2 S116 645 257179 1651 0
15 2 S116 664 257843 2315 0
15 2 S116 663 258506 2978 0
15 2 S116 678 259184 3656 0
15 2 S116 683 259867 4339 0
15 2 S116 712 260579 5051 0
15 2 S116 700 261279 5751 0
15 2 S116 690 261969 6441 0
0 0 0 693 262662 -9892 0
0 0 0 684 263346 -9208 0
0 0 0 670 264016 -8538 0
0 0 0 674 264690 -7864 0
0 0 0 674 265364 -7190 0
0 0 0 670 266034 -6520 0
0 0 0 664 266698 -5856 0
0 0 0 671 267369 -5185 0
0 0 0 662 268031 -4523 0
0 0 0 671 268702 -3852 0
0 0 0 669 269371 -3183 0
0 0 0 670 270041 -2513 0
16 1 S116 663 270704 -1850 0
16 1 S116 632 271336 -1218 0
16 1 S116 632 271968 -586 0
16 2 S116 614 272582 28 0
16 2 S116 614 273196 642 0
16 2 S116 618 273814 1260 0
16 2 S116 613 274427 1873 0
16 2 S116 608 275035 2481 0
16 2 S116 601 275636 3082 0
16 2 S116 599 276235 3681 0
16 2 S116 599 276834 4280 0
16 2 S116 595 277429 4875 0
16 2 S116 597 278026 5472 0
16 2 S116 601 278627 6073 0
16 2 S116 594 279221 6667 0
0 0 0 597 279818 -7872 0
0 0 0 613 280431 -7259 0
0 0 0 617 281048 -6642 0
0 0 0 614 281662 -6028 0
0 0 0 617 282279 -5411 0
0 0 0 625 282904 -4786 0
0 0 0 628 283532 -4158 0
0 0 0 635 284167 -3523 0
0 0 0 637 284804 -2886 0
0 0 0 640 285444 -2246 0
17 1 S106 640 286084 -1606 0
17 1 S106 658 286742 -948 0
17 1 S106 663 287405 -285 0
17 2 S106 675 288080 390 0
17 2 S106 671 288751 1061 0
17 2 S106 687 289438 1748 0
17 2 S106 693 290131 2441 0
17 2 S106 698 290829 3139 0
17 2 S106 694 291523 3833 0
17 2 S106 703 292226 4536 0
17 2 S106 708 292934 5244 0
17 2 S106 702 293636 5946 0
17 2 S106 695 294331 6641 0
0 0 0 682 295013 -10532 0
0 0 0 684 295697 -9848 0
0 0 0 686 296383 -9162 0
0 0 0 675 297058 -8487 0
0 0 0 670 297728 -7817 0
0 0 0 666 298394 -7151 0
0 0 0 642 299036 -6509 0
0 0 0 624 299660 -5885 0
0 0 0 602 300262 -5283 0
0 0 0 603 300865 -4680 0
0 0 0 607 301472 -4073 0
0 0 0 619 302091 -3454 0
0 0 0 623 302714 -2831 0
0 0 0 695 303409 -2136 0
18 1 S102 773 304182 -1363 0
18 1 S102 500 304682 -863 0
18 2 S102 903 305585 40 0
18 2 S102 835 306420 875 0
18 2 S102 984 307404 1859 1
18 2 S102 765 308169 2624 0
18 2 S102 733 308902 3357 0
18 2 S102 722 309624 4079 0
18 2 S102 704 310328 4783 0
18 2 S102 698 311026 5481 0
18 2 S102 684 311710 6165 0
18 2 S102 695 312405 6860 0
0 0 0 676 313081 -6059 0
0 0 0 672 313753 -5387 0
0 0 0 671 314424 -4716 0
0 0 0 663 315087 -4053 0
0 0 0 668 315755 -3385 0
0 0 0 679 316434 -2706 0
0 0 0 689 317123 -2017 0
19 1 S106 716 317839 -1301 0
19 1 S106 727 318566 -574 0
19 2 S106 714 319280 140 0
19 2 S106 744 320024 884 0
19 2 S106 708 320732 1592 0
19 2 S106 700 321432 2292 0
19 2 S106 714 322146 3006 0
19 2 S106 725 322871 3731 0
19 2 S106 726 323597 4457 0
19 2 S106 722 324319 5179 0
19 2 S106 727 325046 5906 0
19 2 S106 734 325780 6640 0
0 0 0 727 326507 -10786 0
0 0 0 716 327223 -10070 0
0 0 0 710 327933 -9360 0
0 0 0 696 328629 -8664 0
0 0 0 689 329318 -7975 0
0 0 0 696 330014 -7279 0
0 0 0 702 330716 -6577 0
0 0 0 710 331426 -5867 0
0 0 0 717 332143 -5150 0
0 0 0 709 332852 -4441 0
0 0 0 707 333559 -3734 0
0 0 0 704 334263 -3030 0
0 0 0 702 334965 -2328 0
20 1 S112 713 335678 -1615 0
20 1 S112 699 336377 -916 0
20 1 S112 694 337071 -222 0
20 2 S112 715 337786 493 0
20 2 S112 723 338509 1216 0
20 2 S112 718 339227 1934 0
20 2 S112 704 339931 2638 0
20 2 S112 706 340637 3344 0
20 2 S112 726 341363 4070 0
20 2 S112 758 342121 4828 0
20 2 S112 755 342876 5583 0
20 2 S112 761 343637 6344 0
0 0 0 763 344400 -9770 0
0 0 0 765 345165 -9005 0
0 0 0 730 345895 -8275 0
0 0 0 708 346603 -7567 0
0 0 0 707 347310 -6860 0
0 0 0 691 348001 -6169 0
0 0 0 681 348682 -5488 0
0 0 0 680 349362 -4808 0
0 0 0 678 350040 -4130 0
0 0 0 672 350712 -3458 0
0 0 0 685 351397 -2773 0
0 0 0 686 352083 -2087 0
21 1 S106 700 352783 -1387 0
21 1 S106 684 353467 -703 0
21 1 S106 674 354141 -29 0
21 2 S106 673 354814 644 0
21 2 S106 683 355497 1327 0
21 2 S106 681 356178 2008 0
21 2 S106 675 356853 2683 0
21 2 S106 676 357529 3359 0
21 2 S106 676 358205 4035 0
21 2 S106 665 358870 4700 0
21 2 S106 662 359532 5362 0
21 2 S106 666 360198 6028 0
21 2 S106 671 360869 6699 0
0 0 0 674 361543 -10962 0
0 0 0 692 362235 -10270 0
0 0 0 711 362946 -9559 0
0 0 0 713 363659 -8846 0
0 0 0 696 364355 -8150 0
0 0 0 688 365043 -7462 0
0 0 0 686 365729 -6776 0
0 0 0 673 366402 -6103 0
0 0 0 670 367072 -5433 0
0 0 0 671 367743 -4762 0
0 0 0 677 368420 -4085 0
0 0 0 677 369097 -3408 0
0 0 0 685 369782 -2723 0
0 0 0 698 370480 -2025 0
22 1 S116 707 371187 -1318 0
22 1 S116 713 371900 -605 0
22 2 S116 714 372614 109 0
22 2 S116 736 373350 845 0
22 2 S116 733 374083 1578 0
22 2 S116 720 374803 2298 0
22 2 S116 715 375518 3013 0
22 2 S116 719 376237 3732 0
22 2 S116 707 376944 4439 0
22 2 S116 724 377668 5163 0
22 2 S116 714 378382 5877 0
22 2 S116 715 379097 6592 0
0 0 0 733 379830 -9221 0
0 0 0 732 380562 -8489 0
0 0 0 703 381265 -7786 0
0 0 0 705 381970 -7081 0
0 0 0 693 382663 -6388 0
0 0 0 687 383350 -5701 0
0 0 0 683 384033 -5018 0
0 0 0 674 384707 -4344 0
0 0 0 664 385371 -3680 0
0 0 0 653 386024 -3027 0
0 0 0 639 386663 -2388 0
23 1 S112 629 387292 -1759 0
23 1 S112 639 387931 -1120 0
23 1 S112 689 388620 -431 0
23 2 S112 733 389353 302 0
23 2 S112 788 390141 1090 0
23 2 S112 670 390811 1760 0
23 2 S112 1035 391846 2795 1
23 2 S112 878 392724 3673 0
23 2 S112 853 393577 4526 0
23 2 S112 823 394400 5349 0
23 2 S112 783 395183 6132 0
23 2 S112 749 395932 6881 0
0 0 0 737 396669 -8993 0
0 0 0 722 397391 -8271 0
0 0 0 709 398100 -7562 0
0 0 0 701 398801 -6861 0
0 0 0 693 399494 -6168 0
0 0 0 695 400189 -5473 0
0 0 0 688 400877 -4785 0
0 0 0 692 401569 -4093 0
0 0 0 698 402267 -3395 0
0 0 0 698 402965 -2697 0
0 0 0 687 403652 -2010 0
24 1 S106 702 404354 -1308 0
24 1 S106 711 405065 -597 0
24 2 S106 713 405778 116 0
24 2 S106 728 406506 844 0
24 2 S106 715 407221 1559 0
24 2 S106 715 407936 2274 0
24 2 S106 711 408647 2985 0
24 2 S106 692 409339 3677 0
24 2 S106 685 410024 4362 0
24 2 S106 688 410712 5050 0
24 2 S106 666 411378 5716 0
24 2 S106 649 412027 6365 0
24 2 S106 626 412653 6991 0
0 0 0 614 413267 -8012 0
0 0 0 635 413902 -7377 0
0 0 0 678 414580 -6699 0
0 0 0 690 415270 -6009 0
0 0 0 717 415987 -5292 0
0 0 0 776 416763 -4516 0
0 0 0 650 417413 -3866 0
0 0 0 1027 418440 -2839 1
25 1 S102 853 419293 -1986 0
25 1 S102 824 420117 -1162 0
25 1 S102 784 420901 -378 0
25 2 S102 772 421673 394 0
25 2 S102 772 422445 1166 0
25 2 S102 777 423222 1943 0
25 2 S102 764 423986 2707 0
25 2 S102 768 424754 3475 0
25 2 S102 770 425524 4245 0
25 2 S102 733 426257 4978 0
25 2 S102 718 426975 5696 0
25 2 S102 714 427689 6410 0
0 0 0 713 428402 -6604 0
0 0 0 700 429102 -5904 0
0 0 0 683 429785 -5221 0
0 0 0 675 430460 -4546 0
0 0 0 657 431117 -3889 0
0 0 0 638 431755 -3251 0
0 0 0 622 432377 -2629 0
0 0 0 627 433004 -2002 0
26 1 S116 642 433646 -1360 0
26 1 S116 662 434308 -698 0
26 1 S116 696 435004 -2 0
26 2 S116 728 435732 726 0
26 2 S116 1049 436781 1775 1
26 2 S116 895 437676 2670 0
26 2 S116 919 438595 3589 0
26 2 S116 871 439466 4460 0
26 2 S116 862 440328 5322 0
26 2 S116 866 441194 6188 0
0 0 0 873 442067 -7064 0
0 0 0 886 442953 -6178 0
0 0 0 869 443822 -5309 0
0 0 0 867 444689 -4442 0
0 0 0 840 445529 -3602 0
0 0 0 827 446356 -2775 0
27 1 S106 827 447183 -1948 0
27 1 S106 819 448002 -1129 0
27 1 S106 825 448827 -304 0
27 2 S106 850 449677 546 0
27 2 S106 861 450538 1407 0
27 2 S106 876 451414 2283 0
27 2 S106 871 452285 3154 0
27 2 S106 857 453142 4011 0
27 2 S106 848 453990 4859 0
27 2 S106 842 454832 5701 0
27 2 S106 836 455668 6537 0
0 0 0 840 456508 -7195 0
0 0 0 835 457343 -6360 0
0 0 0 826 458169 -5534 0
0 0 0 800 458969 -4734 0
0 0 0 742 459711 -3992 0
0 0 0 714 460425 -3278 0
0 0 0 707 461132 -2571 0
28 1 S102 716 461848 -1855 0
28 1 S102 747 462595 -1108 0
28 1 S102 762 463357 -346 0
28 2 S102 772 464129 426 0
28 2 S102 780 464909 1206 0
28 2 S102 792 465701 1998 0
28 2 S102 784 466485 2782 0
28 2 S102 769 467254 3551 0
28 2 S102 767 468021 4318 0
28 2 S102 770 468791 5088 0
28 2 S102 761 469552 5849 0
28 2 S102 753 470305 6602 0
0 0 0 759 471064 -10826 0
0 0 0 747 471811 -10079 0
0 0 0 732 472543 -9347 0
0 0 0 713 473256 -8634 0
0 0 0 704 473960 -7930 0
0 0 0 692 474652 -7238 0
0 0 0 699 475351 -6539 0
0 0 0 680 476031 -5859 0
0 0 0 679 476710 -5180 0
0 0 0 694 477404 -4486 0
0 0 0 687 478091 -3799 0
0 0 0 674 478765 -3125 0
0 0 0 661 479426 -2464 0
29 1 S112 645 480071 -1819 0
29 1 S112 635 480706 -1184 0
29 1 S112 632 481338 -552 0
29 2 S112 635 481973 83 0
29 2 S112 651 482624 734 0
29 2 S112 667 483291 1401 0
29 2 S112 711 484002 2112 0
29 2 S112 737 484739 2849 0
29 2 S112 769 485508 3618 0
29 2 S112 747 486255 4365 0
29 2 S112 745 487000 5110 0
29 2 S112 745 487745 5855 0
29 2 S112 747 488492 6602 0
0 0 0 736 489228 -7549 0
0 0 0 758 489986 -6791 0
0 0 0 727 490713 -6064 0
0 0 0 700 491413 -5364 0
0 0 0 702 492115 -4662 0
0 0 0 686 492801 -3976 0
0 0 0 670 493471 -3306 0
0 0 0 666 494137 -2640 0
30 1 S112 659 494796 -1981 0
30 1 S112 671 495467 -1310 0
30 1 S112 667 496134 -643 0
30 2 S112 679 496813 36 0
30 2 S112 706 497519 742 0
30 2 S112 726 498245 1468 0
30 2 S112 733 498978 2201 0
30 2 S112 723 499701 2924 0
30 2 S112 759 500460 3683 0
30 2 S112 765 501225 4448 0
30 2 S112 758 501983 5206 0
30 2 S112 749 502732 5955 0
30 2 S112 748 503480 6703 0
0 0 0 730 504210 -8433 0
0 0 0 713 504923 -7720 0
0 0 0 689 505612 -7031 0
0 0 0 677 506289 -6354 0
0 0 0 666 506955 -5688 0
0 0 0 657 507612 -5031 0
0 0 0 654 508266 -4377 0
0 0 0 652 508918 -3725 0
0 0 0 652 509570 -3073 0
0 0 0 653 510223 -2420 0
31 1 S106 647 510870 -1773 0
31 1 S106 644 511514 -1129 0
31 1 S106 643 512157 -486 0
31 2 S106 641 512798 155 0
31 2 S106 651 513449 806 0
31 2 S106 652 514101 1458 0
31 2 S106 655 514756 2113 0
31 2 S106 654 515410 2767 0
31 2 S106 661 516071 3428 0
31 2 S106 665 516736 4093 0
31 2 S106 672 517408 4765 0
31 2 S106 669 518077 5434 0
31 2 S106 675 518752 6109 0
31 2 S106 674 519426 6783 0
0 0 0 685 520111 -8613 0
0 0 0 689 520800 -7924 0
0 0 0 664 521464 -7260 0
0 0 0 654 522118 -6606 0
0 0 0 648 522766 -5958 0
0 0 0 656 523422 -5302 0
0 0 0 662 524084 -4640 0
0 0 0 663 524747 -3977 0
0 0 0 671 525418 -3306 0
0 0 0 674 526092 -2632 0
32 1 S102 688 526780 -1944 0
32 1 S102 687 527467 -1257 0
32 1 S102 688 528155 -569 0
32 2 S102 680 528835 111 0
32 2 S102 674 529509 785 0
32 2 S102 667 530176 1452 0
32 2 S102 665 530841 2117 0
32 2 S102 673 531514 2790 0
32 2 S102 684 532198 3474 0
32 2 S102 698 532896 4172 0
32 2 S102 693 533589 4865 0
32 2 S102 690 534279 5555 0
32 2 S102 703 534982 6258 0
32 2 S102 701 535683 6959 0
0 0 0 720 536403 -9745 0
0 0 0 666 537069 -9079 0
0 0 0 643 537712 -8436 0
0 0 0 641 538353 -7795 0
0 0 0 652 539005 -7143 0
0 0 0 673 539678 -6470 0
0 0 0 676 540354 -5794 0
0 0 0 712 541066 -5082 0
0 0 0 731 541797 -4351 0
0 0 0 724 542521 -3627 0
0 0 0 709 543230 -2918 0
0 0 0 688 543918 -2230 0
33 1 S112 665 544583 -1565 0
33 1 S112 662 545245 -903 0
33 1 S112 649 545894 -254 0
33 2 S112 641 546535 387 0
33 2 S112 650 547185 1037 0
33 2 S112 644 547829 1681 0
33 2 S112 656 548485 2337 0
33 2 S112 671 549156 3008 0
33 2 S112 676 549832 3684 0
33 2 S112 692 550524 4376 0
33 2 S112 708 551232 5084 0
33 2 S112 708 551940 5792 0
33 2 S112 708 552648 6500 0
0 0 0 720 553368 -11430 0
0 0 0 729 554097 -10701 0
0 0 0 697 554794 -10004 0
0 0 0 694 555488 -9310 0
0 0 0 697 556185 -8613 0
0 0 0 676 556861 -7937 0
0 0 0 661 557522 -7276 0
0 0 0 666 558188 -6610 0
0 0 0 661 558849 -5949 0
0 0 0 663 559512 -5286 0
0 0 0 665 560177 -4621 0
0 0 0 662 560839 -3959 0
0 0 0 668 561507 -3291 0
0 0 0 667 562174 -2624 0
34 1 S106 673 562847 -1951 0
34 1 S106 680 563527 -1271 0
34 1 S106 693 564220 -578 0
34 2 S106 686 564906 108 0
34 2 S106 676 565582 784 0
34 2 S106 675 566257 1459 0
34 2 S106 671 566928 2130 0
34 2 S106 665 567593 2795 0
34 2 S106 667 568260 3462 0
34 2 S106 671 568931 4133 0
34 2 S106 671 569602 4804 0
34 2 S106 662 570264 5466 0
34 2 S106 664 570928 6130 0
34 2 S106 673 571601 6803 0
0 0 0 682 572283 -7883 0
0 0 0 682 572965 -7201 0
0 0 0 675 573640 -6526 0
0 0 0 661 574301 -5865 0
0 0 0 657 574958 -5208 0
0 0 0 656 575614 -4552 0
0 0 0 650 576264 -3902 0
0 0 0 642 576906 -3260 0
0 0 0 647 577553 -2613 0
35 1 S102 665 578218 -1948 0
35 1 S102 683 578901 -1265 0
35 1 S102 690 579591 -575 0
35 2 S102 699 580290 124 0
35 2 S102 700 580990 824 0
35 2 S102 710 581700 1534 0
35 2 S102 707 582407 2241 0
35 2 S102 696 583103 2937 0
35 2 S102 678 583781 3615 0
35 2 S102 668 584449 4283 0
35 2 S102 665 585114 4948 0
35 2 S102 672 585786 5620 0
35 2 S102 667 586453 6287 0
35 2 S102 673 587126 6960 0
0 0 0 665 587791 -6268 0
0 0 0 657 588448 -5611 0
0 0 0 648 589096 -4963 0
0 0 0 636 589732 -4327 0
0 0 0 617 590349 -3710 0
0 0 0 595 590944 -3115 0
0 0 0 593 591537 -2522 0
36 1 S106 582 592119 -1940 0
36 1 S106 598 592717 -1342 0
36 1 S106 648 593365 -694 0
36 1 S106 645 594010 -49 0
36 2 S106 616 594626 567 0
36 2 S106 608 595234 1175 0
36 2 S106 606 595840 1781 0
36 2 S106 612 596452 2393 0
36 2 S106 608 597060 3001 0
36 2 S106 613 597673 3614 0
36 2 S106 617 598290 4231 0
36 2 S106 623 598913 4854 0
36 2 S106 621 599534 5475 0
36 2 S106 616 600150 6091 0
36 2 S106 620 600770 6711 0
0 0 0 617 601387 -9052 0
0 0 0 615 602002 -8437 0
0 0 0 614 602616 -7823 0
0 0 0 615 603231 -7208 0
0 0 0 612 603843 -6596 0
0 0 0 614 604457 -5982 0
0 0 0 602 605059 -5380 0
0 0 0 610 605669 -4770 0
0 0 0 610 606279 -4160 0
0 0 0 629 606908 -3531 0
0 0 0 653 607561 -2878 0
0 0 0 687 608248 -2191 0
37 1 S116 708 608956 -1483 0
37 1 S116 709 609665 -774 0
37 1 S116 698 610363 -76 0
37 2 S116 697 611060 621 0
37 2 S116 696 611756 1317 0
37 2 S116 684 612440 2001 0
37 2 S116 667 613107 2668 0
37 2 S116 646 613753 3314 0
37 2 S116 631 614384 3945 0
37 2 S116 625 615009 4570 0
37 2 S116 625 615634 5195 0
37 2 S116 617 616251 5812 0
37 2 S116 613 616864 6425 0
0 0 0 613 617477 -10767 0
0 0 0 621 618098 -10146 0
0 0 0 618 618716 -9528 0
0 0 0 624 619340 -8904 0
0 0 0 619 619959 -8285 0
0 0 0 619 620578 -7666 0
0 0 0 612 621190 -7054 0
0 0 0 613 621803 -6441 0
0 0 0 626 622429 -5815 0
0 0 0 652 623081 -5163 0
0 0 0 683 623764 -4480 0
0 0 0 711 624475 -3769 0
0 0 0 681 625156 -3088 0
0 0 0 730 625886 -2358 0
38 1 S102 690 626576 -1668 0
38 1 S102 699 627275 -969 0
38 1 S102 693 627968 -276 0
38 2 S102 681 628649 405 0
38 2 S102 678 629327 1083 0
38 2 S102 665 629992 1748 0
38 2 S102 652 630644 2400 0
38 2 S102 643 631287 3043 0
38 2 S102 645 631932 3688 0
38 2 S102 645 632577 4333 0
38 2 S102 666 633243 4999 0
38 2 S102 664 633907 5663 0
38 2 S102 653 634560 6316 0
38 2 S102 657 635217 6973 0
0 0 0 654 635871 -8537 0
0 0 0 649 636520 -7888 0
0 0 0 635 637155 -7253 0
0 0 0 637 637792 -6616 0
0 0 0 635 638427 -5981 0
0 0 0 632 639059 -5349 0
0 0 0 636 639695 -4713 0
0 0 0 639 640334 -4074 0
0 0 0 647 640981 -3427 0
0 0 0 653 641634 -2774 0
0 0 0 649 642283 -2125 0
39 1 S116 660 642943 -1465 0
39 1 S116 666 643609 -799 0
39 1 S116 666 644275 -133 0
39 2 S116 664 644939 531 0
39 2 S116 667 645606 1198 0
39 2 S116 665 646271 1863 0
39 2 S116 663 646934 2526 0
39 2 S116 657 647591 3183 0
39 2 S116 655 648246 3838 0
39 2 S116 652 648898 4490 0
39 2 S116 653 649551 5143 0
39 2 S116 654 650205 5797 0
39 2 S116 661 650866 6458 0
0 0 0 665 651531 -6587 0
0 0 0 662 652193 -5925 0
0 0 0 667 652860 -5258 0
0 0 0 657 653517 -4601 0
0 0 0 647 654164 -3954 0
0 0 0 641 654805 -3313 0
0 0 0 634 655439 -2679 0
0 0 0 649 656088 -2030 0
40 1 S112 652 656740 -1378 0
40 1 S112 656 657396 -722 0
40 1 S112 645 658041 -77 0
40 2 S112 633 658674 556 0
40 2 S112 631 659305 1187 0
40 2 S112 638 659943 1825 0
40 2 S112 635 660578 2460 0
40 2 S112 632 661210 3092 0
40 2 S112 633 661843 3725 0
40 2 S112 640 662483 4365 0
40 2 S112 647 663130 5012 0
40 2 S112 644 663774 5656 0
40 2 S112 637 664411 6293 0
40 2 S112 639 665050 6932 0
0 0 0 637 665687 -186796 0
0 0 0 635 666322 -186161 0
0 0 0 639 666961 -185522 0
0 0 0 646 667607 -184876 0
0 0 0 654 668261 -184222 0
0 0 0 641 668902 -183581 0
0 0 0 625 669527 -182956 0
0 0 0 609 670136 -182347 0
0 0 0 597 670733 -181750 0
0 0 0 581 671314 -181169 0
0 0 0 577 671891 -180592 0
0 0 0 574 672465 -180018 0
0 0 0 583 673048 -179435 0
0 0 0 609 673657 -178826 0
0 0 0 612 674269 -178214 0
0 0 0 613 674882 -177601 0
0 0 0 618 675500 -176983 0
0 0 0 630 676130 -176353 0
0 0 0 640 676770 -175713 0
0 0 0 623 677393 -175090 0
0 0 0 617 678010 -174473 0
0 0 0 618 678628 -173855 0
0 0 0 626 679254 -173229 0
0 0 0 635 679889 -172594 0
0 0 0 635 680524 -171959 0
0 0 0 648 681172 -171311 0
0 0 0 673 681845 -170638 0
0 0 0 696 682541 -169942 0
0 0 0 703 683244 -169239 0
0 0 0 666 683910 -168573 0
0 0 0 661 684571 -167912 0
0 0 0 650 685221 -167262 0
0 0 0 671 685892 -166591 0
0 0 0 686 686578 -165905 0
0 0 0 695 687273 -165210 0
0 0 0 762 688035 -164448 0
0 0 0 802 688837 -163646 0
0 0 0 792 689629 -162854 0
0 0 0 770 690399 -162084 0
0 0 0 776 691175 -161308 0
0 0 0 769 691944 -160539 0
0 0 0 737 692681 -159802 0
0 0 0 722 693403 -159080 0
0 0 0 729 694132 -158351 0
0 0 0 772 694904 -157579 0
0 0 0 804 695708 -156775 0
0 0 0 774 696482 -156001 0
0 0 0 773 697255 -155228 0
0 0 0 765 698020 -154463 0
0 0 0 739 698759 -153724 0
0 0 0 705 699464 -153019 0
0 0 0 691 700155 -152328 0
0 0 0 677 700832 -151651 0
0 0 0 680 701512 -150971 0
0 0 0 671 702183 -150300 0
0 0 0 691 702874 -149609 0
0 0 0 690 703564 -148919 0
0 0 0 701 704265 -148218 0
0 0 0 686 704951 -147532 0
0 0 0 672 705623 -146860 0
0 0 0 669 706292 -146191 0
0 0 0 662 706954 -145529 0
0 0 0 672 707626 -144857 0
0 0 0 742 708368 -144115 0
0 0 0 838 709206 -143277 0
0 0 0 501 709707 -142776 0
0 0 0 863 710570 -141913 0
0 0 0 745 711315 -141168 0
0 0 0 995 712310 -140173 1
0 0 0 761 713071 -139412 0
0 0 0 737 713808 -138675 0
0 0 0 752 714560 -137923 0
0 0 0 763 715323 -137160 0
0 0 0 734 716057 -136426 0
0 0 0 776 716833 -135650 0
0 0 0 810 717643 -134840 0
0 0 0 831 718474 -134009 0
0 0 0 770 719244 -133239 0
0 0 0 815 720059 -132424 0
0 0 0 786 720845 -131638 0
0 0 0 770 721615 -130868 0
0 0 0 742 722357 -130126 0
0 0 0 766 723123 -129360 0
0 0 0 772 723895 -128588 0
0 0 0 745 724640 -127843 0
0 0 0 736 725376 -127107 0
0 0 0 768 726144 -126339 0
0 0 0 789 726933 -125550 0
0 0 0 754 727687 -124796 0
0 0 0 770 728457 -124026 0
0 0 0 809 729266 -123217 0
0 0 0 810 730076 -122407 0
0 0 0 762 730838 -121645 0
0 0 0 781 731619 -120864 0
0 0 0 740 732359 -120124 0
0 0 0 719 733078 -119405 0
0 0 0 696 733774 -118709 0
0 0 0 687 734461 -118022 0
0 0 0 694 735155 -117328 0
0 0 0 740 735895 -116588 0
0 0 0 755 736650 -115833 0
0 0 0 823 737473 -115010 0
0 0 0 837 738310 -114173 0
0 0 0 790 739100 -113383 0
0 0 0 769 739869 -112614 0
0 0 0 764 740633 -111850 0
0 0 0 760 741393 -111090 0
0 0 0 733 742126 -110357 0
0 0 0 731 742857 -109626 0
0 0 0 712 743569 -108914 0
0 0 0 747 744316 -108167 0
0 0 0 760 745076 -107407 0
0 0 0 740 745816 -106667 0
0 0 0 790 746606 -105877 0
0 0 0 749 747355 -105128 0
0 0 0 727 748082 -104401 0
0 0 0 680 748762 -103721 0
0 0 0 661 749423 -103060 0
0 0 0 642 750065 -102418 0
0 0 0 650 750715 -101768 0
0 0 0 658 751373 -101110 0
0 0 0 802 752175 -100308 0
0 0 0 722 752897 -99586 0
0 0 0 799 753696 -98787 0
0 0 0 805 754501 -97982 0
0 0 0 628 755129 -97354 0
0 0 0 1073 756202 -96281 1
0 0 0 893 757095 -95388 0
0 0 0 785 757880 -94603 0
0 0 0 770 758650 -93833 0
0 0 0 789 759439 -93044 0
0 0 0 775 760214 -92269 0
0 0 0 745 760959 -91524 0
0 0 0 753 761712 -90771 0
0 0 0 776 762488 -89995 0
0 0 0 775 763263 -89220 0
0 0 0 730 763993 -88490 0
0 0 0 691 764684 -87799 0
0 0 0 668 765352 -87131 0
0 0 0 673 766025 -86458 0
0 0 0 647 766672 -85811 0
0 0 0 648 767320 -85163 0
0 0 0 672 767992 -84491 0
0 0 0 666 768658 -83825 0
0 0 0 702 769360 -83123 0
0 0 0 732 770092 -82391 0
0 0 0 761 770853 -81630 0
0 0 0 745 771598 -80885 0
0 0 0 734 772332 -80151 0
0 0 0 705 773037 -79446 0
0 0 0 676 773713 -78770 0
0 0 0 684 774397 -78086 0
0 0 0 690 775087 -77396 0
0 0 0 712 775799 -76684 0
0 0 0 708 776507 -75976 0
0 0 0 684 777191 -75292 0
0 0 0 695 777886 -74597 0
0 0 0 675 778561 -73922 0
0 0 0 646 779207 -73276 0
0 0 0 637 779844 -72639 0
0 0 0 642 780486 -71997 0
0 0 0 627 781113 -71370 0
0 0 0 626 781739 -70744 0
0 0 0 638 782377 -70106 0
0 0 0 654 783031 -69452 0
0 0 0 675 783706 -68777 0
0 0 0 663 784369 -68114 0
0 0 0 663 785032 -67451 0
0 0 0 660 785692 -66791 0
0 0 0 684 786376 -66107 0
0 0 0 708 787084 -65399 0
0 0 0 737 787821 -64662 0
0 0 0 765 788586 -63897 0
0 0 0 757 789343 -63140 0
0 0 0 734 790077 -62406 0
0 0 0 732 790809 -61674 0
0 0 0 755 791564 -60919 0
0 0 0 779 792343 -60140 0
0 0 0 752 793095 -59388 0
0 0 0 815 793910 -58573 0
0 0 0 813 794723 -57760 0
0 0 0 801 795524 -56959 0
0 0 0 758 796282 -56201 0
0 0 0 760 797042 -55441 0
0 0 0 741 797783 -54700 0
0 0 0 710 798493 -53990 0
0 0 0 699 799192 -53291 0
0 0 0 689 799881 -52602 0
0 0 0 682 800563 -51920 0
0 0 0 673 801236 -51247 0
0 0 0 654 801890 -50593 0
0 0 0 626 802516 -49967 0
0 0 0 605 803121 -49362 0
0 0 0 590 803711 -48772 0
0 0 0 574 804285 -48198 0
0 0 0 566 804851 -47632 0
0 0 0 561 805412 -47071 0
0 0 0 577 805989 -46494 0
0 0 0 672 806661 -45822 0
0 0 0 640 807301 -45182 0
0 0 0 783 808084 -44399 0
0 0 0 719 808803 -43680 0
0 0 0 737 809540 -42943 0
0 0 0 1269 810809 -41674 1
0 0 0 791 811600 -40883 0
0 0 0 767 812367 -40116 0
0 0 0 700 813067 -39416 0
0 0 0 787 813854 -38629 0
0 0 0 801 814655 -37828 0
0 0 0 962 815617 -36866 1
0 0 0 958 816575 -35908 1
0 0 0 907 817482 -35001 0
0 0 0 881 818363 -34120 0
0 0 0 899 819262 -33221 0
0 0 0 650 819912 -32571 0
0 0 0 1138 821050 -31433 1
0 0 0 967 822017 -30466 1
0 0 0 894 822911 -29572 0
0 0 0 904 823815 -28668 0
0 0 0 888 824703 -27780 0
0 0 0 847 825550 -26933 0
0 0 0 844 826394 -26089 0
0 0 0 816 827210 -25273 0
0 0 0 777 827987 -24496 0
0 0 0 773 828760 -23723 0
0 0 0 816 829576 -22907 0
0 0 0 832 830408 -22075 0
0 0 0 764 831172 -21311 0
0 0 0 771 831943 -20540 0
0 0 0 790 832733 -19750 0
0 0 0 806 833539 -18944 0
0 0 0 767 834306 -18177 0
0 0 0 742 835048 -17435 0
0 0 0 744 835792 -16691 0
0 0 0 755 836547 -15936 0
0 0 0 767 837314 -15169 0
0 0 0 734 838048 -14435 0
0 0 0 749 838797 -13686 0
0 0 0 776 839573 -12910 0
0 0 0 839 840412 -12071 0
0 0 0 805 841217 -11266 0
0 0 0 785 842002 -10481 0
0 0 0 816 842818 -9665 0
0 0 0 792 843610 -8873 0
0 0 0 769 844379 -8104 0
0 0 0 758 845137 -7346 0
0 0 0 756 845893 -6590 0
0 0 0 765 846658 -5825 0
0 0 0 740 847398 -5085 0
0 0 0 785 848183 -4300 0
0 0 0 731 848914 -3569 0
0 0 0 723 849637 -2846 0
0 0 0 681 850318 -2165 0
41 1 S102 671 850989 -1494 0
41 1 S102 675 851664 -819 0
41 1 S102 708 852372 -111 0
41 2 S102 692 853064 581 0
41 2 S102 711 853775 1292 0
41 2 S102 716 854491 2008 0
41 2 S102 718 855209 2726 0
41 2 S102 700 855909 3426 0
41 2 S102 710 856619 4136 0
41 2 S102 733 857352 4869 0
41 2 S102 743 858095 5612 0
41 2 S102 735 858830 6347 0
0 0 0 735 859565 -6512 0
0 0 0 733 860298 -5779 0
0 0 0 737 861035 -5042 0
0 0 0 704 861739 -4338 0
0 0 0 696 862435 -3642 0
0 0 0 696 863131 -2946 0
0 0 0 709 863840 -2237 0
42 1 S112 716 864556 -1521 0
42 1 S112 699 865255 -822 0
42 1 S112 704 865959 -118 0
42 2 S112 707 866666 589 0
42 2 S112 715 867381 1304 0
42 2 S112 715 868096 2019 0
42 2 S112 754 868850 2773 0
42 2 S112 768 869618 3541 0
42 2 S112 801 870419 4342 0
42 2 S112 755 871174 5097 0
42 2 S112 752 871926 5849 0
42 2 S112 753 872679 6602 0
0 0 0 797 873476 -8782 0
0 0 0 724 874200 -8058 0
0 0 0 704 874904 -7354 0
0 0 0 695 875599 -6659 0
0 0 0 708 876307 -5951 0
0 0 0 698 877005 -5253 0
0 0 0 679 877684 -4574 0
0 0 0 656 878340 -3918 0
0 0 0 635 878975 -3283 0
0 0 0 610 879585 -2673 0
0 0 0 592 880177 -2081 0
43 1 S116 595 880772 -1486 0
43 1 S116 633 881405 -853 0
43 1 S116 708 882113 -145 0
43 2 S116 727 882840 582 0
43 2 S116 632 883472 1214 0
43 2 S116 1032 884504 2246 1
43 2 S116 932 885436 3178 1
43 2 S116 868 886304 4046 0
43 2 S116 860 887164 4906 0
43 2 S116 871 888035 5777 0
43 2 S116 867 888902 6644 0
0 0 0 864 889766 -7893 0
0 0 0 851 890617 -7042 0
0 0 0 821 891438 -6221 0
0 0 0 805 892243 -5416 0
0 0 0 779 893022 -4637 0
0 0 0 808 893830 -3829 0
0 0 0 812 894642 -3017 0
0 0 0 823 895465 -2194 0
44 1 S102 827 896292 -1367 0
44 1 S102 843 897135 -524 0
44 2 S102 842 897977 318 0
44 2 S102 834 898811 1152 0
44 2 S102 834 899645 1986 0
44 2 S102 819 900464 2805 0
44 2 S102 809 901273 3614 0
44 2 S102 785 902058 4399 0
44 2 S102 792 902850 5191 0
44 2 S102 768 903618 5959 0
44 2 S102 756 904374 6715 0
0 0 0 714 905088 -9150 0
0 0 0 745 905833 -8405 0
0 0 0 785 906618 -7620 0
0 0 0 775 907393 -6845 0
0 0 0 744 908137 -6101 0
0 0 0 764 908901 -5337 0
0 0 0 779 909680 -4558 0
0 0 0 790 910470 -3768 0
0 0 0 748 911218 -3020 0
0 0 0 757 911975 -2263 0
45 1 S116 774 912749 -1489 0
45 1 S116 793 913542 -696 0
45 2 S116 754 914296 58 0
45 2 S116 759 915055 817 0
45 2 S116 780 915835 1597 0
45 2 S116 776 916611 2373 0
45 2 S116 742 917353 3115 0
45 2 S116 753 918106 3868 0
45 2 S116 740 918846 4608 0
45 2 S116 750 919596 5358 0
45 2 S116 737 920333 6095 0
45 2 S116 749 921082 6844 0
0 0 0 777 921859 -10134 0
0 0 0 797 922656 -9337 0
0 0 0 744 923400 -8593 0
0 0 0 726 924126 -7867 0
0 0 0 716 924842 -7151 0
0 0 0 719 925561 -6432 0
0 0 0 691 926252 -5741 0
0 0 0 703 926955 -5038 0
0 0 0 709 927664 -4329 0
0 0 0 730 928394 -3599 0
0 0 0 724 929118 -2875 0
0 0 0 726 929844 -2149 0
46 1 S102 732 930576 -1417 0
46 1 S102 727 931303 -690 0
46 2 S102 700 932003 10 0
46 2 S102 678 932681 688 0
46 2 S102 642 933323 1330 0
46 2 S102 636 933959 1966 0
46 2 S102 617 934576 2583 0
46 2 S102 606 935182 3189 0
46 2 S102 604 935786 3793 0
46 2 S102 608 936394 4401 0
46 2 S102 643 937037 5044 0
46 2 S102 719 937756 5763 0
46 2 S102 737 938493 6500 0
0 0 0 727 939220 -8224 0
0 0 0 690 939910 -7534 0
0 0 0 697 940607 -6837 0
0 0 0 693 941300 -6144 0
0 0 0 707 942007 -5437 0
0 0 0 687 942694 -4750 0
0 0 0 688 943382 -4062 0
0 0 0 698 944080 -3364 0
0 0 0 700 944780 -2664 0
47 1 S112 699 945479 -1965 0
47 1 S112 693 946172 -1272 0
47 1 S112 720 946892 -552 0
47 2 S112 750 947642 198 0
47 2 S112 768 948410 966 0
47 2 S112 781 949191 1747 0
47 2 S112 812 950003 2559 0
47 2 S112 970 950973 3529 1
47 2 S112 994 951967 4523 1
47 2 S112 908 952875 5431 0
47 2 S112 894 953769 6325 0
0 0 0 904 954673 -11621 0
0 0 0 902 955575 -10719 0
0 0 0 858 956433 -9861 0
0 0 0 799 957232 -9062 0
0 0 0 716 957948 -8346 0
0 0 0 696 958644 -7650 0
0 0 0 708 959352 -6942 0
0 0 0 714 960066 -6228 0
0 0 0 746 960812 -5482 0
0 0 0 762 961574 -4720 0
0 0 0 749 962323 -3971 0
0 0 0 746 963069 -3225 0
0 0 0 758 963827 -2467 0
48 1 S116 775 964602 -1692 0
48 1 S116 768 965370 -924 0
48 1 S116 781 966151 -143 0
48 2 S116 771 966922 628 0
48 2 S116 785 967707 1413 0
48 2 S116 776 968483 2189 0
48 2 S116 807 969290 2996 0
48 2 S116 841 970131 3837 0
48 2 S116 844 970975 4681 0
48 2 S116 798 971773 5479 0
48 2 S116 795 972568 6274 0
0 0 0 809 973377 -6660 0
0 0 0 814 974191 -5846 0
0 0 0 759 974950 -5087 0
0 0 0 751 975701 -4336 0
0 0 0 733 976434 -3603 0
0 0 0 718 977152 -2885 0
0 0 0 706 977858 -2179 0
49 1 S112 708 978566 -1471 0
49 1 S112 719 979285 -752 0
49 1 S112 721 980006 -31 0
49 2 S112 711 980717 680 0
49 2 S112 720 981437 1400 0
49 2 S112 759 982196 2159 0
49 2 S112 814 983010 2973 0
49 2 S112 787 983797 3760 0
49 2 S112 853 984650 4613 0
49 2 S112 867 985517 5480 0
49 2 S112 822 986339 6302 0
0 0 0 756 987095 -11046 0
0 0 0 721 987816 -10325 0
0 0 0 724 988540 -9601 0
0 0 0 733 989273 -8868 0
0 0 0 730 990003 -8138 0
0 0 0 786 990789 -7352 0
0 0 0 897 991686 -6455 0
0 0 0 860 992546 -5595 0
0 0 0 883 993429 -4712 0
0 0 0 908 994337 -3804 0
0 0 0 903 995240 -2901 0
0 0 0 897 996137 -2004 0
50 1 S106 886 997023 -1118 0
50 1 S106 856 997879 -262 0
50 2 S106 849 998728 587 0
50 2 S106 838 999566 1425 0
50 2 S106 833 1000399 2258 0
50 2 S106 846 1001245 3104 0
50 2 S106 893 1002138 3997 0
50 2 S106 899 1003037 4896 0
50 2 S106 853 1003890 5749 0
50 2 S106 861 1004751 6610 0
0 0 0 853 1005604 -5700 0
0 0 0 838 1006442 -4862 0
0 0 0 817 1007259 -4045 0
0 0 0 785 1008044 -3260 0
0 0 0 744 1008788 -2516 0
51 1 S112 726 1009514 -1790 0
51 1 S112 753 1010267 -1037 0
51 1 S112 790 1011057 -247 0
51 2 S112 825 1011882 578 0
51 2 S112 669 1012551 1247 0
51 2 S112 1171 1013722 2418 1
51 2 S112 981 1014703 3399 1
51 2 S112 945 1015648 4344 1
51 2 S112 938 1016586 5282 1
51 2 S112 939 1017525 6221 1
0 0 0 965 1018490 -6458 1
0 0 0 965 1019455 -5493 1
0 0 0 935 1020390 -4558 1
0 0 0 881 1021271 -3677 0
0 0 0 891 1022162 -2786 0
52 1 S116 812 1022974 -1974 0
52 1 S116 761 1023735 -1213 0
52 1 S116 792 1024527 -421 0
52 2 S116 892 1025419 471 0
52 2 S116 907 1026326 1378 0
52 2 S116 926 1027252 2304 1
52 2 S116 974 1028226 3278 1
52 2 S116 943 1029169 4221 1
52 2 S116 899 1030068 5120 0
52 2 S116 890 1030958 6010 0
52 2 S116 857 1031815 6867 0
0 0 0 830 1032645 -8268 0
0 0 0 811 1033456 -7457 0
0 0 0 782 1034238 -6675 0
0 0 0 771 1035009 -5904 0
0 0 0 767 1035776 -5137 0
0 0 0 834 1036610 -4303 0
0 0 0 505 1037115 -3798 0
0 0 0 905 1038020 -2893 0
0 0 0 815 1038835 -2078 0
53 1 S106 1081 1039916 -997 1
53 1 S106 826 1040742 -171 0
53 2 S106 837 1041579 666 0
53 2 S106 850 1042429 1516 0
53 2 S106 848 1043277 2364 0
53 2 S106 847 1044124 3211 0
53 2 S106 852 1044976 4063 0
53 2 S106 850 1045826 4913 0
53 2 S106 831 1046657 5744 0
53 2 S106 864 1047521 6608 0
0 0 0 892 1048413 -5929 0
0 0 0 879 1049292 -5050 0
0 0 0 886 1050178 -4164 0
0 0 0 885 1051063 -3279 0
0 0 0 875 1051938 -2404 0
54 1 S102 863 1052801 -1541 0
54 1 S102 871 1053672 -670 0
54 2 S102 865 1054537 195 0
54 2 S102 832 1055369 1027 0
54 2 S102 840 1056209 1867 0
54 2 S102 824 1057033 2691 0
54 2 S102 809 1057842 3500 0
54 2 S102 808 1058650 4308 0
54 2 S102 816 1059466 5124 0
54 2 S102 809 1060275 5933 0
54 2 S102 798 1061073 6731 0
0 0 0 817 1061890 -10190 0
0 0 0 813 1062703 -9377 0
0 0 0 786 1063489 -8591 0
0 0 0 752 1064241 -7839 0
0 0 0 715 1064956 -7124 0
0 0 0 705 1065661 -6419 0
0 0 0 714 1066375 -5705 0
0 0 0 736 1067111 -4969 0
0 0 0 807 1067918 -4162 0
0 0 0 877 1068795 -3285 0
0 0 0 809 1069604 -2476 0
55 1 S106 827 1070431 -1649 0
55 1 S106 840 1071271 -809 0
55 2 S106 821 1072092 12 0
55 2 S106 804 1072896 816 0
55 2 S106 817 1073713 1633 0
55 2 S106 813 1074526 2446 0
55 2 S106 818 1075344 3264 0
55 2 S106 820 1076164 4084 0
55 2 S106 820 1076984 4904 0
55 2 S106 839 1077823 5743 0
55 2 S106 811 1078634 6554 0
0 0 0 812 1079446 -7290 0
0 0 0 797 1080243 -6493 0
0 0 0 776 1081019 -5717 0
0 0 0 757 1081776 -4960 0
0 0 0 765 1082541 -4195 0
0 0 0 730 1083271 -3465 0
0 0 0 745 1084016 -2720 0
56 1 S116 785 1084801 -1935 0
56 1 S116 911 1085712 -1024 0
56 1 S116 915 1086627 -109 0
56 2 S116 866 1087493 757 0
56 2 S116 891 1088384 1648 0
56 2 S116 869 1089253 2517 0
56 2 S116 834 1090087 3351 0
56 2 S116 829 1090916 4180 0
56 2 S116 824 1091740 5004 0
56 2 S116 810 1092550 5814 0
56 2 S116 783 1093333 6597 0
0 0 0 784 1094117 -6545 0
0 0 0 772 1094889 -5773 0
0 0 0 753 1095642 -5020 0
0 0 0 710 1096352 -4310 0
0 0 0 715 1097067 -3595 0
0 0 0 701 1097768 -2894 0
0 0 0 682 1098450 -2212 0
57 1 S106 678 1099128 -1534 0
57 1 S106 675 1099803 -859 0
57 1 S106 693 1100496 -166 0
57 2 S106 699 1101195 533 0
57 2 S106 696 1101891 1229 0
57 2 S106 698 1102589 1927 0
57 2 S106 701 1103290 2628 0
57 2 S106 698 1103988 3326 0
57 2 S106 666 1104654 3992 0
57 2 S106 667 1105321 4659 0
57 2 S106 652 1105973 5311 0
57 2 S106 643 1106616 5954 0
57 2 S106 639 1107255 6593 0
0 0 0 633 1107888 -8374 0
0 0 0 631 1108519 -7743 0
0 0 0 629 1109148 -7114 0
0 0 0 633 1109781 -6481 0
0 0 0 622 1110403 -5859 0
0 0 0 630 1111033 -5229 0
0 0 0 640 1111673 -4589 0
0 0 0 660 1112333 -3929 0
0 0 0 656 1112989 -3273 0
0 0 0 668 1113657 -2605 0
58 1 S102 682 1114339 -1923 0
58 1 S102 671 1115010 -1252 0
58 1 S102 660 1115670 -592 0
58 2 S102 654 1116324 62 0
58 2 S102 656 1116980 718 0
58 2 S102 677 1117657 1395 0
58 2 S102 756 1118413 2151 0
58 2 S102 790 1119203 2941 0
58 2 S102 816 1120019 3757 0
58 2 S102 601 1120620 4358 0
58 2 S102 1013 1121633 5371 1
58 2 S102 879 1122512 6250 0
0 0 0 804 1123316 -6656 0
0 0 0 746 1124062 -5910 0
0 0 0 721 1124783 -5189 0
0 0 0 695 1125478 -4494 0
0 0 0 673 1126151 -3821 0
0 0 0 672 1126823 -3149 0
0 0 0 646 1127469 -2503 0
59 1 S112 676 1128145 -1827 0
59 1 S112 840 1128985 -987 0
59 1 S112 730 1129715 -257 0
59 2 S112 803 1130518 546 0
59 2 S112 824 1131342 1370 0
59 2 S112 856 1132198 2226 0
59 2 S112 785 1132983 3011 0
59 2 S112 840 1133823 3851 0
59 2 S112 825 1134648 4676 0
59 2 S112 775 1135423 5451 0
59 2 S112 767 1136190 6218 0
0 0 0 828 1137018 -11555 0
0 0 0 882 1137900 -10673 0
0 0 0 746 1138646 -9927 0
0 0 0 796 1139442 -9131 0
0 0 0 799 1140241 -8332 0
0 0 0 817 1141058 -7515 0
0 0 0 816 1141874 -6699 0
0 0 0 948 1142822 -5751 1
0 0 0 935 1143757 -4816 1
0 0 0 860 1144617 -3956 0
0 0 0 860 1145477 -3096 0
0 0 0 837 1146314 -2259 0
60 1 S102 833 1147147 -1426 0
60 1 S102 844 1147991 -582 0
60 2 S102 856 1148847 274 0
60 2 S102 862 1149709 1136 0
60 2 S102 832 1150541 1968 0
60 2 S102 825 1151366 2793 0
60 2 S102 813 1152179 3606 0
60 2 S102 797 1152976 4403 0
60 2 S102 773 1153749 5176 0
60 2 S102 791 1154540 5967 0
60 2 S102 792 1155332 6759 0
0 0 0 788 1156120 -9545 0
0 0 0 770 1156890 -8775 0
0 0 0 779 1157669 -7996 0
0 0 0 753 1158422 -7243 0
0 0 0 733 1159155 -6510 0
0 0 0 718 1159873 -5792 0
0 0 0 695 1160568 -5097 0
0 0 0 702 1161270 -4395 0
0 0 0 714 1161984 -3681 0
0 0 0 712 1162696 -2969 0
0 0 0 770 1163466 -2199 0
61 1 S106 835 1164301 -1364 0
61 1 S106 829 1165130 -535 0
61 2 S106 807 1165937 272 0
61 2 S106 828 1166765 1100 0
61 2 S106 826 1167591 1926 0
61 2 S106 774 1168365 2700 0
61 2 S106 767 1169132 3467 0
61 2 S106 739 1169871 4206 0
61 2 S106 739 1170610 4945 0
61 2 S106 717 1171327 5662 0
61 2 S106 740 1172067 6402 0
0 0 0 771 1172838 -6206 0
0 0 0 784 1173622 -5422 0
0 0 0 742 1174364 -4680 0
0 0 0 761 1175125 -3919 0
0 0 0 734 1175859 -3185 0
0 0 0 725 1176584 -2460 0
62 1 S112 729 1177313 -1731 0
62 1 S112 736 1178049 -995 0
62 1 S112 742 1178791 -253 0
62 2 S112 703 1179494 450 0
62 2 S112 712 1180206 1162 0
62 2 S112 736 1180942 1898 0
62 2 S112 748 1181690 2646 0
62 2 S112 730 1182420 3376 0
62 2 S112 752 1183172 4128 0
62 2 S112 782 1183954 4910 0
62 2 S112 779 1184733 5689 0
62 2 S112 743 1185476 6432 0
0 0 0 796 1186272 -10577 0
0 0 0 784 1187056 -9793 0
0 0 0 758 1187814 -9035 0
0 0 0 732 1188546 -8303 0
0 0 0 724 1189270 -7579 0
0 0 0 718 1189988 -6861 0
0 0 0 696 1190684 -6165 0
0 0 0 720 1191404 -5445 0
0 0 0 784 1192188 -4661 0
0 0 0 936 1193124 -3725 1
0 0 0 887 1194011 -2838 0
63 1 S102 869 1194880 -1969 0
63 1 S102 868 1195748 -1101 0
63 1 S102 859 1196607 -242 0
63 2 S102 877 1197484 635 0
63 2 S102 881 1198365 1516 0
63 2 S102 864 1199229 2380 0
63 2 S102 849 1200078 3229 0
63 2 S102 850 1200928 4079 0
63 2 S102 838 1201766 4917 0
63 2 S102 817 1202583 5734 0
63 2 S102 836 1203419 6570 0
0 0 0 844 1204263 -7706 0
0 0 0 828 1205091 -6878 0
0 0 0 827 1205918 -6051 0
0 0 0 825 1206743 -5226 0
0 0 0 821 1207564 -4405 0
0 0 0 790 1208354 -3615 0
0 0 0 803 1209157 -2812 0
0 0 0 796 1209953 -2016 0
64 1 S112 755 1210708 -1261 0
64 1 S112 778 1211486 -483 0
64 2 S112 800 1212286 317 0
64 2 S112 821 1213107 1138 0
64 2 S112 803 1213910 1941 0
64 2 S112 831 1214741 2772 0
64 2 S112 846 1215587 3618 0
64 2 S112 831 1216418 4449 0
64 2 S112 849 1217267 5298 0
64 2 S112 879 1218146 6177 0
0 0 0 858 1219004 -7686 0
0 0 0 831 1219835 -6855 0
0 0 0 836 1220671 -6019 0
0 0 0 824 1221495 -5195 0
0 0 0 803 1222298 -4392 0
0 0 0 796 1223094 -3596 0
0 0 0 796 1223890 -2800 0
0 0 0 777 1224667 -2023 0
65 1 S106 748 1225415 -1275 0
65 1 S106 743 1226158 -532 0
65 2 S106 755 1226913 223 0
65 2 S106 771 1227684 994 0
65 2 S106 772 1228456 1766 0
65 2 S106 792 1229248 2558 0
65 2 S106 794 1230042 3352 0
65 2 S106 786 1230828 4138 0
65 2 S106 799 1231627 4937 0
65 2 S106 807 1232434 5744 0
65 2 S106 792 1233226 6536 0
0 0 0 779 1234005 -6396 0
0 0 0 795 1234800 -5601 0
0 0 0 771 1235571 -4830 0
0 0 0 738 1236309 -4092 0
0 0 0 716 1237025 -3376 0
0 0 0 725 1237750 -2651 0
66 1 S116 730 1238480 -1921 0
66 1 S116 734 1239214 -1187 0
66 1 S116 733 1239947 -454 0
66 2 S116 752 1240699 298 0
66 2 S116 768 1241467 1066 0
66 2 S116 778 1242245 1844 0
66 2 S116 751 1242996 2595 0
66 2 S116 799 1243795 3394 0
66 2 S116 793 1244588 4187 0
66 2 S116 763 1245351 4950 0
66 2 S116 783 1246134 5733 0
66 2 S116 796 1246930 6529 0
0 0 0 799 1247729 -11339 0
0 0 0 755 1248484 -10584 0
0 0 0 752 1249236 -9832 0
0 0 0 765 1250001 -9067 0
0 0 0 730 1250731 -8337 0
0 0 0 716 1251447 -7621 0
0 0 0 707 1252154 -6914 0
0 0 0 711 1252865 -6203 0
0 0 0 692 1253557 -5511 0
0 0 0 656 1254213 -4855 0
0 0 0 642 1254855 -4213 0
0 0 0 640 1255495 -3573 0
0 0 0 638 1256133 -2935 0
0 0 0 671 1256804 -2264 0
67 1 S102 696 1257500 -1568 0
67 1 S102 713 1258213 -855 0
67 1 S102 778 1258991 -77 0
67 2 S102 787 1259778 710 0
67 2 S102 769 1260547 1479 0
67 2 S102 769 1261316 2248 0
67 2 S102 747 1262063 2995 0
67 2 S102 749 1262812 3744 0
67 2 S102 714 1263526 4458 0
67 2 S102 730 1264256 5188 0
67 2 S102 747 1265003 5935 0
67 2 S102 798 1265801 6733 0
0 0 0 764 1266565 -5600 0
0 0 0 764 1267329 -4836 0
0 0 0 744 1268073 -4092 0
0 0 0 748 1268821 -3344 0
0 0 0 734 1269555 -2610 0
68 1 S106 737 1270292 -1873 0
68 1 S106 764 1271056 -1109 0
68 1 S106 762 1271818 -347 0
68 2 S106 719 1272537 372 0
68 2 S106 715 1273252 1087 0
68 2 S106 733 1273985 1820 0
68 2 S106 727 1274712 2547 0
68 2 S106 742 1275454 3289 0
68 2 S106 749 1276203 4038 0
68 2 S106 766 1276969 4804 0
68 2 S106 760 1277729 5564 0
68 2 S106 762 1278491 6326 0
0 0 0 800 1279291 -10116 0
0 0 0 853 1280144 -9263 0
0 0 0 792 1280936 -8471 0
0 0 0 737 1281673 -7734 0
0 0 0 732 1282405 -7002 0
0 0 0 726 1283131 -6276 0
0 0 0 744 1283875 -5532 0
0 0 0 731 1284606 -4801 0
0 0 0 729 1285335 -4072 0
0 0 0 744 1286079 -3328 0
0 0 0 746 1286825 -2582 0
69 1 S102 734 1287559 -1848 0
69 1 S102 724 1288283 -1124 0
69 1 S102 741 1289024 -383 0
69 2 S102 761 1289785 378 0
69 2 S102 763 1290548 1141 0
69 2 S102 765 1291313 1906 0
69 2 S102 757 1292070 2663 0
69 2 S102 754 1292824 3417 0
69 2 S102 711 1293535 4128 0
69 2 S102 712 1294247 4840 0
69 2 S102 705 1294952 5545 0
69 2 S102 692 1295644 6237 0
69 2 S102 668 1296312 6905 0
0 0 0 672 1296984 -8288 0
0 0 0 708 1297692 -7580 0
0 0 0 769 1298461 -6811 0
0 0 0 776 1299237 -6035 0
0 0 0 879 1300116 -5156 0
0 0 0 917 1301033 -4239 0
0 0 0 867 1301900 -3372 0
0 0 0 914 1302814 -2458 0
70 1 S112 841 1303655 -1617 0
70 1 S112 817 1304472 -800 0
70 1 S112 761 1305233 -39 0
70 2 S112 769 1306002 730 0
70 2 S112 787 1306789 1517 0
70 2 S112 778 1307567 2295 0
70 2 S112 785 1308352 3080 0
70 2 S112 828 1309180 3908 0
70 2 S112 850 1310030 4758 0
70 2 S112 799 1310829 5557 0
70 2 S112 842 1311671 6399 0
0 0 0 824 1312495 -10897 0
0 0 0 819 1313314 -10078 0
0 0 0 746 1314060 -9332 0
0 0 0 741 1314801 -8591 0
0 0 0 744 1315545 -7847 0
0 0 0 754 1316299 -7093 0
0 0 0 750 1317049 -6343 0
0 0 0 761 1317810 -5582 0
0 0 0 785 1318595 -4797 0
0 0 0 774 1319369 -4023 0
0 0 0 792 1320161 -3231 0
0 0 0 759 1320920 -2472 0
71 1 S116 776 1321696 -1696 0
71 1 S116 737 1322433 -959 0
71 1 S116 770 1323203 -189 0
71 2 S116 800 1324003 611 0
71 2 S116 831 1324834 1442 0
71 2 S116 815 1325649 2257 0
71 2 S116 838 1326487 3095 0
71 2 S116 890 1327377 3985 0
71 2 S116 827 1328204 4812 0
71 2 S116 828 1329032 5640 0
71 2 S116 800 1329832 6440 0
0 0 0 814 1330646 -8330 0
0 0 0 779 1331425 -7551 0
0 0 0 771 1332196 -6780 0
0 0 0 771 1332967 -6009 0
0 0 0 771 1333738 -5238 0
0 0 0 742 1334480 -4496 0
0 0 0 737 1335217 -3759 0
0 0 0 704 1335921 -3055 0
0 0 0 692 1336613 -2363 0
72 1 S102 690 1337303 -1673 0
72 1 S102 706 1338009 -967 0
72 1 S102 738 1338747 -229 0
72 2 S102 716 1339463 487 0
72 2 S102 724 1340187 1211 0
72 2 S102 721 1340908 1932 0
72 2 S102 702 1341610 2634 0
72 2 S102 678 1342288 3312 0
72 2 S102 671 1342959 3983 0
72 2 S102 665 1343624 4648 0
72 2 S102 656 1344280 5304 0
72 2 S102 641 1344921 5945 0
72 2 S102 628 1345549 6573 0
0 0 0 615 1346164 -6522 0
0 0 0 615 1346779 -5907 0
0 0 0 620 1347399 -5287 0
0 0 0 610 1348009 -4677 0
0 0 0 598 1348607 -4079 0
0 0 0 593 1349200 -3486 0
0 0 0 596 1349796 -2890 0
0 0 0 596 1350392 -2294 0
73 1 S116 596 1350988 -1698 0
73 1 S116 600 1351588 -1098 0
73 1 S116 599 1352187 -499 0
73 2 S116 599 1352786 100 0
73 2 S116 596 1353382 696 0
73 2 S116 599 1353981 1295 0
73 2 S116 612 1354593 1907 0
73 2 S116 652 1355245 2559 0
73 2 S116 678 1355923 3237 0
73 2 S116 748 1356671 3985 0
73 2 S116 655 1357326 4640 0
73 2 S116 1012 1358338 5652 1
73 2 S116 813 1359151 6465 0
0 0 0 829 1359980 -7909 0
0 0 0 801 1360781 -7108 0
0 0 0 743 1361524 -6365 0
0 0 0 710 1362234 -5655 0
0 0 0 693 1362927 -4962 0
0 0 0 678 1363605 -4284 0
0 0 0 674 1364279 -3610 0
0 0 0 671 1364950 -2939 0
0 0 0 665 1365615 -2274 0
74 1 S106 661 1366276 -1613 0
74 1 S106 653 1366929 -960 0
74 1 S106 628 1367557 -332 0
74 2 S106 615 1368172 283 0
74 2 S106 602 1368774 885 0
74 2 S106 584 1369358 1469 0
74 2 S106 577 1369935 2046 0
74 2 S106 573 1370508 2619 0
74 2 S106 572 1371080 3191 0
74 2 S106 568 1371648 3759 0
74 2 S106 565 1372213 4324 0
74 2 S106 567 1372780 4891 0
74 2 S106 575 1373355 5466 0
74 2 S106 600 1373955 6066 0
74 2 S106 616 1374571 6682 0
0 0 0 630 1375201 -5884 0
0 0 0 645 1375846 -5239 0
0 0 0 640 1376486 -4599 0
0 0 0 651 1377137 -3948 0
0 0 0 661 1377798 -3287 0
0 0 0 660 1378458 -2627 0
75 1 S112 661 1379119 -1966 0
75 1 S112 657 1379776 -1309 0
75 1 S112 666 1380442 -643 0
75 2 S112 678 1381120 35 0
75 2 S112 691 1381811 726 0
75 2 S112 691 1382502 1417 0
75 2 S112 686 1383188 2103 0
75 2 S112 699 1383887 2802 0
75 2 S112 691 1384578 3493 0
75 2 S112 688 1385266 4181 0
75 2 S112 701 1385967 4882 0
75 2 S112 676 1386643 5558 0
75 2 S112 690 1387333 6248 0
75 2 S112 675 1388008 6923 0
0 0 0 686 1388694 -7444 0
0 0 0 674 1389368 -6770 0
0 0 0 672 1390040 -6098 0
0 0 0 688 1390728 -5410 0
0 0 0 697 1391425 -4713 0
0 0 0 691 1392116 -4022 0
0 0 0 674 1392790 -3348 0
0 0 0 674 1393464 -2674 0
0 0 0 672 1394136 -2002 0
76 1 S116 664 1394800 -1338 0
76 1 S116 652 1395452 -686 0
76 1 S116 644 1396096 -42 0
76 2 S116 636 1396732 594 0
76 2 S116 644 1397376 1238 0
76 2 S116 648 1398024 1886 0
76 2 S116 644 1398668 2530 0
76 2 S116 650 1399318 3180 0
76 2 S116 650 1399968 3830 0
76 2 S116 653 1400621 4483 0
76 2 S116 651 1401272 5134 0
76 2 S116 655 1401927 5789 0
76 2 S116 654 1402581 6443 0
0 0 0 653 1403234 -7178 0
0 0 0 652 1403886 -6526 0
0 0 0 651 1404537 -5875 0
0 0 0 644 1405181 -5231 0
0 0 0 633 1405814 -4598 0
0 0 0 625 1406439 -3973 0
0 0 0 613 1407052 -3360 0
0 0 0 605 1407657 -2755 0
0 0 0 598 1408255 -2157 0
77 1 S106 591 1408846 -1566 0
77 1 S106 577 1409423 -989 0
77 1 S106 570 1409993 -419 0
77 2 S106 580 1410573 161 0
77 2 S106 612 1411185 773 0
77 2 S106 658 1411843 1431 0
77 2 S106 696 1412539 2127 0
77 2 S106 613 1413152 2740 0
77 2 S106 905 1414057 3645 0
77 2 S106 721 1414778 4366 0
77 2 S106 713 1415491 5079 0
77 2 S106 671 1416162 5750 0
77 2 S106 670 1416832 6420 0
0 0 0 643 1417475 -8222 0
0 0 0 638 1418113 -7584 0
0 0 0 634 1418747 -6950 0
0 0 0 624 1419371 -6326 0
0 0 0 628 1419999 -5698 0
0 0 0 616 1420615 -5082 0
0 0 0 618 1421233 -4464 0
0 0 0 619 1421852 -3845 0
0 0 0 612 1422464 -3233 0
0 0 0 614 1423078 -2619 0
0 0 0 606 1423684 -2013 0
78 1 S112 598 1424282 -1415 0
78 1 S112 593 1424875 -822 0
78 1 S112 585 1425460 -237 0
78 2 S112 575 1426035 338 0
78 2 S112 572 1426607 910 0
78 2 S112 570 1427177 1480 0
78 2 S112 575 1427752 2055 0
78 2 S112 577 1428329 2632 0
78 2 S112 588 1428917 3220 0
78 2 S112 620 1429537 3840 0
78 2 S112 646 1430183 4486 0
78 2 S112 660 1430843 5146 0
78 2 S112 670 1431513 5816 0
78 2 S112 663 1432176 6479 0
0 0 0 661 1432837 -10351 0
0 0 0 659 1433496 -9692 0
0 0 0 653 1434149 -9039 0
0 0 0 643 1434792 -8396 0
0 0 0 629 1435421 -7767 0
0 0 0 618 1436039 -7149 0
0 0 0 601 1436640 -6548 0
0 0 0 591 1437231 -5957 0
0 0 0 577 1437808 -5380 0
0 0 0 565 1438373 -4815 0
0 0 0 555 1438928 -4260 0
0 0 0 556 1439484 -3704 0
0 0 0 572 1440056 -3132 0
0 0 0 603 1440659 -2529 0
79 1 S102 633 1441292 -1896 0
79 1 S102 639 1441931 -1257 0
79 1 S102 771 1442702 -486 0
79 2 S102 693 1443395 207 0
79 2 S102 741 1444136 948 0
79 2 S102 718 1444854 1666 0
79 2 S102 658 1445512 2324 0
79 2 S102 733 1446245 3057 0
79 2 S102 670 1446915 3727 0
79 2 S102 704 1447619 4431 0
79 2 S102 700 1448319 5131 0
79 2 S102 688 1449007 5819 0
79 2 S102 672 1449679 6491 0
0 0 0 647 1450326 -7981 0
0 0 0 645 1450971 -7336 0
0 0 0 633 1451604 -6703 0
0 0 0 641 1452245 -6062 0
0 0 0 660 1452905 -5402 0
0 0 0 671 1453576 -4731 0
0 0 0 686 1454262 -4045 0
0 0 0 681 1454943 -3364 0
0 0 0 705 1455648 -2659 0
80 1 S116 721 1456369 -1938 0
80 1 S116 642 1457011 -1296 0
80 1 S116 894 1457905 -402 0
80 2 S116 704 1458609 302 0
80 2 S116 737 1459346 1039 0
80 2 S116 698 1460044 1737 0
80 2 S116 701 1460745 2438 0
80 2 S116 687 1461432 3125 0
80 2 S116 684 1462116 3809 0
80 2 S116 691 1462807 4500 0
80 2 S116 704 1463511 5204 0
80 2 S116 684 1464195 5888 0
80 2 S116 679 1464874 6567 0
