T_0049
BeatCount Mean SD BeatCountNoOutliers MeanNoOutliers SDNoOutliers
1551 940,422952933591 303,362596353557 1549 932,316333118141 81,5883704369304

Trial TrialStatus Trialtype IBI AbsPosition RelPosition Outlier
0 0 0 772 890 -15223 0
0 0 0 753 1643 -14470 0
0 0 0 728 2371 -13742 0
0 0 0 773 3144 -12969 0
0 0 0 801 3945 -12168 0
0 0 0 812 4757 -11356 0
0 0 0 745 5502 -10611 0
0 0 0 788 6290 -9823 0
0 0 0 828 7118 -8995 0
0 0 0 812 7930 -8183 0
0 0 0 757 8687 -7426 0
0 0 0 785 9472 -6641 0
0 0 0 799 10271 -5842 0
0 0 0 837 11108 -5005 0
0 0 0 812 11920 -4193 0
0 0 0 757 12677 -3436 0
0 0 0 790 13467 -2646 0
1 1 S112 805 14272 -1841 0
1 1 S112 816 15088 -1025 0
1 1 S112 809 15897 -216 0
1 2 S112 754 16651 538 0
1 2 S112 769 17420 1307 0
1 2 S112 797 18217 2104 0
1 2 S112 832 19049 2936 0
1 2 S112 829 19878 3765 0
1 2 S112 786 20664 4551 0
1 2 S112 797 21461 5348 0
1 2 S112 828 22289 6176 0
1 2 S112 843 23132 7019 0
0 0 0 820 23952 -10330 0
0 0 0 752 24704 -9578 0
0 0 0 782 25486 -8796 0
0 0 0 775 26261 -8021 0
0 0 0 790 27051 -7231 0
0 0 0 761 27812 -6470 0
0 0 0 809 28621 -5661 0
0 0 0 871 29492 -4790 0
0 0 0 901 30393 -3889 0
0 0 0 855 31248 -3034 0
0 0 0 870 32118 -2164 0
2 1 S102 911 33029 -1253 0
2 1 S102 878 33907 -375 0
2 2 S102 827 34734 452 0
2 2 S102 853 35587 1305 0
2 2 S102 865 36452 2170 0
2 2 S102 891 37343 3061 0
2 2 S102 860 38203 3921 0
2 2 S102 868 39071 4789 0
2 2 S102 900 39971 5689 0
2 2 S102 937 40908 6626 0
0 0 0 907 41815 -8051 0
0 0 0 836 42651 -7215 0
0 0 0 856 43507 -6359 0
0 0 0 850 44357 -5509 0
0 0 0 838 45195 -4671 0
0 0 0 793 45988 -3878 0
0 0 0 853 46841 -3025 0
0 0 0 885 47726 -2140 0
3 1 S116 897 48623 -1243 0
3 1 S116 845 49468 -398 0
3 2 S116 892 50360 494 0
3 2 S116 916 51276 1410 0
3 2 S116 930 52206 2340 0
3 2 S116 874 53080 3214 0
3 2 S116 883 53963 4097 0
3 2 S116 893 54856 4990 0
3 2 S116 903 55759 5893 0
3 2 S116 830 56589 6723 0
0 0 0 857 57446 -9811 0
0 0 0 912 58358 -8899 0
0 0 0 891 59249 -8008 0
0 0 0 830 60079 -7178 0
0 0 0 821 60900 -6357 0
0 0 0 875 61775 -5482 0
0 0 0 898 62673 -4584 0
0 0 0 860 63533 -3724 0
0 0 0 838 64371 -2886 0
0 0 0 875 65246 -2011 0
4 1 S106 904 66150 -1107 0
4 1 S106 873 67023 -234 0
4 2 S106 850 67873 616 0
4 2 S106 878 68751 1494 0
4 2 S106 894 69645 2388 0
4 2 S106 884 70529 3272 0
4 2 S106 858 71387 4130 0
4 2 S106 910 72297 5040 0
4 2 S106 923 73220 5963 0
4 2 S106 906 74126 6869 0
0 0 0 859 74985 -5800 0
0 0 0 828 75813 -4972 0
0 0 0 843 76656 -4129 0
0 0 0 879 77535 -3250 0
0 0 0 858 78393 -2392 0
5 1 S116 809 79202 -1583 0
5 1 S116 851 80053 -732 0
5 2 S116 870 80923 138 0
5 2 S116 883 81806 1021 0
5 2 S116 871 82677 1892 0
5 2 S116 857 83534 2749 0
5 2 S116 915 84449 3664 0
5 2 S116 943 85392 4607 0
5 2 S116 935 86327 5542 0
5 2 S116 909 87236 6451 0
0 0 0 870 88106 -8296 0
0 0 0 913 89019 -7383 0
0 0 0 917 89936 -6466 0
0 0 0 891 90827 -5575 0
0 0 0 854 91681 -4721 0
0 0 0 880 92561 -3841 0
0 0 0 909 93470 -2932 0
0 0 0 923 94393 -2009 0
6 1 S106 905 95298 -1104 0
6 1 S106 857 96155 -247 0
6 2 S106 814 96969 567 0
6 2 S106 865 97834 1432 0
6 2 S106 926 98760 2358 0
6 2 S106 967 99727 3325 0
6 2 S106 904 100631 4229 0
6 2 S106 881 101512 5110 0
6 2 S106 948 102460 6058 0
6 2 S106 967 103427 7025 0
0 0 0 950 104377 -9548 0
0 0 0 874 105251 -8674 0
0 0 0 890 106141 -7784 0
0 0 0 915 107056 -6869 0
0 0 0 885 107941 -5984 0
0 0 0 848 108789 -5136 0
0 0 0 904 109693 -4232 0
0 0 0 929 110622 -3303 0
0 0 0 933 111555 -2370 0
7 1 S102 887 112442 -1483 0
7 1 S102 827 113269 -656 0
7 2 S102 859 114128 203 0
7 2 S102 887 115015 1090 0
7 2 S102 925 115940 2015 0
7 2 S102 913 116853 2928 0
7 2 S102 889 117742 3817 0
7 2 S102 899 118641 4716 0
7 2 S102 938 119579 5654 0
7 2 S102 956 120535 6610 0
0 0 0 937 121472 -8120 0
0 0 0 882 122354 -7238 0
0 0 0 909 123263 -6329 0
0 0 0 947 124210 -5382 0
0 0 0 956 125166 -4426 0
0 0 0 899 126065 -3527 0
0 0 0 836 126901 -2691 0
8 1 S112 849 127750 -1842 0
8 1 S112 895 128645 -947 0
8 1 S112 940 129585 -7 0
8 2 S112 940 130525 933 0
8 2 S112 898 131423 1831 0
8 2 S112 852 132275 2683 0
8 2 S112 911 133186 3594 0
8 2 S112 959 134145 4553 0
8 2 S112 959 135104 5512 0
8 2 S112 928 136032 6440 0
0 0 0 879 136911 -6723 0
0 0 0 938 137849 -5785 0
0 0 0 967 138816 -4818 0
0 0 0 927 139743 -3891 0
0 0 0 863 140606 -3028 0
0 0 0 881 141487 -2147 0
9 1 S116 929 142416 -1218 0
9 1 S116 953 143369 -265 0
9 2 S116 907 144276 642 0
9 2 S116 848 145124 1490 0
9 2 S116 884 146008 2374 0
9 2 S116 946 146954 3320 0
9 2 S116 1001 147955 4321 0
9 2 S116 965 148920 5286 0
9 2 S116 908 149828 6194 0
0 0 0 941 150769 -10819 0
0 0 0 989 151758 -9830 0
0 0 0 1005 152763 -8825 0
0 0 0 924 153687 -7901 0
0 0 0 853 154540 -7048 0
0 0 0 826 155366 -6222 0
0 0 0 922 156288 -5300 0
0 0 0 975 157263 -4325 0
0 0 0 998 158261 -3327 0
0 0 0 964 159225 -2363 0
10 1 S102 890 160115 -1473 0
10 1 S102 945 161060 -528 0
10 2 S102 978 162038 450 0
10 2 S102 1011 163049 1461 0
10 2 S102 982 164031 2443 0
10 2 S102 898 164929 3341 0
10 2 S102 896 165825 4237 0
10 2 S102 951 166776 5188 0
10 2 S102 957 167733 6145 0
0 0 0 946 168679 -10217 0
0 0 0 896 169575 -9321 0
0 0 0 903 170478 -8418 0
0 0 0 956 171434 -7462 0
0 0 0 985 172419 -6477 0
0 0 0 928 173347 -5549 0
0 0 0 822 174169 -4727 0
0 0 0 762 174931 -3965 0
0 0 0 740 175671 -3225 0
0 0 0 740 176411 -2485 0
11 1 S112 794 177205 -1691 0
11 1 S112 825 178030 -866 0
11 1 S112 856 178886 -10 0
11 2 S112 852 179738 842 0
11 2 S112 991 180729 1833 0
11 2 S112 1029 181758 2862 0
11 2 S112 974 182732 3836 0
11 2 S112 884 183616 4720 0
11 2 S112 873 184489 5593 0
11 2 S112 888 185377 6481 0
0 0 0 917 186294 -6146 0
0 0 0 907 187201 -5239 0
0 0 0 829 188030 -4410 0
0 0 0 840 188870 -3570 0
0 0 0 896 189766 -2674 0
12 1 S116 928 190694 -1746 0
12 1 S116 901 191595 -845 0
12 2 S116 853 192448 8 0
12 2 S116 922 193370 930 0
12 2 S116 981 194351 1911 0
12 2 S116 1007 195358 2918 0
12 2 S116 964 196322 3882 0
12 2 S116 959 197281 4841 0
12 2 S116 1034 198315 5875 0
12 2 S116 1046 199361 6921 0
0 0 0 1036 200397 -9849 0
0 0 0 967 201364 -8882 0
0 0 0 1003 202367 -7879 0
0 0 0 1035 203402 -6844 0
0 0 0 1004 204406 -5840 0
0 0 0 940 205346 -4900 0
0 0 0 953 206299 -3947 0
0 0 0 997 207296 -2950 0
13 1 S112 998 208294 -1952 0
13 1 S112 954 209248 -998 0
13 1 S112 923 210171 -75 0
13 2 S112 970 211141 895 0
13 2 S112 1017 212158 1912 0
13 2 S112 986 213144 2898 0
13 2 S112 908 214052 3806 0
13 2 S112 975 215027 4781 0
13 2 S112 1031 216058 5812 0
13 2 S112 1004 217062 6816 0
0 0 0 934 217996 -9790 0
0 0 0 970 218966 -8820 0
0 0 0 974 219940 -7846 0
0 0 0 934 220874 -6912 0
0 0 0 883 221757 -6029 0
0 0 0 974 222731 -5055 0
0 0 0 1018 223749 -4037 0
0 0 0 963 224712 -3074 0
0 0 0 913 225625 -2161 0
14 1 S106 953 226578 -1208 0
14 1 S106 980 227558 -228 0
14 2 S106 912 228470 684 0
14 2 S106 910 229380 1594 0
14 2 S106 962 230342 2556 0
14 2 S106 987 231329 3543 0
14 2 S106 947 232276 4490 0
14 2 S106 905 233181 5395 0
14 2 S106 962 234143 6357 0
0 0 0 963 235106 -10203 0
0 0 0 941 236047 -9262 0
0 0 0 877 236924 -8385 0
0 0 0 928 237852 -7457 0
0 0 0 943 238795 -6514 0
0 0 0 953 239748 -5561 0
0 0 0 910 240658 -4651 0
0 0 0 980 241638 -3671 0
0 0 0 1028 242666 -2643 0
15 1 S116 1018 243684 -1625 0
15 1 S116 942 244626 -683 0
15 2 S116 960 245586 277 0
15 2 S116 987 246573 1264 0
15 2 S116 991 247564 2255 0
15 2 S116 933 248497 3188 0
15 2 S116 878 249375 4066 0
15 2 S116 944 250319 5010 0
15 2 S116 1000 251319 6010 0
15 2 S116 992 252311 7002 0
0 0 0 940 253251 -7841 0
0 0 0 959 254210 -6882 0
0 0 0 951 255161 -5931 0
0 0 0 914 256075 -5017 0
0 0 0 861 256936 -4156 0
0 0 0 890 257826 -3266 0
0 0 0 942 258768 -2324 0
16 1 S116 982 259750 -1342 0
16 1 S116 900 260650 -442 0
16 2 S116 892 261542 450 0
16 2 S116 958 262500 1408 0
16 2 S116 1003 263503 2411 0
16 2 S116 978 264481 3389 0
16 2 S116 947 265428 4336 0
16 2 S116 1007 266435 5343 0
16 2 S116 1012 267447 6355 0
0 0 0 993 268440 -8152 0
0 0 0 936 269376 -7216 0
0 0 0 883 270259 -6333 0
0 0 0 948 271207 -5385 0
0 0 0 972 272179 -4413 0
0 0 0 982 273161 -3431 0
0 0 0 957 274118 -2474 0
17 1 S106 978 275096 -1496 0
17 1 S106 1009 276105 -487 0
17 2 S106 1018 277123 531 0
17 2 S106 982 278105 1513 0
17 2 S106 936 279041 2449 0
17 2 S106 1011 280052 3460 0
17 2 S106 1042 281094 4502 0
17 2 S106 1010 282104 5512 0
17 2 S106 947 283051 6459 0
0 0 0 997 284048 -10532 0
0 0 0 1052 285100 -9480 0
0 0 0 1017 286117 -8463 0
0 0 0 954 287071 -7509 0
0 0 0 896 287967 -6613 0
0 0 0 941 288908 -5672 0
0 0 0 985 289893 -4687 0
0 0 0 977 290870 -3710 0
0 0 0 930 291800 -2780 0
18 1 S102 943 292743 -1837 0
18 1 S102 979 293722 -858 0
18 2 S102 981 294703 123 0
18 2 S102 930 295633 1053 0
18 2 S102 875 296508 1928 0
18 2 S102 919 297427 2847 0
18 2 S102 981 298408 3828 0
18 2 S102 996 299404 4824 0
18 2 S102 922 300326 5746 0
18 2 S102 828 301154 6574 0
0 0 0 786 301940 -6151 0
0 0 0 829 302769 -5322 0
0 0 0 809 303578 -4513 0
0 0 0 727 304305 -3786 0
0 0 0 704 305009 -3082 0
0 0 0 714 305723 -2368 0
19 1 S106 760 306483 -1608 0
19 1 S106 911 307394 -697 0
19 2 S106 931 308325 234 0
19 2 S106 987 309312 1221 0
19 2 S106 1020 310332 2241 0
19 2 S106 1026 311358 3267 0
19 2 S106 962 312320 4229 0
19 2 S106 876 313196 5105 0
19 2 S106 923 314119 6028 0
19 2 S106 928 315047 6956 0
0 0 0 919 315966 -9831 0
0 0 0 878 316844 -8953 0
0 0 0 800 317644 -8153 0
0 0 0 821 318465 -7332 0
0 0 0 814 319279 -6518 0
0 0 0 843 320122 -5675 0
0 0 0 871 320993 -4804 0
0 0 0 848 321841 -3956 0
0 0 0 851 322692 -3105 0
0 0 0 914 323606 -2191 0
20 1 S112 976 324582 -1215 0
20 1 S112 949 325531 -266 0
20 2 S112 896 326427 630 0
20 2 S112 822 327249 1452 0
20 2 S112 783 328032 2235 0
20 2 S112 853 328885 3088 0
20 2 S112 957 329842 4045 0
20 2 S112 1024 330866 5069 0
20 2 S112 1006 331872 6075 0
0 0 0 960 332832 -9212 0
0 0 0 911 333743 -8301 0
0 0 0 918 334661 -7383 0
0 0 0 935 335596 -6448 0
0 0 0 932 336528 -5516 0
0 0 0 873 337401 -4643 0
0 0 0 801 338202 -3842 0
0 0 0 842 339044 -3000 0
0 0 0 882 339926 -2118 0
21 1 S106 906 340832 -1212 0
21 1 S106 876 341708 -336 0
21 2 S106 826 342534 490 0
21 2 S106 883 343417 1373 0
21 2 S106 919 344336 2292 0
21 2 S106 955 345291 3247 0
21 2 S106 938 346229 4185 0
21 2 S106 890 347119 5075 0
21 2 S106 927 348046 6002 0
21 2 S106 951 348997 6953 0
0 0 0 940 349937 -9746 0
0 0 0 891 350828 -8855 0
0 0 0 874 351702 -7981 0
0 0 0 890 352592 -7091 0
0 0 0 915 353507 -6176 0
0 0 0 897 354404 -5279 0
0 0 0 801 355205 -4478 0
0 0 0 828 356033 -3650 0
0 0 0 866 356899 -2784 0
22 1 S116 898 357797 -1886 0
22 1 S116 871 358668 -1015 0
22 1 S116 827 359495 -188 0
22 2 S116 886 360381 698 0
22 2 S116 934 361315 1632 0
22 2 S116 960 362275 2592 0
22 2 S116 909 363184 3501 0
22 2 S116 931 364115 4432 0
22 2 S116 984 365099 5416 0
22 2 S116 1018 366117 6434 0
0 0 0 969 367086 -8678 0
0 0 0 967 368053 -7711 0
0 0 0 985 369038 -6726 0
0 0 0 958 369996 -5768 0
0 0 0 855 370851 -4913 0
0 0 0 871 371722 -4042 0
0 0 0 912 372634 -3130 0
0 0 0 932 373566 -2198 0
23 1 S112 890 374456 -1308 0
23 1 S112 921 375377 -387 0
23 2 S112 976 376353 589 0
23 2 S112 979 377332 1568 0
23 2 S112 945 378277 2513 0
23 2 S112 911 379188 3424 0
23 2 S112 944 380132 4368 0
23 2 S112 966 381098 5334 0
23 2 S112 948 382046 6282 0
0 0 0 872 382918 -8828 0
0 0 0 887 383805 -7941 0
0 0 0 943 384748 -6998 0
0 0 0 946 385694 -6052 0
0 0 0 893 386587 -5159 0
0 0 0 837 387424 -4322 0
0 0 0 905 388329 -3417 0
0 0 0 957 389286 -2460 0
24 1 S106 965 390251 -1495 0
24 1 S106 918 391169 -577 0
24 2 S106 905 392074 328 0
24 2 S106 944 393018 1272 0
24 2 S106 966 393984 2238 0
24 2 S106 935 394919 3173 0
24 2 S106 868 395787 4041 0
24 2 S106 914 396701 4955 0
24 2 S106 946 397647 5901 0
24 2 S106 952 398599 6853 0
0 0 0 890 399489 -7708 0
0 0 0 929 400418 -6779 0
0 0 0 903 401321 -5876 0
0 0 0 913 402234 -4963 0
0 0 0 864 403098 -4099 0
0 0 0 904 404002 -3195 0
0 0 0 954 404956 -2241 0
25 1 S102 968 405924 -1273 0
25 1 S102 898 406822 -375 0
25 2 S102 941 407763 566 0
25 2 S102 981 408744 1547 0
25 2 S102 994 409738 2541 0
25 2 S102 953 410691 3494 0
25 2 S102 887 411578 4381 0
25 2 S102 916 412494 5297 0
25 2 S102 941 413435 6238 0
0 0 0 911 414346 -6296 0
0 0 0 875 415221 -5421 0
0 0 0 918 416139 -4503 0
0 0 0 979 417118 -3524 0
0 0 0 958 418076 -2566 0
26 1 S116 895 418971 -1671 0
26 1 S116 949 419920 -722 0
26 2 S116 1012 420932 290 0
26 2 S116 989 421921 1279 0
26 2 S116 930 422851 2209 0
26 2 S116 943 423794 3152 0
26 2 S116 976 424770 4128 0
26 2 S116 989 425759 5117 0
26 2 S116 954 426713 6071 0
26 2 S116 917 427630 6988 0
0 0 0 985 428615 -5538 0
0 0 0 1001 429616 -4537 0
0 0 0 989 430605 -3548 0
0 0 0 932 431537 -2616 0
27 1 S106 978 432515 -1638 0
27 1 S106 1018 433533 -620 0
27 2 S106 984 434517 364 0
27 2 S106 941 435458 1305 0
27 2 S106 990 436448 2295 0
27 2 S106 1015 437463 3310 0
27 2 S106 1017 438480 4327 0
27 2 S106 974 439454 5301 0
27 2 S106 991 440445 6292 0
0 0 0 1022 441467 -6529 0
0 0 0 991 442458 -5538 0
0 0 0 929 443387 -4609 0
0 0 0 965 444352 -3644 0
0 0 0 1027 445379 -2617 0
28 1 S102 1009 446388 -1608 0
28 1 S102 944 447332 -664 0
28 2 S102 898 448230 234 0
28 2 S102 959 449189 1193 0
28 2 S102 999 450188 2192 0
28 2 S102 1007 451195 3199 0
28 2 S102 944 452139 4143 0
28 2 S102 872 453011 5015 0
28 2 S102 928 453939 5943 0
28 2 S102 1013 454952 6956 0
0 0 0 1034 455986 -10363 0
0 0 0 978 456964 -9385 0
0 0 0 920 457884 -8465 0
0 0 0 958 458842 -7507 0
0 0 0 960 459802 -6547 0
0 0 0 881 460683 -5666 0
0 0 0 781 461464 -4885 0
0 0 0 748 462212 -4137 0
0 0 0 755 462967 -3382 0
0 0 0 785 463752 -2597 0
29 1 S112 922 464674 -1675 0
29 1 S112 1028 465702 -647 0
29 2 S112 1071 466773 424 0
29 2 S112 1073 467846 1497 0
29 2 S112 1034 468880 2531 0
29 2 S112 1025 469905 3556 0
29 2 S112 953 470858 4509 0
29 2 S112 867 471725 5376 0
29 2 S112 873 472598 6249 0
0 0 0 908 473506 -6636 0
0 0 0 932 474438 -5704 0
0 0 0 896 475334 -4808 0
0 0 0 870 476204 -3938 0
0 0 0 921 477125 -3017 0
0 0 0 967 478092 -2050 0
30 1 S112 939 479031 -1111 0
30 1 S112 920 479951 -191 0
30 2 S112 955 480906 764 0
30 2 S112 969 481875 1733 0
30 2 S112 960 482835 2693 0
30 2 S112 978 483813 3671 0
30 2 S112 1022 484835 4693 0
30 2 S112 1049 485884 5742 0
30 2 S112 1014 486898 6756 0
0 0 0 948 487846 -7929 0
0 0 0 990 488836 -6939 0
0 0 0 1002 489838 -5937 0
0 0 0 960 490798 -4977 0
0 0 0 942 491740 -4035 0
0 0 0 1015 492755 -3020 0
31 1 S106 1039 493794 -1981 0
31 1 S106 1004 494798 -977 0
31 2 S106 982 495780 5 0
31 2 S106 1003 496783 1008 0
31 2 S106 1014 497797 2022 0
31 2 S106 922 498719 2944 0
31 2 S106 905 499624 3849 0
31 2 S106 956 500580 4805 0
31 2 S106 991 501571 5796 0
31 2 S106 921 502492 6717 0
0 0 0 891 503383 -7993 0
0 0 0 973 504356 -7020 0
0 0 0 954 505310 -6066 0
0 0 0 897 506207 -5169 0
0 0 0 916 507123 -4253 0
0 0 0 956 508079 -3297 0
0 0 0 980 509059 -2317 0
32 1 S102 885 509944 -1432 0
32 1 S102 880 510824 -552 0
32 2 S102 911 511735 359 0
32 2 S102 953 512688 1312 0
32 2 S102 974 513662 2286 0
32 2 S102 907 514569 3193 0
32 2 S102 920 515489 4113 0
32 2 S102 938 516427 5051 0
32 2 S102 944 517371 5995 0
32 2 S102 906 518277 6901 0
0 0 0 849 519126 -9657 0
0 0 0 935 520061 -8722 0
0 0 0 963 521024 -7759 0
0 0 0 931 521955 -6828 0
0 0 0 849 522804 -5979 0
0 0 0 928 523732 -5051 0
0 0 0 969 524701 -4082 0
0 0 0 938 525639 -3144 0
0 0 0 848 526487 -2296 0
33 1 S112 864 527351 -1432 0
33 1 S112 926 528277 -506 0
33 2 S112 931 529208 425 0
33 2 S112 900 530108 1325 0
33 2 S112 894 531002 2219 0
33 2 S112 955 531957 3174 0
33 2 S112 1015 532972 4189 0
33 2 S112 995 533967 5184 0
33 2 S112 920 534887 6104 0
0 0 0 935 535822 -11230 0
0 0 0 943 536765 -10287 0
0 0 0 931 537696 -9356 0
0 0 0 866 538562 -8490 0
0 0 0 905 539467 -7585 0
0 0 0 950 540417 -6635 0
0 0 0 976 541393 -5659 0
0 0 0 896 542289 -4763 0
0 0 0 918 543207 -3845 0
0 0 0 970 544177 -2875 0
34 1 S106 986 545163 -1889 0
34 1 S106 944 546107 -945 0
34 1 S106 928 547035 -17 0
34 2 S106 1005 548040 988 0
34 2 S106 1031 549071 2019 0
34 2 S106 1017 550088 3036 0
34 2 S106 942 551030 3978 0
34 2 S106 980 552010 4958 0
34 2 S106 1004 553014 5962 0
34 2 S106 985 553999 6947 0
0 0 0 902 554901 -7718 0
0 0 0 900 555801 -6818 0
0 0 0 899 556700 -5919 0
0 0 0 917 557617 -5002 0
0 0 0 860 558477 -4142 0
0 0 0 792 559269 -3350 0
0 0 0 755 560024 -2595 0
35 1 S102 744 560768 -1851 0
35 1 S102 806 561574 -1045 0
35 1 S102 900 562474 -145 0
35 2 S102 917 563391 772 0
35 2 S102 1003 564394 1775 0
35 2 S102 1087 565481 2862 0
35 2 S102 1089 566570 3951 0
35 2 S102 1078 567648 5029 0
35 2 S102 1022 568670 6051 0
35 2 S102 964 569634 7015 0
0 0 0 996 570630 -6479 0
0 0 0 995 571625 -5484 0
0 0 0 956 572581 -4528 0
0 0 0 882 573463 -3646 0
0 0 0 895 574358 -2751 0
36 1 S106 928 575286 -1823 0
36 1 S106 947 576233 -876 0
36 2 S106 921 577154 45 0
36 2 S106 954 578108 999 0
36 2 S106 1008 579116 2007 0
36 2 S106 1041 580157 3048 0
36 2 S106 982 581139 4030 0
36 2 S106 1006 582145 5036 0
36 2 S106 1005 583150 6041 0
0 0 0 1023 584173 -8503 0
0 0 0 974 585147 -7529 0
0 0 0 966 586113 -6563 0
0 0 0 962 587075 -5601 0
0 0 0 912 587987 -4689 0
0 0 0 900 588887 -3789 0
0 0 0 924 589811 -2865 0
37 1 S116 945 590756 -1920 0
37 1 S116 903 591659 -1017 0
37 1 S116 919 592578 -98 0
37 2 S116 960 593538 862 0
37 2 S116 1005 594543 1867 0
37 2 S116 978 595521 2845 0
37 2 S116 946 596467 3791 0
37 2 S116 1013 597480 4804 0
37 2 S116 1049 598529 5853 0
37 2 S116 1001 599530 6854 0
0 0 0 1024 600554 -10474 0
0 0 0 1020 601574 -9454 0
0 0 0 1004 602578 -8450 0
0 0 0 913 603491 -7537 0
0 0 0 921 604412 -6616 0
0 0 0 970 605382 -5646 0
0 0 0 993 606375 -4653 0
0 0 0 954 607329 -3699 0
0 0 0 924 608253 -2775 0
38 1 S102 931 609184 -1844 0
38 1 S102 950 610134 -894 0
38 1 S102 884 611018 -10 0
38 2 S102 912 611930 902 0
38 2 S102 981 612911 1883 0
38 2 S102 979 613890 2862 0
38 2 S102 925 614815 3787 0
38 2 S102 937 615752 4724 0
38 2 S102 967 616719 5691 0
38 2 S102 949 617668 6640 0
0 0 0 906 618574 -8618 0
0 0 0 945 619519 -7673 0
0 0 0 969 620488 -6704 0
0 0 0 913 621401 -5791 0
0 0 0 835 622236 -4956 0
0 0 0 889 623125 -4067 0
0 0 0 905 624030 -3162 0
0 0 0 956 624986 -2206 0
39 1 S116 919 625905 -1287 0
39 1 S116 953 626858 -334 0
39 2 S116 975 627833 641 0
39 2 S116 970 628803 1611 0
39 2 S116 934 629737 2545 0
39 2 S116 981 630718 3526 0
39 2 S116 1007 631725 4533 0
39 2 S116 987 632712 5520 0
39 2 S116 922 633634 6442 0
0 0 0 946 634580 -6422 0
0 0 0 950 635530 -5472 0
0 0 0 919 636449 -4553 0
0 0 0 844 637293 -3709 0
0 0 0 871 638164 -2838 0
40 1 S112 952 639116 -1886 0
40 1 S112 971 640087 -915 0
40 2 S112 928 641015 13 0
40 2 S112 999 642014 1012 0
40 2 S112 1003 643017 2015 0
40 2 S112 977 643994 2992 0
40 2 S112 912 644906 3904 0
40 2 S112 923 645829 4827 0
40 2 S112 940 646769 5767 0
40 2 S112 925 647694 6692 0
0 0 0 851 648545 -186192 0
0 0 0 909 649454 -185283 0
0 0 0 946 650400 -184337 0
0 0 0 878 651278 -183459 0
0 0 0 748 652026 -182711 0
0 0 0 716 652742 -181995 0
0 0 0 708 653450 -181287 0
0 0 0 714 654164 -180573 0
0 0 0 754 654918 -179819 0
0 0 0 2047 656965 -177772 1
0 0 0 1265 658230 -176507 0
0 0 0 659 658889 -175848 0
0 0 0 628 659517 -175220 0
0 0 0 12391 671908 -162829 1
0 0 0 756 672664 -162073 0
0 0 0 874 673538 -161199 0
0 0 0 921 674459 -160278 0
0 0 0 981 675440 -159297 0
0 0 0 971 676411 -158326 0
0 0 0 985 677396 -157341 0
0 0 0 881 678277 -156460 0
0 0 0 937 679214 -155523 0
0 0 0 994 680208 -154529 0
0 0 0 981 681189 -153548 0
0 0 0 852 682041 -152696 0
0 0 0 897 682938 -151799 0
0 0 0 892 683830 -150907 0
0 0 0 815 684645 -150092 0
0 0 0 805 685450 -149287 0
0 0 0 852 686302 -148435 0
0 0 0 902 687204 -147533 0
0 0 0 901 688105 -146632 0
0 0 0 1061 689166 -145571 0
0 0 0 1089 690255 -144482 0
0 0 0 1073 691328 -143409 0
0 0 0 1044 692372 -142365 0
0 0 0 940 693312 -141425 0
0 0 0 1044 694356 -140381 0
0 0 0 1024 695380 -139357 0
0 0 0 953 696333 -138404 0
0 0 0 983 697316 -137421 0
0 0 0 982 698298 -136439 0
0 0 0 916 699214 -135523 0
0 0 0 985 700199 -134538 0
0 0 0 893 701092 -133645 0
0 0 0 856 701948 -132789 0
0 0 0 888 702836 -131901 0
0 0 0 947 703783 -130954 0
0 0 0 984 704767 -129970 0
0 0 0 924 705691 -129046 0
0 0 0 955 706646 -128091 0
0 0 0 973 707619 -127118 0
0 0 0 998 708617 -126120 0
0 0 0 1023 709640 -125097 0
0 0 0 915 710555 -124182 0
0 0 0 931 711486 -123251 0
0 0 0 930 712416 -122321 0
0 0 0 803 713219 -121518 0
0 0 0 839 714058 -120679 0
0 0 0 824 714882 -119855 0
0 0 0 825 715707 -119030 0
0 0 0 796 716503 -118234 0
0 0 0 786 717289 -117448 0
0 0 0 820 718109 -116628 0
0 0 0 840 718949 -115788 0
0 0 0 809 719758 -114979 0
0 0 0 758 720516 -114221 0
0 0 0 826 721342 -113395 0
0 0 0 923 722265 -112472 0
0 0 0 891 723156 -111581 0
0 0 0 915 724071 -110666 0
0 0 0 943 725014 -109723 0
0 0 0 985 725999 -108738 0
0 0 0 1001 727000 -107737 0
0 0 0 993 727993 -106744 0
0 0 0 974 728967 -105770 0
0 0 0 861 729828 -104909 0
0 0 0 795 730623 -104114 0
0 0 0 835 731458 -103279 0
0 0 0 923 732381 -102356 0
0 0 0 915 733296 -101441 0
0 0 0 934 734230 -100507 0
0 0 0 943 735173 -99564 0
0 0 0 936 736109 -98628 0
0 0 0 868 736977 -97760 0
0 0 0 845 737822 -96915 0
0 0 0 826 738648 -96089 0
0 0 0 878 739526 -95211 0
0 0 0 906 740432 -94305 0
0 0 0 854 741286 -93451 0
0 0 0 959 742245 -92492 0
0 0 0 1026 743271 -91466 0
0 0 0 1020 744291 -90446 0
0 0 0 979 745270 -89467 0
0 0 0 1017 746287 -88450 0
0 0 0 1030 747317 -87420 0
0 0 0 932 748249 -86488 0
0 0 0 909 749158 -85579 0
0 0 0 962 750120 -84617 0
0 0 0 877 750997 -83740 0
0 0 0 749 751746 -82991 0
0 0 0 720 752466 -82271 0
0 0 0 819 753285 -81452 0
0 0 0 745 754030 -80707 0
0 0 0 867 754897 -79840 0
0 0 0 956 755853 -78884 0
0 0 0 963 756816 -77921 0
0 0 0 936 757752 -76985 0
0 0 0 929 758681 -76056 0
0 0 0 950 759631 -75106 0
0 0 0 943 760574 -74163 0
0 0 0 942 761516 -73221 0
0 0 0 872 762388 -72349 0
0 0 0 932 763320 -71417 0
0 0 0 1022 764342 -70395 0
0 0 0 995 765337 -69400 0
0 0 0 926 766263 -68474 0
0 0 0 970 767233 -67504 0
0 0 0 987 768220 -66517 0
0 0 0 991 769211 -65526 0
0 0 0 863 770074 -64663 0
0 0 0 879 770953 -63784 0
0 0 0 893 771846 -62891 0
0 0 0 904 772750 -61987 0
0 0 0 860 773610 -61127 0
0 0 0 945 774555 -60182 0
0 0 0 999 775554 -59183 0
0 0 0 938 776492 -58245 0
0 0 0 979 777471 -57266 0
0 0 0 1024 778495 -56242 0
0 0 0 1047 779542 -55195 0
0 0 0 997 780539 -54198 0
0 0 0 1007 781546 -53191 0
0 0 0 999 782545 -52192 0
0 0 0 921 783466 -51271 0
0 0 0 955 784421 -50316 0
0 0 0 983 785404 -49333 0
0 0 0 965 786369 -48368 0
0 0 0 872 787241 -47496 0
0 0 0 953 788194 -46543 0
0 0 0 978 789172 -45565 0
0 0 0 925 790097 -44640 0
0 0 0 916 791013 -43724 0
0 0 0 1001 792014 -42723 0
0 0 0 1050 793064 -41673 0
0 0 0 966 794030 -40707 0
0 0 0 982 795012 -39725 0
0 0 0 1002 796014 -38723 0
0 0 0 927 796941 -37796 0
0 0 0 810 797751 -36986 0
0 0 0 803 798554 -36183 0
0 0 0 752 799306 -35431 0
0 0 0 730 800036 -34701 0
0 0 0 779 800815 -33922 0
0 0 0 808 801623 -33114 0
0 0 0 778 802401 -32336 0
0 0 0 812 803213 -31524 0
0 0 0 863 804076 -30661 0
0 0 0 882 804958 -29779 0
0 0 0 822 805780 -28957 0
0 0 0 840 806620 -28117 0
0 0 0 852 807472 -27265 0
0 0 0 854 808326 -26411 0
0 0 0 799 809125 -25612 0
0 0 0 775 809900 -24837 0
0 0 0 823 810723 -24014 0
0 0 0 877 811600 -23137 0
0 0 0 912 812512 -22225 0
0 0 0 882 813394 -21343 0
0 0 0 831 814225 -20512 0
0 0 0 864 815089 -19648 0
0 0 0 875 815964 -18773 0
0 0 0 861 816825 -17912 0
0 0 0 807 817632 -17105 0
0 0 0 829 818461 -16276 0
0 0 0 786 819247 -15490 0
0 0 0 740 819987 -14750 0
0 0 0 693 820680 -14057 0
0 0 0 734 821414 -13323 0
0 0 0 745 822159 -12578 0
0 0 0 800 822959 -11778 0
0 0 0 840 823799 -10938 0
0 0 0 824 824623 -10114 0
0 0 0 805 825428 -9309 0
0 0 0 867 826295 -8442 0
0 0 0 897 827192 -7545 0
0 0 0 909 828101 -6636 0
0 0 0 862 828963 -5774 0
0 0 0 820 829783 -4954 0
0 0 0 844 830627 -4110 0
0 0 0 864 831491 -3246 0
0 0 0 823 832314 -2423 0
41 1 S102 772 833086 -1651 0
41 1 S102 825 833911 -826 0
41 2 S102 855 834766 29 0
41 2 S102 853 835619 882 0
41 2 S102 789 836408 1671 0
41 2 S102 898 837306 2569 0
41 2 S102 985 838291 3554 0
41 2 S102 1054 839345 4608 0
41 2 S102 1002 840347 5610 0
41 2 S102 937 841284 6547 0
0 0 0 968 842252 -6080 0
0 0 0 947 843199 -5133 0
0 0 0 886 844085 -4247 0
0 0 0 828 844913 -3419 0
0 0 0 841 845754 -2578 0
42 1 S112 872 846626 -1706 0
42 1 S112 870 847496 -836 0
42 1 S112 800 848296 -36 0
42 2 S112 884 849180 848 0
42 2 S112 941 850121 1789 0
42 2 S112 979 851100 2768 0
42 2 S112 923 852023 3691 0
42 2 S112 978 853001 4669 0
42 2 S112 1000 854001 5669 0
42 2 S112 937 854938 6606 0
0 0 0 919 855857 -8473 0
0 0 0 943 856800 -7530 0
0 0 0 987 857787 -6543 0
0 0 0 904 858691 -5639 0
0 0 0 911 859602 -4728 0
0 0 0 968 860570 -3760 0
0 0 0 978 861548 -2782 0
43 1 S116 966 862514 -1816 0
43 1 S116 916 863430 -900 0
43 2 S116 1007 864437 107 0
43 2 S116 1023 865460 1130 0
43 2 S116 1022 866482 2152 0
43 2 S116 989 867471 3141 0
43 2 S116 975 868446 4116 0
43 2 S116 1033 869479 5149 0
43 2 S116 1060 870539 6209 0
0 0 0 1007 871546 -6461 0
0 0 0 924 872470 -5537 0
0 0 0 974 873444 -4563 0
0 0 0 992 874436 -3571 0
0 0 0 940 875376 -2631 0
44 1 S102 880 876256 -1751 0
44 1 S102 932 877188 -819 0
44 2 S102 982 878170 163 0
44 2 S102 1017 879187 1180 0
44 2 S102 955 880142 2135 0
44 2 S102 938 881080 3073 0
44 2 S102 980 882060 4053 0
44 2 S102 1008 883068 5061 0
44 2 S102 924 883992 5985 0
44 2 S102 869 884861 6854 0
0 0 0 926 885787 -7770 0
0 0 0 965 886752 -6805 0
0 0 0 976 887728 -5829 0
0 0 0 953 888681 -4876 0
0 0 0 972 889653 -3904 0
0 0 0 1013 890666 -2891 0
45 1 S116 1020 891686 -1871 0
45 1 S116 983 892669 -888 0
45 2 S116 902 893571 14 0
45 2 S116 959 894530 973 0
45 2 S116 981 895511 1954 0
45 2 S116 1019 896530 2973 0
45 2 S116 978 897508 3951 0
45 2 S116 967 898475 4918 0
45 2 S116 1011 899486 5929 0
45 2 S116 1036 900522 6965 0
0 0 0 959 901481 -10313 0
0 0 0 929 902410 -9384 0
0 0 0 966 903376 -8418 0
0 0 0 1002 904378 -7416 0
0 0 0 986 905364 -6430 0
0 0 0 898 906262 -5532 0
0 0 0 966 907228 -4566 0
0 0 0 984 908212 -3582 0
0 0 0 1008 909220 -2574 0
46 1 S102 957 910177 -1617 0
46 1 S102 899 911076 -718 0
46 2 S102 1000 912076 282 0
46 2 S102 1042 913118 1324 0
46 2 S102 1071 914189 2395 0
46 2 S102 1007 915196 3402 0
46 2 S102 1044 916240 4446 0
46 2 S102 1083 917323 5529 0
46 2 S102 1079 918402 6608 0
0 0 0 1010 919412 -8214 0
0 0 0 992 920404 -7222 0
0 0 0 1013 921417 -6209 0
0 0 0 1015 922432 -5194 0
0 0 0 917 923349 -4277 0
0 0 0 894 924243 -3383 0
0 0 0 969 925212 -2414 0
47 1 S112 1041 926253 -1373 0
47 1 S112 1006 927259 -367 0
47 2 S112 955 928214 588 0
47 2 S112 1025 929239 1613 0
47 2 S112 1054 930293 2667 0
47 2 S112 1033 931326 3700 0
47 2 S112 969 932295 4669 0
47 2 S112 1009 933304 5678 0
47 2 S112 1059 934363 6737 0
0 0 0 1034 935397 -10813 0
0 0 0 931 936328 -9882 0
0 0 0 976 937304 -8906 0
0 0 0 987 938291 -7919 0
0 0 0 930 939221 -6989 0
0 0 0 815 940036 -6174 0
0 0 0 761 940797 -5413 0
0 0 0 731 941528 -4682 0
0 0 0 761 942289 -3921 0
0 0 0 837 943126 -3084 0
0 0 0 857 943983 -2227 0
48 1 S116 1021 945004 -1206 0
48 1 S116 1128 946132 -78 0
48 2 S116 1102 947234 1024 0
48 2 S116 1160 948394 2184 0
48 2 S116 1036 949430 3220 0
48 2 S116 1042 950472 4262 0
48 2 S116 1085 951557 5347 0
48 2 S116 1042 952599 6389 0
0 0 0 966 953565 -6323 0
0 0 0 998 954563 -5325 0
0 0 0 1005 955568 -4320 0
0 0 0 987 956555 -3333 0
0 0 0 901 957456 -2432 0
49 1 S112 920 958376 -1512 0
49 1 S112 978 959354 -534 0
49 2 S112 1002 960356 468 0
49 2 S112 963 961319 1431 0
49 2 S112 1033 962352 2464 0
49 2 S112 1071 963423 3535 0
49 2 S112 1042 964465 4577 0
49 2 S112 957 965422 5534 0
49 2 S112 1031 966453 6565 0
0 0 0 1048 967501 -10855 0
0 0 0 1057 968558 -9798 0
0 0 0 984 969542 -8814 0
0 0 0 1008 970550 -7806 0
0 0 0 1009 971559 -6797 0
0 0 0 923 972482 -5874 0
0 0 0 923 973405 -4951 0
0 0 0 968 974373 -3983 0
0 0 0 999 975372 -2984 0
0 0 0 958 976330 -2026 0
50 1 S106 948 977278 -1078 0
50 1 S106 1021 978299 -57 0
50 2 S106 1046 979345 989 0
50 2 S106 1025 980370 2014 0
50 2 S106 953 981323 2967 0
50 2 S106 947 982270 3914 0
50 2 S106 1013 983283 4927 0
50 2 S106 1045 984328 5972 0
50 2 S106 1033 985361 7005 0
0 0 0 956 986317 -5517 0
0 0 0 987 987304 -4530 0
0 0 0 999 988303 -3531 0
0 0 0 1020 989323 -2511 0
51 1 S112 938 990261 -1573 0
51 1 S112 887 991148 -686 0
51 2 S112 955 992103 269 0
51 2 S112 1022 993125 1291 0
51 2 S112 1024 994149 2315 0
51 2 S112 963 995112 3278 0
51 2 S112 893 996005 4171 0
51 2 S112 955 996960 5126 0
51 2 S112 1015 997975 6141 0
0 0 0 1025 999000 -6412 0
0 0 0 969 999969 -5443 0
0 0 0 937 1000906 -4506 0
0 0 0 961 1001867 -3545 0
0 0 0 975 1002842 -2570 0
52 1 S116 931 1003773 -1639 0
52 1 S116 812 1004585 -827 0
52 1 S116 757 1005342 -70 0
52 2 S116 740 1006082 670 0
52 2 S116 750 1006832 1420 0
52 2 S116 900 1007732 2320 0
52 2 S116 966 1008698 3286 0
52 2 S116 1003 1009701 4289 0
52 2 S116 1060 1010761 5349 0
52 2 S116 1088 1011849 6437 0
0 0 0 1049 1012898 -8114 0
0 0 0 974 1013872 -7140 0
0 0 0 965 1014837 -6175 0
0 0 0 968 1015805 -5207 0
0 0 0 948 1016753 -4259 0
0 0 0 901 1017654 -3358 0
0 0 0 925 1018579 -2433 0
53 1 S106 980 1019559 -1453 0
53 1 S106 1019 1020578 -434 0
53 2 S106 974 1021552 540 0
53 2 S106 977 1022529 1517 0
53 2 S106 1012 1023541 2529 0
53 2 S106 1014 1024555 3543 0
53 2 S106 986 1025541 4529 0
53 2 S106 975 1026516 5504 0
53 2 S106 1001 1027517 6505 0
0 0 0 1046 1028563 -5795 0
0 0 0 1047 1029610 -4748 0
0 0 0 964 1030574 -3784 0
0 0 0 1029 1031603 -2755 0
54 1 S102 1069 1032672 -1686 0
54 1 S102 1021 1033693 -665 0
54 2 S102 919 1034612 254 0
54 2 S102 949 1035561 1203 0
54 2 S102 1039 1036600 2242 0
54 2 S102 1052 1037652 3294 0
54 2 S102 1026 1038678 4320 0
54 2 S102 1063 1039741 5383 0
54 2 S102 1044 1040785 6427 0
0 0 0 995 1041780 -9869 0
0 0 0 910 1042690 -8959 0
0 0 0 903 1043593 -8056 0
0 0 0 892 1044485 -7164 0
0 0 0 864 1045349 -6300 0
0 0 0 797 1046146 -5503 0
0 0 0 833 1046979 -4670 0
0 0 0 921 1047900 -3749 0
0 0 0 977 1048877 -2772 0
55 1 S106 894 1049771 -1878 0
55 1 S106 971 1050742 -907 0
55 2 S106 1049 1051791 142 0
55 2 S106 1030 1052821 1172 0
55 2 S106 973 1053794 2145 0
55 2 S106 1067 1054861 3212 0
55 2 S106 1033 1055894 4245 0
55 2 S106 958 1056852 5203 0
55 2 S106 907 1057759 6110 0
0 0 0 944 1058703 -7253 0
0 0 0 986 1059689 -6267 0
0 0 0 961 1060650 -5306 0
0 0 0 896 1061546 -4410 0
0 0 0 932 1062478 -3478 0
0 0 0 932 1063410 -2546 0
56 1 S116 903 1064313 -1643 0
56 1 S116 842 1065155 -801 0
56 2 S116 896 1066051 95 0
56 2 S116 973 1067024 1068 0
56 2 S116 988 1068012 2056 0
56 2 S116 952 1068964 3008 0
56 2 S116 1037 1070001 4045 0
56 2 S116 1073 1071074 5118 0
56 2 S116 1029 1072103 6147 0
0 0 0 952 1073055 -7241 0
0 0 0 991 1074046 -6250 0
0 0 0 1004 1075050 -5246 0
0 0 0 930 1075980 -4316 0
0 0 0 897 1076877 -3419 0
0 0 0 975 1077852 -2444 0
57 1 S106 1035 1078887 -1409 0
57 1 S106 1000 1079887 -409 0
57 2 S106 909 1080796 500 0
57 2 S106 938 1081734 1438 0
57 2 S106 1005 1082739 2443 0
57 2 S106 1048 1083787 3491 0
57 2 S106 1002 1084789 4493 0
57 2 S106 945 1085734 5438 0
57 2 S106 1005 1086739 6443 0
0 0 0 1068 1087807 -8338 0
0 0 0 1035 1088842 -7303 0
0 0 0 948 1089790 -6355 0
0 0 0 990 1090780 -5365 0
0 0 0 1017 1091797 -4348 0
0 0 0 1015 1092812 -3333 0
0 0 0 920 1093732 -2413 0
58 1 S102 999 1094731 -1414 0
58 1 S102 1030 1095761 -384 0
58 2 S102 991 1096752 607 0
58 2 S102 942 1097694 1549 0
58 2 S102 998 1098692 2547 0
58 2 S102 997 1099689 3544 0
58 2 S102 973 1100662 4517 0
58 2 S102 953 1101615 5470 0
58 2 S102 979 1102594 6449 0
0 0 0 984 1103578 -5896 0
0 0 0 936 1104514 -4960 0
0 0 0 928 1105442 -4032 0
0 0 0 969 1106411 -3063 0
0 0 0 986 1107397 -2077 0
59 1 S112 917 1108314 -1160 0
59 1 S112 995 1109309 -165 0
59 2 S112 1041 1110350 876 0
59 2 S112 1014 1111364 1890 0
59 2 S112 952 1112316 2842 0
59 2 S112 951 1113267 3793 0
59 2 S112 1015 1114282 4808 0
59 2 S112 1012 1115294 5820 0
59 2 S112 935 1116229 6755 0
0 0 0 963 1117192 -8745 0
0 0 0 1005 1118197 -7740 0
0 0 0 942 1119139 -6798 0
0 0 0 862 1120001 -5936 0
0 0 0 957 1120958 -4979 0
0 0 0 1004 1121962 -3975 0
0 0 0 975 1122937 -3000 0
0 0 0 880 1123817 -2120 0
60 1 S102 909 1124726 -1211 0
60 1 S102 949 1125675 -262 0
60 2 S102 959 1126634 697 0
60 2 S102 886 1127520 1583 0
60 2 S102 794 1128314 2377 0
60 2 S102 856 1129170 3233 0
60 2 S102 965 1130135 4198 0
60 2 S102 1037 1131172 5235 0
60 2 S102 1072 1132244 6307 0
0 0 0 980 1133224 -11148 0
0 0 0 1020 1134244 -10128 0
0 0 0 1046 1135290 -9082 0
0 0 0 981 1136271 -8101 0
0 0 0 876 1137147 -7225 0
0 0 0 867 1138014 -6358 0
0 0 0 941 1138955 -5417 0
0 0 0 967 1139922 -4450 0
0 0 0 937 1140859 -3513 0
0 0 0 874 1141733 -2639 0
61 1 S106 918 1142651 -1721 0
61 1 S106 983 1143634 -738 0
61 2 S106 979 1144613 241 0
61 2 S106 940 1145553 1181 0
61 2 S106 1058 1146611 2239 0
61 2 S106 1127 1147738 3366 0
61 2 S106 1104 1148842 4470 0
61 2 S106 1025 1149867 5495 0
61 2 S106 1072 1150939 6567 0
0 0 0 1107 1152046 -6136 0
0 0 0 1041 1153087 -5095 0
0 0 0 938 1154025 -4157 0
0 0 0 967 1154992 -3190 0
0 0 0 980 1155972 -2210 0
62 1 S112 922 1156894 -1288 0
62 1 S112 876 1157770 -412 0
62 2 S112 967 1158737 555 0
62 2 S112 1050 1159787 1605 0
62 2 S112 1012 1160799 2617 0
62 2 S112 877 1161676 3494 0
62 2 S112 903 1162579 4397 0
62 2 S112 1006 1163585 5403 0
62 2 S112 1076 1164661 6479 0
0 0 0 1067 1165728 -10806 0
0 0 0 998 1166726 -9808 0
0 0 0 1021 1167747 -8787 0
0 0 0 1021 1168768 -7766 0
0 0 0 937 1169705 -6829 0
0 0 0 819 1170524 -6010 0
0 0 0 782 1171306 -5228 0
0 0 0 769 1172075 -4459 0
0 0 0 779 1172854 -3680 0
0 0 0 919 1173773 -2761 0
63 1 S102 985 1174758 -1776 0
63 1 S102 990 1175748 -786 0
63 2 S102 940 1176688 154 0
63 2 S102 937 1177625 1091 0
63 2 S102 1004 1178629 2095 0
63 2 S102 1036 1179665 3131 0
63 2 S102 1003 1180668 4134 0
63 2 S102 940 1181608 5074 0
63 2 S102 939 1182547 6013 0
63 2 S102 952 1183499 6965 0
0 0 0 969 1184468 -7633 0
0 0 0 904 1185372 -6729 0
0 0 0 860 1186232 -5869 0
0 0 0 872 1187104 -4997 0
0 0 0 920 1188024 -4077 0
0 0 0 902 1188926 -3175 0
0 0 0 875 1189801 -2300 0
64 1 S112 963 1190764 -1337 0
64 1 S112 1002 1191766 -335 0
64 2 S112 966 1192732 631 0
64 2 S112 949 1193681 1580 0
64 2 S112 1018 1194699 2598 0
64 2 S112 1066 1195765 3664 0
64 2 S112 1037 1196802 4701 0
64 2 S112 983 1197785 5684 0
64 2 S112 1025 1198810 6709 0
0 0 0 1037 1199847 -6462 0
0 0 0 967 1200814 -5495 0
0 0 0 943 1201757 -4552 0
0 0 0 960 1202717 -3592 0
0 0 0 970 1203687 -2622 0
65 1 S106 885 1204572 -1737 0
65 1 S106 875 1205447 -862 0
65 2 S106 952 1206399 90 0
65 2 S106 997 1207396 1087 0
65 2 S106 926 1208322 2013 0
65 2 S106 954 1209276 2967 0
65 2 S106 987 1210263 3954 0
65 2 S106 1023 1211286 4977 0
65 2 S106 966 1212252 5943 0
65 2 S106 953 1213205 6896 0
0 0 0 999 1214204 -5666 0
0 0 0 981 1215185 -4685 0
0 0 0 889 1216074 -3796 0
0 0 0 830 1216904 -2966 0
0 0 0 811 1217715 -2155 0
66 1 S116 802 1218517 -1353 0
66 1 S116 803 1219320 -550 0
66 2 S116 739 1220059 189 0
66 2 S116 807 1220866 996 0
66 2 S116 963 1221829 1959 0
66 2 S116 1048 1222877 3007 0
66 2 S116 999 1223876 4006 0
66 2 S116 1018 1224894 5024 0
66 2 S116 1054 1225948 6078 0
0 0 0 1021 1226969 -11220 0
0 0 0 943 1227912 -10277 0
0 0 0 982 1228894 -9295 0
0 0 0 979 1229873 -8316 0
0 0 0 918 1230791 -7398 0
0 0 0 823 1231614 -6575 0
0 0 0 882 1232496 -5693 0
0 0 0 961 1233457 -4732 0
0 0 0 981 1234438 -3751 0
0 0 0 905 1235343 -2846 0
67 1 S102 1029 1236372 -1817 0
67 1 S102 1088 1237460 -729 0
67 2 S102 999 1238459 270 0
67 2 S102 967 1239426 1237 0
67 2 S102 1024 1240450 2261 0
67 2 S102 1057 1241507 3318 0
67 2 S102 1000 1242507 4318 0
67 2 S102 983 1243490 5301 0
67 2 S102 1055 1244545 6356 0
0 0 0 1066 1245611 -6007 0
0 0 0 1002 1246613 -5005 0
0 0 0 979 1247592 -4026 0
0 0 0 1027 1248619 -2999 0
68 1 S106 1053 1249672 -1946 0
68 1 S106 972 1250644 -974 0
68 2 S106 1012 1251656 38 0
68 2 S106 1105 1252761 1143 0
68 2 S106 1100 1253861 2243 0
68 2 S106 1007 1254868 3250 0
68 2 S106 1030 1255898 4280 0
68 2 S106 1085 1256983 5365 0
68 2 S106 1103 1258086 6468 0
0 0 0 1027 1259113 -10326 0
0 0 0 1076 1260189 -9250 0
0 0 0 1050 1261239 -8200 0
0 0 0 967 1262206 -7233 0
0 0 0 918 1263124 -6315 0
0 0 0 993 1264117 -5322 0
0 0 0 1020 1265137 -4302 0
0 0 0 983 1266120 -3319 0
0 0 0 1004 1267124 -2315 0
69 1 S102 1007 1268131 -1308 0
69 1 S102 968 1269099 -340 0
69 2 S102 943 1270042 603 0
69 2 S102 1035 1271077 1638 0
69 2 S102 1085 1272162 2723 0
69 2 S102 1039 1273201 3762 0
69 2 S102 969 1274170 4731 0
69 2 S102 1033 1275203 5764 0
69 2 S102 1024 1276227 6788 0
0 0 0 917 1277144 -7896 0
0 0 0 919 1278063 -6977 0
0 0 0 931 1278994 -6046 0
0 0 0 913 1279907 -5133 0
0 0 0 824 1280731 -4309 0
0 0 0 896 1281627 -3413 0
0 0 0 1020 1282647 -2393 0
70 1 S112 1063 1283710 -1330 0
70 1 S112 979 1284689 -351 0
70 2 S112 1024 1285713 673 0
70 2 S112 1048 1286761 1721 0
70 2 S112 1037 1287798 2758 0
70 2 S112 987 1288785 3745 0
70 2 S112 1032 1289817 4777 0
70 2 S112 1092 1290909 5869 0
70 2 S112 1016 1291925 6885 0
0 0 0 966 1292891 -10269 0
0 0 0 1032 1293923 -9237 0
0 0 0 1049 1294972 -8188 0
0 0 0 928 1295900 -7260 0
0 0 0 958 1296858 -6302 0
0 0 0 1035 1297893 -5267 0
0 0 0 1029 1298922 -4238 0
0 0 0 938 1299860 -3300 0
0 0 0 951 1300811 -2349 0
71 1 S116 973 1301784 -1376 0
71 1 S116 927 1302711 -449 0
71 2 S116 850 1303561 401 0
71 2 S116 974 1304535 1375 0
71 2 S116 1130 1305665 2505 0
71 2 S116 1096 1306761 3601 0
71 2 S116 1021 1307782 4622 0
71 2 S116 1113 1308895 5735 0
71 2 S116 1147 1310042 6882 0
0 0 0 1034 1311076 -8364 0
0 0 0 1030 1312106 -7334 0
0 0 0 1029 1313135 -6305 0
0 0 0 1027 1314162 -5278 0
0 0 0 917 1315079 -4361 0
0 0 0 947 1316026 -3414 0
0 0 0 1048 1317074 -2366 0
72 1 S102 1028 1318102 -1338 0
72 1 S102 926 1319028 -412 0
72 2 S102 1029 1320057 617 0
72 2 S102 1076 1321133 1693 0
72 2 S102 1033 1322166 2726 0
72 2 S102 1013 1323179 3739 0
72 2 S102 1092 1324271 4831 0
72 2 S102 1062 1325333 5893 0
72 2 S102 993 1326326 6886 0
0 0 0 1036 1327362 -6037 0
0 0 0 1053 1328415 -4984 0
0 0 0 935 1329350 -4049 0
0 0 0 853 1330203 -3196 0
0 0 0 909 1331112 -2287 0
73 1 S116 961 1332073 -1326 0
73 1 S116 962 1333035 -364 0
73 2 S116 869 1333904 505 0
73 2 S116 907 1334811 1412 0
73 2 S116 1030 1335841 2442 0
73 2 S116 1085 1336926 3527 0
73 2 S116 1051 1337977 4578 0
73 2 S116 1060 1339037 5638 0
73 2 S116 1093 1340130 6731 0
0 0 0 1060 1341190 -8671 0
0 0 0 963 1342153 -7708 0
0 0 0 998 1343151 -6710 0
0 0 0 1034 1344185 -5676 0
0 0 0 976 1345161 -4700 0
0 0 0 875 1346036 -3825 0
0 0 0 948 1346984 -2877 0
74 1 S106 1029 1348013 -1848 0
74 1 S106 1029 1349042 -819 0
74 2 S106 950 1349992 131 0
74 2 S106 1003 1350995 1134 0
74 2 S106 1075 1352070 2209 0
74 2 S106 1069 1353139 3278 0
74 2 S106 1009 1354148 4287 0
74 2 S106 1033 1355181 5320 0
74 2 S106 1099 1356280 6419 0
0 0 0 1014 1357294 -6128 0
0 0 0 987 1358281 -5141 0
0 0 0 991 1359272 -4150 0
0 0 0 973 1360245 -3177 0
0 0 0 819 1361064 -2358 0
75 1 S112 741 1361805 -1617 0
75 1 S112 727 1362532 -890 0
75 1 S112 738 1363270 -152 0
75 2 S112 786 1364056 634 0
75 2 S112 859 1364915 1493 0
75 2 S112 918 1365833 2411 0
75 2 S112 1001 1366834 3412 0
75 2 S112 1032 1367866 4444 0
75 2 S112 1012 1368878 5456 0
75 2 S112 999 1369877 6455 0
0 0 0 934 1370811 -6620 0
0 0 0 889 1371700 -5731 0
0 0 0 906 1372606 -4825 0
0 0 0 863 1373469 -3962 0
0 0 0 786 1374255 -3176 0
0 0 0 752 1375007 -2424 0
76 1 S116 718 1375725 -1706 0
76 1 S116 752 1376477 -954 0
76 1 S116 780 1377257 -174 0
76 2 S116 843 1378100 669 0
76 2 S116 902 1379002 1571 0
76 2 S116 870 1379872 2441 0
76 2 S116 904 1380776 3345 0
76 2 S116 952 1381728 4297 0
76 2 S116 985 1382713 5282 0
76 2 S116 924 1383637 6206 0
0 0 0 935 1384572 -6967 0
0 0 0 972 1385544 -5995 0
0 0 0 965 1386509 -5030 0
0 0 0 849 1387358 -4181 0
0 0 0 879 1388237 -3302 0
0 0 0 883 1389120 -2419 0
77 1 S106 910 1390030 -1509 0
77 1 S106 891 1390921 -618 0
77 2 S106 844 1391765 226 0
77 2 S106 907 1392672 1133 0
77 2 S106 978 1393650 2111 0
77 2 S106 977 1394627 3088 0
77 2 S106 878 1395505 3966 0
77 2 S106 871 1396376 4837 0
77 2 S106 911 1397287 5748 0
77 2 S106 946 1398233 6694 0
0 0 0 921 1399154 -7952 0
0 0 0 826 1399980 -7126 0
0 0 0 759 1400739 -6367 0
0 0 0 730 1401469 -5637 0
0 0 0 710 1402179 -4927 0
0 0 0 691 1402870 -4236 0
0 0 0 677 1403547 -3559 0
0 0 0 691 1404238 -2868 0
78 1 S112 1071 1405309 -1797 0
78 1 S112 1012 1406321 -785 0
78 2 S112 861 1407182 76 0
78 2 S112 907 1408089 983 0
78 2 S112 985 1409074 1968 0
78 2 S112 962 1410036 2930 0
78 2 S112 853 1410889 3783 0
78 2 S112 886 1411775 4669 0
78 2 S112 944 1412719 5613 0
78 2 S112 970 1413689 6583 0
0 0 0 954 1414643 -10451 0
0 0 0 882 1415525 -9569 0
0 0 0 891 1416416 -8678 0
0 0 0 868 1417284 -7810 0
0 0 0 890 1418174 -6920 0
0 0 0 869 1419043 -6051 0
0 0 0 934 1419977 -5117 0
0 0 0 989 1420966 -4128 0
0 0 0 983 1421949 -3145 0
0 0 0 900 1422849 -2245 0
79 1 S102 940 1423789 -1305 0
79 1 S102 938 1424727 -367 0
79 2 S102 944 1425671 577 0
79 2 S102 868 1426539 1445 0
79 2 S102 895 1427434 2340 0
79 2 S102 890 1428324 3230 0
79 2 S102 873 1429197 4103 0
79 2 S102 826 1430023 4929 0
79 2 S102 777 1430800 5706 0
79 2 S102 808 1431608 6514 0
0 0 0 867 1432475 -8053 0
0 0 0 889 1433364 -7164 0
0 0 0 788 1434152 -6376 0
0 0 0 747 1434899 -5629 0
0 0 0 770 1435669 -4859 0
0 0 0 774 1436443 -4085 0
0 0 0 826 1437269 -3259 0
0 0 0 800 1438069 -2459 0
80 1 S116 773 1438842 -1686 0
80 1 S116 807 1439649 -879 0
80 1 S116 813 1440462 -66 0
80 2 S116 830 1441292 764 0
80 2 S116 788 1442080 1552 0
80 2 S116 811 1442891 2363 0
80 2 S116 839 1443730 3202 0
80 2 S116 905 1444635 4107 0
80 2 S116 877 1445512 4984 0
80 2 S116 924 1446436 5908 0
80 2 S116 950 1447386 6858 0
