T_0058
BeatCount Mean SD BeatCountNoOutliers MeanNoOutliers SDNoOutliers
1678 915,857568533969 103,248283691302 1645 921,918541033435 93,7835642987734

Trial TrialStatus Trialtype IBI AbsPosition RelPosition Outlier
0 0 0 711 850 -15417 0
0 0 0 960 1810 -14457 0
0 0 0 1008 2818 -13449 0
0 0 0 1036 3854 -12413 0
0 0 0 889 4743 -11524 0
0 0 0 885 5628 -10639 0
0 0 0 855 6483 -9784 0
0 0 0 831 7314 -8953 0
0 0 0 788 8102 -8165 0
0 0 0 834 8936 -7331 0
0 0 0 897 9833 -6434 0
0 0 0 998 10831 -5436 0
0 0 0 977 11808 -4459 0
0 0 0 1014 12822 -3445 0
0 0 0 1041 13863 -2404 0
1 1 S112 1008 14871 -1396 0
1 1 S112 888 15759 -508 0
1 2 S112 869 16628 361 0
1 2 S112 854 17482 1215 0
1 2 S112 854 18336 2069 0
1 2 S112 825 19161 2894 0
1 2 S112 797 19958 3691 0
1 2 S112 825 20783 4516 0
1 2 S112 829 21612 5345 0
1 2 S112 847 22459 6192 0
0 0 0 881 23340 -12108 0
0 0 0 875 24215 -11233 0
0 0 0 832 25047 -10401 0
0 0 0 835 25882 -9566 0
0 0 0 848 26730 -8718 0
0 0 0 848 27578 -7870 0
0 0 0 831 28409 -7039 0
0 0 0 771 29180 -6268 0
0 0 0 775 29955 -5493 0
0 0 0 786 30741 -4707 0
0 0 0 854 31595 -3853 0
0 0 0 844 32439 -3009 0
0 0 0 859 33298 -2150 0
2 1 S102 903 34201 -1247 0
2 1 S102 906 35107 -341 0
2 2 S102 897 36004 556 0
2 2 S102 849 36853 1405 0
2 2 S102 889 37742 2294 0
2 2 S102 903 38645 3197 0
2 2 S102 905 39550 4102 0
2 2 S102 866 40416 4968 0
2 2 S102 912 41328 5880 0
2 2 S102 963 42291 6843 0
0 0 0 945 43236 -7912 0
0 0 0 907 44143 -7005 0
0 0 0 911 45054 -6094 0
0 0 0 904 45958 -5190 0
0 0 0 885 46843 -4305 0
0 0 0 883 47726 -3422 0
0 0 0 974 48700 -2448 0
3 1 S116 994 49694 -1454 0
3 1 S116 957 50651 -497 0
3 2 S116 933 51584 436 0
3 2 S116 963 52547 1399 0
3 2 S116 920 53467 2319 0
3 2 S116 829 54296 3148 0
3 2 S116 802 55098 3950 0
3 2 S116 853 55951 4803 0
3 2 S116 830 56781 5633 0
3 2 S116 772 57553 6405 0
0 0 0 848 58401 -11679 0
0 0 0 885 59286 -10794 0
0 0 0 838 60124 -9956 0
0 0 0 887 61011 -9069 0
0 0 0 940 61951 -8129 0
0 0 0 899 62850 -7230 0
0 0 0 827 63677 -6403 0
0 0 0 811 64488 -5592 0
0 0 0 807 65295 -4785 0
0 0 0 819 66114 -3966 0
0 0 0 788 66902 -3178 0
0 0 0 825 67727 -2353 0
4 1 S106 889 68616 -1464 0
4 1 S106 1009 69625 -455 0
4 2 S106 991 70616 536 0
4 2 S106 1020 71636 1556 0
4 2 S106 1059 72695 2615 0
4 2 S106 1047 73742 3662 0
4 2 S106 987 74729 4649 0
4 2 S106 975 75704 5624 0
4 2 S106 937 76641 6561 0
0 0 0 874 77515 -5795 0
0 0 0 826 78341 -4969 0
0 0 0 851 79192 -4118 0
0 0 0 895 80087 -3223 0
0 0 0 938 81025 -2285 0
5 1 S116 880 81905 -1405 0
5 1 S116 950 82855 -455 0
5 2 S116 988 83843 533 0
5 2 S116 990 84833 1523 0
5 2 S116 907 85740 2430 0
5 2 S116 921 86661 3351 0
5 2 S116 953 87614 4304 0
5 2 S116 945 88559 5249 0
5 2 S116 888 89447 6137 0
5 2 S116 888 90335 7025 0
0 0 0 903 91238 -9081 0
0 0 0 942 92180 -8139 0
0 0 0 906 93086 -7233 0
0 0 0 952 94038 -6281 0
0 0 0 940 94978 -5341 0
0 0 0 851 95829 -4490 0
0 0 0 819 96648 -3671 0
0 0 0 860 97508 -2811 0
6 1 S106 832 98340 -1979 0
6 1 S106 801 99141 -1178 0
6 1 S106 917 100058 -261 0
6 2 S106 854 100912 593 0
6 2 S106 912 101824 1505 0
6 2 S106 983 102807 2488 0
6 2 S106 990 103797 3478 0
6 2 S106 950 104747 4428 0
6 2 S106 913 105660 5341 0
6 2 S106 916 106576 6257 0
0 0 0 926 107502 -11269 0
0 0 0 893 108395 -10376 0
0 0 0 881 109276 -9495 0
0 0 0 923 110199 -8572 0
0 0 0 936 111135 -7636 0
0 0 0 863 111998 -6773 0
0 0 0 897 112895 -5876 0
0 0 0 927 113822 -4949 0
0 0 0 923 114745 -4026 0
0 0 0 857 115602 -3169 0
0 0 0 895 116497 -2274 0
7 1 S102 917 117414 -1357 0
7 1 S102 925 118339 -432 0
7 2 S102 842 119181 410 0
7 2 S102 870 120051 1280 0
7 2 S102 908 120959 2188 0
7 2 S102 939 121898 3127 0
7 2 S102 915 122813 4042 0
7 2 S102 971 123784 5013 0
7 2 S102 987 124771 6000 0
7 2 S102 981 125752 6981 0
0 0 0 914 126666 -10706 0
0 0 0 926 127592 -9780 0
0 0 0 965 128557 -8815 0
0 0 0 1008 129565 -7807 0
0 0 0 1005 130570 -6802 0
0 0 0 1027 131597 -5775 0
0 0 0 1055 132652 -4720 0
0 0 0 1024 133676 -3696 0
0 0 0 1069 134745 -2627 0
8 1 S112 1066 135811 -1561 0
8 1 S112 1019 136830 -542 0
8 2 S112 892 137722 350 0
8 2 S112 830 138552 1180 0
8 2 S112 847 139399 2027 0
8 2 S112 889 140288 2916 0
8 2 S112 895 141183 3811 0
8 2 S112 893 142076 4704 0
8 2 S112 955 143031 5659 0
8 2 S112 944 143975 6603 0
0 0 0 851 144826 -8876 0
0 0 0 840 145666 -8036 0
0 0 0 933 146599 -7103 0
0 0 0 1034 147633 -6069 0
0 0 0 954 148587 -5115 0
0 0 0 944 149531 -4171 0
0 0 0 890 150421 -3281 0
0 0 0 804 151225 -2477 0
9 1 S116 740 151965 -1737 0
9 1 S116 681 152646 -1056 0
9 1 S116 686 153332 -370 0
9 2 S116 727 154059 357 0
9 2 S116 908 154967 1265 0
9 2 S116 1051 156018 2316 0
9 2 S116 1049 157067 3365 0
9 2 S116 1057 158124 4422 0
9 2 S116 1008 159132 5430 0
9 2 S116 1011 160143 6441 0
0 0 0 991 161134 -11848 0
0 0 0 976 162110 -10872 0
0 0 0 942 163052 -9930 0
0 0 0 919 163971 -9011 0
0 0 0 946 164917 -8065 0
0 0 0 943 165860 -7122 0
0 0 0 975 166835 -6147 0
0 0 0 942 167777 -5205 0
0 0 0 974 168751 -4231 0
0 0 0 999 169750 -3232 0
0 0 0 971 170721 -2261 0
10 1 S102 902 171623 -1359 0
10 1 S102 927 172550 -432 0
10 2 S102 941 173491 509 0
10 2 S102 955 174446 1464 0
10 2 S102 905 175351 2369 0
10 2 S102 876 176227 3245 0
10 2 S102 889 177116 4134 0
10 2 S102 905 178021 5039 0
10 2 S102 905 178926 5944 0
10 2 S102 878 179804 6822 0
0 0 0 945 180749 -9392 0
0 0 0 949 181698 -8443 0
0 0 0 899 182597 -7544 0
0 0 0 858 183455 -6686 0
0 0 0 868 184323 -5818 0
0 0 0 880 185203 -4938 0
0 0 0 875 186078 -4063 0
0 0 0 795 186873 -3268 0
0 0 0 823 187696 -2445 0
11 1 S112 846 188542 -1599 0
11 1 S112 858 189400 -741 0
11 2 S112 814 190214 73 0
11 2 S112 864 191078 937 0
11 2 S112 938 192016 1875 0
11 2 S112 967 192983 2842 0
11 2 S112 941 193924 3783 0
11 2 S112 969 194893 4752 0
11 2 S112 990 195883 5742 0
11 2 S112 937 196820 6679 0
0 0 0 831 197651 -7013 0
0 0 0 837 198488 -6176 0
0 0 0 882 199370 -5294 0
0 0 0 903 200273 -4391 0
0 0 0 863 201136 -3528 0
0 0 0 895 202031 -2633 0
12 1 S116 925 202956 -1708 0
12 1 S116 934 203890 -774 0
12 2 S116 867 204757 93 0
12 2 S116 891 205648 984 0
12 2 S116 915 206563 1899 0
12 2 S116 937 207500 2836 0
12 2 S116 864 208364 3700 0
12 2 S116 881 209245 4581 0
12 2 S116 896 210141 5477 0
12 2 S116 934 211075 6411 0
0 0 0 885 211960 -12581 0
0 0 0 953 212913 -11628 0
0 0 0 1015 213928 -10613 0
0 0 0 1028 214956 -9585 0
0 0 0 968 215924 -8617 0
0 0 0 962 216886 -7655 0
0 0 0 933 217819 -6722 0
0 0 0 827 218646 -5895 0
0 0 0 831 219477 -5064 0
0 0 0 860 220337 -4204 0
0 0 0 915 221252 -3289 0
0 0 0 922 222174 -2367 0
13 1 S112 884 223058 -1483 0
13 1 S112 955 224013 -528 0
13 2 S112 999 225012 471 0
13 2 S112 1006 226018 1477 0
13 2 S112 949 226967 2426 0
13 2 S112 944 227911 3370 0
13 2 S112 912 228823 4282 0
13 2 S112 883 229706 5165 0
13 2 S112 836 230542 6001 0
13 2 S112 883 231425 6884 0
0 0 0 926 232351 -9432 0
0 0 0 1001 233352 -8431 0
0 0 0 942 234294 -7489 0
0 0 0 980 235274 -6509 0
0 0 0 1011 236285 -5498 0
0 0 0 986 237271 -4512 0
0 0 0 877 238148 -3635 0
0 0 0 907 239055 -2728 0
14 1 S106 910 239965 -1818 0
14 1 S106 921 240886 -897 0
14 1 S106 881 241767 -16 0
14 2 S106 879 242646 863 0
14 2 S106 935 243581 1798 0
14 2 S106 985 244566 2783 0
14 2 S106 974 245540 3757 0
14 2 S106 878 246418 4635 0
14 2 S106 967 247385 5602 0
14 2 S106 1020 248405 6622 0
0 0 0 1024 249429 -9910 0
0 0 0 948 250377 -8962 0
0 0 0 934 251311 -8028 0
0 0 0 940 252251 -7088 0
0 0 0 882 253133 -6206 0
0 0 0 852 253985 -5354 0
0 0 0 888 254873 -4466 0
0 0 0 928 255801 -3538 0
0 0 0 897 256698 -2641 0
15 1 S116 893 257591 -1748 0
15 1 S116 962 258553 -786 0
15 2 S116 1016 259569 230 0
15 2 S116 967 260536 1197 0
15 2 S116 919 261455 2116 0
15 2 S116 954 262409 3070 0
15 2 S116 979 263388 4049 0
15 2 S116 914 264302 4963 0
15 2 S116 890 265192 5853 0
15 2 S116 906 266098 6759 0
0 0 0 940 267038 -10902 0
0 0 0 925 267963 -9977 0
0 0 0 954 268917 -9023 0
0 0 0 1003 269920 -8020 0
0 0 0 1019 270939 -7001 0
0 0 0 928 271867 -6073 0
0 0 0 942 272809 -5131 0
0 0 0 889 273698 -4242 0
0 0 0 821 274519 -3421 0
0 0 0 755 275274 -2666 0
16 1 S116 760 276034 -1906 0
16 1 S116 720 276754 -1186 0
16 1 S116 713 277467 -473 0
16 2 S116 811 278278 338 0
16 2 S116 865 279143 1203 0
16 2 S116 880 280023 2083 0
16 2 S116 943 280966 3026 0
16 2 S116 993 281959 4019 0
16 2 S116 964 282923 4983 0
16 2 S116 912 283835 5895 0
16 2 S116 848 284683 6743 0
0 0 0 851 285534 -10576 0
0 0 0 816 286350 -9760 0
0 0 0 808 287158 -8952 0
0 0 0 889 288047 -8063 0
0 0 0 998 289045 -7065 0
0 0 0 1027 290072 -6038 0
0 0 0 931 291003 -5107 0
0 0 0 909 291912 -4198 0
0 0 0 970 292882 -3228 0
0 0 0 995 293877 -2233 0
17 1 S106 941 294818 -1292 0
17 1 S106 903 295721 -389 0
17 2 S106 902 296623 513 0
17 2 S106 930 297553 1443 0
17 2 S106 932 298485 2375 0
17 2 S106 900 299385 3275 0
17 2 S106 954 300339 4229 0
17 2 S106 984 301323 5213 0
17 2 S106 987 302310 6200 0
0 0 0 938 303248 -11646 0
0 0 0 980 304228 -10666 0
0 0 0 1000 305228 -9666 0
0 0 0 963 306191 -8703 0
0 0 0 957 307148 -7746 0
0 0 0 973 308121 -6773 0
0 0 0 974 309095 -5799 0
0 0 0 896 309991 -4903 0
0 0 0 928 310919 -3975 0
0 0 0 960 311879 -3015 0
0 0 0 999 312878 -2016 0
18 1 S102 966 313844 -1050 0
18 1 S102 948 314792 -102 0
18 2 S102 1003 315795 901 0
18 2 S102 1037 316832 1938 0
18 2 S102 971 317803 2909 0
18 2 S102 941 318744 3850 0
18 2 S102 960 319704 4810 0
18 2 S102 938 320642 5748 0
18 2 S102 873 321515 6621 0
0 0 0 911 322426 -6161 0
0 0 0 971 323397 -5190 0
0 0 0 981 324378 -4209 0
0 0 0 878 325256 -3331 0
0 0 0 822 326078 -2509 0
19 1 S106 872 326950 -1637 0
19 1 S106 960 327910 -677 0
19 2 S106 992 328902 315 0
19 2 S106 953 329855 1268 0
19 2 S106 982 330837 2250 0
19 2 S106 957 331794 3207 0
19 2 S106 906 332700 4113 0
19 2 S106 770 333470 4883 0
19 2 S106 699 334169 5582 0
19 2 S106 687 334856 6269 0
19 2 S106 675 335531 6944 0
0 0 0 751 336282 -9812 0
0 0 0 914 337196 -8898 0
0 0 0 857 338053 -8041 0
0 0 0 842 338895 -7199 0
0 0 0 1004 339899 -6195 0
0 0 0 1007 340906 -5188 0
0 0 0 1013 341919 -4175 0
0 0 0 929 342848 -3246 0
0 0 0 906 343754 -2340 0
20 1 S112 900 344654 -1440 0
20 1 S112 898 345552 -542 0
20 2 S112 908 346460 366 0
20 2 S112 949 347409 1315 0
20 2 S112 940 348349 2255 0
20 2 S112 990 349339 3245 0
20 2 S112 1012 350351 4257 0
20 2 S112 1009 351360 5266 0
20 2 S112 992 352352 6258 0
0 0 0 1013 353365 -10766 0
0 0 0 1001 354366 -9765 0
0 0 0 975 355341 -8790 0
0 0 0 869 356210 -7921 0
0 0 0 793 357003 -7128 0
0 0 0 793 357796 -6335 0
0 0 0 879 358675 -5456 0
0 0 0 1040 359715 -4416 0
0 0 0 1053 360768 -3363 0
0 0 0 1014 361782 -2349 0
21 1 S106 1071 362853 -1278 0
21 1 S106 1033 363886 -245 0
21 2 S106 1023 364909 778 0
21 2 S106 988 365897 1766 0
21 2 S106 957 366854 2723 0
21 2 S106 969 367823 3692 0
21 2 S106 954 368777 4646 0
21 2 S106 914 369691 5560 0
21 2 S106 975 370666 6535 0
0 0 0 1055 371721 -9370 0
0 0 0 1041 372762 -8329 0
0 0 0 957 373719 -7372 0
0 0 0 998 374717 -6374 0
0 0 0 964 375681 -5410 0
0 0 0 971 376652 -4439 0
0 0 0 893 377545 -3546 0
0 0 0 894 378439 -2652 0
22 1 S116 910 379349 -1742 0
22 1 S116 926 380275 -816 0
22 2 S116 912 381187 96 0
22 2 S116 894 382081 990 0
22 2 S116 915 382996 1905 0
22 2 S116 921 383917 2826 0
22 2 S116 872 384789 3698 0
22 2 S116 883 385672 4581 0
22 2 S116 893 386565 5474 0
22 2 S116 876 387441 6350 0
0 0 0 842 388283 -9403 0
0 0 0 794 389077 -8609 0
0 0 0 845 389922 -7764 0
0 0 0 896 390818 -6868 0
0 0 0 890 391708 -5978 0
0 0 0 802 392510 -5176 0
0 0 0 807 393317 -4369 0
0 0 0 797 394114 -3572 0
0 0 0 793 394907 -2779 0
0 0 0 750 395657 -2029 0
23 1 S112 713 396370 -1316 0
23 1 S112 709 397079 -607 0
23 2 S112 764 397843 157 0
23 2 S112 857 398700 1014 0
23 2 S112 943 399643 1957 0
23 2 S112 888 400531 2845 0
23 2 S112 926 401457 3771 0
23 2 S112 955 402412 4726 0
23 2 S112 959 403371 5685 0
23 2 S112 897 404268 6582 0
0 0 0 880 405148 -10360 0
0 0 0 880 406028 -9480 0
0 0 0 909 406937 -8571 0
0 0 0 895 407832 -7676 0
0 0 0 930 408762 -6746 0
0 0 0 854 409616 -5892 0
0 0 0 864 410480 -5028 0
0 0 0 771 411251 -4257 0
0 0 0 766 412017 -3491 0
0 0 0 739 412756 -2752 0
24 1 S106 757 413513 -1995 0
24 1 S106 740 414253 -1255 0
24 1 S106 711 414964 -544 0
24 2 S106 710 415674 166 0
24 2 S106 706 416380 872 0
24 2 S106 709 417089 1581 0
24 2 S106 705 417794 2286 0
24 2 S106 686 418480 2972 0
24 2 S106 667 419147 3639 0
24 2 S106 670 419817 4309 0
24 2 S106 683 420500 4992 0
24 2 S106 724 421224 5716 0
24 2 S106 746 421970 6462 0
0 0 0 754 422724 -9279 0
0 0 0 725 423449 -8554 0
0 0 0 680 424129 -7874 0
0 0 0 664 424793 -7210 0
0 0 0 640 425433 -6570 1
0 0 0 655 426088 -5915 0
0 0 0 677 426765 -5238 0
0 0 0 793 427558 -4445 0
0 0 0 954 428512 -3491 0
0 0 0 913 429425 -2578 0
25 1 S102 882 430307 -1696 0
25 1 S102 994 431301 -702 0
25 2 S102 1017 432318 315 0
25 2 S102 1005 433323 1320 0
25 2 S102 976 434299 2296 0
25 2 S102 930 435229 3226 0
25 2 S102 899 436128 4125 0
25 2 S102 836 436964 4961 0
25 2 S102 856 437820 5817 0
25 2 S102 906 438726 6723 0
0 0 0 959 439685 -6742 0
0 0 0 1033 440718 -5709 0
0 0 0 1019 441737 -4690 0
0 0 0 1008 442745 -3682 0
0 0 0 1028 443773 -2654 0
26 1 S116 994 444767 -1660 0
26 1 S116 967 445734 -693 0
26 2 S116 977 446711 284 0
26 2 S116 969 447680 1253 0
26 2 S116 898 448578 2151 0
26 2 S116 933 449511 3084 0
26 2 S116 1004 450515 4088 0
26 2 S116 1031 451546 5119 0
26 2 S116 963 452509 6082 0
0 0 0 1023 453532 -7915 0
0 0 0 1030 454562 -6885 0
0 0 0 965 455527 -5920 0
0 0 0 905 456432 -5015 0
0 0 0 921 457353 -4094 0
0 0 0 959 458312 -3135 0
0 0 0 937 459249 -2198 0
27 1 S106 877 460126 -1321 0
27 1 S106 956 461082 -365 0
27 2 S106 1048 462130 683 0
27 2 S106 1038 463168 1721 0
27 2 S106 939 464107 2660 0
27 2 S106 1002 465109 3662 0
27 2 S106 1048 466157 4710 0
27 2 S106 994 467151 5704 0
27 2 S106 904 468055 6608 0
0 0 0 940 468995 -8450 0
0 0 0 1012 470007 -7438 0
0 0 0 1040 471047 -6398 0
0 0 0 984 472031 -5414 0
0 0 0 1035 473066 -4379 0
0 0 0 1047 474113 -3332 0
0 0 0 1024 475137 -2308 0
28 1 S102 952 476089 -1356 0
28 1 S102 970 477059 -386 0
28 2 S102 974 478033 588 0
28 2 S102 952 478985 1540 0
28 2 S102 877 479862 2417 0
28 2 S102 946 480808 3363 0
28 2 S102 1016 481824 4379 0
28 2 S102 1050 482874 5429 0
28 2 S102 1013 483887 6442 0
0 0 0 1087 484974 -10110 0
0 0 0 1075 486049 -9035 0
0 0 0 994 487043 -8041 0
0 0 0 920 487963 -7121 0
0 0 0 931 488894 -6190 0
0 0 0 960 489854 -5230 0
0 0 0 986 490840 -4244 0
0 0 0 962 491802 -3282 0
0 0 0 993 492795 -2289 0
29 1 S112 998 493793 -1291 0
29 1 S112 932 494725 -359 0
29 2 S112 935 495660 576 0
29 2 S112 962 496622 1538 0
29 2 S112 981 497603 2519 0
29 2 S112 902 498505 3421 0
29 2 S112 926 499431 4347 0
29 2 S112 947 500378 5294 0
29 2 S112 955 501333 6249 0
0 0 0 866 502199 -7574 0
0 0 0 804 503003 -6770 0
0 0 0 854 503857 -5916 0
0 0 0 972 504829 -4944 0
0 0 0 1029 505858 -3915 0
0 0 0 970 506828 -2945 0
30 1 S112 986 507814 -1959 0
30 1 S112 1003 508817 -956 0
30 2 S112 975 509792 19 0
30 2 S112 954 510746 973 0
30 2 S112 991 511737 1964 0
30 2 S112 945 512682 2909 0
30 2 S112 870 513552 3779 0
30 2 S112 899 514451 4678 0
30 2 S112 938 515389 5616 0
30 2 S112 1037 516426 6653 0
0 0 0 966 517392 -9954 0
0 0 0 973 518365 -8981 0
0 0 0 1010 519375 -7971 0
0 0 0 948 520323 -7023 0
0 0 0 849 521172 -6174 0
0 0 0 869 522041 -5305 0
0 0 0 891 522932 -4414 0
0 0 0 939 523871 -3475 0
0 0 0 899 524770 -2576 0
31 1 S106 954 525724 -1622 0
31 1 S106 972 526696 -650 0
31 2 S106 973 527669 323 0
31 2 S106 969 528638 1292 0
31 2 S106 995 529633 2287 0
31 2 S106 1015 530648 3302 0
31 2 S106 968 531616 4270 0
31 2 S106 915 532531 5185 0
31 2 S106 970 533501 6155 0
0 0 0 983 534484 -10518 0
0 0 0 997 535481 -9521 0
0 0 0 931 536412 -8590 0
0 0 0 984 537396 -7606 0
0 0 0 998 538394 -6608 0
0 0 0 968 539362 -5640 0
0 0 0 917 540279 -4723 0
0 0 0 894 541173 -3829 0
0 0 0 946 542119 -2883 0
32 1 S102 893 543012 -1990 0
32 1 S102 800 543812 -1190 0
32 1 S102 759 544571 -431 0
32 2 S102 792 545363 361 0
32 2 S102 753 546116 1114 0
32 2 S102 734 546850 1848 0
32 2 S102 773 547623 2621 0
32 2 S102 849 548472 3470 0
32 2 S102 914 549386 4384 0
32 2 S102 903 550289 5287 0
32 2 S102 885 551174 6172 0
0 0 0 897 552071 -10454 0
0 0 0 919 552990 -9535 0
0 0 0 911 553901 -8624 0
0 0 0 820 554721 -7804 0
0 0 0 739 555460 -7065 0
0 0 0 712 556172 -6353 0
0 0 0 719 556891 -5634 0
0 0 0 786 557677 -4848 0
0 0 0 975 558652 -3873 0
0 0 0 956 559608 -2917 0
33 1 S112 996 560604 -1921 0
33 1 S112 1024 561628 -897 0
33 2 S112 1044 562672 147 0
33 2 S112 968 563640 1115 0
33 2 S112 950 564590 2065 0
33 2 S112 914 565504 2979 0
33 2 S112 856 566360 3835 0
33 2 S112 776 567136 4611 0
33 2 S112 798 567934 5409 0
33 2 S112 824 568758 6233 0
0 0 0 884 569642 -11866 0
0 0 0 922 570564 -10944 0
0 0 0 1006 571570 -9938 0
0 0 0 1049 572619 -8889 0
0 0 0 997 573616 -7892 0
0 0 0 926 574542 -6966 0
0 0 0 957 575499 -6009 0
0 0 0 957 576456 -5052 0
0 0 0 949 577405 -4103 0
0 0 0 880 578285 -3223 0
0 0 0 873 579158 -2350 0
34 1 S106 881 580039 -1469 0
34 1 S106 926 580965 -543 0
34 2 S106 934 581899 391 0
34 2 S106 952 582851 1343 0
34 2 S106 995 583846 2338 0
34 2 S106 1006 584852 3344 0
34 2 S106 986 585838 4330 0
34 2 S106 1001 586839 5331 0
34 2 S106 1054 587893 6385 0
0 0 0 1050 588943 -9441 0
0 0 0 1014 589957 -8427 0
0 0 0 956 590913 -7471 0
0 0 0 941 591854 -6530 0
0 0 0 891 592745 -5639 0
0 0 0 820 593565 -4819 0
0 0 0 775 594340 -4044 0
0 0 0 772 595112 -3272 0
0 0 0 749 595861 -2523 0
35 1 S102 964 596825 -1559 0
35 1 S102 1005 597830 -554 0
35 2 S102 932 598762 378 0
35 2 S102 980 599742 1358 0
35 2 S102 1028 600770 2386 0
35 2 S102 1017 601787 3403 0
35 2 S102 884 602671 4287 0
35 2 S102 888 603559 5175 0
35 2 S102 886 604445 6061 0
35 2 S102 915 605360 6976 0
0 0 0 888 606248 -5582 0
0 0 0 908 607156 -4674 0
0 0 0 930 608086 -3744 0
0 0 0 944 609030 -2800 0
36 1 S106 887 609917 -1913 0
36 1 S106 790 610707 -1123 0
36 1 S106 718 611425 -405 0
36 2 S106 730 612155 325 0
36 2 S106 757 612912 1082 0
36 2 S106 873 613785 1955 0
36 2 S106 1013 614798 2968 0
36 2 S106 1036 615834 4004 0
36 2 S106 1029 616863 5033 0
36 2 S106 1003 617866 6036 0
36 2 S106 972 618838 7008 0
0 0 0 968 619806 -7591 0
0 0 0 931 620737 -6660 0
0 0 0 961 621698 -5699 0
0 0 0 976 622674 -4723 0
0 0 0 1033 623707 -3690 0
0 0 0 1029 624736 -2661 0
37 1 S116 1051 625787 -1610 0
37 1 S116 1058 626845 -552 0
37 2 S116 1047 627892 495 0
37 2 S116 1052 628944 1547 0
37 2 S116 1013 629957 2560 0
37 2 S116 960 630917 3520 0
37 2 S116 887 631804 4407 0
37 2 S116 869 632673 5276 0
37 2 S116 890 633563 6166 0
0 0 0 924 634487 -11577 0
0 0 0 916 635403 -10661 0
0 0 0 901 636304 -9760 0
0 0 0 902 637206 -8858 0
0 0 0 820 638026 -8038 0
0 0 0 754 638780 -7284 0
0 0 0 753 639533 -6531 0
0 0 0 783 640316 -5748 0
0 0 0 849 641165 -4899 0
0 0 0 859 642024 -4040 0
0 0 0 813 642837 -3227 0
0 0 0 844 643681 -2383 0
38 1 S102 857 644538 -1526 0
38 1 S102 855 645393 -671 0
38 2 S102 812 646205 141 0
38 2 S102 821 647026 962 0
38 2 S102 870 647896 1832 0
38 2 S102 919 648815 2751 0
38 2 S102 919 649734 3670 0
38 2 S102 881 650615 4551 0
38 2 S102 913 651528 5464 0
38 2 S102 947 652475 6411 0
0 0 0 983 653458 -8786 0
0 0 0 941 654399 -7845 0
0 0 0 1011 655410 -6834 0
0 0 0 1022 656432 -5812 0
0 0 0 986 657418 -4826 0
0 0 0 920 658338 -3906 0
0 0 0 971 659309 -2935 0
39 1 S116 998 660307 -1937 0
39 1 S116 934 661241 -1003 0
39 1 S116 863 662104 -140 0
39 2 S116 859 662963 719 0
39 2 S116 866 663829 1585 0
39 2 S116 953 664782 2538 0
39 2 S116 1031 665813 3569 0
39 2 S116 979 666792 4548 0
39 2 S116 986 667778 5534 0
39 2 S116 995 668773 6529 0
0 0 0 1009 669782 -6123 0
0 0 0 978 670760 -5145 0
0 0 0 946 671706 -4199 0
0 0 0 953 672659 -3246 0
0 0 0 965 673624 -2281 0
40 1 S112 897 674521 -1384 0
40 1 S112 833 675354 -551 0
40 2 S112 840 676194 289 0
40 2 S112 792 676986 1081 0
40 2 S112 814 677800 1895 0
40 2 S112 945 678745 2840 0
40 2 S112 891 679636 3731 0
40 2 S112 924 680560 4655 0
40 2 S112 970 681530 5625 0
40 2 S112 962 682492 6587 0
0 0 0 901 683393 -188983 0
0 0 0 925 684318 -188058 0
0 0 0 939 685257 -187119 0
0 0 0 938 686195 -186181 0
0 0 0 893 687088 -185288 0
0 0 0 936 688024 -184352 0
0 0 0 943 688967 -183409 0
0 0 0 785 689752 -182624 0
0 0 0 839 690591 -181785 0
0 0 0 833 691424 -180952 0
0 0 0 924 692348 -180028 0
0 0 0 905 693253 -179123 0
0 0 0 839 694092 -178284 0
0 0 0 756 694848 -177528 0
0 0 0 723 695571 -176805 0
0 0 0 697 696268 -176108 0
0 0 0 665 696933 -175443 0
0 0 0 634 697567 -174809 1
0 0 0 627 698194 -174182 1
0 0 0 603 698797 -173579 1
0 0 0 597 699394 -172982 1
0 0 0 583 699977 -172399 1
0 0 0 579 700556 -171820 1
0 0 0 568 701124 -171252 1
0 0 0 557 701681 -170695 1
0 0 0 551 702232 -170144 1
0 0 0 548 702780 -169596 1
0 0 0 539 703319 -169057 1
0 0 0 543 703862 -168514 1
0 0 0 528 704390 -167986 1
0 0 0 517 704907 -167469 1
0 0 0 513 705420 -166956 1
0 0 0 527 705947 -166429 1
0 0 0 555 706502 -165874 1
0 0 0 617 707119 -165257 1
0 0 0 656 707775 -164601 0
0 0 0 621 708396 -163980 1
0 0 0 692 709088 -163288 0
0 0 0 822 709910 -162466 0
0 0 0 900 710810 -161566 0
0 0 0 927 711737 -160639 0
0 0 0 917 712654 -159722 0
0 0 0 905 713559 -158817 0
0 0 0 896 714455 -157921 0
0 0 0 905 715360 -157016 0
0 0 0 928 716288 -156088 0
0 0 0 969 717257 -155119 0
0 0 0 912 718169 -154207 0
0 0 0 946 719115 -153261 0
0 0 0 1032 720147 -152229 0
0 0 0 1088 721235 -151141 0
0 0 0 1076 722311 -150065 0
0 0 0 1005 723316 -149060 0
0 0 0 949 724265 -148111 0
0 0 0 953 725218 -147158 0
0 0 0 948 726166 -146210 0
0 0 0 851 727017 -145359 0
0 0 0 859 727876 -144500 0
0 0 0 919 728795 -143581 0
0 0 0 991 729786 -142590 0
0 0 0 871 730657 -141719 0
0 0 0 817 731474 -140902 0
0 0 0 855 732329 -140047 0
0 0 0 888 733217 -139159 0
0 0 0 922 734139 -138237 0
0 0 0 919 735058 -137318 0
0 0 0 924 735982 -136394 0
0 0 0 915 736897 -135479 0
0 0 0 881 737778 -134598 0
0 0 0 870 738648 -133728 0
0 0 0 861 739509 -132867 0
0 0 0 867 740376 -132000 0
0 0 0 827 741203 -131173 0
0 0 0 839 742042 -130334 0
0 0 0 857 742899 -129477 0
0 0 0 899 743798 -128578 0
0 0 0 904 744702 -127674 0
0 0 0 941 745643 -126733 0
0 0 0 993 746636 -125740 0
0 0 0 997 747633 -124743 0
0 0 0 965 748598 -123778 0
0 0 0 922 749520 -122856 0
0 0 0 897 750417 -121959 0
0 0 0 873 751290 -121086 0
0 0 0 824 752114 -120262 0
0 0 0 774 752888 -119488 0
0 0 0 740 753628 -118748 0
0 0 0 703 754331 -118045 0
0 0 0 674 755005 -117371 0
0 0 0 661 755666 -116710 0
0 0 0 642 756308 -116068 1
0 0 0 640 756948 -115428 1
0 0 0 633 757581 -114795 1
0 0 0 718 758299 -114077 0
0 0 0 1054 759353 -113023 0
0 0 0 975 760328 -112048 0
0 0 0 887 761215 -111161 0
0 0 0 993 762208 -110168 0
0 0 0 970 763178 -109198 0
0 0 0 881 764059 -108317 0
0 0 0 766 764825 -107551 0
0 0 0 703 765528 -106848 0
0 0 0 691 766219 -106157 0
0 0 0 727 766946 -105430 0
0 0 0 714 767660 -104716 0
0 0 0 844 768504 -103872 0
0 0 0 977 769481 -102895 0
0 0 0 1034 770515 -101861 0
0 0 0 978 771493 -100883 0
0 0 0 1042 772535 -99841 0
0 0 0 1046 773581 -98795 0
0 0 0 1054 774635 -97741 0
0 0 0 1012 775647 -96729 0
0 0 0 1011 776658 -95718 0
0 0 0 991 777649 -94727 0
0 0 0 987 778636 -93740 0
0 0 0 873 779509 -92867 0
0 0 0 782 780291 -92085 0
0 0 0 782 781073 -91303 0
0 0 0 794 781867 -90509 0
0 0 0 879 782746 -89630 0
0 0 0 855 783601 -88775 0
0 0 0 965 784566 -87810 0
0 0 0 1023 785589 -86787 0
0 0 0 838 786427 -85949 0
0 0 0 796 787223 -85153 0
0 0 0 755 787978 -84398 0
0 0 0 709 788687 -83689 0
0 0 0 698 789385 -82991 0
0 0 0 697 790082 -82294 0
0 0 0 680 790762 -81614 0
0 0 0 731 791493 -80883 0
0 0 0 748 792241 -80135 0
0 0 0 710 792951 -79425 0
0 0 0 772 793723 -78653 0
0 0 0 770 794493 -77883 0
0 0 0 782 795275 -77101 0
0 0 0 777 796052 -76324 0
0 0 0 787 796839 -75537 0
0 0 0 828 797667 -74709 0
0 0 0 868 798535 -73841 0
0 0 0 907 799442 -72934 0
0 0 0 895 800337 -72039 0
0 0 0 823 801160 -71216 0
0 0 0 862 802022 -70354 0
0 0 0 917 802939 -69437 0
0 0 0 965 803904 -68472 0
0 0 0 929 804833 -67543 0
0 0 0 813 805646 -66730 0
0 0 0 730 806376 -66000 0
0 0 0 666 807042 -65334 0
0 0 0 635 807677 -64699 1
0 0 0 633 808310 -64066 1
0 0 0 624 808934 -63442 1
0 0 0 616 809550 -62826 1
0 0 0 623 810173 -62203 1
0 0 0 639 810812 -61564 1
0 0 0 733 811545 -60831 0
0 0 0 889 812434 -59942 0
0 0 0 888 813322 -59054 0
0 0 0 807 814129 -58247 0
0 0 0 876 815005 -57371 0
0 0 0 897 815902 -56474 0
0 0 0 881 816783 -55593 0
0 0 0 850 817633 -54743 0
0 0 0 781 818414 -53962 0
0 0 0 750 819164 -53212 0
0 0 0 732 819896 -52480 0
0 0 0 725 820621 -51755 0
0 0 0 741 821362 -51014 0
0 0 0 765 822127 -50249 0
0 0 0 753 822880 -49496 0
0 0 0 802 823682 -48694 0
0 0 0 852 824534 -47842 0
0 0 0 895 825429 -46947 0
0 0 0 909 826338 -46038 0
0 0 0 897 827235 -45141 0
0 0 0 833 828068 -44308 0
0 0 0 843 828911 -43465 0
0 0 0 854 829765 -42611 0
0 0 0 799 830564 -41812 0
0 0 0 772 831336 -41040 0
0 0 0 760 832096 -40280 0
0 0 0 826 832922 -39454 0
0 0 0 809 833731 -38645 0
0 0 0 809 834540 -37836 0
0 0 0 752 835292 -37084 0
0 0 0 720 836012 -36364 0
0 0 0 737 836749 -35627 0
0 0 0 776 837525 -34851 0
0 0 0 820 838345 -34031 0
0 0 0 841 839186 -33190 0
0 0 0 806 839992 -32384 0
0 0 0 851 840843 -31533 0
0 0 0 892 841735 -30641 0
0 0 0 928 842663 -29713 0
0 0 0 946 843609 -28767 0
0 0 0 910 844519 -27857 0
0 0 0 930 845449 -26927 0
0 0 0 890 846339 -26037 0
0 0 0 825 847164 -25212 0
0 0 0 806 847970 -24406 0
0 0 0 852 848822 -23554 0
0 0 0 917 849739 -22637 0
0 0 0 893 850632 -21744 0
0 0 0 924 851556 -20820 0
0 0 0 964 852520 -19856 0
0 0 0 846 853366 -19010 0
0 0 0 892 854258 -18118 0
0 0 0 917 855175 -17201 0
0 0 0 932 856107 -16269 0
0 0 0 903 857010 -15366 0
0 0 0 798 857808 -14568 0
0 0 0 798 858606 -13770 0
0 0 0 771 859377 -12999 0
0 0 0 765 860142 -12234 0
0 0 0 735 860877 -11499 0
0 0 0 701 861578 -10798 0
0 0 0 661 862239 -10137 0
0 0 0 647 862886 -9490 1
0 0 0 642 863528 -8848 1
0 0 0 641 864169 -8207 1
0 0 0 656 864825 -7551 0
0 0 0 751 865576 -6800 0
0 0 0 1068 866644 -5732 0
0 0 0 1064 867708 -4668 0
0 0 0 1064 868772 -3604 0
0 0 0 929 869701 -2675 0
41 1 S102 892 870593 -1783 0
41 1 S102 961 871554 -822 0
41 2 S102 924 872478 102 0
41 2 S102 851 873329 953 0
41 2 S102 841 874170 1794 0
41 2 S102 889 875059 2683 0
41 2 S102 954 876013 3637 0
41 2 S102 982 876995 4619 0
41 2 S102 1014 878009 5633 0
41 2 S102 992 879001 6625 0
0 0 0 938 879939 -6661 0
0 0 0 974 880913 -5687 0
0 0 0 1061 881974 -4626 0
0 0 0 944 882918 -3682 0
0 0 0 819 883737 -2863 0
0 0 0 828 884565 -2035 0
42 1 S112 838 885403 -1197 0
42 1 S112 808 886211 -389 0
42 2 S112 830 887041 441 0
42 2 S112 931 887972 1372 0
42 2 S112 889 888861 2261 0
42 2 S112 897 889758 3158 0
42 2 S112 897 890655 4055 0
42 2 S112 889 891544 4944 0
42 2 S112 916 892460 5860 0
42 2 S112 960 893420 6820 0
0 0 0 868 894288 -10465 0
0 0 0 917 895205 -9548 0
0 0 0 952 896157 -8596 0
0 0 0 1031 897188 -7565 0
0 0 0 965 898153 -6600 0
0 0 0 977 899130 -5623 0
0 0 0 1021 900151 -4602 0
0 0 0 975 901126 -3627 0
0 0 0 969 902095 -2658 0
43 1 S116 1016 903111 -1642 0
43 1 S116 1038 904149 -604 0
43 2 S116 1003 905152 399 0
43 2 S116 957 906109 1356 0
43 2 S116 1000 907109 2356 0
43 2 S116 963 908072 3319 0
43 2 S116 968 909040 4287 0
43 2 S116 1053 910093 5340 0
43 2 S116 1094 911187 6434 0
0 0 0 975 912162 -6600 0
0 0 0 915 913077 -5685 0
0 0 0 1018 914095 -4667 0
0 0 0 1104 915199 -3563 0
0 0 0 1062 916261 -2501 0
44 1 S102 940 917201 -1561 0
44 1 S102 985 918186 -576 0
44 2 S102 1015 919201 439 0
44 2 S102 1020 920221 1459 0
44 2 S102 881 921102 2340 0
44 2 S102 886 921988 3226 0
44 2 S102 999 922987 4225 0
44 2 S102 1078 924065 5303 0
44 2 S102 1103 925168 6406 0
0 0 0 1010 926178 -9096 0
0 0 0 1054 927232 -8042 0
0 0 0 1078 928310 -6964 0
0 0 0 998 929308 -5966 0
0 0 0 1003 930311 -4963 0
0 0 0 980 931291 -3983 0
0 0 0 936 932227 -3047 0
0 0 0 858 933085 -2189 0
45 1 S116 906 933991 -1283 0
45 1 S116 919 934910 -364 0
45 2 S116 994 935904 630 0
45 2 S116 977 936881 1607 0
45 2 S116 957 937838 2564 0
45 2 S116 999 938837 3563 0
45 2 S116 1004 939841 4567 0
45 2 S116 969 940810 5536 0
45 2 S116 970 941780 6506 0
0 0 0 958 942738 -11867 0
0 0 0 982 943720 -10885 0
0 0 0 956 944676 -9929 0
0 0 0 903 945579 -9026 0
0 0 0 908 946487 -8118 0
0 0 0 841 947328 -7277 0
0 0 0 777 948105 -6500 0
0 0 0 731 948836 -5769 0
0 0 0 759 949595 -5010 0
0 0 0 892 950487 -4118 0
0 0 0 1124 951611 -2994 0
46 1 S102 1014 952625 -1980 0
46 1 S102 1036 953661 -944 0
46 2 S102 1050 954711 106 0
46 2 S102 1021 955732 1127 0
46 2 S102 909 956641 2036 0
46 2 S102 944 957585 2980 0
46 2 S102 1023 958608 4003 0
46 2 S102 1070 959678 5073 0
46 2 S102 982 960660 6055 0
0 0 0 1126 961786 -11320 0
0 0 0 1171 962957 -10149 0
0 0 0 1104 964061 -9045 0
0 0 0 1037 965098 -8008 0
0 0 0 1079 966177 -6929 0
0 0 0 1034 967211 -5895 0
0 0 0 993 968204 -4902 0
0 0 0 1032 969236 -3870 0
0 0 0 1014 970250 -2856 0
47 1 S112 978 971228 -1878 0
47 1 S112 952 972180 -926 0
47 2 S112 997 973177 71 0
47 2 S112 1062 974239 1133 0
47 2 S112 1034 975273 2167 0
47 2 S112 957 976230 3124 0
47 2 S112 929 977159 4053 0
47 2 S112 917 978076 4970 0
47 2 S112 903 978979 5873 0
47 2 S112 895 979874 6768 0
0 0 0 823 980697 -11657 0
0 0 0 764 981461 -10893 0
0 0 0 790 982251 -10103 0
0 0 0 886 983137 -9217 0
0 0 0 927 984064 -8290 0
0 0 0 957 985021 -7333 0
0 0 0 988 986009 -6345 0
0 0 0 902 986911 -5443 0
0 0 0 886 987797 -4557 0
0 0 0 861 988658 -3696 0
0 0 0 845 989503 -2851 0
0 0 0 803 990306 -2048 0
48 1 S116 792 991098 -1256 0
48 1 S116 769 991867 -487 0
48 2 S116 778 992645 291 0
48 2 S116 902 993547 1193 0
48 2 S116 951 994498 2144 0
48 2 S116 880 995378 3024 0
48 2 S116 1060 996438 4084 0
48 2 S116 991 997429 5075 0
48 2 S116 1023 998452 6098 0
0 0 0 1024 999476 -6654 0
0 0 0 1033 1000509 -5621 0
0 0 0 920 1001429 -4701 0
0 0 0 843 1002272 -3858 0
0 0 0 823 1003095 -3035 0
0 0 0 865 1003960 -2170 0
49 1 S112 1003 1004963 -1167 0
49 1 S112 1048 1006011 -119 0
49 2 S112 1011 1007022 892 0
49 2 S112 1067 1008089 1959 0
49 2 S112 1086 1009175 3045 0
49 2 S112 1009 1010184 4054 0
49 2 S112 904 1011088 4958 0
49 2 S112 900 1011988 5858 0
49 2 S112 896 1012884 6754 0
0 0 0 911 1013795 -10472 0
0 0 0 928 1014723 -9544 0
0 0 0 881 1015604 -8663 0
0 0 0 920 1016524 -7743 0
0 0 0 930 1017454 -6813 0
0 0 0 947 1018401 -5866 0
0 0 0 887 1019288 -4979 0
0 0 0 843 1020131 -4136 0
0 0 0 868 1020999 -3268 0
0 0 0 884 1021883 -2384 0
50 1 S106 908 1022791 -1476 0
50 1 S106 906 1023697 -570 0
50 2 S106 889 1024586 319 0
50 2 S106 851 1025437 1170 0
50 2 S106 876 1026313 2046 0
50 2 S106 886 1027199 2932 0
50 2 S106 867 1028066 3799 0
50 2 S106 821 1028887 4620 0
50 2 S106 764 1029651 5384 0
50 2 S106 719 1030370 6103 0
50 2 S106 696 1031066 6799 0
0 0 0 710 1031776 -6102 0
0 0 0 737 1032513 -5365 0
0 0 0 739 1033252 -4626 0
0 0 0 959 1034211 -3667 0
0 0 0 1098 1035309 -2569 0
51 1 S112 936 1036245 -1633 0
51 1 S112 1014 1037259 -619 0
51 2 S112 1038 1038297 419 0
51 2 S112 1026 1039323 1445 0
51 2 S112 1032 1040355 2477 0
51 2 S112 985 1041340 3462 0
51 2 S112 854 1042194 4316 0
51 2 S112 812 1043006 5128 0
51 2 S112 797 1043803 5925 0
51 2 S112 813 1044616 6738 0
0 0 0 917 1045533 -6652 0
0 0 0 954 1046487 -5698 0
0 0 0 1001 1047488 -4697 0
0 0 0 1035 1048523 -3662 0
0 0 0 1031 1049554 -2631 0
52 1 S116 954 1050508 -1677 0
52 1 S116 947 1051455 -730 0
52 2 S116 964 1052419 234 0
52 2 S116 970 1053389 1204 0
52 2 S116 1018 1054407 2222 0
52 2 S116 1015 1055422 3237 0
52 2 S116 956 1056378 4193 0
52 2 S116 985 1057363 5178 0
52 2 S116 1029 1058392 6207 0
0 0 0 1058 1059450 -9181 0
0 0 0 1085 1060535 -8096 0
0 0 0 999 1061534 -7097 0
0 0 0 873 1062407 -6224 0
0 0 0 901 1063308 -5323 0
0 0 0 900 1064208 -4423 0
0 0 0 857 1065065 -3566 0
0 0 0 818 1065883 -2748 0
53 1 S106 769 1066652 -1979 0
53 1 S106 838 1067490 -1141 0
53 1 S106 1102 1068592 -39 0
53 2 S106 1056 1069648 1017 0
53 2 S106 1027 1070675 2044 0
53 2 S106 995 1071670 3039 0
53 2 S106 1004 1072674 4043 0
53 2 S106 972 1073646 5015 0
53 2 S106 953 1074599 5968 0
53 2 S106 973 1075572 6941 0
0 0 0 977 1076549 -5511 0
0 0 0 968 1077517 -4543 0
0 0 0 904 1078421 -3639 0
0 0 0 915 1079336 -2724 0
54 1 S102 940 1080276 -1784 0
54 1 S102 998 1081274 -786 0
54 2 S102 1011 1082285 225 0
54 2 S102 968 1083253 1193 0
54 2 S102 1015 1084268 2208 0
54 2 S102 1003 1085271 3211 0
54 2 S102 952 1086223 4163 0
54 2 S102 900 1087123 5063 0
54 2 S102 922 1088045 5985 0
54 2 S102 946 1088991 6931 0
0 0 0 954 1089945 -9207 0
0 0 0 915 1090860 -8292 0
0 0 0 918 1091778 -7374 0
0 0 0 925 1092703 -6449 0
0 0 0 936 1093639 -5513 0
0 0 0 923 1094562 -4590 0
0 0 0 873 1095435 -3717 0
0 0 0 899 1096334 -2818 0
55 1 S106 912 1097246 -1906 0
55 1 S106 905 1098151 -1001 0
55 1 S106 871 1099022 -130 0
55 2 S106 896 1099918 766 0
55 2 S106 924 1100842 1690 0
55 2 S106 947 1101789 2637 0
55 2 S106 938 1102727 3575 0
55 2 S106 952 1103679 4527 0
55 2 S106 975 1104654 5502 0
55 2 S106 986 1105640 6488 0
0 0 0 960 1106600 -6378 0
0 0 0 913 1107513 -5465 0
0 0 0 933 1108446 -4532 0
0 0 0 932 1109378 -3600 0
0 0 0 930 1110308 -2670 0
56 1 S116 881 1111189 -1789 0
56 1 S116 934 1112123 -855 0
56 2 S116 978 1113101 123 0
56 2 S116 1011 1114112 1134 0
56 2 S116 962 1115074 2096 0
56 2 S116 983 1116057 3079 0
56 2 S116 1006 1117063 4085 0
56 2 S116 963 1118026 5048 0
56 2 S116 952 1118978 6000 0
56 2 S116 1000 1119978 7000 0
0 0 0 1026 1121004 -6331 0
0 0 0 986 1121990 -5345 0
0 0 0 896 1122886 -4449 0
0 0 0 957 1123843 -3492 0
0 0 0 1020 1124863 -2472 0
57 1 S106 924 1125787 -1548 0
57 1 S106 906 1126693 -642 0
57 2 S106 931 1127624 289 0
57 2 S106 1000 1128624 1289 0
57 2 S106 940 1129564 2229 0
57 2 S106 809 1130373 3038 0
57 2 S106 749 1131122 3787 0
57 2 S106 737 1131859 4524 0
57 2 S106 721 1132580 5245 0
57 2 S106 758 1133338 6003 0
57 2 S106 952 1134290 6955 0
0 0 0 1056 1135346 -7390 0
0 0 0 983 1136329 -6407 0
0 0 0 932 1137261 -5475 0
0 0 0 921 1138182 -4554 0
0 0 0 910 1139092 -3644 0
0 0 0 904 1139996 -2740 0
58 1 S102 883 1140879 -1857 0
58 1 S102 882 1141761 -975 0
58 1 S102 879 1142640 -96 0
58 2 S102 892 1143532 796 0
58 2 S102 878 1144410 1674 0
58 2 S102 987 1145397 2661 0
58 2 S102 1064 1146461 3725 0
58 2 S102 1097 1147558 4822 0
58 2 S102 1036 1148594 5858 0
58 2 S102 1069 1149663 6927 0
0 0 0 1090 1150753 -5313 0
0 0 0 1005 1151758 -4308 0
0 0 0 897 1152655 -3411 0
0 0 0 920 1153575 -2491 0
59 1 S112 920 1154495 -1571 0
59 1 S112 901 1155396 -670 0
59 2 S112 824 1156220 154 0
59 2 S112 864 1157084 1018 0
59 2 S112 931 1158015 1949 0
59 2 S112 974 1158989 2923 0
59 2 S112 901 1159890 3824 0
59 2 S112 985 1160875 4809 0
59 2 S112 942 1161817 5751 0
59 2 S112 856 1162673 6607 0
0 0 0 808 1163481 -8168 0
0 0 0 757 1164238 -7411 0
0 0 0 794 1165032 -6617 0
0 0 0 871 1165903 -5746 0
0 0 0 910 1166813 -4836 0
0 0 0 854 1167667 -3982 0
0 0 0 871 1168538 -3111 0
0 0 0 916 1169454 -2195 0
60 1 S102 908 1170362 -1287 0
60 1 S102 874 1171236 -413 0
60 2 S102 903 1172139 490 0
60 2 S102 955 1173094 1445 0
60 2 S102 1015 1174109 2460 0
60 2 S102 1007 1175116 3467 0
60 2 S102 1007 1176123 4474 0
60 2 S102 1049 1177172 5523 0
60 2 S102 1057 1178229 6580 0
0 0 0 973 1179202 -10070 0
0 0 0 999 1180201 -9071 0
0 0 0 999 1181200 -8072 0
0 0 0 957 1182157 -7115 0
0 0 0 828 1182985 -6287 0
0 0 0 774 1183759 -5513 0
0 0 0 733 1184492 -4780 0
0 0 0 854 1185346 -3926 0
0 0 0 1067 1186413 -2859 0
61 1 S106 996 1187409 -1863 0
61 1 S106 1000 1188409 -863 0
61 2 S106 1036 1189445 173 0
61 2 S106 1031 1190476 1204 0
61 2 S106 994 1191470 2198 0
61 2 S106 970 1192440 3168 0
61 2 S106 997 1193437 4165 0
61 2 S106 972 1194409 5137 0
61 2 S106 936 1195345 6073 0
61 2 S106 910 1196255 6983 0
0 0 0 987 1197242 -5127 0
0 0 0 1048 1198290 -4079 0
0 0 0 1011 1199301 -3068 0
0 0 0 888 1200189 -2180 0
62 1 S112 849 1201038 -1331 0
62 1 S112 945 1201983 -386 0
62 2 S112 1062 1203045 676 0
62 2 S112 1116 1204161 1792 0
62 2 S112 1016 1205177 2808 0
62 2 S112 951 1206128 3759 0
62 2 S112 955 1207083 4714 0
62 2 S112 954 1208037 5668 0
62 2 S112 962 1208999 6630 0
0 0 0 854 1209853 -11018 0
0 0 0 884 1210737 -10134 0
0 0 0 986 1211723 -9148 0
0 0 0 1054 1212777 -8094 0
0 0 0 982 1213759 -7112 0
0 0 0 1004 1214763 -6108 0
0 0 0 1081 1215844 -5027 0
0 0 0 1057 1216901 -3970 0
0 0 0 949 1217850 -3021 0
0 0 0 955 1218805 -2066 0
63 1 S102 999 1219804 -1067 0
63 1 S102 1043 1220847 -24 0
63 2 S102 1041 1221888 1017 0
63 2 S102 1109 1222997 2126 0
63 2 S102 1124 1224121 3250 0
63 2 S102 1094 1225215 4344 0
63 2 S102 1035 1226250 5379 0
63 2 S102 1086 1227336 6465 0
0 0 0 1071 1228407 -9672 0
0 0 0 1024 1229431 -8648 0
0 0 0 1093 1230524 -7555 0
0 0 0 1123 1231647 -6432 0
0 0 0 1082 1232729 -5350 0
0 0 0 1014 1233743 -4336 0
0 0 0 1098 1234841 -3238 0
0 0 0 1060 1235901 -2178 0
64 1 S112 951 1236852 -1227 0
64 1 S112 1006 1237858 -221 0
64 2 S112 1026 1238884 805 0
64 2 S112 987 1239871 1792 0
64 2 S112 925 1240796 2717 0
64 2 S112 903 1241699 3620 0
64 2 S112 866 1242565 4486 0
64 2 S112 924 1243489 5410 0
64 2 S112 783 1244272 6193 0
64 2 S112 751 1245023 6944 0
0 0 0 780 1245803 -6152 0
0 0 0 944 1246747 -5208 0
0 0 0 1035 1247782 -4173 0
0 0 0 929 1248711 -3244 0
0 0 0 975 1249686 -2269 0
65 1 S106 1024 1250710 -1245 0
65 1 S106 995 1251705 -250 0
65 2 S106 924 1252629 674 0
65 2 S106 885 1253514 1559 0
65 2 S106 905 1254419 2464 0
65 2 S106 987 1255406 3451 0
65 2 S106 998 1256404 4449 0
65 2 S106 935 1257339 5384 0
65 2 S106 1003 1258342 6387 0
0 0 0 1082 1259424 -8745 0
0 0 0 1106 1260530 -7639 0
0 0 0 1067 1261597 -6572 0
0 0 0 1129 1262726 -5443 0
0 0 0 1070 1263796 -4373 0
0 0 0 889 1264685 -3484 0
0 0 0 832 1265517 -2652 0
66 1 S116 792 1266309 -1860 0
66 1 S116 751 1267060 -1109 0
66 1 S116 839 1267899 -270 0
66 2 S116 869 1268768 599 0
66 2 S116 924 1269692 1523 0
66 2 S116 995 1270687 2518 0
66 2 S116 1031 1271718 3549 0
66 2 S116 982 1272700 4531 0
66 2 S116 1002 1273702 5533 0
66 2 S116 1031 1274733 6564 0
0 0 0 1006 1275739 -10881 0
0 0 0 961 1276700 -9920 0
0 0 0 974 1277674 -8946 0
0 0 0 994 1278668 -7952 0
0 0 0 924 1279592 -7028 0
0 0 0 966 1280558 -6062 0
0 0 0 1015 1281573 -5047 0
0 0 0 998 1282571 -4049 0
0 0 0 891 1283462 -3158 0
0 0 0 967 1284429 -2191 0
67 1 S102 1062 1285491 -1129 0
67 1 S102 1024 1286515 -105 0
67 2 S102 942 1287457 837 0
67 2 S102 962 1288419 1799 0
67 2 S102 991 1289410 2790 0
67 2 S102 1040 1290450 3830 0
67 2 S102 1040 1291490 4870 0
67 2 S102 1127 1292617 5997 0
0 0 0 1134 1293751 -9498 0
0 0 0 1082 1294833 -8416 0
0 0 0 1039 1295872 -7377 0
0 0 0 1075 1296947 -6302 0
0 0 0 1109 1298056 -5193 0
0 0 0 1045 1299101 -4148 0
0 0 0 979 1300080 -3169 0
0 0 0 1000 1301080 -2169 0
68 1 S106 999 1302079 -1170 0
68 1 S106 902 1302981 -268 0
68 2 S106 967 1303948 699 0
68 2 S106 1111 1305059 1810 0
68 2 S106 1115 1306174 2925 0
68 2 S106 1013 1307187 3938 0
68 2 S106 1038 1308225 4976 0
68 2 S106 1044 1309269 6020 0
68 2 S106 989 1310258 7009 0
0 0 0 932 1311190 -8969 0
0 0 0 971 1312161 -7998 0
0 0 0 1004 1313165 -6994 0
0 0 0 932 1314097 -6062 0
0 0 0 984 1315081 -5078 0
0 0 0 1019 1316100 -4059 0
0 0 0 1039 1317139 -3020 0
0 0 0 967 1318106 -2053 0
69 1 S102 1034 1319140 -1019 0
69 2 S102 1050 1320190 31 0
69 2 S102 1002 1321192 1033 0
69 2 S102 966 1322158 1999 0
69 2 S102 997 1323155 2996 0
69 2 S102 994 1324149 3990 0
69 2 S102 941 1325090 4931 0
69 2 S102 994 1326084 5925 0
69 2 S102 1073 1327157 6998 0
0 0 0 1057 1328214 -7777 0
0 0 0 937 1329151 -6840 0
0 0 0 822 1329973 -6018 0
0 0 0 786 1330759 -5232 0
0 0 0 760 1331519 -4472 0
0 0 0 738 1332257 -3734 0
0 0 0 807 1333064 -2927 0
0 0 0 778 1333842 -2149 0
70 1 S112 827 1334669 -1322 0
70 1 S112 908 1335577 -414 0
70 2 S112 957 1336534 543 0
70 2 S112 916 1337450 1459 0
70 2 S112 926 1338376 2385 0
70 2 S112 921 1339297 3306 0
70 2 S112 903 1340200 4209 0
70 2 S112 796 1340996 5005 0
70 2 S112 744 1341740 5749 0
70 2 S112 718 1342458 6467 0
0 0 0 731 1343189 -11420 0
0 0 0 851 1344040 -10569 0
0 0 0 987 1345027 -9582 0
0 0 0 981 1346008 -8601 0
0 0 0 982 1346990 -7619 0
0 0 0 1028 1348018 -6591 0
0 0 0 1030 1349048 -5561 0
0 0 0 981 1350029 -4580 0
0 0 0 1014 1351043 -3566 0
0 0 0 1008 1352051 -2558 0
71 1 S116 978 1353029 -1580 0
71 1 S116 956 1353985 -624 0
71 2 S116 929 1354914 305 0
71 2 S116 933 1355847 1238 0
71 2 S116 910 1356757 2148 0
71 2 S116 953 1357710 3101 0
71 2 S116 984 1358694 4085 0
71 2 S116 1042 1359736 5127 0
71 2 S116 988 1360724 6115 0
0 0 0 994 1361718 -8889 0
0 0 0 1044 1362762 -7845 0
0 0 0 1038 1363800 -6807 0
0 0 0 987 1364787 -5820 0
0 0 0 869 1365656 -4951 0
0 0 0 846 1366502 -4105 0
0 0 0 848 1367350 -3257 0
0 0 0 853 1368203 -2404 0
72 1 S102 812 1369015 -1592 0
72 1 S102 816 1369831 -776 0
72 2 S102 926 1370757 150 0
72 2 S102 999 1371756 1149 0
72 2 S102 1010 1372766 2159 0
72 2 S102 991 1373757 3150 0
72 2 S102 919 1374676 4069 0
72 2 S102 870 1375546 4939 0
72 2 S102 836 1376382 5775 0
72 2 S102 823 1377205 6598 0
0 0 0 872 1378077 -6024 0
0 0 0 996 1379073 -5028 0
0 0 0 1033 1380106 -3995 0
0 0 0 932 1381038 -3063 0
0 0 0 916 1381954 -2147 0
73 1 S116 932 1382886 -1215 0
73 1 S116 940 1383826 -275 0
73 2 S116 879 1384705 604 0
73 2 S116 956 1385661 1560 0
73 2 S116 1018 1386679 2578 0
73 2 S116 1023 1387702 3601 0
73 2 S116 987 1388689 4588 0
73 2 S116 943 1389632 5531 0
73 2 S116 952 1390584 6483 0
0 0 0 952 1391536 -9592 0
0 0 0 986 1392522 -8606 0
0 0 0 945 1393467 -7661 0
0 0 0 965 1394432 -6696 0
0 0 0 928 1395360 -5768 0
0 0 0 892 1396252 -4876 0
0 0 0 888 1397140 -3988 0
0 0 0 943 1398083 -3045 0
0 0 0 983 1399066 -2062 0
74 1 S106 934 1400000 -1128 0
74 1 S106 838 1400838 -290 0
74 2 S106 752 1401590 462 0
74 2 S106 726 1402316 1188 0
74 2 S106 788 1403104 1976 0
74 2 S106 990 1404094 2966 0
74 2 S106 1131 1405225 4097 0
74 2 S106 1122 1406347 5219 0
74 2 S106 1094 1407441 6313 0
0 0 0 1042 1408483 -5791 0
0 0 0 1002 1409485 -4789 0
0 0 0 993 1410478 -3796 0
0 0 0 968 1411446 -2828 0
75 1 S112 977 1412423 -1851 0
75 1 S112 982 1413405 -869 0
75 2 S112 975 1414380 106 0
75 2 S112 999 1415379 1105 0
75 2 S112 1030 1416409 2135 0
75 2 S112 1014 1417423 3149 0
75 2 S112 966 1418389 4115 0
75 2 S112 937 1419326 5052 0
75 2 S112 921 1420247 5973 0
75 2 S112 937 1421184 6910 0
0 0 0 911 1422095 -6602 0
0 0 0 900 1422995 -5702 0
0 0 0 926 1423921 -4776 0
0 0 0 923 1424844 -3853 0
0 0 0 869 1425713 -2984 0
0 0 0 831 1426544 -2153 0
76 1 S116 755 1427299 -1398 0
76 1 S116 732 1428031 -666 0
76 2 S116 791 1428822 125 0
76 2 S116 881 1429703 1006 0
76 2 S116 934 1430637 1940 0
76 2 S116 967 1431604 2907 0
76 2 S116 1034 1432638 3941 0
76 2 S116 1013 1433651 4954 0
76 2 S116 1019 1434670 5973 0
76 2 S116 1036 1435706 7009 0
0 0 0 1040 1436746 -7419 0
0 0 0 1003 1437749 -6416 0
0 0 0 942 1438691 -5474 0
0 0 0 973 1439664 -4501 0
0 0 0 1027 1440691 -3474 0
0 0 0 1080 1441771 -2394 0
77 1 S106 1001 1442772 -1393 0
77 1 S106 1101 1443873 -292 0
77 2 S106 1166 1445039 874 0
77 2 S106 1066 1446105 1940 0
77 2 S106 1039 1447144 2979 0
77 2 S106 1046 1448190 4025 0
77 2 S106 1028 1449218 5053 0
77 2 S106 985 1450203 6038 0
0 0 0 1011 1451214 -8303 0
0 0 0 1058 1452272 -7245 0
0 0 0 1057 1453329 -6188 0
0 0 0 936 1454265 -5252 0
0 0 0 919 1455184 -4333 0
0 0 0 1084 1456268 -3249 0
0 0 0 1191 1457459 -2058 1
78 1 S112 1133 1458592 -925 0
78 2 S112 1058 1459650 133 0
78 2 S112 1060 1460710 1193 0
78 2 S112 1027 1461737 2220 0
78 2 S112 978 1462715 3198 0
78 2 S112 1079 1463794 4277 0
78 2 S112 1115 1464909 5392 0
78 2 S112 1092 1466001 6484 0
0 0 0 1145 1467146 -10789 0
0 0 0 1117 1468263 -9672 0
0 0 0 1044 1469307 -8628 0
0 0 0 907 1470214 -7721 0
0 0 0 959 1471173 -6762 0
0 0 0 1018 1472191 -5744 0
0 0 0 1008 1473199 -4736 0
0 0 0 939 1474138 -3797 0
0 0 0 1002 1475140 -2795 0
79 1 S102 1039 1476179 -1756 0
79 1 S102 980 1477159 -776 0
79 2 S102 968 1478127 192 0
79 2 S102 1010 1479137 1202 0
79 2 S102 1008 1480145 2210 0
79 2 S102 919 1481064 3129 0
79 2 S102 952 1482016 4081 0
79 2 S102 976 1482992 5057 0
79 2 S102 895 1483887 5952 0
79 2 S102 832 1484719 6784 0
0 0 0 878 1485597 -8038 0
0 0 0 959 1486556 -7079 0
0 0 0 965 1487521 -6114 0
0 0 0 825 1488346 -5289 0
0 0 0 774 1489120 -4515 0
0 0 0 779 1489899 -3736 0
0 0 0 832 1490731 -2904 0
0 0 0 864 1491595 -2040 0
80 1 S116 824 1492419 -1216 0
80 1 S116 886 1493305 -330 0
80 2 S116 849 1494154 519 0
80 2 S116 793 1494947 1312 0
80 2 S116 733 1495680 2045 0
80 2 S116 710 1496390 2755 0
80 2 S116 710 1497100 3465 0
80 2 S116 748 1497848 4213 0
80 2 S116 796 1498644 5009 0
80 2 S116 830 1499474 5839 0
80 2 S116 809 1500283 6648 0
