T_0029
BeatCount Mean SD BeatCountNoOutliers MeanNoOutliers SDNoOutliers
1392 1104,6867816092 99,9793919699373 1360 1111,58014705882 90,5511714334556

Trial TrialStatus Trialtype IBI AbsPosition RelPosition Outlier
0 0 0 1161 1758 -14979 0
0 0 0 962 2720 -14017 0
0 0 0 919 3639 -13098 0
0 0 0 1087 4726 -12011 0
0 0 0 1165 5891 -10846 0
0 0 0 1164 7055 -9682 0
0 0 0 962 8017 -8720 0
0 0 0 1004 9021 -7716 0
0 0 0 1159 10180 -6557 0
0 0 0 1205 11385 -5352 0
0 0 0 1226 12611 -4126 0
0 0 0 1193 13804 -2933 0
1 1 S112 1155 14959 -1778 0
1 1 S112 1237 16196 -541 0
1 2 S112 1180 17376 639 0
1 2 S112 1129 18505 1768 0
1 2 S112 987 19492 2755 0
1 2 S112 844 20336 3599 1
1 2 S112 881 21217 4480 0
1 2 S112 1224 22441 5704 0
1 2 S112 1211 23652 6915 0
0 0 0 1105 24757 -10763 0
0 0 0 1154 25911 -9609 0
0 0 0 1186 27097 -8423 0
0 0 0 1084 28181 -7339 0
0 0 0 935 29116 -6404 0
0 0 0 1096 30212 -5308 0
0 0 0 1155 31367 -4153 0
0 0 0 1203 32570 -2950 0
2 1 S102 1125 33695 -1825 0
2 1 S102 1078 34773 -747 0
2 2 S102 1142 35915 395 0
2 2 S102 1138 37053 1533 0
2 2 S102 1110 38163 2643 0
2 2 S102 966 39129 3609 0
2 2 S102 1056 40185 4665 0
2 2 S102 1106 41291 5771 0
2 2 S102 1130 42421 6901 0
0 0 0 1107 43528 -8537 0
0 0 0 1048 44576 -7489 0
0 0 0 1116 45692 -6373 0
0 0 0 1089 46781 -5284 0
0 0 0 972 47753 -4312 0
0 0 0 1038 48791 -3274 0
0 0 0 1154 49945 -2120 0
3 1 S116 1139 51084 -981 0
3 2 S116 1030 52114 49 0
3 2 S116 1007 53121 1056 0
3 2 S116 1122 54243 2178 0
3 2 S116 1186 55429 3364 0
3 2 S116 1111 56540 4475 0
3 2 S116 1014 57554 5489 0
3 2 S116 1149 58703 6638 0
0 0 0 1180 59883 -11828 0
0 0 0 1181 61064 -10647 0
0 0 0 1046 62110 -9601 0
0 0 0 1137 63247 -8464 0
0 0 0 1132 64379 -7332 0
0 0 0 1020 65399 -6312 0
0 0 0 1058 66457 -5254 0
0 0 0 1112 67569 -4142 0
0 0 0 1111 68680 -3031 0
0 0 0 1012 69692 -2019 0
4 1 S106 1178 70870 -841 0
4 2 S106 1172 72042 331 0
4 2 S106 1123 73165 1454 0
4 2 S106 1188 74353 2642 0
4 2 S106 1229 75582 3871 0
4 2 S106 1181 76763 5052 0
4 2 S106 1034 77797 6086 0
0 0 0 1116 78913 -7486 0
0 0 0 1158 80071 -6328 0
0 0 0 1091 81162 -5237 0
0 0 0 1159 82321 -4078 0
0 0 0 1131 83452 -2947 0
5 1 S116 1023 84475 -1924 0
5 1 S116 1152 85627 -772 0
5 2 S116 1144 86771 372 0
5 2 S116 1077 87848 1449 0
5 2 S116 1158 89006 2607 0
5 2 S116 1186 90192 3793 0
5 2 S116 1148 91340 4941 0
5 2 S116 1131 92471 6072 0
0 0 0 1170 93641 -10464 0
0 0 0 1130 94771 -9334 0
0 0 0 1046 95817 -8288 0
0 0 0 1133 96950 -7155 0
0 0 0 1133 98083 -6022 0
0 0 0 1010 99093 -5012 0
0 0 0 1047 100140 -3965 0
0 0 0 974 101114 -2991 0
0 0 0 881 101995 -2110 0
6 1 S106 969 102964 -1141 0
6 1 S106 1007 103971 -134 0
6 2 S106 1036 105007 902 0
6 2 S106 1159 106166 2061 0
6 2 S106 1175 107341 3236 0
6 2 S106 1052 108393 4288 0
6 2 S106 1077 109470 5365 0
6 2 S106 1149 110619 6514 0
0 0 0 1203 111822 -10420 0
0 0 0 1124 112946 -9296 0
0 0 0 1137 114083 -8159 0
0 0 0 1137 115220 -7022 0
0 0 0 1057 116277 -5965 0
0 0 0 1067 117344 -4898 0
0 0 0 1182 118526 -3716 0
0 0 0 1199 119725 -2517 0
7 1 S102 1137 120862 -1380 0
7 1 S102 1044 121906 -336 0
7 2 S102 1133 123039 797 0
7 2 S102 1201 124240 1998 0
7 2 S102 1109 125349 3107 0
7 2 S102 1097 126446 4204 0
7 2 S102 1178 127624 5382 0
7 2 S102 1188 128812 6570 0
0 0 0 1061 129873 -8234 0
0 0 0 1155 131028 -7079 0
0 0 0 1184 132212 -5895 0
0 0 0 1064 133276 -4831 0
0 0 0 993 134269 -3838 0
0 0 0 1121 135390 -2717 0
8 1 S112 1124 136514 -1593 0
8 1 S112 1092 137606 -501 0
8 2 S112 1051 138657 550 0
8 2 S112 1206 139863 1756 0
8 2 S112 1257 141120 3013 0
8 2 S112 1177 142297 4190 0
8 2 S112 1071 143368 5261 0
8 2 S112 1131 144499 6392 0
0 0 0 1131 145630 -7663 0
0 0 0 1062 146692 -6601 0
0 0 0 1155 147847 -5446 0
0 0 0 1167 149014 -4279 0
0 0 0 1046 150060 -3233 0
0 0 0 1089 151149 -2144 0
9 1 S116 1197 152346 -947 0
9 2 S116 1223 153569 276 0
9 2 S116 1228 154797 1504 0
9 2 S116 1063 155860 2567 0
9 2 S116 1155 157015 3722 0
9 2 S116 1187 158202 4909 0
9 2 S116 1222 159424 6131 0
0 0 0 1102 160526 -12793 0
0 0 0 1117 161643 -11676 0
0 0 0 1217 162860 -10459 0
0 0 0 1244 164104 -9215 0
0 0 0 1042 165146 -8173 0
0 0 0 1187 166333 -6986 0
0 0 0 1167 167500 -5819 0
0 0 0 1024 168524 -4795 0
0 0 0 1161 169685 -3634 0
0 0 0 1203 170888 -2431 0
10 1 S102 1212 172100 -1219 0
10 1 S102 1136 173236 -83 0
10 2 S102 1247 174483 1164 0
10 2 S102 1243 175726 2407 0
10 2 S102 1101 176827 3508 0
10 2 S102 1151 177978 4659 0
10 2 S102 1229 179207 5888 0
10 2 S102 1115 180322 7003 0
0 0 0 1121 181443 -10991 0
0 0 0 1234 182677 -9757 0
0 0 0 1221 183898 -8536 0
0 0 0 1020 184918 -7516 0
0 0 0 1198 186116 -6318 0
0 0 0 1243 187359 -5075 0
0 0 0 1188 188547 -3887 0
0 0 0 1054 189601 -2833 0
11 1 S112 1182 190783 -1651 0
11 1 S112 1209 191992 -442 0
11 2 S112 1225 193217 783 0
11 2 S112 1117 194334 1900 0
11 2 S112 1195 195529 3095 0
11 2 S112 1220 196749 4315 0
11 2 S112 1198 197947 5513 0
11 2 S112 1049 198996 6562 0
0 0 0 1213 200209 -7925 0
0 0 0 1231 201440 -6694 0
0 0 0 1125 202565 -5569 0
0 0 0 1199 203764 -4370 0
0 0 0 1197 204961 -3173 0
0 0 0 1095 206056 -2078 0
12 1 S116 1051 207107 -1027 0
12 2 S116 1226 208333 199 0
12 2 S116 1257 209590 1456 0
12 2 S116 1201 210791 2657 0
12 2 S116 1058 211849 3715 0
12 2 S116 1209 213058 4924 0
12 2 S116 1256 214314 6180 0
0 0 0 1263 215577 -13164 0
0 0 0 1191 216768 -11973 0
0 0 0 1083 217851 -10890 0
0 0 0 1195 219046 -9695 0
0 0 0 1233 220279 -8462 0
0 0 0 1081 221360 -7381 0
0 0 0 961 222321 -6420 0
0 0 0 1065 223386 -5355 0
0 0 0 1139 224525 -4216 0
0 0 0 978 225503 -3238 0
0 0 0 1117 226620 -2121 0
13 1 S112 1172 227792 -949 0
13 2 S112 1054 228846 105 0
13 2 S112 1228 230074 1333 0
13 2 S112 1291 231365 2624 0
13 2 S112 1204 232569 3828 0
13 2 S112 1080 233649 4908 0
13 2 S112 1037 234686 5945 0
0 0 0 1195 235881 -13185 0
0 0 0 1255 237136 -11930 0
0 0 0 1184 238320 -10746 0
0 0 0 1062 239382 -9684 0
0 0 0 1208 240590 -8476 0
0 0 0 1192 241782 -7284 0
0 0 0 1042 242824 -6242 0
0 0 0 1153 243977 -5089 0
0 0 0 1205 245182 -3884 0
0 0 0 1135 246317 -2749 0
14 1 S106 1031 247348 -1718 0
14 1 S106 1137 248485 -581 0
14 2 S106 1184 249669 603 0
14 2 S106 1208 250877 1811 0
14 2 S106 1064 251941 2875 0
14 2 S106 1171 253112 4046 0
14 2 S106 1181 254293 5227 0
14 2 S106 1205 255498 6432 0
0 0 0 1073 256571 -10367 0
0 0 0 1235 257806 -9132 0
0 0 0 1198 259004 -7934 0
0 0 0 1014 260018 -6920 0
0 0 0 1064 261082 -5856 0
0 0 0 1192 262274 -4664 0
0 0 0 1203 263477 -3461 0
0 0 0 1103 264580 -2358 0
15 1 S116 1222 265802 -1136 0
15 2 S116 1229 267031 93 0
15 2 S116 1182 268213 1275 0
15 2 S116 1121 269334 2396 0
15 2 S116 1219 270553 3615 0
15 2 S116 1223 271776 4838 0
15 2 S116 1155 272931 5993 0
0 0 0 1209 274140 -10039 0
0 0 0 1233 275373 -8806 0
0 0 0 1230 276603 -7576 0
0 0 0 1087 277690 -6489 0
0 0 0 1146 278836 -5343 0
0 0 0 1053 279889 -4290 0
0 0 0 926 280815 -3364 0
0 0 0 1027 281842 -2337 0
16 1 S116 1107 282949 -1230 0
16 1 S116 1104 284053 -126 0
16 2 S116 1089 285142 963 0
16 2 S116 1139 286281 2102 0
16 2 S116 1158 287439 3260 0
16 2 S116 1049 288488 4309 0
16 2 S116 1086 289574 5395 0
16 2 S116 1121 290695 6516 0
0 0 0 1123 291818 -9387 0
0 0 0 1029 292847 -8358 0
0 0 0 1157 294004 -7201 0
0 0 0 1160 295164 -6041 0
0 0 0 1057 296221 -4984 0
0 0 0 949 297170 -4035 0
0 0 0 1077 298247 -2958 0
17 1 S106 1173 299420 -1785 0
17 1 S106 1185 300605 -600 0
17 2 S106 1069 301674 469 0
17 2 S106 1168 302842 1637 0
17 2 S106 1215 304057 2852 0
17 2 S106 1162 305219 4014 0
17 2 S106 1035 306254 5049 0
17 2 S106 1166 307420 6215 0
0 0 0 1206 308626 -11512 0
0 0 0 1132 309758 -10380 0
0 0 0 1082 310840 -9298 0
0 0 0 1130 311970 -8168 0
0 0 0 978 312948 -7190 0
0 0 0 924 313872 -6266 0
0 0 0 1051 314923 -5215 0
0 0 0 1104 316027 -4111 0
0 0 0 1109 317136 -3002 0
18 1 S102 1005 318141 -1997 0
18 1 S102 1131 319272 -866 0
18 2 S102 1140 320412 274 0
18 2 S102 1105 321517 1379 0
18 2 S102 1059 322576 2438 0
18 2 S102 1080 323656 3518 0
18 2 S102 1064 324720 4582 0
18 2 S102 997 325717 5579 0
18 2 S102 1096 326813 6675 0
0 0 0 1119 327932 -7192 0
0 0 0 1029 328961 -6163 0
0 0 0 1139 330100 -5024 0
0 0 0 1115 331215 -3909 0
0 0 0 974 332189 -2935 0
19 1 S106 1044 333233 -1891 0
19 1 S106 1047 334280 -844 0
19 2 S106 1016 335296 172 0
19 2 S106 936 336232 1108 0
19 2 S106 1085 337317 2193 0
19 2 S106 1162 338479 3355 0
19 2 S106 1153 339632 4508 0
19 2 S106 1023 340655 5531 0
19 2 S106 1096 341751 6627 0
0 0 0 1134 342885 -10293 0
0 0 0 1161 344046 -9132 0
0 0 0 969 345015 -8163 0
0 0 0 1025 346040 -7138 0
0 0 0 1016 347056 -6122 0
0 0 0 930 347986 -5192 0
0 0 0 1021 349007 -4171 0
0 0 0 1083 350090 -3088 0
20 1 S112 1089 351179 -1999 0
20 1 S112 1175 352354 -824 0
20 2 S112 1200 353554 376 0
20 2 S112 1173 354727 1549 0
20 2 S112 987 355714 2536 0
20 2 S112 989 356703 3525 0
20 2 S112 1115 357818 4640 0
20 2 S112 1143 358961 5783 0
20 2 S112 1034 359995 6817 0
0 0 0 1096 361091 -9379 0
0 0 0 1171 362262 -8208 0
0 0 0 1138 363400 -7070 0
0 0 0 1140 364540 -5930 0
0 0 0 1199 365739 -4731 0
0 0 0 1125 366864 -3606 0
0 0 0 1023 367887 -2583 0
21 1 S106 1151 369038 -1432 0
21 1 S106 1175 370213 -257 0
21 2 S106 1109 371322 852 0
21 2 S106 1147 372469 1999 0
21 2 S106 1236 373705 3235 0
21 2 S106 1227 374932 4462 0
21 2 S106 1148 376080 5610 0
21 2 S106 1190 377270 6800 0
0 0 0 1210 378480 -10690 0
0 0 0 1188 379668 -9502 0
0 0 0 1094 380762 -8408 0
0 0 0 1176 381938 -7232 0
0 0 0 1132 383070 -6100 0
0 0 0 1031 384101 -5069 0
0 0 0 1192 385293 -3877 0
0 0 0 1202 386495 -2675 0
22 1 S116 1176 387671 -1499 0
22 1 S116 1079 388750 -420 0
22 2 S116 1189 389939 769 0
22 2 S116 1211 391150 1980 0
22 2 S116 1129 392279 3109 0
22 2 S116 1134 393413 4243 0
22 2 S116 1259 394672 5502 0
22 2 S116 1287 395959 6789 0
0 0 0 1133 397092 -9353 0
0 0 0 1236 398328 -8117 0
0 0 0 1229 399557 -6888 0
0 0 0 1067 400624 -5821 0
0 0 0 1084 401708 -4737 0
0 0 0 1120 402828 -3617 0
0 0 0 1162 403990 -2455 0
23 1 S112 1010 405000 -1445 0
23 1 S112 1160 406160 -285 0
23 2 S112 1241 407401 956 0
23 2 S112 1196 408597 2152 0
23 2 S112 1170 409767 3322 0
23 2 S112 1179 410946 4501 0
23 2 S112 1170 412116 5671 0
23 2 S112 1076 413192 6747 0
0 0 0 1161 414353 -9200 0
0 0 0 1210 415563 -7990 0
0 0 0 1191 416754 -6799 0
0 0 0 1170 417924 -5629 0
0 0 0 1225 419149 -4404 0
0 0 0 1215 420364 -3189 0
0 0 0 1081 421445 -2108 0
24 1 S106 1173 422618 -935 0
24 2 S106 1221 423839 286 0
24 2 S106 1200 425039 1486 0
24 2 S106 1031 426070 2517 0
24 2 S106 1151 427221 3668 0
24 2 S106 1187 428408 4855 0
24 2 S106 1205 429613 6060 0
0 0 0 1045 430658 -8761 0
0 0 0 839 431497 -7922 1
0 0 0 916 432413 -7006 0
0 0 0 1047 433460 -5959 0
0 0 0 1267 434727 -4692 0
0 0 0 1252 435979 -3440 0
0 0 0 1256 437235 -2184 0
25 1 S102 1158 438393 -1026 0
25 1 S102 989 439382 -37 0
25 2 S102 1100 440482 1063 0
25 2 S102 1198 441680 2261 0
25 2 S102 1228 442908 3489 0
25 2 S102 1212 444120 4701 0
25 2 S102 1183 445303 5884 0
0 0 0 1174 446477 -7017 0
0 0 0 1139 447616 -5878 0
0 0 0 1165 448781 -4713 0
0 0 0 1091 449872 -3622 0
0 0 0 948 450820 -2674 0
26 1 S116 974 451794 -1700 0
26 1 S116 1077 452871 -623 0
26 2 S116 1187 454058 564 0
26 2 S116 1201 455259 1765 0
26 2 S116 1092 456351 2857 0
26 2 S116 1144 457495 4001 0
26 2 S116 1203 458698 5204 0
26 2 S116 1171 459869 6375 0
0 0 0 1074 460943 -8019 0
0 0 0 1128 462071 -6891 0
0 0 0 1163 463234 -5728 0
0 0 0 1129 464363 -4599 0
0 0 0 1059 465422 -3540 0
0 0 0 1124 466546 -2416 0
27 1 S106 1120 467666 -1296 0
27 1 S106 948 468614 -348 0
27 2 S106 1029 469643 681 0
27 2 S106 1134 470777 1815 0
27 2 S106 1137 471914 2952 0
27 2 S106 983 472897 3935 0
27 2 S106 1137 474034 5072 0
27 2 S106 1130 475164 6202 0
0 0 0 1055 476219 -6818 0
0 0 0 1066 477285 -5752 0
0 0 0 1187 478472 -4565 0
0 0 0 1167 479639 -3398 0
0 0 0 1019 480658 -2379 0
28 1 S102 1127 481785 -1252 0
28 1 S102 1136 482921 -116 0
28 2 S102 1085 484006 969 0
28 2 S102 1029 485035 1998 0
28 2 S102 1089 486124 3087 0
28 2 S102 1164 487288 4251 0
28 2 S102 1133 488421 5384 0
28 2 S102 1131 489552 6515 0
0 0 0 1194 490746 -10875 0
0 0 0 1165 491911 -9710 0
0 0 0 1151 493062 -8559 0
0 0 0 1162 494224 -7397 0
0 0 0 980 495204 -6417 0
0 0 0 955 496159 -5462 0
0 0 0 958 497117 -4504 0
0 0 0 1066 498183 -3438 0
0 0 0 1064 499247 -2374 0
29 1 S112 1178 500425 -1196 0
29 2 S112 1216 501641 20 0
29 2 S112 1146 502787 1166 0
29 2 S112 1217 504004 2383 0
29 2 S112 1166 505170 3549 0
29 2 S112 1121 506291 4670 0
29 2 S112 1154 507445 5824 0
29 2 S112 1142 508587 6966 0
0 0 0 1071 509658 -7878 0
0 0 0 1146 510804 -6732 0
0 0 0 1196 512000 -5536 0
0 0 0 1115 513115 -4421 0
0 0 0 1057 514172 -3364 0
0 0 0 1110 515282 -2254 0
30 1 S112 1121 516403 -1133 0
30 1 S112 1006 517409 -127 0
30 2 S112 1103 518512 976 0
30 2 S112 1156 519668 2132 0
30 2 S112 1084 520752 3216 0
30 2 S112 1097 521849 4313 0
30 2 S112 1173 523022 5486 0
30 2 S112 1143 524165 6629 0
0 0 0 1050 525215 -9695 0
0 0 0 1132 526347 -8563 0
0 0 0 1153 527500 -7410 0
0 0 0 1085 528585 -6325 0
0 0 0 1053 529638 -5272 0
0 0 0 1093 530731 -4179 0
0 0 0 1082 531813 -3097 0
0 0 0 962 532775 -2135 0
31 1 S106 1032 533807 -1103 0
31 2 S106 1105 534912 2 0
31 2 S106 1130 536042 1132 0
31 2 S106 1028 537070 2160 0
31 2 S106 1159 538229 3319 0
31 2 S106 1195 539424 4514 0
31 2 S106 1140 540564 5654 0
31 2 S106 1097 541661 6751 0
0 0 0 1118 542779 -8511 0
0 0 0 1128 543907 -7383 0
0 0 0 1002 544909 -6381 0
0 0 0 1086 545995 -5295 0
0 0 0 1134 547129 -4161 0
0 0 0 1039 548168 -3122 0
32 1 S102 1202 549370 -1920 0
32 1 S102 1202 550572 -718 0
32 2 S102 1122 551694 404 0
32 2 S102 1132 552826 1536 0
32 2 S102 1171 553997 2707 0
32 2 S102 1106 555103 3813 0
32 2 S102 1071 556174 4884 0
32 2 S102 1134 557308 6018 0
0 0 0 1077 558385 -11572 0
0 0 0 1018 559403 -10554 0
0 0 0 1117 560520 -9437 0
0 0 0 1108 561628 -8329 0
0 0 0 982 562610 -7347 0
0 0 0 1078 563688 -6269 0
0 0 0 1125 564813 -5144 0
0 0 0 1018 565831 -4126 0
0 0 0 1131 566962 -2995 0
33 1 S112 1158 568120 -1837 0
33 1 S112 1078 569198 -759 0
33 2 S112 1070 570268 311 0
33 2 S112 1119 571387 1430 0
33 2 S112 1120 572507 2550 0
33 2 S112 1031 573538 3581 0
33 2 S112 1094 574632 4675 0
33 2 S112 1171 575803 5846 0
33 2 S112 1058 576861 6904 0
0 0 0 1153 578014 -11008 0
0 0 0 1192 579206 -9816 0
0 0 0 1179 580385 -8637 0
0 0 0 1020 581405 -7617 0
0 0 0 1110 582515 -6507 0
0 0 0 1119 583634 -5388 0
0 0 0 1017 584651 -4371 0
0 0 0 1106 585757 -3265 0
0 0 0 1122 586879 -2143 0
34 1 S106 1102 587981 -1041 0
34 1 S106 1006 588987 -35 0
34 2 S106 1124 590111 1089 0
34 2 S106 1167 591278 2256 0
34 2 S106 1078 592356 3334 0
34 2 S106 1097 593453 4431 0
34 2 S106 1163 594616 5594 0
34 2 S106 1162 595778 6756 0
0 0 0 1028 596806 -8496 0
0 0 0 1100 597906 -7396 0
0 0 0 1099 599005 -6297 0
0 0 0 980 599985 -5317 0
0 0 0 972 600957 -4345 0
0 0 0 1018 601975 -3327 0
0 0 0 1064 603039 -2263 0
35 1 S102 980 604019 -1283 0
35 1 S102 1138 605157 -145 0
35 2 S102 1226 606383 1081 0
35 2 S102 1177 607560 2258 0
35 2 S102 1075 608635 3333 0
35 2 S102 1164 609799 4497 0
35 2 S102 1162 610961 5659 0
35 2 S102 1025 611986 6684 0
0 0 0 1062 613048 -7423 0
0 0 0 1123 614171 -6300 0
0 0 0 1132 615303 -5168 0
0 0 0 1064 616367 -4104 0
0 0 0 1106 617473 -2998 0
36 1 S106 1062 618535 -1936 0
36 1 S106 1062 619597 -874 0
36 2 S106 972 620569 98 0
36 2 S106 1098 621667 1196 0
36 2 S106 1155 622822 2351 0
36 2 S106 1068 623890 3419 0
36 2 S106 1034 624924 4453 0
36 2 S106 1088 626012 5541 0
36 2 S106 1140 627152 6681 0
0 0 0 1025 628177 -9039 0
0 0 0 1200 629377 -7839 0
0 0 0 1245 630622 -6594 0
0 0 0 1040 631662 -5554 0
0 0 0 1072 632734 -4482 0
0 0 0 1112 633846 -3370 0
0 0 0 1067 634913 -2303 0
37 1 S116 995 635908 -1308 0
37 1 S116 1108 637016 -200 0
37 2 S116 1176 638192 976 0
37 2 S116 1176 639368 2152 0
37 2 S116 1040 640408 3192 0
37 2 S116 1125 641533 4317 0
37 2 S116 1173 642706 5490 0
37 2 S116 1141 643847 6631 0
0 0 0 1134 644981 -11615 0
0 0 0 1164 646145 -10451 0
0 0 0 1157 647302 -9294 0
0 0 0 1002 648304 -8292 0
0 0 0 1049 649353 -7243 0
0 0 0 1105 650458 -6138 0
0 0 0 1064 651522 -5074 0
0 0 0 1052 652574 -4022 0
0 0 0 1141 653715 -2881 0
38 1 S102 1138 654853 -1743 0
38 1 S102 1021 655874 -722 0
38 2 S102 1075 656949 353 0
38 2 S102 1131 658080 1484 0
38 2 S102 1087 659167 2571 0
38 2 S102 965 660132 3536 0
38 2 S102 969 661101 4505 0
38 2 S102 903 662004 5408 0
38 2 S102 827 662831 6235 1
0 0 0 841 663672 -9701 1
0 0 0 1191 664863 -8510 0
0 0 0 1164 666027 -7346 0
0 0 0 1022 667049 -6324 0
0 0 0 930 667979 -5394 0
0 0 0 948 668927 -4446 0
0 0 0 1077 670004 -3369 0
0 0 0 1103 671107 -2266 0
39 1 S116 983 672090 -1283 0
39 1 S116 1070 673160 -213 0
39 2 S116 1194 674354 981 0
39 2 S116 1229 675583 2210 0
39 2 S116 1136 676719 3346 0
39 2 S116 1184 677903 4530 0
39 2 S116 1196 679099 5726 0
39 2 S116 1205 680304 6931 0
0 0 0 1071 681375 -7051 0
0 0 0 1136 682511 -5915 0
0 0 0 1153 683664 -4762 0
0 0 0 1049 684713 -3713 0
0 0 0 977 685690 -2736 0
40 1 S112 1075 686765 -1661 0
40 1 S112 1144 687909 -517 0
40 2 S112 1086 688995 569 0
40 2 S112 1095 690090 1664 0
40 2 S112 1161 691251 2825 0
40 2 S112 1154 692405 3979 0
40 2 S112 1016 693421 4995 0
40 2 S112 1090 694511 6085 0
0 0 0 1142 695653 -187403 0
0 0 0 1113 696766 -186290 0
0 0 0 1043 697809 -185247 0
0 0 0 1207 699016 -184040 0
0 0 0 1196 700212 -182844 0
0 0 0 995 701207 -181849 0
0 0 0 859 702066 -180990 0
0 0 0 798 702864 -180192 1
0 0 0 838 703702 -179354 1
0 0 0 1040 704742 -178314 0
0 0 0 1152 705894 -177162 0
0 0 0 1192 707086 -175970 0
0 0 0 1180 708266 -174790 0
0 0 0 1095 709361 -173695 0
0 0 0 1088 710449 -172607 0
0 0 0 1098 711547 -171509 0
0 0 0 1052 712599 -170457 0
0 0 0 882 713481 -169575 0
0 0 0 871 714352 -168704 0
0 0 0 930 715282 -167774 0
0 0 0 980 716262 -166794 0
0 0 0 959 717221 -165835 0
0 0 0 977 718198 -164858 0
0 0 0 1018 719216 -163840 0
0 0 0 1061 720277 -162779 0
0 0 0 966 721243 -161813 0
0 0 0 913 722156 -160900 0
0 0 0 884 723040 -160016 0
0 0 0 861 723901 -159155 0
0 0 0 856 724757 -158299 0
0 0 0 899 725656 -157400 0
0 0 0 944 726600 -156456 0
0 0 0 929 727529 -155527 0
0 0 0 978 728507 -154549 0
0 0 0 1020 729527 -153529 0
0 0 0 1064 730591 -152465 0
0 0 0 1067 731658 -151398 0
0 0 0 1080 732738 -150318 0
0 0 0 934 733672 -149384 0
0 0 0 1029 734701 -148355 0
0 0 0 1150 735851 -147205 0
0 0 0 1131 736982 -146074 0
0 0 0 1122 738104 -144952 0
0 0 0 1082 739186 -143870 0
0 0 0 1112 740298 -142758 0
0 0 0 1132 741430 -141626 0
0 0 0 1054 742484 -140572 0
0 0 0 957 743441 -139615 0
0 0 0 1026 744467 -138589 0
0 0 0 1104 745571 -137485 0
0 0 0 1092 746663 -136393 0
0 0 0 1080 747743 -135313 0
0 0 0 1107 748850 -134206 0
0 0 0 1018 749868 -133188 0
0 0 0 1102 750970 -132086 0
0 0 0 1109 752079 -130977 0
0 0 0 1134 753213 -129843 0
0 0 0 1043 754256 -128800 0
0 0 0 1075 755331 -127725 0
0 0 0 1084 756415 -126641 0
0 0 0 1096 757511 -125545 0
0 0 0 1053 758564 -124492 0
0 0 0 1104 759668 -123388 0
0 0 0 1115 760783 -122273 0
0 0 0 1103 761886 -121170 0
0 0 0 949 762835 -120221 0
0 0 0 1030 763865 -119191 0
0 0 0 1086 764951 -118105 0
0 0 0 1138 766089 -116967 0
0 0 0 1064 767153 -115903 0
0 0 0 1166 768319 -114737 0
0 0 0 1200 769519 -113537 0
0 0 0 1123 770642 -112414 0
0 0 0 1135 771777 -111279 0
0 0 0 1128 772905 -110151 0
0 0 0 1051 773956 -109100 0
0 0 0 864 774820 -108236 0
0 0 0 872 775692 -107364 0
0 0 0 950 776642 -106414 0
0 0 0 897 777539 -105517 0
0 0 0 830 778369 -104687 1
0 0 0 910 779279 -103777 0
0 0 0 971 780250 -102806 0
0 0 0 880 781130 -101926 0
0 0 0 819 781949 -101107 1
0 0 0 828 782777 -100279 1
0 0 0 991 783768 -99288 0
0 0 0 1080 784848 -98208 0
0 0 0 944 785792 -97264 0
0 0 0 862 786654 -96402 0
0 0 0 800 787454 -95602 1
0 0 0 804 788258 -94798 1
0 0 0 803 789061 -93995 1
0 0 0 849 789910 -93146 0
0 0 0 929 790839 -92217 0
0 0 0 910 791749 -91307 0
0 0 0 902 792651 -90405 0
0 0 0 906 793557 -89499 0
0 0 0 884 794441 -88615 0
0 0 0 873 795314 -87742 0
0 0 0 884 796198 -86858 0
0 0 0 895 797093 -85963 0
0 0 0 847 797940 -85116 0
0 0 0 798 798738 -84318 1
0 0 0 809 799547 -83509 1
0 0 0 895 800442 -82614 0
0 0 0 1036 801478 -81578 0
0 0 0 1194 802672 -80384 0
0 0 0 1136 803808 -79248 0
0 0 0 1179 804987 -78069 0
0 0 0 1119 806106 -76950 0
0 0 0 947 807053 -76003 0
0 0 0 855 807908 -75148 0
0 0 0 873 808781 -74275 0
0 0 0 1105 809886 -73170 0
0 0 0 1288 811174 -71882 0
0 0 0 1185 812359 -70697 0
0 0 0 1108 813467 -69589 0
0 0 0 964 814431 -68625 0
0 0 0 922 815353 -67703 0
0 0 0 1257 816610 -66446 0
0 0 0 1304 817914 -65142 0
0 0 0 1128 819042 -64014 0
0 0 0 1144 820186 -62870 0
0 0 0 1247 821433 -61623 0
0 0 0 1251 822684 -60372 0
0 0 0 1084 823768 -59288 0
0 0 0 1204 824972 -58084 0
0 0 0 1273 826245 -56811 0
0 0 0 1137 827382 -55674 0
0 0 0 1239 828621 -54435 0
0 0 0 1274 829895 -53161 0
0 0 0 1229 831124 -51932 0
0 0 0 1078 832202 -50854 0
0 0 0 1155 833357 -49699 0
0 0 0 1195 834552 -48504 0
0 0 0 1189 835741 -47315 0
0 0 0 1016 836757 -46299 0
0 0 0 1051 837808 -45248 0
0 0 0 1143 838951 -44105 0
0 0 0 1213 840164 -42892 0
0 0 0 1195 841359 -41697 0
0 0 0 1293 842652 -40404 0
0 0 0 1253 843905 -39151 0
0 0 0 1105 845010 -38046 0
0 0 0 1165 846175 -36881 0
0 0 0 1248 847423 -35633 0
0 0 0 1160 848583 -34473 0
0 0 0 1220 849803 -33253 0
0 0 0 1236 851039 -32017 0
0 0 0 1181 852220 -30836 0
0 0 0 1096 853316 -29740 0
0 0 0 1192 854508 -28548 0
0 0 0 1254 855762 -27294 0
0 0 0 1271 857033 -26023 0
0 0 0 1089 858122 -24934 0
0 0 0 1235 859357 -23699 0
0 0 0 1275 860632 -22424 0
0 0 0 1262 861894 -21162 0
0 0 0 1113 863007 -20049 0
0 0 0 1196 864203 -18853 0
0 0 0 1285 865488 -17568 0
0 0 0 1303 866791 -16265 0
0 0 0 1190 867981 -15075 0
0 0 0 1269 869250 -13806 0
0 0 0 1229 870479 -12577 0
0 0 0 1110 871589 -11467 0
0 0 0 1140 872729 -10327 0
0 0 0 1175 873904 -9152 0
0 0 0 1046 874950 -8106 0
0 0 0 1010 875960 -7096 0
0 0 0 1017 876977 -6079 0
0 0 0 923 877900 -5156 0
0 0 0 895 878795 -4261 0
0 0 0 854 879649 -3407 0
0 0 0 823 880472 -2584 1
41 1 S102 765 881237 -1819 1
41 1 S102 789 882026 -1030 1
41 1 S102 827 882853 -203 1
41 2 S102 875 883728 672 0
41 2 S102 844 884572 1516 1
41 2 S102 786 885358 2302 1
41 2 S102 791 886149 3093 1
41 2 S102 798 886947 3891 1
41 2 S102 796 887743 4687 1
41 2 S102 777 888520 5464 1
41 2 S102 794 889314 6258 1
0 0 0 838 890152 -7079 1
0 0 0 918 891070 -6161 0
0 0 0 964 892034 -5197 0
0 0 0 868 892902 -4329 0
0 0 0 908 893810 -3421 0
0 0 0 946 894756 -2475 0
42 1 S112 959 895715 -1516 0
42 1 S112 899 896614 -617 0
42 2 S112 967 897581 350 0
42 2 S112 1087 898668 1437 0
42 2 S112 1096 899764 2533 0
42 2 S112 978 900742 3511 0
42 2 S112 1068 901810 4579 0
42 2 S112 1110 902920 5689 0
42 2 S112 1020 903940 6709 0
0 0 0 1076 905016 -8644 0
0 0 0 1102 906118 -7542 0
0 0 0 1005 907123 -6537 0
0 0 0 1023 908146 -5514 0
0 0 0 1005 909151 -4509 0
0 0 0 930 910081 -3579 0
0 0 0 1044 911125 -2535 0
43 1 S116 1133 912258 -1402 0
43 1 S116 1164 913422 -238 0
43 2 S116 1076 914498 838 0
43 2 S116 1142 915640 1980 0
43 2 S116 1213 916853 3193 0
43 2 S116 1158 918011 4351 0
43 2 S116 1196 919207 5547 0
43 2 S116 1190 920397 6737 0
0 0 0 1052 921449 -7662 0
0 0 0 1118 922567 -6544 0
0 0 0 1228 923795 -5316 0
0 0 0 1182 924977 -4134 0
0 0 0 998 925975 -3136 0
0 0 0 1094 927069 -2042 0
44 1 S102 1135 928204 -907 0
44 2 S102 1087 929291 180 0
44 2 S102 1158 930449 1338 0
44 2 S102 1171 931620 2509 0
44 2 S102 1142 932762 3651 0
44 2 S102 1057 933819 4708 0
44 2 S102 1110 934929 5818 0
44 2 S102 1147 936076 6965 0
0 0 0 1092 937168 -7029 0
0 0 0 1072 938240 -5957 0
0 0 0 1001 939241 -4956 0
0 0 0 915 940156 -4041 0
0 0 0 1011 941167 -3030 0
45 1 S116 1082 942249 -1948 0
45 1 S116 1098 943347 -850 0
45 2 S116 1117 944464 267 0
45 2 S116 1175 945639 1442 0
45 2 S116 1174 946813 2616 0
45 2 S116 1059 947872 3675 0
45 2 S116 1103 948975 4778 0
45 2 S116 1118 950093 5896 0
45 2 S116 1126 951219 7022 0
0 0 0 1066 952285 -10347 0
0 0 0 1196 953481 -9151 0
0 0 0 1173 954654 -7978 0
0 0 0 966 955620 -7012 0
0 0 0 1085 956705 -5927 0
0 0 0 1149 957854 -4778 0
0 0 0 1052 958906 -3726 0
0 0 0 1060 959966 -2666 0
46 1 S102 1163 961129 -1503 0
46 1 S102 1144 962273 -359 0
46 2 S102 1035 963308 676 0
46 2 S102 1136 964444 1812 0
46 2 S102 1181 965625 2993 0
46 2 S102 1091 966716 4084 0
46 2 S102 1039 967755 5123 0
46 2 S102 1148 968903 6271 0
0 0 0 1189 970092 -10511 0
0 0 0 1070 971162 -9441 0
0 0 0 1189 972351 -8252 0
0 0 0 1299 973650 -6953 0
0 0 0 1076 974726 -5877 0
0 0 0 1045 975771 -4832 0
0 0 0 1134 976905 -3698 0
0 0 0 1175 978080 -2523 0
47 1 S112 1082 979162 -1441 0
47 1 S112 1127 980289 -314 0
47 2 S112 1201 981490 887 0
47 2 S112 1209 982699 2096 0
47 2 S112 1064 983763 3160 0
47 2 S112 1119 984882 4279 0
47 2 S112 1163 986045 5442 0
47 2 S112 1097 987142 6539 0
0 0 0 1133 988275 -11095 0
0 0 0 1161 989436 -9934 0
0 0 0 1155 990591 -8779 0
0 0 0 1133 991724 -7646 0
0 0 0 1172 992896 -6474 0
0 0 0 1079 993975 -5395 0
0 0 0 1203 995178 -4192 0
0 0 0 1228 996406 -2964 0
48 1 S116 1160 997566 -1804 0
48 1 S116 1153 998719 -651 0
48 2 S116 1217 999936 566 0
48 2 S116 1208 1001144 1774 0
48 2 S116 1142 1002286 2916 0
48 2 S116 1204 1003490 4120 0
48 2 S116 1246 1004736 5366 0
48 2 S116 1111 1005847 6477 0
0 0 0 1221 1007068 -7902 0
0 0 0 1247 1008315 -6655 0
0 0 0 1149 1009464 -5506 0
0 0 0 1165 1010629 -4341 0
0 0 0 1195 1011824 -3146 0
0 0 0 1098 1012922 -2048 0
49 1 S112 1239 1014161 -809 0
49 2 S112 1275 1015436 466 0
49 2 S112 1143 1016579 1609 0
49 2 S112 1190 1017769 2799 0
49 2 S112 1227 1018996 4026 0
49 2 S112 1082 1020078 5108 0
49 2 S112 1165 1021243 6273 0
0 0 0 1218 1022461 -11840 0
0 0 0 1150 1023611 -10690 0
0 0 0 1117 1024728 -9573 0
0 0 0 1194 1025922 -8379 0
0 0 0 1135 1027057 -7244 0
0 0 0 1007 1028064 -6237 0
0 0 0 1207 1029271 -5030 0
0 0 0 1238 1030509 -3792 0
0 0 0 1137 1031646 -2655 0
50 1 S106 1240 1032886 -1415 0
50 1 S106 1228 1034114 -187 0
50 2 S106 1140 1035254 953 0
50 2 S106 1211 1036465 2164 0
50 2 S106 1241 1037706 3405 0
50 2 S106 1172 1038878 4577 0
50 2 S106 1116 1039994 5693 0
50 2 S106 1229 1041223 6922 0
0 0 0 1245 1042468 -5609 0
0 0 0 1097 1043565 -4512 0
0 0 0 1177 1044742 -3335 0
0 0 0 1105 1045847 -2230 0
51 1 S112 979 1046826 -1251 0
51 1 S112 1079 1047905 -172 0
51 2 S112 1137 1049042 965 0
51 2 S112 1097 1050139 2062 0
51 2 S112 1176 1051315 3238 0
51 2 S112 1197 1052512 4435 0
51 2 S112 1097 1053609 5532 0
51 2 S112 1150 1054759 6682 0
0 0 0 1144 1055903 -6299 0
0 0 0 1071 1056974 -5228 0
0 0 0 1072 1058046 -4156 0
0 0 0 1053 1059099 -3103 0
0 0 0 1020 1060119 -2083 0
52 1 S116 1067 1061186 -1016 0
52 2 S116 1125 1062311 109 0
52 2 S116 1171 1063482 1280 0
52 2 S116 1098 1064580 2378 0
52 2 S116 1221 1065801 3599 0
52 2 S116 1201 1067002 4800 0
52 2 S116 1072 1068074 5872 0
52 2 S116 1153 1069227 7025 0
0 0 0 1218 1070445 -7606 0
0 0 0 1089 1071534 -6517 0
0 0 0 1149 1072683 -5368 0
0 0 0 1173 1073856 -4195 0
0 0 0 1024 1074880 -3171 0
0 0 0 1094 1075974 -2077 0
53 1 S106 1146 1077120 -931 0
53 2 S106 1098 1078218 167 0
53 2 S106 1102 1079320 1269 0
53 2 S106 1233 1080553 2502 0
53 2 S106 1252 1081805 3754 0
53 2 S106 1104 1082909 4858 0
53 2 S106 1133 1084042 5991 0
0 0 0 1172 1085214 -7327 0
0 0 0 1202 1086416 -6125 0
0 0 0 1187 1087603 -4938 0
0 0 0 1063 1088666 -3875 0
0 0 0 1121 1089787 -2754 0
54 1 S102 1130 1090917 -1624 0
54 1 S102 1055 1091972 -569 0
54 2 S102 1172 1093144 603 0
54 2 S102 1187 1094331 1790 0
54 2 S102 1056 1095387 2846 0
54 2 S102 1135 1096522 3981 0
54 2 S102 1167 1097689 5148 0
54 2 S102 1045 1098734 6193 0
0 0 0 1103 1099837 -11653 0
0 0 0 1209 1101046 -10444 0
0 0 0 1204 1102250 -9240 0
0 0 0 1040 1103290 -8200 0
0 0 0 1041 1104331 -7159 0
0 0 0 929 1105260 -6230 0
0 0 0 820 1106080 -5410 1
0 0 0 896 1106976 -4514 0
0 0 0 1119 1108095 -3395 0
0 0 0 1105 1109200 -2290 0
55 1 S106 1073 1110273 -1217 0
55 1 S106 1146 1111419 -71 0
55 2 S106 1178 1112597 1107 0
55 2 S106 1187 1113784 2294 0
55 2 S106 1143 1114927 3437 0
55 2 S106 1057 1115984 4494 0
55 2 S106 1132 1117116 5626 0
55 2 S106 1160 1118276 6786 0
0 0 0 1091 1119367 -6181 0
0 0 0 1150 1120517 -5031 0
0 0 0 1171 1121688 -3860 0
0 0 0 1070 1122758 -2790 0
56 1 S116 1030 1123788 -1760 0
56 1 S116 1123 1124911 -637 0
56 2 S116 1152 1126063 515 0
56 2 S116 1053 1127116 1568 0
56 2 S116 1223 1128339 2791 0
56 2 S116 1250 1129589 4041 0
56 2 S116 1185 1130774 5226 0
56 2 S116 1056 1131830 6282 0
0 0 0 1168 1132998 -7106 0
0 0 0 1222 1134220 -5884 0
0 0 0 1143 1135363 -4741 0
0 0 0 1105 1136468 -3636 0
0 0 0 1159 1137627 -2477 0
57 1 S106 1163 1138790 -1314 0
57 1 S106 1024 1139814 -290 0
57 2 S106 1112 1140926 822 0
57 2 S106 1239 1142165 2061 0
57 2 S106 1113 1143278 3174 0
57 2 S106 1086 1144364 4260 0
57 2 S106 1200 1145564 5460 0
57 2 S106 1245 1146809 6705 0
0 0 0 1173 1147982 -8286 0
0 0 0 1267 1149249 -7019 0
0 0 0 1151 1150400 -5868 0
0 0 0 931 1151331 -4937 0
0 0 0 998 1152329 -3939 0
0 0 0 1071 1153400 -2868 0
58 1 S102 1090 1154490 -1778 0
58 1 S102 986 1155476 -792 0
58 2 S102 1048 1156524 256 0
58 2 S102 1048 1157572 1304 0
58 2 S102 1037 1158609 2341 0
58 2 S102 1021 1159630 3362 0
58 2 S102 1019 1160649 4381 0
58 2 S102 919 1161568 5300 0
58 2 S102 999 1162567 6299 0
0 0 0 1052 1163619 -7520 0
0 0 0 1044 1164663 -6476 0
0 0 0 1031 1165694 -5445 0
0 0 0 1097 1166791 -4348 0
0 0 0 1084 1167875 -3264 0
0 0 0 938 1168813 -2326 0
59 1 S112 863 1169676 -1463 0
59 1 S112 778 1170454 -685 1
59 2 S112 804 1171258 119 1
59 2 S112 976 1172234 1095 0
59 2 S112 1217 1173451 2312 0
59 2 S112 1218 1174669 3530 0
59 2 S112 1266 1175935 4796 0
59 2 S112 1245 1177180 6041 0
0 0 0 1254 1178434 -10874 0
0 0 0 1218 1179652 -9656 0
0 0 0 1147 1180799 -8509 0
0 0 0 1132 1181931 -7377 0
0 0 0 1099 1183030 -6278 0
0 0 0 983 1184013 -5295 0
0 0 0 934 1184947 -4361 0
0 0 0 869 1185816 -3492 0
0 0 0 826 1186642 -2666 1
60 1 S102 881 1187523 -1785 0
60 1 S102 1068 1188591 -717 0
60 2 S102 1169 1189760 452 0
60 2 S102 1239 1190999 1691 0
60 2 S102 1202 1192201 2893 0
60 2 S102 1155 1193356 4048 0
60 2 S102 1018 1194374 5066 0
60 2 S102 1067 1195441 6133 0
0 0 0 1106 1196547 -10616 0
0 0 0 1128 1197675 -9488 0
0 0 0 1011 1198686 -8477 0
0 0 0 970 1199656 -7507 0
0 0 0 1009 1200665 -6498 0
0 0 0 1107 1201772 -5391 0
0 0 0 947 1202719 -4444 0
0 0 0 1016 1203735 -3428 0
0 0 0 1117 1204852 -2311 0
61 1 S106 1153 1206005 -1158 0
61 1 S106 1011 1207016 -147 0
61 2 S106 881 1207897 734 0
61 2 S106 906 1208803 1640 0
61 2 S106 1192 1209995 2832 0
61 2 S106 1298 1211293 4130 0
61 2 S106 1268 1212561 5398 0
61 2 S106 1239 1213800 6637 0
0 0 0 1157 1214957 -6066 0
0 0 0 1200 1216157 -4866 0
0 0 0 1143 1217300 -3723 0
0 0 0 1036 1218336 -2687 0
62 1 S112 908 1219244 -1779 0
62 1 S112 888 1220132 -891 0
62 2 S112 970 1221102 79 0
62 2 S112 1217 1222319 1296 0
62 2 S112 1192 1223511 2488 0
62 2 S112 1119 1224630 3607 0
62 2 S112 1165 1225795 4772 0
62 2 S112 1166 1226961 5938 0
0 0 0 1132 1228093 -11564 0
0 0 0 1031 1229124 -10533 0
0 0 0 1092 1230216 -9441 0
0 0 0 1096 1231312 -8345 0
0 0 0 938 1232250 -7407 0
0 0 0 922 1233172 -6485 0
0 0 0 946 1234118 -5539 0
0 0 0 1037 1235155 -4502 0
0 0 0 1154 1236309 -3348 0
0 0 0 1182 1237491 -2166 0
63 1 S102 1126 1238617 -1040 0
63 2 S102 1155 1239772 115 0
63 2 S102 1174 1240946 1289 0
63 2 S102 1153 1242099 2442 0
63 2 S102 1026 1243125 3468 0
63 2 S102 1106 1244231 4574 0
63 2 S102 1119 1245350 5693 0
63 2 S102 1136 1246486 6829 0
0 0 0 1011 1247497 -8274 0
0 0 0 1119 1248616 -7155 0
0 0 0 1166 1249782 -5989 0
0 0 0 1051 1250833 -4938 0
0 0 0 1125 1251958 -3813 0
0 0 0 1166 1253124 -2647 0
64 1 S112 1146 1254270 -1501 0
64 1 S112 1043 1255313 -458 0
64 2 S112 1084 1256397 626 0
64 2 S112 1132 1257529 1758 0
64 2 S112 1111 1258640 2869 0
64 2 S112 1221 1259861 4090 0
64 2 S112 1244 1261105 5334 0
64 2 S112 1202 1262307 6536 0
0 0 0 1131 1263438 -7055 0
0 0 0 1193 1264631 -5862 0
0 0 0 1135 1265766 -4727 0
0 0 0 1009 1266775 -3718 0
0 0 0 1086 1267861 -2632 0
65 1 S106 1189 1269050 -1443 0
65 1 S106 1220 1270270 -223 0
65 2 S106 1144 1271414 921 0
65 2 S106 999 1272413 1920 0
65 2 S106 945 1273358 2865 0
65 2 S106 1132 1274490 3997 0
65 2 S106 1277 1275767 5274 0
65 2 S106 1331 1277098 6605 0
0 0 0 1249 1278347 -6287 0
0 0 0 1191 1279538 -5096 0
0 0 0 1148 1280686 -3948 0
0 0 0 1128 1281814 -2820 0
66 1 S116 974 1282788 -1846 0
66 1 S116 1020 1283808 -826 0
66 2 S116 1080 1284888 254 0
66 2 S116 1222 1286110 1476 0
66 2 S116 1147 1287257 2623 0
66 2 S116 1262 1288519 3885 0
66 2 S116 1212 1289731 5097 0
66 2 S116 1083 1290814 6180 0
0 0 0 1118 1291932 -13027 0
0 0 0 1206 1293138 -11821 0
0 0 0 1154 1294292 -10667 0
0 0 0 1100 1295392 -9567 0
0 0 0 1168 1296560 -8399 0
0 0 0 1066 1297626 -7333 0
0 0 0 949 1298575 -6384 0
0 0 0 1049 1299624 -5335 0
0 0 0 1161 1300785 -4174 0
0 0 0 1097 1301882 -3077 0
67 1 S102 1087 1302969 -1990 0
67 1 S102 1201 1304170 -789 0
67 2 S102 1221 1305391 432 0
67 2 S102 1172 1306563 1604 0
67 2 S102 999 1307562 2603 0
67 2 S102 1081 1308643 3684 0
67 2 S102 1205 1309848 4889 0
67 2 S102 1245 1311093 6134 0
0 0 0 1215 1312308 -8533 0
0 0 0 1132 1313440 -7401 0
0 0 0 1154 1314594 -6247 0
0 0 0 1161 1315755 -5086 0
0 0 0 992 1316747 -4094 0
0 0 0 1005 1317752 -3089 0
0 0 0 1050 1318802 -2039 0
68 1 S106 1074 1319876 -965 0
68 2 S106 1132 1321008 167 0
68 2 S106 1279 1322287 1446 0
68 2 S106 1215 1323502 2661 0
68 2 S106 1166 1324668 3827 0
68 2 S106 1189 1325857 5016 0
68 2 S106 1103 1326960 6119 0
0 0 0 1042 1328002 -10545 0
0 0 0 1095 1329097 -9450 0
0 0 0 1096 1330193 -8354 0
0 0 0 1011 1331204 -7343 0
0 0 0 1111 1332315 -6232 0
0 0 0 1230 1333545 -5002 0
0 0 0 1161 1334706 -3841 0
0 0 0 1168 1335874 -2673 0
69 1 S102 1201 1337075 -1472 0
69 1 S102 1158 1338233 -314 0
69 2 S102 1060 1339293 746 0
69 2 S102 1194 1340487 1940 0
69 2 S102 1189 1341676 3129 0
69 2 S102 1031 1342707 4160 0
69 2 S102 1117 1343824 5277 0
69 2 S102 1167 1344991 6444 0
0 0 0 1024 1346015 -9376 0
0 0 0 1141 1347156 -8235 0
0 0 0 1217 1348373 -7018 0
0 0 0 1055 1349428 -5963 0
0 0 0 1062 1350490 -4901 0
0 0 0 1108 1351598 -3793 0
0 0 0 1029 1352627 -2764 0
70 1 S112 1080 1353707 -1684 0
70 1 S112 1214 1354921 -470 0
70 2 S112 1188 1356109 718 0
70 2 S112 1184 1357293 1902 0
70 2 S112 1187 1358480 3089 0
70 2 S112 1244 1359724 4333 0
70 2 S112 1202 1360926 5535 0
70 2 S112 1155 1362081 6690 0
0 0 0 1191 1363272 -10836 0
0 0 0 1151 1364423 -9685 0
0 0 0 1048 1365471 -8637 0
0 0 0 1061 1366532 -7576 0
0 0 0 1031 1367563 -6545 0
0 0 0 924 1368487 -5621 0
0 0 0 859 1369346 -4762 0
0 0 0 945 1370291 -3817 0
0 0 0 1140 1371431 -2677 0
71 1 S116 1227 1372658 -1450 0
71 1 S116 1201 1373859 -249 0
71 2 S116 1187 1375046 938 0
71 2 S116 1309 1376355 2247 0
71 2 S116 1266 1377621 3513 0
71 2 S116 1221 1378842 4734 0
71 2 S116 1196 1380038 5930 0
0 0 0 1151 1381189 -10177 0
0 0 0 1208 1382397 -8969 0
0 0 0 1176 1383573 -7793 0
0 0 0 1077 1384650 -6716 0
0 0 0 1136 1385786 -5580 0
0 0 0 1149 1386935 -4431 0
0 0 0 1023 1387958 -3408 0
0 0 0 1107 1389065 -2301 0
72 1 S102 1176 1390241 -1125 0
72 2 S102 1135 1391376 10 0
72 2 S102 1101 1392477 1111 0
72 2 S102 1167 1393644 2278 0
72 2 S102 1164 1394808 3442 0
72 2 S102 1039 1395847 4481 0
72 2 S102 1147 1396994 5628 0
72 2 S102 1153 1398147 6781 0
0 0 0 1077 1399224 -5918 0
0 0 0 1134 1400358 -4784 0
0 0 0 1043 1401401 -3741 0
0 0 0 906 1402307 -2835 0
73 1 S116 859 1403166 -1976 0
73 1 S116 831 1403997 -1145 1
73 1 S116 810 1404807 -335 1
73 2 S116 1106 1405913 771 0
73 2 S116 1160 1407073 1931 0
73 2 S116 1132 1408205 3063 0
73 2 S116 1185 1409390 4248 0
73 2 S116 1163 1410553 5411 0
73 2 S116 1075 1411628 6486 0
0 0 0 1045 1412673 -9595 0
0 0 0 1130 1413803 -8465 0
0 0 0 1135 1414938 -7330 0
0 0 0 995 1415933 -6335 0
0 0 0 1041 1416974 -5294 0
0 0 0 1137 1418111 -4157 0
0 0 0 1110 1419221 -3047 0
74 1 S106 1194 1420415 -1853 0
74 1 S106 1223 1421638 -630 0
74 2 S106 1202 1422840 572 0
74 2 S106 1166 1424006 1738 0
74 2 S106 1197 1425203 2935 0
74 2 S106 1156 1426359 4091 0
74 2 S106 1003 1427362 5094 0
74 2 S106 1090 1428452 6184 0
0 0 0 1173 1429625 -6718 0
0 0 0 1069 1430694 -5649 0
0 0 0 1117 1431811 -4532 0
0 0 0 1142 1432953 -3390 0
0 0 0 1055 1434008 -2335 0
75 1 S112 1185 1435193 -1150 0
75 2 S112 1189 1436382 39 0
75 2 S112 1090 1437472 1129 0
75 2 S112 1199 1438671 2328 0
75 2 S112 1235 1439906 3563 0
75 2 S112 1140 1441046 4703 0
75 2 S112 1204 1442250 5907 0
0 0 0 1191 1443441 -8353 0
0 0 0 1098 1444539 -7255 0
0 0 0 1108 1445647 -6147 0
0 0 0 1123 1446770 -5024 0
0 0 0 1029 1447799 -3995 0
0 0 0 962 1448761 -3033 0
0 0 0 1011 1449772 -2022 0
76 1 S116 1113 1450885 -909 0
76 2 S116 1186 1452071 277 0
76 2 S116 1163 1453234 1440 0
76 2 S116 1091 1454325 2531 0
76 2 S116 1187 1455512 3718 0
76 2 S116 1219 1456731 4937 0
76 2 S116 1026 1457757 5963 0
76 2 S116 926 1458683 6889 0
0 0 0 1154 1459837 -7623 0
0 0 0 1034 1460871 -6589 0
0 0 0 1077 1461948 -5512 0
0 0 0 1121 1463069 -4391 0
0 0 0 1105 1464174 -3286 0
0 0 0 1002 1465176 -2284 0
77 1 S106 1038 1466214 -1246 0
77 1 S106 1189 1467403 -57 0
77 2 S106 1217 1468620 1160 0
77 2 S106 1106 1469726 2266 0
77 2 S106 1162 1470888 3428 0
77 2 S106 1165 1472053 4593 0
77 2 S106 1095 1473148 5688 0
77 2 S106 1014 1474162 6702 0
0 0 0 1057 1475219 -8239 0
0 0 0 1097 1476316 -7142 0
0 0 0 924 1477240 -6218 0
0 0 0 909 1478149 -5309 0
0 0 0 981 1479130 -4328 0
0 0 0 1033 1480163 -3295 0
0 0 0 1027 1481190 -2268 0
78 1 S112 1203 1482393 -1065 0
78 2 S112 1195 1483588 130 0
78 2 S112 1129 1484717 1259 0
78 2 S112 1201 1485918 2460 0
78 2 S112 1191 1487109 3651 0
78 2 S112 1085 1488194 4736 0
78 2 S112 1129 1489323 5865 0
78 2 S112 1132 1490455 6997 0
0 0 0 1062 1491517 -10609 0
0 0 0 957 1492474 -9652 0
0 0 0 1046 1493520 -8606 0
0 0 0 1090 1494610 -7516 0
0 0 0 1008 1495618 -6508 0
0 0 0 1043 1496661 -5465 0
0 0 0 1180 1497841 -4285 0
0 0 0 1241 1499082 -3044 0
79 1 S102 1070 1500152 -1974 0
79 1 S102 1175 1501327 -799 0
79 2 S102 1211 1502538 412 0
79 2 S102 1143 1503681 1555 0
79 2 S102 1115 1504796 2670 0
79 2 S102 1157 1505953 3827 0
79 2 S102 1159 1507112 4986 0
79 2 S102 1027 1508139 6013 0
0 0 0 1098 1509237 -9169 0
0 0 0 1187 1510424 -7982 0
0 0 0 1160 1511584 -6822 0
0 0 0 1046 1512630 -5776 0
0 0 0 1112 1513742 -4664 0
0 0 0 1144 1514886 -3520 0
0 0 0 1112 1515998 -2408 0
80 1 S116 1258 1517256 -1150 0
80 2 S116 1266 1518522 116 0
80 2 S116 1267 1519789 1383 0
80 2 S116 1308 1521097 2691 0
80 2 S116 1278 1522375 3969 0
80 2 S116 1199 1523574 5168 0
80 2 S116 1210 1524784 6378 0
