T_0038
BeatCount Mean SD BeatCountNoOutliers MeanNoOutliers SDNoOutliers
2151 713,380288238029 53,4657417993002 2111 715,08053055424 48,0899278018363

Trial TrialStatus Trialtype IBI AbsPosition RelPosition Outlier
0 0 0 689 951 -15794 0
0 0 0 687 1638 -15107 0
0 0 0 693 2331 -14414 0
0 0 0 702 3033 -13712 0
0 0 0 669 3702 -13043 0
0 0 0 675 4377 -12368 0
0 0 0 721 5098 -11647 0
0 0 0 663 5761 -10984 0
0 0 0 683 6444 -10301 0
0 0 0 651 7095 -9650 0
0 0 0 701 7796 -8949 0
0 0 0 748 8544 -8201 0
0 0 0 742 9286 -7459 0
0 0 0 770 10056 -6689 0
0 0 0 741 10797 -5948 0
0 0 0 666 11463 -5282 0
0 0 0 662 12125 -4620 0
0 0 0 670 12795 -3950 0
0 0 0 687 13482 -3263 0
0 0 0 719 14201 -2544 0
1 1 S112 742 14943 -1802 0
1 1 S112 757 15700 -1045 0
1 1 S112 758 16458 -287 0
1 2 S112 759 17217 472 0
1 2 S112 741 17958 1213 0
1 2 S112 706 18664 1919 0
1 2 S112 697 19361 2616 0
1 2 S112 717 20078 3333 0
1 2 S112 753 20831 4086 0
1 2 S112 787 21618 4873 0
1 2 S112 777 22395 5650 0
1 2 S112 725 23120 6375 0
0 0 0 682 23802 -11295 0
0 0 0 696 24498 -10599 0
0 0 0 746 25244 -9853 0
0 0 0 782 26026 -9071 0
0 0 0 771 26797 -8300 0
0 0 0 733 27530 -7567 0
0 0 0 684 28214 -6883 0
0 0 0 690 28904 -6193 0
0 0 0 703 29607 -5490 0
0 0 0 722 30329 -4768 0
0 0 0 748 31077 -4020 0
0 0 0 721 31798 -3299 0
0 0 0 680 32478 -2619 0
2 1 S102 691 33169 -1928 0
2 1 S102 702 33871 -1226 0
2 1 S102 720 34591 -506 0
2 2 S102 751 35342 245 0
2 2 S102 756 36098 1001 0
2 2 S102 726 36824 1727 0
2 2 S102 693 37517 2420 0
2 2 S102 721 38238 3141 0
2 2 S102 733 38971 3874 0
2 2 S102 758 39729 4632 0
2 2 S102 768 40497 5400 0
2 2 S102 717 41214 6117 0
2 2 S102 686 41900 6803 0
0 0 0 720 42620 -9652 0
0 0 0 753 43373 -8899 0
0 0 0 762 44135 -8137 0
0 0 0 752 44887 -7385 0
0 0 0 660 45547 -6725 0
0 0 0 658 46205 -6067 0
0 0 0 661 46866 -5406 0
0 0 0 663 47529 -4743 0
0 0 0 635 48164 -4108 0
0 0 0 620 48784 -3488 0
0 0 0 666 49450 -2822 0
0 0 0 704 50154 -2118 0
3 1 S116 644 50798 -1474 0
3 1 S116 618 51416 -856 0
3 1 S116 637 52053 -219 0
3 2 S116 692 52745 473 0
3 2 S116 760 53505 1233 0
3 2 S116 773 54278 2006 0
3 2 S116 766 55044 2772 0
3 2 S116 740 55784 3512 0
3 2 S116 695 56479 4207 0
3 2 S116 706 57185 4913 0
3 2 S116 734 57919 5647 0
3 2 S116 790 58709 6437 0
0 0 0 820 59529 -11692 0
0 0 0 809 60338 -10883 0
0 0 0 732 61070 -10151 0
0 0 0 732 61802 -9419 0
0 0 0 767 62569 -8652 0
0 0 0 762 63331 -7890 0
0 0 0 723 64054 -7167 0
0 0 0 681 64735 -6486 0
0 0 0 690 65425 -5796 0
0 0 0 708 66133 -5088 0
0 0 0 741 66874 -4347 0
0 0 0 766 67640 -3581 0
0 0 0 720 68360 -2861 0
0 0 0 680 69040 -2181 0
4 1 S106 696 69736 -1485 0
4 1 S106 721 70457 -764 0
4 1 S106 758 71215 -6 0
4 2 S106 764 71979 758 0
4 2 S106 754 72733 1512 0
4 2 S106 713 73446 2225 0
4 2 S106 721 74167 2946 0
4 2 S106 753 74920 3699 0
4 2 S106 803 75723 4502 0
4 2 S106 827 76550 5329 0
4 2 S106 823 77373 6152 0
4 2 S106 780 78153 6932 0
0 0 0 729 78882 -6298 0
0 0 0 735 79617 -5563 0
0 0 0 740 80357 -4823 0
0 0 0 756 81113 -4067 0
0 0 0 742 81855 -3325 0
0 0 0 696 82551 -2629 0
5 1 S116 720 83271 -1909 0
5 1 S116 737 84008 -1172 0
5 1 S116 757 84765 -415 0
5 2 S116 756 85521 341 0
5 2 S116 702 86223 1043 0
5 2 S116 686 86909 1729 0
5 2 S116 712 87621 2441 0
5 2 S116 766 88387 3207 0
5 2 S116 810 89197 4017 0
5 2 S116 814 90011 4831 0
5 2 S116 770 90781 5601 0
5 2 S116 710 91491 6311 0
5 2 S116 709 92200 7020 0
0 0 0 739 92939 -8289 0
0 0 0 780 93719 -7509 0
0 0 0 786 94505 -6723 0
0 0 0 727 95232 -5996 0
0 0 0 691 95923 -5305 0
0 0 0 713 96636 -4592 0
0 0 0 758 97394 -3834 0
0 0 0 798 98192 -3036 0
0 0 0 801 98993 -2235 0
6 1 S106 694 99687 -1541 0
6 1 S106 682 100369 -859 0
6 1 S106 699 101068 -160 0
6 2 S106 737 101805 577 0
6 2 S106 777 102582 1354 0
6 2 S106 785 103367 2139 0
6 2 S106 767 104134 2906 0
6 2 S106 722 104856 3628 0
6 2 S106 723 105579 4351 0
6 2 S106 740 106319 5091 0
6 2 S106 769 107088 5860 0
6 2 S106 805 107893 6665 0
0 0 0 807 108700 -10632 0
0 0 0 779 109479 -9853 0
0 0 0 710 110189 -9143 0
0 0 0 704 110893 -8439 0
0 0 0 715 111608 -7724 0
0 0 0 740 112348 -6984 0
0 0 0 772 113120 -6212 0
0 0 0 724 113844 -5488 0
0 0 0 684 114528 -4804 0
0 0 0 702 115230 -4102 0
0 0 0 728 115958 -3374 0
0 0 0 763 116721 -2611 0
7 1 S102 757 117478 -1854 0
7 1 S102 709 118187 -1145 0
7 1 S102 676 118863 -469 0
7 2 S102 698 119561 229 0
7 2 S102 727 120288 956 0
7 2 S102 769 121057 1725 0
7 2 S102 807 121864 2532 0
7 2 S102 755 122619 3287 0
7 2 S102 709 123328 3996 0
7 2 S102 724 124052 4720 0
7 2 S102 741 124793 5461 0
7 2 S102 753 125546 6214 0
7 2 S102 758 126304 6972 0
0 0 0 743 127047 -7686 0
0 0 0 692 127739 -6994 0
0 0 0 669 128408 -6325 0
0 0 0 700 129108 -5625 0
0 0 0 759 129867 -4866 0
0 0 0 794 130661 -4072 0
0 0 0 799 131460 -3273 0
0 0 0 796 132256 -2477 0
8 1 S112 720 132976 -1757 0
8 1 S112 687 133663 -1070 0
8 1 S112 708 134371 -362 0
8 2 S112 743 135114 381 0
8 2 S112 790 135904 1171 0
8 2 S112 807 136711 1978 0
8 2 S112 774 137485 2752 0
8 2 S112 712 138197 3464 0
8 2 S112 728 138925 4192 0
8 2 S112 757 139682 4949 0
8 2 S112 784 140466 5733 0
8 2 S112 800 141266 6533 0
0 0 0 750 142016 -7654 0
0 0 0 694 142710 -6960 0
0 0 0 718 143428 -6242 0
0 0 0 751 144179 -5491 0
0 0 0 767 144946 -4724 0
0 0 0 705 145651 -4019 0
0 0 0 665 146316 -3354 0
0 0 0 638 146954 -2716 0
0 0 0 622 147576 -2094 0
9 1 S116 646 148222 -1448 0
9 1 S116 869 149091 -579 1
9 2 S116 824 149915 245 0
9 2 S116 826 150741 1071 0
9 2 S116 813 151554 1884 0
9 2 S116 787 152341 2671 0
9 2 S116 761 153102 3432 0
9 2 S116 749 153851 4181 0
9 2 S116 725 154576 4906 0
9 2 S116 688 155264 5594 0
9 2 S116 682 155946 6276 0
9 2 S116 715 156661 6991 0
0 0 0 756 157417 -11169 0
0 0 0 809 158226 -10360 0
0 0 0 818 159044 -9542 0
0 0 0 817 159861 -8725 0
0 0 0 790 160651 -7935 0
0 0 0 755 161406 -7180 0
0 0 0 696 162102 -6484 0
0 0 0 706 162808 -5778 0
0 0 0 706 163514 -5072 0
0 0 0 725 164239 -4347 0
0 0 0 745 164984 -3602 0
0 0 0 729 165713 -2873 0
0 0 0 706 166419 -2167 0
10 1 S102 747 167166 -1420 0
10 1 S102 782 167948 -638 0
10 2 S102 807 168755 169 0
10 2 S102 797 169552 966 0
10 2 S102 766 170318 1732 0
10 2 S102 723 171041 2455 0
10 2 S102 682 171723 3137 0
10 2 S102 704 172427 3841 0
10 2 S102 732 173159 4573 0
10 2 S102 756 173915 5329 0
10 2 S102 781 174696 6110 0
10 2 S102 768 175464 6878 0
0 0 0 700 176164 -10609 0
0 0 0 696 176860 -9913 0
0 0 0 719 177579 -9194 0
0 0 0 723 178302 -8471 0
0 0 0 728 179030 -7743 0
0 0 0 683 179713 -7060 0
0 0 0 666 180379 -6394 0
0 0 0 682 181061 -5712 0
0 0 0 694 181755 -5018 0
0 0 0 708 182463 -4310 0
0 0 0 724 183187 -3586 0
0 0 0 683 183870 -2903 0
0 0 0 656 184526 -2247 0
11 1 S112 671 185197 -1576 0
11 1 S112 684 185881 -892 0
11 1 S112 717 186598 -175 0
11 2 S112 732 187330 557 0
11 2 S112 718 188048 1275 0
11 2 S112 689 188737 1964 0
11 2 S112 712 189449 2676 0
11 2 S112 730 190179 3406 0
11 2 S112 761 190940 4167 0
11 2 S112 766 191706 4933 0
11 2 S112 746 192452 5679 0
11 2 S112 714 193166 6393 0
0 0 0 677 193843 -7353 0
0 0 0 673 194516 -6680 0
0 0 0 691 195207 -5989 0
0 0 0 704 195911 -5285 0
0 0 0 716 196627 -4569 0
0 0 0 692 197319 -3877 0
0 0 0 658 197977 -3219 0
0 0 0 664 198641 -2555 0
12 1 S116 687 199328 -1868 0
12 1 S116 729 200057 -1139 0
12 1 S116 753 200810 -386 0
12 2 S116 727 201537 341 0
12 2 S116 687 202224 1028 0
12 2 S116 711 202935 1739 0
12 2 S116 730 203665 2469 0
12 2 S116 763 204428 3232 0
12 2 S116 774 205202 4006 0
12 2 S116 773 205975 4779 0
12 2 S116 745 206720 5524 0
12 2 S116 700 207420 6224 0
12 2 S116 698 208118 6922 0
0 0 0 718 208836 -11707 0
0 0 0 757 209593 -10950 0
0 0 0 749 210342 -10201 0
0 0 0 703 211045 -9498 0
0 0 0 676 211721 -8822 0
0 0 0 690 212411 -8132 0
0 0 0 705 213116 -7427 0
0 0 0 714 213830 -6713 0
0 0 0 690 214520 -6023 0
0 0 0 659 215179 -5364 0
0 0 0 668 215847 -4696 0
0 0 0 674 216521 -4022 0
0 0 0 687 217208 -3335 0
0 0 0 725 217933 -2610 0
13 1 S112 714 218647 -1896 0
13 1 S112 671 219318 -1225 0
13 1 S112 687 220005 -538 0
13 2 S112 714 220719 176 0
13 2 S112 738 221457 914 0
13 2 S112 784 222241 1698 0
13 2 S112 787 223028 2485 0
13 2 S112 776 223804 3261 0
13 2 S112 755 224559 4016 0
13 2 S112 709 225268 4725 0
13 2 S112 672 225940 5397 0
13 2 S112 663 226603 6060 0
13 2 S112 679 227282 6739 0
0 0 0 734 228016 -11824 0
0 0 0 800 228816 -11024 0
0 0 0 794 229610 -10230 0
0 0 0 727 230337 -9503 0
0 0 0 694 231031 -8809 0
0 0 0 713 231744 -8096 0
0 0 0 729 232473 -7367 0
0 0 0 739 233212 -6628 0
0 0 0 708 233920 -5920 0
0 0 0 668 234588 -5252 0
0 0 0 667 235255 -4585 0
0 0 0 676 235931 -3909 0
0 0 0 691 236622 -3218 0
0 0 0 692 237314 -2526 0
14 1 S106 652 237966 -1874 0
14 1 S106 663 238629 -1211 0
14 1 S106 647 239276 -564 0
14 2 S106 640 239916 76 0
14 2 S106 693 240609 769 0
14 2 S106 757 241366 1526 0
14 2 S106 755 242121 2281 0
14 2 S106 731 242852 3012 0
14 2 S106 678 243530 3690 0
14 2 S106 680 244210 4370 0
14 2 S106 684 244894 5054 0
14 2 S106 718 245612 5772 0
14 2 S106 755 246367 6527 0
0 0 0 782 247149 -11574 0
0 0 0 749 247898 -10825 0
0 0 0 697 248595 -10128 0
0 0 0 717 249312 -9411 0
0 0 0 737 250049 -8674 0
0 0 0 748 250797 -7926 0
0 0 0 734 251531 -7192 0
0 0 0 683 252214 -6509 0
0 0 0 673 252887 -5836 0
0 0 0 694 253581 -5142 0
0 0 0 714 254295 -4428 0
0 0 0 741 255036 -3687 0
0 0 0 749 255785 -2938 0
0 0 0 693 256478 -2245 0
15 1 S116 719 257197 -1526 0
15 1 S116 718 257915 -808 0
15 1 S116 735 258650 -73 0
15 2 S116 737 259387 664 0
15 2 S116 702 260089 1366 0
15 2 S116 723 260812 2089 0
15 2 S116 768 261580 2857 0
15 2 S116 799 262379 3656 0
15 2 S116 807 263186 4463 0
15 2 S116 799 263985 5262 0
15 2 S116 742 264727 6004 0
15 2 S116 707 265434 6711 0
0 0 0 728 266162 -9736 0
0 0 0 745 266907 -8991 0
0 0 0 756 267663 -8235 0
0 0 0 756 268419 -7479 0
0 0 0 698 269117 -6781 0
0 0 0 662 269779 -6119 0
0 0 0 643 270422 -5476 0
0 0 0 672 271094 -4804 0
0 0 0 727 271821 -4077 0
0 0 0 771 272592 -3306 0
0 0 0 776 273368 -2530 0
16 1 S116 770 274138 -1760 0
16 1 S116 721 274859 -1039 0
16 1 S116 672 275531 -367 0
16 2 S116 686 276217 319 0
16 2 S116 697 276914 1016 0
16 2 S116 742 277656 1758 0
16 2 S116 764 278420 2522 0
16 2 S116 792 279212 3314 0
16 2 S116 784 279996 4098 0
16 2 S116 745 280741 4843 0
16 2 S116 710 281451 5553 0
16 2 S116 723 282174 6276 0
16 2 S116 735 282909 7011 0
0 0 0 774 283683 -9407 0
0 0 0 766 284449 -8641 0
0 0 0 740 285189 -7901 0
0 0 0 692 285881 -7209 0
0 0 0 672 286553 -6537 0
0 0 0 648 287201 -5889 0
0 0 0 644 287845 -5245 0
0 0 0 628 288473 -4617 0
0 0 0 736 289209 -3881 0
0 0 0 758 289967 -3123 0
0 0 0 759 290726 -2364 0
17 1 S106 764 291490 -1600 0
17 1 S106 759 292249 -841 0
17 1 S106 734 292983 -107 0
17 2 S106 714 293697 607 0
17 2 S106 697 294394 1304 0
17 2 S106 671 295065 1975 0
17 2 S106 630 295695 2605 0
17 2 S106 615 296310 3220 0
17 2 S106 621 296931 3841 0
17 2 S106 639 297570 4480 0
17 2 S106 688 298258 5168 0
17 2 S106 754 299012 5922 0
17 2 S106 769 299781 6691 0
0 0 0 784 300565 -11524 0
0 0 0 788 301353 -10736 0
0 0 0 780 302133 -9956 0
0 0 0 772 302905 -9184 0
0 0 0 706 303611 -8478 0
0 0 0 659 304270 -7819 0
0 0 0 660 304930 -7159 0
0 0 0 674 305604 -6485 0
0 0 0 688 306292 -5797 0
0 0 0 700 306992 -5097 0
0 0 0 718 307710 -4379 0
0 0 0 715 308425 -3664 0
0 0 0 688 309113 -2976 0
0 0 0 651 309764 -2325 0
18 1 S102 655 310419 -1670 0
18 1 S102 670 311089 -1000 0
18 1 S102 709 311798 -291 0
18 2 S102 745 312543 454 0
18 2 S102 742 313285 1196 0
18 2 S102 735 314020 1931 0
18 2 S102 691 314711 2622 0
18 2 S102 663 315374 3285 0
18 2 S102 667 316041 3952 0
18 2 S102 682 316723 4634 0
18 2 S102 692 317415 5326 0
18 2 S102 718 318133 6044 0
18 2 S102 744 318877 6788 0
0 0 0 708 319585 -7093 0
0 0 0 672 320257 -6421 0
0 0 0 693 320950 -5728 0
0 0 0 701 321651 -5027 0
0 0 0 725 322376 -4302 0
0 0 0 709 323085 -3593 0
0 0 0 673 323758 -2920 0
0 0 0 657 324415 -2263 0
19 1 S106 668 325083 -1595 0
19 1 S106 684 325767 -911 0
19 1 S106 704 326471 -207 0
19 2 S106 719 327190 512 0
19 2 S106 721 327911 1233 0
19 2 S106 705 328616 1938 0
19 2 S106 665 329281 2603 0
19 2 S106 681 329962 3284 0
19 2 S106 696 330658 3980 0
19 2 S106 722 331380 4702 0
19 2 S106 740 332120 5442 0
19 2 S106 742 332862 6184 0
19 2 S106 691 333553 6875 0
0 0 0 667 334220 -10644 0
0 0 0 686 334906 -9958 0
0 0 0 702 335608 -9256 0
0 0 0 724 336332 -8532 0
0 0 0 692 337024 -7840 0
0 0 0 651 337675 -7189 0
0 0 0 646 338321 -6543 0
0 0 0 658 338979 -5885 0
0 0 0 668 339647 -5217 0
0 0 0 690 340337 -4527 0
0 0 0 711 341048 -3816 0
0 0 0 694 341742 -3122 0
0 0 0 661 342403 -2461 0
20 1 S112 661 343064 -1800 0
20 1 S112 682 343746 -1118 0
20 1 S112 697 344443 -421 0
20 2 S112 669 345112 248 0
20 2 S112 634 345746 882 0
20 2 S112 626 346372 1508 0
20 2 S112 648 347020 2156 0
20 2 S112 682 347702 2838 0
20 2 S112 678 348380 3516 0
20 2 S112 656 349036 4172 0
20 2 S112 643 349679 4815 0
20 2 S112 657 350336 5472 0
20 2 S112 691 351027 6163 0
20 2 S112 734 351761 6897 0
0 0 0 763 352524 -9250 0
0 0 0 733 353257 -8517 0
0 0 0 676 353933 -7841 0
0 0 0 690 354623 -7151 0
0 0 0 708 355331 -6443 0
0 0 0 707 356038 -5736 0
0 0 0 671 356709 -5065 0
0 0 0 635 357344 -4430 0
0 0 0 613 357957 -3817 0
0 0 0 595 358552 -3222 0
0 0 0 756 359308 -2466 0
21 1 S106 806 360114 -1660 0
21 1 S106 824 360938 -836 0
21 1 S106 799 361737 -37 0
21 2 S106 768 362505 731 0
21 2 S106 750 363255 1481 0
21 2 S106 727 363982 2208 0
21 2 S106 710 364692 2918 0
21 2 S106 706 365398 3624 0
21 2 S106 674 366072 4298 0
21 2 S106 662 366734 4960 0
21 2 S106 679 367413 5639 0
21 2 S106 717 368130 6356 0
0 0 0 767 368897 -12556 0
0 0 0 796 369693 -11760 0
0 0 0 818 370511 -10942 0
0 0 0 795 371306 -10147 0
0 0 0 799 372105 -9348 0
0 0 0 766 372871 -8582 0
0 0 0 701 373572 -7881 0
0 0 0 706 374278 -7175 0
0 0 0 716 374994 -6459 0
0 0 0 737 375731 -5722 0
0 0 0 744 376475 -4978 0
0 0 0 734 377209 -4244 0
0 0 0 700 377909 -3544 0
0 0 0 679 378588 -2865 0
0 0 0 693 379281 -2172 0
22 1 S116 719 380000 -1453 0
22 1 S116 743 380743 -710 0
22 2 S116 744 381487 34 0
22 2 S116 742 382229 776 0
22 2 S116 750 382979 1526 0
22 2 S116 710 383689 2236 0
22 2 S116 735 384424 2971 0
22 2 S116 765 385189 3736 0
22 2 S116 783 385972 4519 0
22 2 S116 799 386771 5318 0
22 2 S116 765 387536 6083 0
22 2 S116 727 388263 6810 0
0 0 0 739 389002 -9212 0
0 0 0 757 389759 -8455 0
0 0 0 776 390535 -7679 0
0 0 0 762 391297 -6917 0
0 0 0 693 391990 -6224 0
0 0 0 669 392659 -5555 0
0 0 0 686 393345 -4869 0
0 0 0 707 394052 -4162 0
0 0 0 745 394797 -3417 0
0 0 0 759 395556 -2658 0
23 1 S112 707 396263 -1951 0
23 1 S112 692 396955 -1259 0
23 1 S112 713 397668 -546 0
23 2 S112 736 398404 190 0
23 2 S112 765 399169 955 0
23 2 S112 766 399935 1721 0
23 2 S112 717 400652 2438 0
23 2 S112 720 401372 3158 0
23 2 S112 760 402132 3918 0
23 2 S112 801 402933 4719 0
23 2 S112 802 403735 5521 0
23 2 S112 771 404506 6292 0
23 2 S112 710 405216 7002 0
0 0 0 699 405915 -9225 0
0 0 0 731 406646 -8494 0
0 0 0 745 407391 -7749 0
0 0 0 739 408130 -7010 0
0 0 0 683 408813 -6327 0
0 0 0 661 409474 -5666 0
0 0 0 644 410118 -5022 0
0 0 0 621 410739 -4401 0
0 0 0 637 411376 -3764 0
0 0 0 847 412223 -2917 0
0 0 0 793 413016 -2124 0
24 1 S106 801 413817 -1323 0
24 1 S106 800 414617 -523 0
24 2 S106 788 415405 265 0
24 2 S106 772 416177 1037 0
24 2 S106 752 416929 1789 0
24 2 S106 740 417669 2529 0
24 2 S106 737 418406 3266 0
24 2 S106 740 419146 4006 0
24 2 S106 742 419888 4748 0
24 2 S106 748 420636 5496 0
24 2 S106 752 421388 6248 0
24 2 S106 748 422136 6996 0
0 0 0 750 422886 -8120 0
0 0 0 757 423643 -7363 0
0 0 0 740 424383 -6623 0
0 0 0 702 425085 -5921 0
0 0 0 678 425763 -5243 0
0 0 0 694 426457 -4549 0
0 0 0 709 427166 -3840 0
0 0 0 735 427901 -3105 0
0 0 0 750 428651 -2355 0
25 1 S102 743 429394 -1612 0
25 1 S102 694 430088 -918 0
25 1 S102 696 430784 -222 0
25 2 S102 712 431496 490 0
25 2 S102 729 432225 1219 0
25 2 S102 738 432963 1957 0
25 2 S102 727 433690 2684 0
25 2 S102 690 434380 3374 0
25 2 S102 682 435062 4056 0
25 2 S102 702 435764 4758 0
25 2 S102 734 436498 5492 0
25 2 S102 768 437266 6260 0
25 2 S102 766 438032 7026 0
0 0 0 719 438751 -6711 0
0 0 0 699 439450 -6012 0
0 0 0 731 440181 -5281 0
0 0 0 744 440925 -4537 0
0 0 0 725 441650 -3812 0
0 0 0 685 442335 -3127 0
0 0 0 659 442994 -2468 0
26 1 S116 675 443669 -1793 0
26 1 S116 692 444361 -1101 0
26 1 S116 719 445080 -382 0
26 2 S116 755 445835 373 0
26 2 S116 765 446600 1138 0
26 2 S116 731 447331 1869 0
26 2 S116 709 448040 2578 0
26 2 S116 731 448771 3309 0
26 2 S116 748 449519 4057 0
26 2 S116 768 450287 4825 0
26 2 S116 771 451058 5596 0
26 2 S116 745 451803 6341 0
0 0 0 701 452504 -7630 0
0 0 0 705 453209 -6925 0
0 0 0 725 453934 -6200 0
0 0 0 738 454672 -5462 0
0 0 0 755 455427 -4707 0
0 0 0 696 456123 -4011 0
0 0 0 657 456780 -3354 0
0 0 0 658 457438 -2696 0
0 0 0 673 458111 -2023 0
27 1 S106 718 458829 -1305 0
27 1 S106 739 459568 -566 0
27 2 S106 726 460294 160 0
27 2 S106 680 460974 840 0
27 2 S106 686 461660 1526 0
27 2 S106 700 462360 2226 0
27 2 S106 717 463077 2943 0
27 2 S106 741 463818 3684 0
27 2 S106 740 464558 4424 0
27 2 S106 693 465251 5117 0
27 2 S106 663 465914 5780 0
27 2 S106 638 466552 6418 0
0 0 0 645 467197 -7891 0
0 0 0 675 467872 -7216 0
0 0 0 679 468551 -6537 0
0 0 0 646 469197 -5891 0
0 0 0 648 469845 -5243 0
0 0 0 635 470480 -4608 0
0 0 0 604 471084 -4004 0
0 0 0 610 471694 -3394 0
0 0 0 634 472328 -2760 0
0 0 0 641 472969 -2119 0
28 1 S102 599 473568 -1520 0
28 1 S102 604 474172 -916 0
28 1 S102 590 474762 -326 0
28 2 S102 575 475337 249 1
28 2 S102 584 475921 833 0
28 2 S102 647 476568 1480 0
28 2 S102 703 477271 2183 0
28 2 S102 703 477974 2886 0
28 2 S102 644 478618 3530 0
28 2 S102 653 479271 4183 0
28 2 S102 682 479953 4865 0
28 2 S102 745 480698 5610 0
28 2 S102 764 481462 6374 0
0 0 0 781 482243 -12341 0
0 0 0 733 482976 -11608 0
0 0 0 673 483649 -10935 0
0 0 0 672 484321 -10263 0
0 0 0 687 485008 -9576 0
0 0 0 731 485739 -8845 0
0 0 0 722 486461 -8123 0
0 0 0 675 487136 -7448 0
0 0 0 646 487782 -6802 0
0 0 0 654 488436 -6148 0
0 0 0 661 489097 -5487 0
0 0 0 684 489781 -4803 0
0 0 0 712 490493 -4091 0
0 0 0 637 491130 -3454 0
0 0 0 620 491750 -2834 0
0 0 0 603 492353 -2231 0
29 1 S112 608 492961 -1623 0
29 1 S112 613 493574 -1010 0
29 1 S112 598 494172 -412 0
29 2 S112 637 494809 225 0
29 2 S112 710 495519 935 0
29 2 S112 720 496239 1655 0
29 2 S112 708 496947 2363 0
29 2 S112 654 497601 3017 0
29 2 S112 617 498218 3634 0
29 2 S112 622 498840 4256 0
29 2 S112 626 499466 4882 0
29 2 S112 658 500124 5540 0
29 2 S112 712 500836 6252 0
29 2 S112 718 501554 6970 0
0 0 0 729 502283 -7553 0
0 0 0 679 502962 -6874 0
0 0 0 667 503629 -6207 0
0 0 0 703 504332 -5504 0
0 0 0 740 505072 -4764 0
0 0 0 761 505833 -4003 0
0 0 0 774 506607 -3229 0
0 0 0 714 507321 -2515 0
30 1 S112 661 507982 -1854 0
30 1 S112 653 508635 -1201 0
30 1 S112 671 509306 -530 0
30 2 S112 712 510018 182 0
30 2 S112 763 510781 945 0
30 2 S112 763 511544 1708 0
30 2 S112 707 512251 2415 0
30 2 S112 698 512949 3113 0
30 2 S112 716 513665 3829 0
30 2 S112 753 514418 4582 0
30 2 S112 774 515192 5356 0
30 2 S112 751 515943 6107 0
30 2 S112 700 516643 6807 0
0 0 0 715 517358 -9106 0
0 0 0 741 518099 -8365 0
0 0 0 773 518872 -7592 0
0 0 0 739 519611 -6853 0
0 0 0 688 520299 -6165 0
0 0 0 712 521011 -5453 0
0 0 0 717 521728 -4736 0
0 0 0 731 522459 -4005 0
0 0 0 725 523184 -3280 0
0 0 0 685 523869 -2595 0
31 1 S106 683 524552 -1912 0
31 1 S106 723 525275 -1189 0
31 1 S106 777 526052 -412 0
31 2 S106 804 526856 392 0
31 2 S106 796 527652 1188 0
31 2 S106 744 528396 1932 0
31 2 S106 692 529088 2624 0
31 2 S106 705 529793 3329 0
31 2 S106 730 530523 4059 0
31 2 S106 789 531312 4848 0
31 2 S106 822 532134 5670 0
31 2 S106 823 532957 6493 0
0 0 0 762 533719 -8876 0
0 0 0 715 534434 -8161 0
0 0 0 729 535163 -7432 0
0 0 0 736 535899 -6696 0
0 0 0 736 536635 -5960 0
0 0 0 719 537354 -5241 0
0 0 0 688 538042 -4553 0
0 0 0 689 538731 -3864 0
0 0 0 729 539460 -3135 0
0 0 0 781 540241 -2354 0
32 1 S102 813 541054 -1541 0
32 1 S102 784 541838 -757 0
32 1 S102 706 542544 -51 0
32 2 S102 679 543223 628 0
32 2 S102 687 543910 1315 0
32 2 S102 711 544621 2026 0
32 2 S102 741 545362 2767 0
32 2 S102 760 546122 3527 0
32 2 S102 758 546880 4285 0
32 2 S102 706 547586 4991 0
32 2 S102 696 548282 5687 0
32 2 S102 712 548994 6399 0
0 0 0 733 549727 -10806 0
0 0 0 763 550490 -10043 0
0 0 0 740 551230 -9303 0
0 0 0 683 551913 -8620 0
0 0 0 678 552591 -7942 0
0 0 0 686 553277 -7256 0
0 0 0 696 553973 -6560 0
0 0 0 712 554685 -5848 0
0 0 0 694 555379 -5154 0
0 0 0 655 556034 -4499 0
0 0 0 660 556694 -3839 0
0 0 0 686 557380 -3153 0
0 0 0 714 558094 -2439 0
33 1 S112 743 558837 -1696 0
33 1 S112 738 559575 -958 0
33 1 S112 689 560264 -269 0
33 2 S112 664 560928 395 0
33 2 S112 673 561601 1068 0
33 2 S112 698 562299 1766 0
33 2 S112 737 563036 2503 0
33 2 S112 762 563798 3265 0
33 2 S112 780 564578 4045 0
33 2 S112 746 565324 4791 0
33 2 S112 704 566028 5495 0
33 2 S112 706 566734 6201 0
33 2 S112 732 567466 6933 0
0 0 0 766 568232 -11250 0
0 0 0 786 569018 -10464 0
0 0 0 739 569757 -9725 0
0 0 0 691 570448 -9034 0
0 0 0 678 571126 -8356 0
0 0 0 697 571823 -7659 0
0 0 0 718 572541 -6941 0
0 0 0 750 573291 -6191 0
0 0 0 719 574010 -5472 0
0 0 0 684 574694 -4788 0
0 0 0 698 575392 -4090 0
0 0 0 731 576123 -3359 0
0 0 0 760 576883 -2599 0
34 1 S106 792 577675 -1807 0
34 1 S106 764 578439 -1043 0
34 1 S106 735 579174 -308 0
34 2 S106 765 579939 457 0
34 2 S106 787 580726 1244 0
34 2 S106 774 581500 2018 0
34 2 S106 760 582260 2778 0
34 2 S106 710 582970 3488 0
34 2 S106 676 583646 4164 0
34 2 S106 689 584335 4853 0
34 2 S106 711 585046 5564 0
34 2 S106 748 585794 6312 0
0 0 0 769 586563 -9779 0
0 0 0 768 587331 -9011 0
0 0 0 719 588050 -8292 0
0 0 0 682 588732 -7610 0
0 0 0 695 589427 -6915 0
0 0 0 708 590135 -6207 0
0 0 0 727 590862 -5480 0
0 0 0 725 591587 -4755 0
0 0 0 698 592285 -4057 0
0 0 0 666 592951 -3391 0
0 0 0 674 593625 -2717 0
0 0 0 685 594310 -2032 0
35 1 S102 705 595015 -1327 0
35 1 S102 705 595720 -622 0
35 2 S102 698 596418 76 0
35 2 S102 668 597086 744 0
35 2 S102 659 597745 1403 0
35 2 S102 678 598423 2081 0
35 2 S102 714 599137 2795 0
35 2 S102 725 599862 3520 0
35 2 S102 711 600573 4231 0
35 2 S102 674 601247 4905 0
35 2 S102 664 601911 5569 0
35 2 S102 676 602587 6245 0
35 2 S102 705 603292 6950 0
0 0 0 736 604028 -6207 0
0 0 0 723 604751 -5484 0
0 0 0 676 605427 -4808 0
0 0 0 659 606086 -4149 0
0 0 0 665 606751 -3484 0
0 0 0 656 607407 -2828 0
0 0 0 639 608046 -2189 0
36 1 S106 628 608674 -1561 0
36 1 S106 645 609319 -916 0
36 1 S106 624 609943 -292 0
36 2 S106 606 610549 314 0
36 2 S106 623 611172 937 0
36 2 S106 657 611829 1594 0
36 2 S106 692 612521 2286 0
36 2 S106 709 613230 2995 0
36 2 S106 736 613966 3731 0
36 2 S106 698 614664 4429 0
36 2 S106 660 615324 5089 0
36 2 S106 655 615979 5744 0
36 2 S106 668 616647 6412 0
0 0 0 708 617355 -9259 0
0 0 0 760 618115 -8499 0
0 0 0 775 618890 -7724 0
0 0 0 757 619647 -6967 0
0 0 0 688 620335 -6279 0
0 0 0 684 621019 -5595 0
0 0 0 691 621710 -4904 0
0 0 0 666 622376 -4238 0
0 0 0 636 623012 -3602 0
0 0 0 618 623630 -2984 0
0 0 0 632 624262 -2352 0
37 1 S116 645 624907 -1707 0
37 1 S116 616 625523 -1091 0
37 1 S116 618 626141 -473 0
37 2 S116 680 626821 207 0
37 2 S116 738 627559 945 0
37 2 S116 767 628326 1712 0
37 2 S116 778 629104 2490 0
37 2 S116 722 629826 3212 0
37 2 S116 705 630531 3917 0
37 2 S116 723 631254 4640 0
37 2 S116 745 631999 5385 0
37 2 S116 718 632717 6103 0
37 2 S116 663 633380 6766 0
0 0 0 632 634012 -11220 0
0 0 0 642 634654 -10578 0
0 0 0 656 635310 -9922 0
0 0 0 641 635951 -9281 0
0 0 0 607 636558 -8674 0
0 0 0 634 637192 -8040 0
0 0 0 686 637878 -7354 0
0 0 0 706 638584 -6648 0
0 0 0 700 639284 -5948 0
0 0 0 655 639939 -5293 0
0 0 0 616 640555 -4677 0
0 0 0 596 641151 -4081 0
0 0 0 592 641743 -3489 0
0 0 0 630 642373 -2859 0
38 1 S102 868 643241 -1991 1
38 1 S102 816 644057 -1175 0
38 1 S102 811 644868 -364 0
38 2 S102 780 645648 416 0
38 2 S102 754 646402 1170 0
38 2 S102 726 647128 1896 0
38 2 S102 705 647833 2601 0
38 2 S102 683 648516 3284 0
38 2 S102 648 649164 3932 0
38 2 S102 643 649807 4575 0
38 2 S102 662 650469 5237 0
38 2 S102 717 651186 5954 0
38 2 S102 772 651958 6726 0
0 0 0 789 652747 -8566 0
0 0 0 799 653546 -7767 0
0 0 0 793 654339 -6974 0
0 0 0 729 655068 -6245 0
0 0 0 685 655753 -5560 0
0 0 0 697 656450 -4863 0
0 0 0 706 657156 -4157 0
0 0 0 732 657888 -3425 0
0 0 0 746 658634 -2679 0
39 1 S116 744 659378 -1935 0
39 1 S116 723 660101 -1212 0
39 1 S116 685 660786 -527 0
39 2 S116 714 661500 187 0
39 2 S116 734 662234 921 0
39 2 S116 767 663001 1688 0
39 2 S116 791 663792 2479 0
39 2 S116 781 664573 3260 0
39 2 S116 754 665327 4014 0
39 2 S116 702 666029 4716 0
39 2 S116 713 666742 5429 0
39 2 S116 736 667478 6165 0
39 2 S116 769 668247 6934 0
0 0 0 763 669010 -7140 0
0 0 0 717 669727 -6423 0
0 0 0 665 670392 -5758 0
0 0 0 691 671083 -5067 0
0 0 0 697 671780 -4370 0
0 0 0 707 672487 -3663 0
0 0 0 712 673199 -2951 0
0 0 0 674 673873 -2277 0
40 1 S112 649 674522 -1628 0
40 1 S112 656 675178 -972 0
40 1 S112 675 675853 -297 0
40 2 S112 700 676553 403 0
40 2 S112 734 677287 1137 0
40 2 S112 737 678024 1874 0
40 2 S112 703 678727 2577 0
40 2 S112 676 679403 3253 0
40 2 S112 696 680099 3949 0
40 2 S112 709 680808 4658 0
40 2 S112 730 681538 5388 0
40 2 S112 737 682275 6125 0
40 2 S112 706 682981 6831 0
0 0 0 669 683650 -187396 0
0 0 0 672 684322 -186724 0
0 0 0 688 685010 -186036 0
0 0 0 721 685731 -185315 0
0 0 0 715 686446 -184600 0
0 0 0 684 687130 -183916 0
0 0 0 684 687814 -183232 0
0 0 0 684 688498 -182548 0
0 0 0 693 689191 -181855 0
0 0 0 671 689862 -181184 0
0 0 0 633 690495 -180551 0
0 0 0 625 691120 -179926 0
0 0 0 637 691757 -179289 0
0 0 0 664 692421 -178625 0
0 0 0 700 693121 -177925 0
0 0 0 655 693776 -177270 0
0 0 0 644 694420 -176626 0
0 0 0 641 695061 -175985 0
0 0 0 662 695723 -175323 0
0 0 0 657 696380 -174666 0
0 0 0 625 697005 -174041 0
0 0 0 630 697635 -173411 0
0 0 0 633 698268 -172778 0
0 0 0 612 698880 -172166 0
0 0 0 586 699466 -171580 0
0 0 0 572 700038 -171008 1
0 0 0 578 700616 -170430 0
0 0 0 586 701202 -169844 0
0 0 0 586 701788 -169258 0
0 0 0 574 702362 -168684 1
0 0 0 567 702929 -168117 1
0 0 0 566 703495 -167551 1
0 0 0 597 704092 -166954 0
0 0 0 624 704716 -166330 0
0 0 0 613 705329 -165717 0
0 0 0 575 705904 -165142 1
0 0 0 574 706478 -164568 1
0 0 0 556 707034 -164012 1
0 0 0 554 707588 -163458 1
0 0 0 562 708150 -162896 1
0 0 0 551 708701 -162345 1
0 0 0 547 709248 -161798 1
0 0 0 543 709791 -161255 1
0 0 0 547 710338 -160708 1
0 0 0 576 710914 -160132 0
0 0 0 610 711524 -159522 0
0 0 0 649 712173 -158873 0
0 0 0 667 712840 -158206 0
0 0 0 649 713489 -157557 0
0 0 0 610 714099 -156947 0
0 0 0 593 714692 -156354 0
0 0 0 572 715264 -155782 1
0 0 0 578 715842 -155204 0
0 0 0 572 716414 -154632 1
0 0 0 588 717002 -154044 0
0 0 0 567 717569 -153477 1
0 0 0 585 718154 -152892 0
0 0 0 584 718738 -152308 0
0 0 0 590 719328 -151718 0
0 0 0 581 719909 -151137 0
0 0 0 573 720482 -150564 1
0 0 0 574 721056 -149990 1
0 0 0 578 721634 -149412 0
0 0 0 569 722203 -148843 1
0 0 0 564 722767 -148279 1
0 0 0 550 723317 -147729 1
0 0 0 542 723859 -147187 1
0 0 0 544 724403 -146643 1
0 0 0 550 724953 -146093 1
0 0 0 542 725495 -145551 1
0 0 0 531 726026 -145020 1
0 0 0 537 726563 -144483 1
0 0 0 544 727107 -143939 1
0 0 0 558 727665 -143381 1
0 0 0 602 728267 -142779 0
0 0 0 694 728961 -142085 0
0 0 0 781 729742 -141304 0
0 0 0 833 730575 -140471 0
0 0 0 832 731407 -139639 0
0 0 0 768 732175 -138871 0
0 0 0 706 732881 -138165 0
0 0 0 714 733595 -137451 0
0 0 0 717 734312 -136734 0
0 0 0 686 734998 -136048 0
0 0 0 655 735653 -135393 0
0 0 0 636 736289 -134757 0
0 0 0 603 736892 -134154 0
0 0 0 608 737500 -133546 0
0 0 0 639 738139 -132907 0
0 0 0 687 738826 -132220 0
0 0 0 738 739564 -131482 0
0 0 0 667 740231 -130815 0
0 0 0 635 740866 -130180 0
0 0 0 622 741488 -129558 0
0 0 0 730 742218 -128828 0
0 0 0 909 743127 -127919 1
0 0 0 855 743982 -127064 1
0 0 0 851 744833 -126213 0
0 0 0 814 745647 -125399 0
0 0 0 715 746362 -124684 0
0 0 0 694 747056 -123990 0
0 0 0 697 747753 -123293 0
0 0 0 726 748479 -122567 0
0 0 0 768 749247 -121799 0
0 0 0 757 750004 -121042 0
0 0 0 748 750752 -120294 0
0 0 0 727 751479 -119567 0
0 0 0 686 752165 -118881 0
0 0 0 663 752828 -118218 0
0 0 0 677 753505 -117541 0
0 0 0 708 754213 -116833 0
0 0 0 759 754972 -116074 0
0 0 0 776 755748 -115298 0
0 0 0 752 756500 -114546 0
0 0 0 684 757184 -113862 0
0 0 0 706 757890 -113156 0
0 0 0 711 758601 -112445 0
0 0 0 718 759319 -111727 0
0 0 0 704 760023 -111023 0
0 0 0 695 760718 -110328 0
0 0 0 696 761414 -109632 0
0 0 0 716 762130 -108916 0
0 0 0 709 762839 -108207 0
0 0 0 707 763546 -107500 0
0 0 0 693 764239 -106807 0
0 0 0 687 764926 -106120 0
0 0 0 665 765591 -105455 0
0 0 0 636 766227 -104819 0
0 0 0 620 766847 -104199 0
0 0 0 614 767461 -103585 0
0 0 0 618 768079 -102967 0
0 0 0 629 768708 -102338 0
0 0 0 616 769324 -101722 0
0 0 0 623 769947 -101099 0
0 0 0 645 770592 -100454 0
0 0 0 644 771236 -99810 0
0 0 0 618 771854 -99192 0
0 0 0 592 772446 -98600 0
0 0 0 602 773048 -97998 0
0 0 0 611 773659 -97387 0
0 0 0 599 774258 -96788 0
0 0 0 591 774849 -96197 0
0 0 0 578 775427 -95619 0
0 0 0 561 775988 -95058 1
0 0 0 552 776540 -94506 1
0 0 0 568 777108 -93938 1
0 0 0 623 777731 -93315 0
0 0 0 773 778504 -92542 0
0 0 0 794 779298 -91748 0
0 0 0 727 780025 -91021 0
0 0 0 656 780681 -90365 0
0 0 0 677 781358 -89688 0
0 0 0 763 782121 -88925 0
0 0 0 823 782944 -88102 0
0 0 0 802 783746 -87300 0
0 0 0 739 784485 -86561 0
0 0 0 674 785159 -85887 0
0 0 0 661 785820 -85226 0
0 0 0 668 786488 -84558 0
0 0 0 709 787197 -83849 0
0 0 0 728 787925 -83121 0
0 0 0 711 788636 -82410 0
0 0 0 666 789302 -81744 0
0 0 0 677 789979 -81067 0
0 0 0 712 790691 -80355 0
0 0 0 750 791441 -79605 0
0 0 0 742 792183 -78863 0
0 0 0 692 792875 -78171 0
0 0 0 710 793585 -77461 0
0 0 0 699 794284 -76762 0
0 0 0 709 794993 -76053 0
0 0 0 672 795665 -75381 0
0 0 0 659 796324 -74722 0
0 0 0 666 796990 -74056 0
0 0 0 631 797621 -73425 0
0 0 0 612 798233 -72813 0
0 0 0 599 798832 -72214 0
0 0 0 581 799413 -71633 0
0 0 0 600 800013 -71033 0
0 0 0 592 800605 -70441 0
0 0 0 766 801371 -69675 0
0 0 0 810 802181 -68865 0
0 0 0 694 802875 -68171 0
0 0 0 677 803552 -67494 0
0 0 0 1275 804827 -66219 1
0 0 0 690 805517 -65529 0
0 0 0 775 806292 -64754 0
0 0 0 785 807077 -63969 0
0 0 0 749 807826 -63220 0
0 0 0 675 808501 -62545 0
0 0 0 671 809172 -61874 0
0 0 0 681 809853 -61193 0
0 0 0 710 810563 -60483 0
0 0 0 762 811325 -59721 0
0 0 0 767 812092 -58954 0
0 0 0 783 812875 -58171 0
0 0 0 730 813605 -57441 0
0 0 0 692 814297 -56749 0
0 0 0 712 815009 -56037 0
0 0 0 741 815750 -55296 0
0 0 0 762 816512 -54534 0
0 0 0 787 817299 -53747 0
0 0 0 731 818030 -53016 0
0 0 0 696 818726 -52320 0
0 0 0 745 819471 -51575 0
0 0 0 766 820237 -50809 0
0 0 0 791 821028 -50018 0
0 0 0 775 821803 -49243 0
0 0 0 738 822541 -48505 0
0 0 0 712 823253 -47793 0
0 0 0 721 823974 -47072 0
0 0 0 760 824734 -46312 0
0 0 0 796 825530 -45516 0
0 0 0 797 826327 -44719 0
0 0 0 793 827120 -43926 0
0 0 0 774 827894 -43152 0
0 0 0 704 828598 -42448 0
0 0 0 675 829273 -41773 0
0 0 0 690 829963 -41083 0
0 0 0 721 830684 -40362 0
0 0 0 766 831450 -39596 0
0 0 0 790 832240 -38806 0
0 0 0 795 833035 -38011 0
0 0 0 741 833776 -37270 0
0 0 0 709 834485 -36561 0
0 0 0 725 835210 -35836 0
0 0 0 737 835947 -35099 0
0 0 0 754 836701 -34345 0
0 0 0 742 837443 -33603 0
0 0 0 733 838176 -32870 0
0 0 0 685 838861 -32185 0
0 0 0 661 839522 -31524 0
0 0 0 682 840204 -30842 0
0 0 0 718 840922 -30124 0
0 0 0 764 841686 -29360 0
0 0 0 794 842480 -28566 0
0 0 0 767 843247 -27799 0
0 0 0 705 843952 -27094 0
0 0 0 698 844650 -26396 0
0 0 0 728 845378 -25668 0
0 0 0 752 846130 -24916 0
0 0 0 739 846869 -24177 0
0 0 0 714 847583 -23463 0
0 0 0 666 848249 -22797 0
0 0 0 670 848919 -22127 0
0 0 0 686 849605 -21441 0
0 0 0 675 850280 -20766 0
0 0 0 696 850976 -20070 0
0 0 0 690 851666 -19380 0
0 0 0 658 852324 -18722 0
0 0 0 665 852989 -18057 0
0 0 0 690 853679 -17367 0
0 0 0 711 854390 -16656 0
0 0 0 720 855110 -15936 0
0 0 0 723 855833 -15213 0
0 0 0 705 856538 -14508 0
0 0 0 675 857213 -13833 0
0 0 0 691 857904 -13142 0
0 0 0 722 858626 -12420 0
0 0 0 747 859373 -11673 0
0 0 0 750 860123 -10923 0
0 0 0 755 860878 -10168 0
0 0 0 735 861613 -9433 0
0 0 0 683 862296 -8750 0
0 0 0 691 862987 -8059 0
0 0 0 709 863696 -7350 0
0 0 0 733 864429 -6617 0
0 0 0 748 865177 -5869 0
0 0 0 739 865916 -5130 0
0 0 0 697 866613 -4433 0
0 0 0 675 867288 -3758 0
0 0 0 676 867964 -3082 0
0 0 0 667 868631 -2415 0
41 1 S102 673 869304 -1742 0
41 1 S102 622 869926 -1120 0
41 1 S102 630 870556 -490 0
41 2 S102 607 871163 117 0
41 2 S102 624 871787 741 0
41 2 S102 694 872481 1435 0
41 2 S102 708 873189 2143 0
41 2 S102 654 873843 2797 0
41 2 S102 671 874514 3468 0
41 2 S102 751 875265 4219 0
41 2 S102 786 876051 5005 0
41 2 S102 788 876839 5793 0
41 2 S102 790 877629 6583 0
0 0 0 796 878425 -6895 0
0 0 0 732 879157 -6163 0
0 0 0 734 879891 -5429 0
0 0 0 743 880634 -4686 0
0 0 0 746 881380 -3940 0
0 0 0 768 882148 -3172 0
0 0 0 738 882886 -2434 0
42 1 S112 710 883596 -1724 0
42 1 S112 752 884348 -972 0
42 1 S112 789 885137 -183 0
42 2 S112 796 885933 613 0
42 2 S112 807 886740 1420 0
42 2 S112 739 887479 2159 0
42 2 S112 709 888188 2868 0
42 2 S112 754 888942 3622 0
42 2 S112 797 889739 4419 0
42 2 S112 832 890571 5251 0
42 2 S112 816 891387 6067 0
42 2 S112 739 892126 6806 0
0 0 0 744 892870 -8962 0
0 0 0 776 893646 -8186 0
0 0 0 809 894455 -7377 0
0 0 0 792 895247 -6585 0
0 0 0 712 895959 -5873 0
0 0 0 694 896653 -5179 0
0 0 0 720 897373 -4459 0
0 0 0 737 898110 -3722 0
0 0 0 764 898874 -2958 0
0 0 0 705 899579 -2253 0
43 1 S116 720 900299 -1533 0
43 1 S116 759 901058 -774 0
43 2 S116 796 901854 22 0
43 2 S116 805 902659 827 0
43 2 S116 781 903440 1608 0
43 2 S116 738 904178 2346 0
43 2 S116 771 904949 3117 0
43 2 S116 789 905738 3906 0
43 2 S116 811 906549 4717 0
43 2 S116 779 907328 5496 0
43 2 S116 736 908064 6232 0
43 2 S116 753 908817 6985 0
0 0 0 774 909591 -7410 0
0 0 0 804 910395 -6606 0
0 0 0 790 911185 -5816 0
0 0 0 719 911904 -5097 0
0 0 0 699 912603 -4398 0
0 0 0 698 913301 -3700 0
0 0 0 699 914000 -3001 0
0 0 0 695 914695 -2306 0
44 1 S102 656 915351 -1650 0
44 1 S102 662 916013 -988 0
44 1 S102 696 916709 -292 0
44 2 S102 772 917481 480 0
44 2 S102 811 918292 1291 0
44 2 S102 796 919088 2087 0
44 2 S102 736 919824 2823 0
44 2 S102 700 920524 3523 0
44 2 S102 728 921252 4251 0
44 2 S102 747 921999 4998 0
44 2 S102 761 922760 5759 0
44 2 S102 760 923520 6519 0
0 0 0 706 924226 -8624 0
0 0 0 737 924963 -7887 0
0 0 0 769 925732 -7118 0
0 0 0 777 926509 -6341 0
0 0 0 716 927225 -5625 0
0 0 0 693 927918 -4932 0
0 0 0 726 928644 -4206 0
0 0 0 747 929391 -3459 0
0 0 0 770 930161 -2689 0
45 1 S116 710 930871 -1979 0
45 1 S116 705 931576 -1274 0
45 1 S116 737 932313 -537 0
45 2 S116 751 933064 214 0
45 2 S116 784 933848 998 0
45 2 S116 762 934610 1760 0
45 2 S116 703 935313 2463 0
45 2 S116 721 936034 3184 0
45 2 S116 761 936795 3945 0
45 2 S116 803 937598 4748 0
45 2 S116 805 938403 5553 0
45 2 S116 747 939150 6300 0
45 2 S116 722 939872 7022 0
0 0 0 771 940643 -11703 0
0 0 0 792 941435 -10911 0
0 0 0 812 942247 -10099 0
0 0 0 736 942983 -9363 0
0 0 0 755 943738 -8608 0
0 0 0 746 944484 -7862 0
0 0 0 734 945218 -7128 0
0 0 0 684 945902 -6444 0
0 0 0 650 946552 -5794 0
0 0 0 668 947220 -5126 0
0 0 0 684 947904 -4442 0
0 0 0 718 948622 -3724 0
0 0 0 756 949378 -2968 0
0 0 0 767 950145 -2201 0
46 1 S102 718 950863 -1483 0
46 1 S102 707 951570 -776 0
46 1 S102 736 952306 -40 0
46 2 S102 765 953071 725 0
46 2 S102 770 953841 1495 0
46 2 S102 760 954601 2255 0
46 2 S102 725 955326 2980 0
46 2 S102 697 956023 3677 0
46 2 S102 720 956743 4397 0
46 2 S102 744 957487 5141 0
46 2 S102 782 958269 5923 0
46 2 S102 781 959050 6704 0
0 0 0 728 959778 -9346 0
0 0 0 678 960456 -8668 0
0 0 0 675 961131 -7993 0
0 0 0 677 961808 -7316 0
0 0 0 694 962502 -6622 0
0 0 0 706 963208 -5916 0
0 0 0 736 963944 -5180 0
0 0 0 736 964680 -4444 0
0 0 0 717 965397 -3727 0
0 0 0 668 966065 -3059 0
0 0 0 640 966705 -2419 0
47 1 S112 610 967315 -1809 0
47 1 S112 590 967905 -1219 0
47 1 S112 674 968579 -545 0
47 2 S112 773 969352 228 0
47 2 S112 754 970106 982 0
47 2 S112 751 970857 1733 0
47 2 S112 770 971627 2503 0
47 2 S112 751 972378 3254 0
47 2 S112 728 973106 3982 0
47 2 S112 699 973805 4681 0
47 2 S112 664 974469 5345 0
47 2 S112 652 975121 5997 0
47 2 S112 651 975772 6648 0
0 0 0 621 976393 -11564 0
0 0 0 650 977043 -10914 0
0 0 0 773 977816 -10141 0
0 0 0 817 978633 -9324 0
0 0 0 785 979418 -8539 0
0 0 0 770 980188 -7769 0
0 0 0 740 980928 -7029 0
0 0 0 688 981616 -6341 0
0 0 0 695 982311 -5646 0
0 0 0 713 983024 -4933 0
0 0 0 753 983777 -4180 0
0 0 0 783 984560 -3397 0
0 0 0 784 985344 -2613 0
48 1 S116 770 986114 -1843 0
48 1 S116 715 986829 -1128 0
48 1 S116 719 987548 -409 0
48 2 S116 743 988291 334 0
48 2 S116 762 989053 1096 0
48 2 S116 796 989849 1892 0
48 2 S116 798 990647 2690 0
48 2 S116 749 991396 3439 0
48 2 S116 764 992160 4203 0
48 2 S116 789 992949 4992 0
48 2 S116 816 993765 5808 0
48 2 S116 823 994588 6631 0
0 0 0 776 995364 -7895 0
0 0 0 736 996100 -7159 0
0 0 0 762 996862 -6397 0
0 0 0 779 997641 -5618 0
0 0 0 783 998424 -4835 0
0 0 0 701 999125 -4134 0
0 0 0 679 999804 -3455 0
0 0 0 702 1000506 -2753 0
0 0 0 714 1001220 -2039 0
49 1 S112 735 1001955 -1304 0
49 1 S112 749 1002704 -555 0
49 2 S112 695 1003399 140 0
49 2 S112 696 1004095 836 0
49 2 S112 723 1004818 1559 0
49 2 S112 748 1005566 2307 0
49 2 S112 785 1006351 3092 0
49 2 S112 763 1007114 3855 0
49 2 S112 720 1007834 4575 0
49 2 S112 735 1008569 5310 0
49 2 S112 768 1009337 6078 0
49 2 S112 777 1010114 6855 0
0 0 0 751 1010865 -11309 0
0 0 0 695 1011560 -10614 0
0 0 0 720 1012280 -9894 0
0 0 0 718 1012998 -9176 0
0 0 0 656 1013654 -8520 0
0 0 0 667 1014321 -7853 0
0 0 0 682 1015003 -7171 0
0 0 0 724 1015727 -6447 0
0 0 0 738 1016465 -5709 0
0 0 0 691 1017156 -5018 0
0 0 0 704 1017860 -4314 0
0 0 0 725 1018585 -3589 0
0 0 0 765 1019350 -2824 0
0 0 0 763 1020113 -2061 0
50 1 S106 712 1020825 -1349 0
50 1 S106 692 1021517 -657 0
50 2 S106 719 1022236 62 0
50 2 S106 722 1022958 784 0
50 2 S106 740 1023698 1524 0
50 2 S106 726 1024424 2250 0
50 2 S106 699 1025123 2949 0
50 2 S106 704 1025827 3653 0
50 2 S106 743 1026570 4396 0
50 2 S106 778 1027348 5174 0
50 2 S106 784 1028132 5958 0
50 2 S106 778 1028910 6736 0
0 0 0 715 1029625 -7172 0
0 0 0 729 1030354 -6443 0
0 0 0 740 1031094 -5703 0
0 0 0 756 1031850 -4947 0
0 0 0 716 1032566 -4231 0
0 0 0 665 1033231 -3566 0
0 0 0 665 1033896 -2901 0
0 0 0 686 1034582 -2215 0
51 1 S112 723 1035305 -1492 0
51 1 S112 751 1036056 -741 0
51 2 S112 760 1036816 19 0
51 2 S112 697 1037513 716 0
51 2 S112 699 1038212 1415 0
51 2 S112 713 1038925 2128 0
51 2 S112 729 1039654 2857 0
51 2 S112 756 1040410 3613 0
51 2 S112 739 1041149 4352 0
51 2 S112 726 1041875 5078 0
51 2 S112 765 1042640 5843 0
51 2 S112 780 1043420 6623 0
0 0 0 788 1044208 -8089 0
0 0 0 766 1044974 -7323 0
0 0 0 697 1045671 -6626 0
0 0 0 709 1046380 -5917 0
0 0 0 723 1047103 -5194 0
0 0 0 726 1047829 -4468 0
0 0 0 688 1048517 -3780 0
0 0 0 663 1049180 -3117 0
0 0 0 680 1049860 -2437 0
52 1 S116 691 1050551 -1746 0
52 1 S116 714 1051265 -1032 0
52 1 S116 737 1052002 -295 0
52 2 S116 731 1052733 436 0
52 2 S116 690 1053423 1126 0
52 2 S116 693 1054116 1819 0
52 2 S116 719 1054835 2538 0
52 2 S116 763 1055598 3301 0
52 2 S116 791 1056389 4092 0
52 2 S116 797 1057186 4889 0
52 2 S116 735 1057921 5624 0
52 2 S116 722 1058643 6346 0
0 0 0 736 1059379 -9895 0
0 0 0 743 1060122 -9152 0
0 0 0 751 1060873 -8401 0
0 0 0 713 1061586 -7688 0
0 0 0 689 1062275 -6999 0
0 0 0 711 1062986 -6288 0
0 0 0 725 1063711 -5563 0
0 0 0 730 1064441 -4833 0
0 0 0 693 1065134 -4140 0
0 0 0 677 1065811 -3463 0
0 0 0 691 1066502 -2772 0
0 0 0 717 1067219 -2055 0
53 1 S106 732 1067951 -1323 0
53 1 S106 727 1068678 -596 0
53 2 S106 688 1069366 92 0
53 2 S106 669 1070035 761 0
53 2 S106 691 1070726 1452 0
53 2 S106 713 1071439 2165 0
53 2 S106 747 1072186 2912 0
53 2 S106 768 1072954 3680 0
53 2 S106 722 1073676 4402 0
53 2 S106 715 1074391 5117 0
53 2 S106 749 1075140 5866 0
53 2 S106 761 1075901 6627 0
0 0 0 775 1076676 -7750 0
0 0 0 747 1077423 -7003 0
0 0 0 699 1078122 -6304 0
0 0 0 739 1078861 -5565 0
0 0 0 746 1079607 -4819 0
0 0 0 723 1080330 -4096 0
0 0 0 670 1081000 -3426 0
0 0 0 667 1081667 -2759 0
0 0 0 675 1082342 -2084 0
54 1 S102 695 1083037 -1389 0
54 1 S102 722 1083759 -667 0
54 2 S102 699 1084458 32 0
54 2 S102 680 1085138 712 0
54 2 S102 714 1085852 1426 0
54 2 S102 736 1086588 2162 0
54 2 S102 752 1087340 2914 0
54 2 S102 735 1088075 3649 0
54 2 S102 691 1088766 4340 0
54 2 S102 709 1089475 5049 0
54 2 S102 727 1090202 5776 0
54 2 S102 736 1090938 6512 0
0 0 0 735 1091673 -11487 0
0 0 0 683 1092356 -10804 0
0 0 0 691 1093047 -10113 0
0 0 0 721 1093768 -9392 0
0 0 0 736 1094504 -8656 0
0 0 0 723 1095227 -7933 0
0 0 0 680 1095907 -7253 0
0 0 0 694 1096601 -6559 0
0 0 0 704 1097305 -5855 0
0 0 0 728 1098033 -5127 0
0 0 0 685 1098718 -4442 0
0 0 0 653 1099371 -3789 0
0 0 0 652 1100023 -3137 0
0 0 0 630 1100653 -2507 0
55 1 S106 637 1101290 -1870 0
55 1 S106 671 1101961 -1199 0
55 1 S106 696 1102657 -503 0
55 2 S106 689 1103346 186 0
55 2 S106 649 1103995 835 0
55 2 S106 650 1104645 1485 0
55 2 S106 656 1105301 2141 0
55 2 S106 669 1105970 2810 0
55 2 S106 704 1106674 3514 0
55 2 S106 732 1107406 4246 0
55 2 S106 701 1108107 4947 0
55 2 S106 675 1108782 5622 0
55 2 S106 688 1109470 6310 0
55 2 S106 702 1110172 7012 0
0 0 0 734 1110906 -7854 0
0 0 0 743 1111649 -7111 0
0 0 0 715 1112364 -6396 0
0 0 0 678 1113042 -5718 0
0 0 0 705 1113747 -5013 0
0 0 0 719 1114466 -4294 0
0 0 0 724 1115190 -3570 0
0 0 0 722 1115912 -2848 0
0 0 0 687 1116599 -2161 0
56 1 S116 675 1117274 -1486 0
56 1 S116 680 1117954 -806 0
56 1 S116 700 1118654 -106 0
56 2 S116 729 1119383 623 0
56 2 S116 750 1120133 1373 0
56 2 S116 752 1120885 2125 0
56 2 S116 704 1121589 2829 0
56 2 S116 714 1122303 3543 0
56 2 S116 743 1123046 4286 0
56 2 S116 793 1123839 5079 0
56 2 S116 804 1124643 5883 0
56 2 S116 804 1125447 6687 0
0 0 0 758 1126205 -8570 0
0 0 0 701 1126906 -7869 0
0 0 0 726 1127632 -7143 0
0 0 0 739 1128371 -6404 0
0 0 0 763 1129134 -5641 0
0 0 0 782 1129916 -4859 0
0 0 0 701 1130617 -4158 0
0 0 0 666 1131283 -3492 0
0 0 0 670 1131953 -2822 0
0 0 0 676 1132629 -2146 0
57 1 S106 704 1133333 -1442 0
57 1 S106 690 1134023 -752 0
57 1 S106 667 1134690 -85 0
57 2 S106 695 1135385 610 0
57 2 S106 733 1136118 1343 0
57 2 S106 769 1136887 2112 0
57 2 S106 782 1137669 2894 0
57 2 S106 761 1138430 3655 0
57 2 S106 707 1139137 4362 0
57 2 S106 726 1139863 5088 0
57 2 S106 754 1140617 5842 0
57 2 S106 797 1141414 6639 0
0 0 0 804 1142218 -9301 0
0 0 0 769 1142987 -8532 0
0 0 0 715 1143702 -7817 0
0 0 0 745 1144447 -7072 0
0 0 0 738 1145185 -6334 0
0 0 0 736 1145921 -5598 0
0 0 0 694 1146615 -4904 0
0 0 0 679 1147294 -4225 0
0 0 0 697 1147991 -3528 0
0 0 0 728 1148719 -2800 0
0 0 0 744 1149463 -2056 0
58 1 S102 754 1150217 -1302 0
58 1 S102 695 1150912 -607 0
58 2 S102 691 1151603 84 0
58 2 S102 722 1152325 806 0
58 2 S102 771 1153096 1577 0
58 2 S102 785 1153881 2362 0
58 2 S102 776 1154657 3138 0
58 2 S102 716 1155373 3854 0
58 2 S102 707 1156080 4561 0
58 2 S102 725 1156805 5286 0
58 2 S102 741 1157546 6027 0
58 2 S102 772 1158318 6799 0
0 0 0 766 1159084 -6344 0
0 0 0 706 1159790 -5638 0
0 0 0 719 1160509 -4919 0
0 0 0 728 1161237 -4191 0
0 0 0 743 1161980 -3448 0
0 0 0 759 1162739 -2689 0
59 1 S112 698 1163437 -1991 0
59 1 S112 690 1164127 -1301 0
59 1 S112 717 1164844 -584 0
59 2 S112 727 1165571 143 0
59 2 S112 768 1166339 911 0
59 2 S112 752 1167091 1663 0
59 2 S112 693 1167784 2356 0
59 2 S112 684 1168468 3040 0
59 2 S112 693 1169161 3733 0
59 2 S112 720 1169881 4453 0
59 2 S112 747 1170628 5200 0
59 2 S112 756 1171384 5956 0
59 2 S112 728 1172112 6684 0
0 0 0 704 1172816 -9887 0
0 0 0 732 1173548 -9155 0
0 0 0 747 1174295 -8408 0
0 0 0 760 1175055 -7648 0
0 0 0 717 1175772 -6931 0
0 0 0 670 1176442 -6261 0
0 0 0 675 1177117 -5586 0
0 0 0 697 1177814 -4889 0
0 0 0 721 1178535 -4168 0
0 0 0 719 1179254 -3449 0
0 0 0 691 1179945 -2758 0
0 0 0 667 1180612 -2091 0
60 1 S102 671 1181283 -1420 0
60 1 S102 692 1181975 -728 0
60 1 S102 723 1182698 -5 0
60 2 S102 761 1183459 756 0
60 2 S102 755 1184214 1511 0
60 2 S102 715 1184929 2226 0
60 2 S102 677 1185606 2903 0
60 2 S102 699 1186305 3602 0
60 2 S102 713 1187018 4315 0
60 2 S102 741 1187759 5056 0
60 2 S102 765 1188524 5821 0
60 2 S102 726 1189250 6547 0
0 0 0 683 1189933 -11586 0
0 0 0 694 1190627 -10892 0
0 0 0 709 1191336 -10183 0
0 0 0 724 1192060 -9459 0
0 0 0 741 1192801 -8718 0
0 0 0 688 1193489 -8030 0
0 0 0 657 1194146 -7373 0
0 0 0 637 1194783 -6736 0
0 0 0 614 1195397 -6122 0
0 0 0 720 1196117 -5402 0
0 0 0 770 1196887 -4632 0
0 0 0 808 1197695 -3824 0
0 0 0 796 1198491 -3028 0
0 0 0 773 1199264 -2255 0
61 1 S106 754 1200018 -1501 0
61 1 S106 737 1200755 -764 0
61 1 S106 721 1201476 -43 0
61 2 S106 704 1202180 661 0
61 2 S106 676 1202856 1337 0
61 2 S106 699 1203555 2036 0
61 2 S106 734 1204289 2770 0
61 2 S106 776 1205065 3546 0
61 2 S106 788 1205853 4334 0
61 2 S106 800 1206653 5134 0
61 2 S106 801 1207454 5935 0
61 2 S106 792 1208246 6727 0
0 0 0 753 1208999 -7242 0
0 0 0 716 1209715 -6526 0
0 0 0 730 1210445 -5796 0
0 0 0 726 1211171 -5070 0
0 0 0 720 1211891 -4350 0
0 0 0 702 1212593 -3648 0
0 0 0 673 1213266 -2975 0
0 0 0 652 1213918 -2323 0
62 1 S112 665 1214583 -1658 0
62 1 S112 685 1215268 -973 0
62 1 S112 721 1215989 -252 0
62 2 S112 759 1216748 507 0
62 2 S112 769 1217517 1276 0
62 2 S112 719 1218236 1995 0
62 2 S112 719 1218955 2714 0
62 2 S112 757 1219712 3471 0
62 2 S112 781 1220493 4252 0
62 2 S112 793 1221286 5045 0
62 2 S112 744 1222030 5789 0
62 2 S112 705 1222735 6494 0
0 0 0 734 1223469 -11274 0
0 0 0 729 1224198 -10545 0
0 0 0 729 1224927 -9816 0
0 0 0 659 1225586 -9157 0
0 0 0 660 1226246 -8497 0
0 0 0 654 1226900 -7843 0
0 0 0 674 1227574 -7169 0
0 0 0 716 1228290 -6453 0
0 0 0 726 1229016 -5727 0
0 0 0 714 1229730 -5013 0
0 0 0 676 1230406 -4337 0
0 0 0 694 1231100 -3643 0
0 0 0 719 1231819 -2924 0
0 0 0 732 1232551 -2192 0
63 1 S102 732 1233283 -1460 0
63 1 S102 724 1234007 -736 0
63 1 S102 683 1234690 -53 0
63 2 S102 676 1235366 623 0
63 2 S102 696 1236062 1319 0
63 2 S102 721 1236783 2040 0
63 2 S102 749 1237532 2789 0
63 2 S102 760 1238292 3549 0
63 2 S102 698 1238990 4247 0
63 2 S102 685 1239675 4932 0
63 2 S102 701 1240376 5633 0
63 2 S102 719 1241095 6352 0
0 0 0 719 1241814 -8976 0
0 0 0 729 1242543 -8247 0
0 0 0 694 1243237 -7553 0
0 0 0 678 1243915 -6875 0
0 0 0 689 1244604 -6186 0
0 0 0 683 1245287 -5503 0
0 0 0 704 1245991 -4799 0
0 0 0 705 1246696 -4094 0
0 0 0 683 1247379 -3411 0
0 0 0 650 1248029 -2761 0
0 0 0 653 1248682 -2108 0
64 1 S112 666 1249348 -1442 0
64 1 S112 689 1250037 -753 0
64 1 S112 713 1250750 -40 0
64 2 S112 728 1251478 688 0
64 2 S112 685 1252163 1373 0
64 2 S112 675 1252838 2048 0
64 2 S112 694 1253532 2742 0
64 2 S112 713 1254245 3455 0
64 2 S112 725 1254970 4180 0
64 2 S112 716 1255686 4896 0
64 2 S112 686 1256372 5582 0
64 2 S112 681 1257053 6263 0
64 2 S112 690 1257743 6953 0
0 0 0 712 1258455 -6526 0
0 0 0 724 1259179 -5802 0
0 0 0 719 1259898 -5083 0
0 0 0 677 1260575 -4406 0
0 0 0 660 1261235 -3746 0
0 0 0 674 1261909 -3072 0
0 0 0 699 1262608 -2373 0
65 1 S106 727 1263335 -1646 0
65 1 S106 722 1264057 -924 0
65 1 S106 668 1264725 -256 0
65 2 S106 658 1265383 402 0
65 2 S106 649 1266032 1051 0
65 2 S106 625 1266657 1676 0
65 2 S106 610 1267267 2286 0
65 2 S106 654 1267921 2940 0
65 2 S106 694 1268615 3634 0
65 2 S106 653 1269268 4287 0
65 2 S106 626 1269894 4913 0
65 2 S106 628 1270522 5541 0
65 2 S106 673 1271195 6214 0
65 2 S106 708 1271903 6922 0
0 0 0 730 1272633 -6291 0
0 0 0 731 1273364 -5560 0
0 0 0 685 1274049 -4875 0
0 0 0 648 1274697 -4227 0
0 0 0 658 1275355 -3569 0
0 0 0 662 1276017 -2907 0
0 0 0 674 1276691 -2233 0
66 1 S116 675 1277366 -1558 0
66 1 S116 646 1278012 -912 0
66 1 S116 672 1278684 -240 0
66 2 S116 716 1279400 476 0
66 2 S116 755 1280155 1231 0
66 2 S116 805 1280960 2036 0
66 2 S116 780 1281740 2816 0
66 2 S116 740 1282480 3556 0
66 2 S116 750 1283230 4306 0
66 2 S116 786 1284016 5092 0
66 2 S116 814 1284830 5906 0
66 2 S116 845 1285675 6751 0
0 0 0 815 1286490 -11250 0
0 0 0 739 1287229 -10511 0
0 0 0 753 1287982 -9758 0
0 0 0 756 1288738 -9002 0
0 0 0 749 1289487 -8253 0
0 0 0 696 1290183 -7557 0
0 0 0 673 1290856 -6884 0
0 0 0 681 1291537 -6203 0
0 0 0 699 1292236 -5504 0
0 0 0 732 1292968 -4772 0
0 0 0 762 1293730 -4010 0
0 0 0 722 1294452 -3288 0
0 0 0 694 1295146 -2594 0
67 1 S102 724 1295870 -1870 0
67 1 S102 743 1296613 -1127 0
67 1 S102 785 1297398 -342 0
67 2 S102 769 1298167 427 0
67 2 S102 727 1298894 1154 0
67 2 S102 696 1299590 1850 0
67 2 S102 714 1300304 2564 0
67 2 S102 740 1301044 3304 0
67 2 S102 762 1301806 4066 0
67 2 S102 780 1302586 4846 0
67 2 S102 741 1303327 5587 0
67 2 S102 737 1304064 6324 0
0 0 0 757 1304821 -7807 0
0 0 0 760 1305581 -7047 0
0 0 0 762 1306343 -6285 0
0 0 0 748 1307091 -5537 0
0 0 0 699 1307790 -4838 0
0 0 0 715 1308505 -4123 0
0 0 0 726 1309231 -3397 0
0 0 0 736 1309967 -2661 0
68 1 S106 715 1310682 -1946 0
68 1 S106 681 1311363 -1265 0
68 1 S106 678 1312041 -587 0
68 2 S106 703 1312744 116 0
68 2 S106 738 1313482 854 0
68 2 S106 784 1314266 1638 0
68 2 S106 737 1315003 2375 0
68 2 S106 706 1315709 3081 0
68 2 S106 749 1316458 3830 0
68 2 S106 770 1317228 4600 0
68 2 S106 790 1318018 5390 0
68 2 S106 795 1318813 6185 0
68 2 S106 739 1319552 6924 0
0 0 0 727 1320279 -11099 0
0 0 0 749 1321028 -10350 0
0 0 0 750 1321778 -9600 0
0 0 0 734 1322512 -8866 0
0 0 0 674 1323186 -8192 0
0 0 0 654 1323840 -7538 0
0 0 0 665 1324505 -6873 0
0 0 0 674 1325179 -6199 0
0 0 0 719 1325898 -5480 0
0 0 0 737 1326635 -4743 0
0 0 0 700 1327335 -4043 0
0 0 0 656 1327991 -3387 0
0 0 0 654 1328645 -2733 0
0 0 0 680 1329325 -2053 0
69 1 S102 723 1330048 -1330 0
69 1 S102 757 1330805 -573 0
69 2 S102 748 1331553 175 0
69 2 S102 688 1332241 863 0
69 2 S102 685 1332926 1548 0
69 2 S102 692 1333618 2240 0
69 2 S102 707 1334325 2947 0
69 2 S102 741 1335066 3688 0
69 2 S102 722 1335788 4410 0
69 2 S102 684 1336472 5094 0
69 2 S102 705 1337177 5799 0
69 2 S102 723 1337900 6522 0
0 0 0 749 1338649 -9639 0
0 0 0 742 1339391 -8897 0
0 0 0 690 1340081 -8207 0
0 0 0 690 1340771 -7517 0
0 0 0 694 1341465 -6823 0
0 0 0 691 1342156 -6132 0
0 0 0 665 1342821 -5467 0
0 0 0 648 1343469 -4819 0
0 0 0 619 1344088 -4200 0
0 0 0 593 1344681 -3607 0
0 0 0 653 1345334 -2954 0
0 0 0 873 1346207 -2081 1
70 1 S112 810 1347017 -1271 0
70 1 S112 791 1347808 -480 0
70 2 S112 765 1348573 285 0
70 2 S112 731 1349304 1016 0
70 2 S112 713 1350017 1729 0
70 2 S112 709 1350726 2438 0
70 2 S112 694 1351420 3132 0
70 2 S112 669 1352089 3801 0
70 2 S112 682 1352771 4483 0
70 2 S112 702 1353473 5185 0
70 2 S112 755 1354228 5940 0
70 2 S112 785 1355013 6725 0
0 0 0 793 1355806 -11182 0
0 0 0 792 1356598 -10390 0
0 0 0 764 1357362 -9626 0
0 0 0 697 1358059 -8929 0
0 0 0 699 1358758 -8230 0
0 0 0 700 1359458 -7530 0
0 0 0 708 1360166 -6822 0
0 0 0 707 1360873 -6115 0
0 0 0 701 1361574 -5414 0
0 0 0 695 1362269 -4719 0
0 0 0 660 1362929 -4059 0
0 0 0 677 1363606 -3382 0
0 0 0 705 1364311 -2677 0
71 1 S116 741 1365052 -1936 0
71 1 S116 746 1365798 -1190 0
71 1 S116 748 1366546 -442 0
71 2 S116 715 1367261 273 0
71 2 S116 681 1367942 954 0
71 2 S116 707 1368649 1661 0
71 2 S116 726 1369375 2387 0
71 2 S116 758 1370133 3145 0
71 2 S116 779 1370912 3924 0
71 2 S116 731 1371643 4655 0
71 2 S116 732 1372375 5387 0
71 2 S116 763 1373138 6150 0
71 2 S116 786 1373924 6936 0
0 0 0 791 1374715 -9614 0
0 0 0 759 1375474 -8855 0
0 0 0 698 1376172 -8157 0
0 0 0 724 1376896 -7433 0
0 0 0 741 1377637 -6692 0
0 0 0 737 1378374 -5955 0
0 0 0 727 1379101 -5228 0
0 0 0 682 1379783 -4546 0
0 0 0 662 1380445 -3884 0
0 0 0 668 1381113 -3216 0
0 0 0 679 1381792 -2537 0
72 1 S102 715 1382507 -1822 0
72 1 S102 735 1383242 -1087 0
72 1 S102 739 1383981 -348 0
72 2 S102 716 1384697 368 0
72 2 S102 683 1385380 1051 0
72 2 S102 688 1386068 1739 0
72 2 S102 708 1386776 2447 0
72 2 S102 745 1387521 3192 0
72 2 S102 766 1388287 3958 0
72 2 S102 736 1389023 4694 0
72 2 S102 691 1389714 5385 0
72 2 S102 705 1390419 6090 0
72 2 S102 723 1391142 6813 0
0 0 0 755 1391897 -7253 0
0 0 0 761 1392658 -6492 0
0 0 0 711 1393369 -5781 0
0 0 0 677 1394046 -5104 0
0 0 0 685 1394731 -4419 0
0 0 0 688 1395419 -3731 0
0 0 0 706 1396125 -3025 0
0 0 0 701 1396826 -2324 0
73 1 S116 666 1397492 -1658 0
73 1 S116 674 1398166 -984 0
73 1 S116 688 1398854 -296 0
73 2 S116 704 1399558 408 0
73 2 S116 724 1400282 1132 0
73 2 S116 726 1401008 1858 0
73 2 S116 701 1401709 2559 0
73 2 S116 733 1402442 3292 0
73 2 S116 757 1403199 4049 0
73 2 S116 780 1403979 4829 0
73 2 S116 775 1404754 5604 0
73 2 S116 724 1405478 6328 0
0 0 0 718 1406196 -10080 0
0 0 0 746 1406942 -9334 0
0 0 0 755 1407697 -8579 0
0 0 0 738 1408435 -7841 0
0 0 0 693 1409128 -7148 0
0 0 0 683 1409811 -6465 0
0 0 0 678 1410489 -5787 0
0 0 0 658 1411147 -5129 0
0 0 0 636 1411783 -4493 0
0 0 0 637 1412420 -3856 0
0 0 0 654 1413074 -3202 0
0 0 0 617 1413691 -2585 0
74 1 S106 607 1414298 -1978 0
74 1 S106 613 1414911 -1365 0
74 1 S106 653 1415564 -712 0
74 1 S106 690 1416254 -22 0
74 2 S106 710 1416964 688 0
74 2 S106 708 1417672 1396 0
74 2 S106 649 1418321 2045 0
74 2 S106 650 1418971 2695 0
74 2 S106 682 1419653 3377 0
74 2 S106 727 1420380 4104 0
74 2 S106 770 1421150 4874 0
74 2 S106 741 1421891 5615 0
74 2 S106 721 1422612 6336 0
74 2 S106 682 1423294 7018 0
0 0 0 695 1423989 -6909 0
0 0 0 710 1424699 -6199 0
0 0 0 720 1425419 -5479 0
0 0 0 728 1426147 -4751 0
0 0 0 679 1426826 -4072 0
0 0 0 666 1427492 -3406 0
0 0 0 691 1428183 -2715 0
75 1 S112 730 1428913 -1985 0
75 1 S112 753 1429666 -1232 0
75 1 S112 713 1430379 -519 0
75 2 S112 690 1431069 171 0
75 2 S112 695 1431764 866 0
75 2 S112 735 1432499 1601 0
75 2 S112 767 1433266 2368 0
75 2 S112 786 1434052 3154 0
75 2 S112 760 1434812 3914 0
75 2 S112 719 1435531 4633 0
75 2 S112 737 1436268 5370 0
75 2 S112 752 1437020 6122 0
75 2 S112 764 1437784 6886 0
0 0 0 736 1438520 -6652 0
0 0 0 683 1439203 -5969 0
0 0 0 692 1439895 -5277 0
0 0 0 713 1440608 -4564 0
0 0 0 727 1441335 -3837 0
0 0 0 735 1442070 -3102 0
0 0 0 680 1442750 -2422 0
76 1 S116 668 1443418 -1754 0
76 1 S116 684 1444102 -1070 0
76 1 S116 709 1444811 -361 0
76 2 S116 755 1445566 394 0
76 2 S116 798 1446364 1192 0
76 2 S116 773 1447137 1965 0
76 2 S116 744 1447881 2709 0
76 2 S116 786 1448667 3495 0
76 2 S116 802 1449469 4297 0
76 2 S116 807 1450276 5104 0
76 2 S116 782 1451058 5886 0
76 2 S116 716 1451774 6602 0
0 0 0 721 1452495 -7564 0
0 0 0 728 1453223 -6836 0
0 0 0 744 1453967 -6092 0
0 0 0 738 1454705 -5354 0
0 0 0 693 1455398 -4661 0
0 0 0 701 1456099 -3960 0
0 0 0 725 1456824 -3235 0
0 0 0 754 1457578 -2481 0
77 1 S106 764 1458342 -1717 0
77 1 S106 705 1459047 -1012 0
77 1 S106 684 1459731 -328 0
77 2 S106 696 1460427 368 0
77 2 S106 718 1461145 1086 0
77 2 S106 753 1461898 1839 0
77 2 S106 789 1462687 2628 0
77 2 S106 772 1463459 3400 0
77 2 S106 726 1464185 4126 0
77 2 S106 752 1464937 4878 0
77 2 S106 780 1465717 5658 0
77 2 S106 787 1466504 6445 0
0 0 0 807 1467311 -9294 0
0 0 0 753 1468064 -8541 0
0 0 0 702 1468766 -7839 0
0 0 0 726 1469492 -7113 0
0 0 0 726 1470218 -6387 0
0 0 0 731 1470949 -5656 0
0 0 0 698 1471647 -4958 0
0 0 0 668 1472315 -4290 0
0 0 0 655 1472970 -3635 0
0 0 0 637 1473607 -2998 0
0 0 0 722 1474329 -2276 0
78 1 S112 864 1475193 -1412 1
78 1 S112 828 1476021 -584 0
78 2 S112 816 1476837 232 0
78 2 S112 796 1477633 1028 0
78 2 S112 781 1478414 1809 0
78 2 S112 731 1479145 2540 0
78 2 S112 682 1479827 3222 0
78 2 S112 681 1480508 3903 0
78 2 S112 698 1481206 4601 0
78 2 S112 722 1481928 5323 0
78 2 S112 774 1482702 6097 0
78 2 S112 791 1483493 6888 0
0 0 0 794 1484287 -11714 0
0 0 0 725 1485012 -10989 0
0 0 0 726 1485738 -10263 0
0 0 0 762 1486500 -9501 0
0 0 0 779 1487279 -8722 0
0 0 0 771 1488050 -7951 0
0 0 0 759 1488809 -7192 0
0 0 0 740 1489549 -6452 0
0 0 0 688 1490237 -5764 0
0 0 0 673 1490910 -5091 0
0 0 0 678 1491588 -4413 0
0 0 0 693 1492281 -3720 0
0 0 0 714 1492995 -3006 0
0 0 0 752 1493747 -2254 0
79 1 S102 731 1494478 -1523 0
79 1 S102 690 1495168 -833 0
79 1 S102 714 1495882 -119 0
79 2 S102 728 1496610 609 0
79 2 S102 754 1497364 1363 0
79 2 S102 748 1498112 2111 0
79 2 S102 735 1498847 2846 0
79 2 S102 699 1499546 3545 0
79 2 S102 666 1500212 4211 0
79 2 S102 680 1500892 4891 0
79 2 S102 694 1501586 5585 0
79 2 S102 716 1502302 6301 0
0 0 0 753 1503055 -8961 0
0 0 0 759 1503814 -8202 0
0 0 0 693 1504507 -7509 0
0 0 0 657 1505164 -6852 0
0 0 0 662 1505826 -6190 0
0 0 0 654 1506480 -5536 0
0 0 0 656 1507136 -4880 0
0 0 0 641 1507777 -4239 0
0 0 0 628 1508405 -3611 0
0 0 0 599 1509004 -3012 0
0 0 0 604 1509608 -2408 0
80 1 S116 598 1510206 -1810 0
80 1 S116 598 1510804 -1212 0
80 1 S116 643 1511447 -569 0
80 2 S116 716 1512163 147 0
80 2 S116 770 1512933 917 0
80 2 S116 760 1513693 1677 0
80 2 S116 740 1514433 2417 0
80 2 S116 694 1515127 3111 0
80 2 S116 710 1515837 3821 0
80 2 S116 723 1516560 4544 0
80 2 S116 743 1517303 5287 0
80 2 S116 743 1518046 6030 0
80 2 S116 718 1518764 6748 0
