T_0037
BeatCount Mean SD BeatCountNoOutliers MeanNoOutliers SDNoOutliers
1962 799,971457696228 85,5407564294393 1948 800,254620123203 82,6474741447119

Trial TrialStatus Trialtype IBI AbsPosition RelPosition Outlier
0 0 0 882 1198 -14981 0
0 0 0 811 2009 -14170 0
0 0 0 817 2826 -13353 0
0 0 0 790 3616 -12563 0
0 0 0 722 4338 -11841 0
0 0 0 684 5022 -11157 0
0 0 0 661 5683 -10496 0
0 0 0 687 6370 -9809 0
0 0 0 696 7066 -9113 0
0 0 0 754 7820 -8359 0
0 0 0 767 8587 -7592 0
0 0 0 755 9342 -6837 0
0 0 0 740 10082 -6097 0
0 0 0 688 10770 -5409 0
0 0 0 651 11421 -4758 0
0 0 0 632 12053 -4126 0
0 0 0 643 12696 -3483 0
0 0 0 658 13354 -2825 0
0 0 0 752 14106 -2073 0
1 1 S112 853 14959 -1220 0
1 1 S112 896 15855 -324 0
1 2 S112 864 16719 540 0
1 2 S112 794 17513 1334 0
1 2 S112 791 18304 2125 0
1 2 S112 778 19082 2903 0
1 2 S112 774 19856 3677 0
1 2 S112 811 20667 4488 0
1 2 S112 847 21514 5335 0
1 2 S112 837 22351 6172 0
1 2 S112 768 23119 6940 0
0 0 0 726 23845 -10404 0
0 0 0 658 24503 -9746 0
0 0 0 624 25127 -9122 0
0 0 0 615 25742 -8507 0
0 0 0 641 26383 -7866 0
0 0 0 711 27094 -7155 0
0 0 0 897 27991 -6258 0
0 0 0 917 28908 -5341 0
0 0 0 893 29801 -4448 0
0 0 0 821 30622 -3627 0
0 0 0 776 31398 -2851 0
0 0 0 727 32125 -2124 0
2 1 S102 737 32862 -1387 0
2 1 S102 804 33666 -583 0
2 2 S102 877 34543 294 0
2 2 S102 923 35466 1217 0
2 2 S102 852 36318 2069 0
2 2 S102 780 37098 2849 0
2 2 S102 734 37832 3583 0
2 2 S102 723 38555 4306 0
2 2 S102 781 39336 5087 0
2 2 S102 842 40178 5929 0
2 2 S102 894 41072 6823 0
0 0 0 898 41970 -8974 0
0 0 0 825 42795 -8149 0
0 0 0 786 43581 -7363 0
0 0 0 780 44361 -6583 0
0 0 0 765 45126 -5818 0
0 0 0 728 45854 -5090 0
0 0 0 711 46565 -4379 0
0 0 0 705 47270 -3674 0
0 0 0 760 48030 -2914 0
0 0 0 842 48872 -2072 0
3 1 S116 917 49789 -1155 0
3 1 S116 923 50712 -232 0
3 2 S116 856 51568 624 0
3 2 S116 792 52360 1416 0
3 2 S116 775 53135 2191 0
3 2 S116 801 53936 2992 0
3 2 S116 846 54782 3838 0
3 2 S116 878 55660 4716 0
3 2 S116 890 56550 5606 0
3 2 S116 824 57374 6430 0
0 0 0 765 58139 -12218 0
0 0 0 733 58872 -11485 0
0 0 0 771 59643 -10714 0
0 0 0 809 60452 -9905 0
0 0 0 823 61275 -9082 0
0 0 0 780 62055 -8302 0
0 0 0 821 62876 -7481 0
0 0 0 849 63725 -6632 0
0 0 0 870 64595 -5762 0
0 0 0 832 65427 -4930 0
0 0 0 765 66192 -4165 0
0 0 0 712 66904 -3453 0
0 0 0 695 67599 -2758 0
0 0 0 690 68289 -2068 0
4 1 S106 756 69045 -1312 0
4 1 S106 859 69904 -453 0
4 2 S106 929 70833 476 0
4 2 S106 924 71757 1400 0
4 2 S106 856 72613 2256 0
4 2 S106 776 73389 3032 0
4 2 S106 728 74117 3760 0
4 2 S106 734 74851 4494 0
4 2 S106 770 75621 5264 0
4 2 S106 815 76436 6079 0
4 2 S106 858 77294 6937 0
0 0 0 850 78144 -6984 0
0 0 0 808 78952 -6176 0
0 0 0 756 79708 -5420 0
0 0 0 760 80468 -4660 0
0 0 0 758 81226 -3902 0
0 0 0 802 82028 -3100 0
0 0 0 793 82821 -2307 0
5 1 S116 730 83551 -1577 0
5 1 S116 689 84240 -888 0
5 1 S116 674 84914 -214 0
5 2 S116 696 85610 482 0
5 2 S116 780 86390 1262 0
5 2 S116 920 87310 2182 0
5 2 S116 955 88265 3137 0
5 2 S116 953 89218 4090 0
5 2 S116 890 90108 4980 0
5 2 S116 797 90905 5777 0
5 2 S116 728 91633 6505 0
0 0 0 701 92334 -10003 0
0 0 0 694 93028 -9309 0
0 0 0 741 93769 -8568 0
0 0 0 806 94575 -7762 0
0 0 0 859 95434 -6903 0
0 0 0 784 96218 -6119 0
0 0 0 756 96974 -5363 0
0 0 0 764 97738 -4599 0
0 0 0 809 98547 -3790 0
0 0 0 843 99390 -2947 0
0 0 0 853 100243 -2094 0
6 1 S106 838 101081 -1256 0
6 1 S106 777 101858 -479 0
6 2 S106 717 102575 238 0
6 2 S106 690 103265 928 0
6 2 S106 679 103944 1607 0
6 2 S106 724 104668 2331 0
6 2 S106 790 105458 3121 0
6 2 S106 892 106350 4013 0
6 2 S106 935 107285 4948 0
6 2 S106 911 108196 5859 0
6 2 S106 883 109079 6742 0
0 0 0 814 109893 -11128 0
0 0 0 731 110624 -10397 0
0 0 0 709 111333 -9688 0
0 0 0 713 112046 -8975 0
0 0 0 704 112750 -8271 0
0 0 0 674 113424 -7597 0
0 0 0 690 114114 -6907 0
0 0 0 738 114852 -6169 0
0 0 0 793 115645 -5376 0
0 0 0 944 116589 -4432 0
0 0 0 1015 117604 -3417 0
0 0 0 983 118587 -2434 0
7 1 S102 937 119524 -1497 0
7 1 S102 828 120352 -669 0
7 2 S102 750 121102 81 0
7 2 S102 709 121811 790 0
7 2 S102 691 122502 1481 0
7 2 S102 704 123206 2185 0
7 2 S102 780 123986 2965 0
7 2 S102 825 124811 3790 0
7 2 S102 833 125644 4623 0
7 2 S102 791 126435 5414 0
7 2 S102 770 127205 6184 0
7 2 S102 780 127985 6964 0
0 0 0 780 128765 -8668 0
0 0 0 765 129530 -7903 0
0 0 0 700 130230 -7203 0
0 0 0 678 130908 -6525 0
0 0 0 707 131615 -5818 0
0 0 0 728 132343 -5090 0
0 0 0 755 133098 -4335 0
0 0 0 724 133822 -3611 0
0 0 0 782 134604 -2829 0
0 0 0 781 135385 -2048 0
8 1 S112 810 136195 -1238 0
8 1 S112 759 136954 -479 0
8 2 S112 735 137689 256 0
8 2 S112 722 138411 978 0
8 2 S112 762 139173 1740 0
8 2 S112 786 139959 2526 0
8 2 S112 819 140778 3345 0
8 2 S112 779 141557 4124 0
8 2 S112 750 142307 4874 0
8 2 S112 726 143033 5600 0
8 2 S112 717 143750 6317 0
0 0 0 750 144500 -7489 0
0 0 0 806 145306 -6683 0
0 0 0 841 146147 -5842 0
0 0 0 746 146893 -5096 0
0 0 0 717 147610 -4379 0
0 0 0 661 148271 -3718 0
0 0 0 669 148940 -3049 0
0 0 0 697 149637 -2352 0
9 1 S116 738 150375 -1614 0
9 1 S116 689 151064 -925 0
9 1 S116 661 151725 -264 0
9 2 S116 645 152370 381 0
9 2 S116 670 153040 1051 0
9 2 S116 704 153744 1755 0
9 2 S116 845 154589 2600 0
9 2 S116 940 155529 3540 0
9 2 S116 930 156459 4470 0
9 2 S116 862 157321 5332 0
9 2 S116 797 158118 6129 0
9 2 S116 762 158880 6891 0
0 0 0 746 159626 -12191 0
0 0 0 803 160429 -11388 0
0 0 0 845 161274 -10543 0
0 0 0 924 162198 -9619 0
0 0 0 866 163064 -8753 0
0 0 0 790 163854 -7963 0
0 0 0 792 164646 -7171 0
0 0 0 812 165458 -6359 0
0 0 0 843 166301 -5516 0
0 0 0 851 167152 -4665 0
0 0 0 793 167945 -3872 0
0 0 0 735 168680 -3137 0
0 0 0 701 169381 -2436 0
10 1 S102 679 170060 -1757 0
10 1 S102 671 170731 -1086 0
10 1 S102 766 171497 -320 0
10 2 S102 843 172340 523 0
10 2 S102 911 173251 1434 0
10 2 S102 917 174168 2351 0
10 2 S102 888 175056 3239 0
10 2 S102 853 175909 4092 0
10 2 S102 820 176729 4912 0
10 2 S102 783 177512 5695 0
10 2 S102 728 178240 6423 0
0 0 0 688 178928 -11937 0
0 0 0 663 179591 -11274 0
0 0 0 660 180251 -10614 0
0 0 0 750 181001 -9864 0
0 0 0 906 181907 -8958 0
0 0 0 909 182816 -8049 0
0 0 0 860 183676 -7189 0
0 0 0 907 184583 -6282 0
0 0 0 920 185503 -5362 0
0 0 0 918 186421 -4444 0
0 0 0 844 187265 -3600 0
0 0 0 776 188041 -2824 0
0 0 0 737 188778 -2087 0
11 1 S112 710 189488 -1377 0
11 1 S112 711 190199 -666 0
11 2 S112 777 190976 111 0
11 2 S112 852 191828 963 0
11 2 S112 906 192734 1869 0
11 2 S112 871 193605 2740 0
11 2 S112 807 194412 3547 0
11 2 S112 769 195181 4316 0
11 2 S112 771 195952 5087 0
11 2 S112 796 196748 5883 0
11 2 S112 800 197548 6683 0
0 0 0 787 198335 -8429 0
0 0 0 746 199081 -7683 0
0 0 0 740 199821 -6943 0
0 0 0 760 200581 -6183 0
0 0 0 803 201384 -5380 0
0 0 0 765 202149 -4615 0
0 0 0 750 202899 -3865 0
0 0 0 778 203677 -3087 0
0 0 0 788 204465 -2299 0
12 1 S116 820 205285 -1479 0
12 1 S116 773 206058 -706 0
12 2 S116 729 206787 23 0
12 2 S116 700 207487 723 0
12 2 S116 687 208174 1410 0
12 2 S116 699 208873 2109 0
12 2 S116 764 209637 2873 0
12 2 S116 877 210514 3750 0
12 2 S116 912 211426 4662 0
12 2 S116 915 212341 5577 0
12 2 S116 833 213174 6410 0
0 0 0 766 213940 -12304 0
0 0 0 721 214661 -11583 0
0 0 0 710 215371 -10873 0
0 0 0 763 216134 -10110 0
0 0 0 809 216943 -9301 0
0 0 0 770 217713 -8531 0
0 0 0 732 218445 -7799 0
0 0 0 715 219160 -7084 0
0 0 0 742 219902 -6342 0
0 0 0 776 220678 -5566 0
0 0 0 815 221493 -4751 0
0 0 0 818 222311 -3933 0
0 0 0 761 223072 -3172 0
0 0 0 717 223789 -2455 0
13 1 S112 696 224485 -1759 0
13 1 S112 702 225187 -1057 0
13 1 S112 756 225943 -301 0
13 2 S112 810 226753 509 0
13 2 S112 870 227623 1379 0
13 2 S112 845 228468 2224 0
13 2 S112 775 229243 2999 0
13 2 S112 731 229974 3730 0
13 2 S112 714 230688 4444 0
13 2 S112 726 231414 5170 0
13 2 S112 754 232168 5924 0
13 2 S112 797 232965 6721 0
0 0 0 765 233730 -12424 0
0 0 0 761 234491 -11663 0
0 0 0 825 235316 -10838 0
0 0 0 872 236188 -9966 0
0 0 0 829 237017 -9137 0
0 0 0 837 237854 -8300 0
0 0 0 841 238695 -7459 0
0 0 0 833 239528 -6626 0
0 0 0 756 240284 -5870 0
0 0 0 702 240986 -5168 0
0 0 0 667 241653 -4501 0
0 0 0 654 242307 -3847 0
0 0 0 683 242990 -3164 0
0 0 0 729 243719 -2435 0
14 1 S106 876 244595 -1559 0
14 1 S106 919 245514 -640 0
14 2 S106 936 246450 296 0
14 2 S106 865 247315 1161 0
14 2 S106 795 248110 1956 0
14 2 S106 765 248875 2721 0
14 2 S106 769 249644 3490 0
14 2 S106 794 250438 4284 0
14 2 S106 824 251262 5108 0
14 2 S106 838 252100 5946 0
14 2 S106 830 252930 6776 0
0 0 0 811 253741 -12108 0
0 0 0 738 254479 -11370 0
0 0 0 708 255187 -10662 0
0 0 0 719 255906 -9943 0
0 0 0 720 256626 -9223 0
0 0 0 741 257367 -8482 0
0 0 0 702 258069 -7780 0
0 0 0 711 258780 -7069 0
0 0 0 769 259549 -6300 0
0 0 0 838 260387 -5462 0
0 0 0 899 261286 -4563 0
0 0 0 844 262130 -3719 0
0 0 0 768 262898 -2951 0
0 0 0 722 263620 -2229 0
15 1 S116 712 264332 -1517 0
15 1 S116 733 265065 -784 0
15 2 S116 808 265873 24 0
15 2 S116 890 266763 914 0
15 2 S116 901 267664 1815 0
15 2 S116 870 268534 2685 0
15 2 S116 774 269308 3459 0
15 2 S116 715 270023 4174 0
15 2 S116 683 270706 4857 0
15 2 S116 679 271385 5536 0
15 2 S116 719 272104 6255 0
0 0 0 801 272905 -10517 0
0 0 0 911 273816 -9606 0
0 0 0 868 274684 -8738 0
0 0 0 795 275479 -7943 0
0 0 0 849 276328 -7094 0
0 0 0 850 277178 -6244 0
0 0 0 817 277995 -5427 0
0 0 0 748 278743 -4679 0
0 0 0 710 279453 -3969 0
0 0 0 696 280149 -3273 0
0 0 0 733 280882 -2540 0
16 1 S116 783 281665 -1757 0
16 1 S116 867 282532 -890 0
16 1 S116 833 283365 -57 0
16 2 S116 783 284148 726 0
16 2 S116 773 284921 1499 0
16 2 S116 811 285732 2310 0
16 2 S116 846 286578 3156 0
16 2 S116 895 287473 4051 0
16 2 S116 894 288367 4945 0
16 2 S116 801 289168 5746 0
16 2 S116 736 289904 6482 0
0 0 0 713 290617 -11058 0
0 0 0 714 291331 -10344 0
0 0 0 768 292099 -9576 0
0 0 0 852 292951 -8724 0
0 0 0 833 293784 -7891 0
0 0 0 861 294645 -7030 0
0 0 0 885 295530 -6145 0
0 0 0 908 296438 -5237 0
0 0 0 845 297283 -4392 0
0 0 0 779 298062 -3613 0
0 0 0 747 298809 -2866 0
0 0 0 746 299555 -2120 0
17 1 S106 788 300343 -1332 0
17 1 S106 826 301169 -506 0
17 2 S106 857 302026 351 0
17 2 S106 806 302832 1157 0
17 2 S106 760 303592 1917 0
17 2 S106 739 304331 2656 0
17 2 S106 742 305073 3398 0
17 2 S106 795 305868 4193 0
17 2 S106 876 306744 5069 0
17 2 S106 908 307652 5977 0
17 2 S106 867 308519 6844 0
0 0 0 794 309313 -10615 0
0 0 0 791 310104 -9824 0
0 0 0 781 310885 -9043 0
0 0 0 778 311663 -8265 0
0 0 0 743 312406 -7522 0
0 0 0 707 313113 -6815 0
0 0 0 692 313805 -6123 0
0 0 0 719 314524 -5404 0
0 0 0 764 315288 -4640 0
0 0 0 853 316141 -3787 0
0 0 0 852 316993 -2935 0
0 0 0 798 317791 -2137 0
18 1 S102 768 318559 -1369 0
18 1 S102 745 319304 -624 0
18 2 S102 772 320076 148 0
18 2 S102 800 320876 948 0
18 2 S102 832 321708 1780 0
18 2 S102 787 322495 2567 0
18 2 S102 748 323243 3315 0
18 2 S102 708 323951 4023 0
18 2 S102 701 324652 4724 0
18 2 S102 740 325392 5464 0
18 2 S102 806 326198 6270 0
0 0 0 865 327063 -8747 0
0 0 0 824 327887 -7923 0
0 0 0 771 328658 -7152 0
0 0 0 807 329465 -6345 0
0 0 0 810 330275 -5535 0
0 0 0 769 331044 -4766 0
0 0 0 721 331765 -4045 0
0 0 0 725 332490 -3320 0
0 0 0 743 333233 -2577 0
19 1 S106 763 333996 -1814 0
19 1 S106 753 334749 -1061 0
19 1 S106 720 335469 -341 0
19 2 S106 732 336201 391 0
19 2 S106 759 336960 1150 0
19 2 S106 804 337764 1954 0
19 2 S106 865 338629 2819 0
19 2 S106 814 339443 3633 0
19 2 S106 765 340208 4398 0
19 2 S106 742 340950 5140 0
19 2 S106 755 341705 5895 0
19 2 S106 775 342480 6670 0
0 0 0 807 343287 -11373 0
0 0 0 839 344126 -10534 0
0 0 0 780 344906 -9754 0
0 0 0 750 345656 -9004 0
0 0 0 757 346413 -8247 0
0 0 0 801 347214 -7446 0
0 0 0 832 348046 -6614 0
0 0 0 823 348869 -5791 0
0 0 0 759 349628 -5032 0
0 0 0 710 350338 -4322 0
0 0 0 685 351023 -3637 0
0 0 0 680 351703 -2957 0
0 0 0 728 352431 -2229 0
20 1 S112 805 353236 -1424 0
20 1 S112 903 354139 -521 0
20 2 S112 908 355047 387 0
20 2 S112 856 355903 1243 0
20 2 S112 779 356682 2022 0
20 2 S112 744 357426 2766 0
20 2 S112 745 358171 3511 0
20 2 S112 793 358964 4304 0
20 2 S112 825 359789 5129 0
20 2 S112 849 360638 5978 0
20 2 S112 822 361460 6800 0
0 0 0 761 362221 -10343 0
0 0 0 707 362928 -9636 0
0 0 0 671 363599 -8965 0
0 0 0 662 364261 -8303 0
0 0 0 698 364959 -7605 0
0 0 0 798 365757 -6807 0
0 0 0 815 366572 -5992 0
0 0 0 760 367332 -5232 0
0 0 0 750 368082 -4482 0
0 0 0 795 368877 -3687 0
0 0 0 854 369731 -2833 0
21 1 S106 872 370603 -1961 0
21 1 S106 808 371411 -1153 0
21 1 S106 768 372179 -385 0
21 2 S106 754 372933 369 0
21 2 S106 788 373721 1157 0
21 2 S106 835 374556 1992 0
21 2 S106 871 375427 2863 0
21 2 S106 868 376295 3731 0
21 2 S106 809 377104 4540 0
21 2 S106 747 377851 5287 0
21 2 S106 719 378570 6006 0
21 2 S106 711 379281 6717 0
0 0 0 745 380026 -11902 0
0 0 0 834 380860 -11068 0
0 0 0 932 381792 -10136 0
0 0 0 870 382662 -9266 0
0 0 0 873 383535 -8393 0
0 0 0 880 384415 -7513 0
0 0 0 860 385275 -6653 0
0 0 0 791 386066 -5862 0
0 0 0 744 386810 -5118 0
0 0 0 728 387538 -4390 0
0 0 0 745 388283 -3645 0
0 0 0 787 389070 -2858 0
0 0 0 829 389899 -2029 0
22 1 S116 860 390759 -1169 0
22 1 S116 820 391579 -349 0
22 2 S116 759 392338 410 0
22 2 S116 738 393076 1148 0
22 2 S116 744 393820 1892 0
22 2 S116 777 394597 2669 0
22 2 S116 840 395437 3509 0
22 2 S116 880 396317 4389 0
22 2 S116 906 397223 5295 0
22 2 S116 824 398047 6119 0
22 2 S116 778 398825 6897 0
0 0 0 746 399571 -8969 0
0 0 0 747 400318 -8222 0
0 0 0 713 401031 -7509 0
0 0 0 666 401697 -6843 0
0 0 0 658 402355 -6185 0
0 0 0 698 403053 -5487 0
0 0 0 767 403820 -4720 0
0 0 0 945 404765 -3775 0
0 0 0 963 405728 -2812 0
23 1 S112 887 406615 -1925 0
23 1 S112 811 407426 -1114 0
23 1 S112 793 408219 -321 0
23 2 S112 810 409029 489 0
23 2 S112 835 409864 1324 0
23 2 S112 838 410702 2162 0
23 2 S112 773 411475 2935 0
23 2 S112 728 412203 3663 0
23 2 S112 718 412921 4381 0
23 2 S112 739 413660 5120 0
23 2 S112 814 414474 5934 0
23 2 S112 875 415349 6809 0
0 0 0 848 416197 -9684 0
0 0 0 789 416986 -8895 0
0 0 0 832 417818 -8063 0
0 0 0 851 418669 -7212 0
0 0 0 793 419462 -6419 0
0 0 0 752 420214 -5667 0
0 0 0 780 420994 -4887 0
0 0 0 778 421772 -4109 0
0 0 0 799 422571 -3310 0
0 0 0 759 423330 -2551 0
24 1 S106 730 424060 -1821 0
24 1 S106 711 424771 -1110 0
24 1 S106 721 425492 -389 0
24 2 S106 785 426277 396 0
24 2 S106 878 427155 1274 0
24 2 S106 945 428100 2219 0
24 2 S106 930 429030 3149 0
24 2 S106 840 429870 3989 0
24 2 S106 781 430651 4770 0
24 2 S106 749 431400 5519 0
24 2 S106 775 432175 6294 0
0 0 0 813 432988 -10515 0
0 0 0 882 433870 -9633 0
0 0 0 830 434700 -8803 0
0 0 0 775 435475 -8028 0
0 0 0 798 436273 -7230 0
0 0 0 803 437076 -6427 0
0 0 0 820 437896 -5607 0
0 0 0 768 438664 -4839 0
0 0 0 727 439391 -4112 0
0 0 0 702 440093 -3410 0
0 0 0 684 440777 -2726 0
25 1 S102 727 441504 -1999 0
25 1 S102 831 442335 -1168 0
25 1 S102 916 443251 -252 0
25 2 S102 961 444212 709 0
25 2 S102 958 445170 1667 0
25 2 S102 928 446098 2595 0
25 2 S102 906 447004 3501 0
25 2 S102 806 447810 4307 0
25 2 S102 749 448559 5056 0
25 2 S102 717 449276 5773 0
25 2 S102 702 449978 6475 0
0 0 0 743 450721 -8200 0
0 0 0 833 451554 -7367 0
0 0 0 974 452528 -6393 0
0 0 0 1015 453543 -5378 0
0 0 0 921 454464 -4457 0
0 0 0 863 455327 -3594 0
0 0 0 863 456190 -2731 0
26 1 S116 855 457045 -1876 0
26 1 S116 858 457903 -1018 0
26 1 S116 849 458752 -169 0
26 2 S116 799 459551 630 0
26 2 S116 737 460288 1367 0
26 2 S116 704 460992 2071 0
26 2 S116 694 461686 2765 0
26 2 S116 736 462422 3501 0
26 2 S116 847 463269 4348 0
26 2 S116 961 464230 5309 0
26 2 S116 999 465229 6308 0
0 0 0 971 466200 -7874 0
0 0 0 884 467084 -6990 0
0 0 0 831 467915 -6159 0
0 0 0 835 468750 -5324 0
0 0 0 837 469587 -4487 0
0 0 0 812 470399 -3675 0
0 0 0 768 471167 -2907 0
0 0 0 728 471895 -2179 0
27 1 S106 720 472615 -1459 0
27 1 S106 742 473357 -717 0
27 2 S106 756 474113 39 0
27 2 S106 804 474917 843 0
27 2 S106 808 475725 1651 0
27 2 S106 764 476489 2415 0
27 2 S106 713 477202 3128 0
27 2 S106 709 477911 3837 0
27 2 S106 734 478645 4571 0
27 2 S106 783 479428 5354 0
27 2 S106 875 480303 6229 0
0 0 0 923 481226 -8631 0
0 0 0 883 482109 -7748 0
0 0 0 792 482901 -6956 0
0 0 0 747 483648 -6209 0
0 0 0 763 484411 -5446 0
0 0 0 769 485180 -4677 0
0 0 0 759 485939 -3918 0
0 0 0 716 486655 -3202 0
0 0 0 735 487390 -2467 0
28 1 S102 740 488130 -1727 0
28 1 S102 754 488884 -973 0
28 1 S102 712 489596 -261 0
28 2 S102 692 490288 431 0
28 2 S102 708 490996 1139 0
28 2 S102 731 491727 1870 0
28 2 S102 820 492547 2690 0
28 2 S102 890 493437 3580 0
28 2 S102 880 494317 4460 0
28 2 S102 811 495128 5271 0
28 2 S102 789 495917 6060 0
28 2 S102 799 496716 6859 0
0 0 0 811 497527 -10400 0
0 0 0 819 498346 -9581 0
0 0 0 764 499110 -8817 0
0 0 0 745 499855 -8072 0
0 0 0 748 500603 -7324 0
0 0 0 751 501354 -6573 0
0 0 0 752 502106 -5821 0
0 0 0 727 502833 -5094 0
0 0 0 739 503572 -4355 0
0 0 0 756 504328 -3599 0
0 0 0 814 505142 -2785 0
29 1 S112 842 505984 -1943 0
29 1 S112 788 506772 -1155 0
29 1 S112 746 507518 -409 0
29 2 S112 715 508233 306 0
29 2 S112 735 508968 1041 0
29 2 S112 768 509736 1809 0
29 2 S112 817 510553 2626 0
29 2 S112 834 511387 3460 0
29 2 S112 774 512161 4234 0
29 2 S112 739 512900 4973 0
29 2 S112 715 513615 5688 0
29 2 S112 739 514354 6427 0
0 0 0 758 515112 -8283 0
0 0 0 794 515906 -7489 0
0 0 0 755 516661 -6734 0
0 0 0 732 517393 -6002 0
0 0 0 753 518146 -5249 0
0 0 0 747 518893 -4502 0
0 0 0 756 519649 -3746 0
0 0 0 730 520379 -3016 0
0 0 0 715 521094 -2301 0
30 1 S112 741 521835 -1560 0
30 1 S112 751 522586 -809 0
30 1 S112 776 523362 -33 0
30 2 S112 744 524106 711 0
30 2 S112 732 524838 1443 0
30 2 S112 746 525584 2189 0
30 2 S112 774 526358 2963 0
30 2 S112 819 527177 3782 0
30 2 S112 783 527960 4565 0
30 2 S112 758 528718 5323 0
30 2 S112 757 529475 6080 0
30 2 S112 788 530263 6868 0
0 0 0 812 531075 -9329 0
0 0 0 802 531877 -8527 0
0 0 0 756 532633 -7771 0
0 0 0 786 533419 -6985 0
0 0 0 780 534199 -6205 0
0 0 0 765 534964 -5440 0
0 0 0 721 535685 -4719 0
0 0 0 754 536439 -3965 0
0 0 0 761 537200 -3204 0
0 0 0 797 537997 -2407 0
31 1 S106 755 538752 -1652 0
31 1 S106 738 539490 -914 0
31 1 S106 718 540208 -196 0
31 2 S106 747 540955 551 0
31 2 S106 804 541759 1355 0
31 2 S106 905 542664 2260 0
31 2 S106 899 543563 3159 0
31 2 S106 831 544394 3990 0
31 2 S106 776 545170 4766 0
31 2 S106 749 545919 5515 0
31 2 S106 740 546659 6255 0
31 2 S106 765 547424 7020 0
0 0 0 794 548218 -9461 0
0 0 0 810 549028 -8651 0
0 0 0 752 549780 -7899 0
0 0 0 730 550510 -7169 0
0 0 0 741 551251 -6428 0
0 0 0 750 552001 -5678 0
0 0 0 775 552776 -4903 0
0 0 0 736 553512 -4167 0
0 0 0 713 554225 -3454 0
0 0 0 699 554924 -2755 0
0 0 0 734 555658 -2021 0
32 1 S102 772 556430 -1249 0
32 1 S102 845 557275 -404 0
32 2 S102 872 558147 468 0
32 2 S102 810 558957 1278 0
32 2 S102 751 559708 2029 0
32 2 S102 716 560424 2745 0
32 2 S102 728 561152 3473 0
32 2 S102 743 561895 4216 0
32 2 S102 783 562678 4999 0
32 2 S102 826 563504 5825 0
32 2 S102 775 564279 6600 0
0 0 0 741 565020 -10431 0
0 0 0 730 565750 -9701 0
0 0 0 784 566534 -8917 0
0 0 0 803 567337 -8114 0
0 0 0 800 568137 -7314 0
0 0 0 750 568887 -6564 0
0 0 0 762 569649 -5802 0
0 0 0 789 570438 -5013 0
0 0 0 817 571255 -4196 0
0 0 0 793 572048 -3403 0
0 0 0 742 572790 -2661 0
33 1 S112 708 573498 -1953 0
33 1 S112 704 574202 -1249 0
33 1 S112 736 574938 -513 0
33 2 S112 772 575710 259 0
33 2 S112 831 576541 1090 0
33 2 S112 800 577341 1890 0
33 2 S112 753 578094 2643 0
33 2 S112 744 578838 3387 0
33 2 S112 748 579586 4135 0
33 2 S112 796 580382 4931 0
33 2 S112 799 581181 5730 0
33 2 S112 771 581952 6501 0
0 0 0 735 582687 -11017 0
0 0 0 747 583434 -10270 0
0 0 0 765 584199 -9505 0
0 0 0 740 584939 -8765 0
0 0 0 708 585647 -8057 0
0 0 0 725 586372 -7332 0
0 0 0 755 587127 -6577 0
0 0 0 798 587925 -5779 0
0 0 0 813 588738 -4966 0
0 0 0 756 589494 -4210 0
0 0 0 724 590218 -3486 0
0 0 0 723 590941 -2763 0
0 0 0 748 591689 -2015 0
34 1 S106 779 592468 -1236 0
34 1 S106 838 593306 -398 0
34 2 S106 799 594105 401 0
34 2 S106 758 594863 1159 0
34 2 S106 734 595597 1893 0
34 2 S106 743 596340 2636 0
34 2 S106 790 597130 3426 0
34 2 S106 868 597998 4294 0
34 2 S106 882 598880 5176 0
34 2 S106 871 599751 6047 0
34 2 S106 810 600561 6857 0
0 0 0 775 601336 -9543 0
0 0 0 779 602115 -8764 0
0 0 0 795 602910 -7969 0
0 0 0 828 603738 -7141 0
0 0 0 780 604518 -6361 0
0 0 0 737 605255 -5624 0
0 0 0 720 605975 -4904 0
0 0 0 751 606726 -4153 0
0 0 0 788 607514 -3365 0
0 0 0 862 608376 -2503 0
35 1 S102 873 609249 -1630 0
35 1 S102 781 610030 -849 0
35 1 S102 733 610763 -116 0
35 2 S102 733 611496 617 0
35 2 S102 756 612252 1373 0
35 2 S102 775 613027 2148 0
35 2 S102 753 613780 2901 0
35 2 S102 731 614511 3632 0
35 2 S102 745 615256 4377 0
35 2 S102 783 616039 5160 0
35 2 S102 863 616902 6023 0
35 2 S102 908 617810 6931 0
0 0 0 846 618656 -7293 0
0 0 0 777 619433 -6516 0
0 0 0 784 620217 -5732 0
0 0 0 780 620997 -4952 0
0 0 0 771 621768 -4181 0
0 0 0 722 622490 -3459 0
0 0 0 721 623211 -2738 0
36 1 S106 742 623953 -1996 0
36 1 S106 764 624717 -1232 0
36 1 S106 762 625479 -470 0
36 2 S106 759 626238 289 0
36 2 S106 787 627025 1076 0
36 2 S106 846 627871 1922 0
36 2 S106 882 628753 2804 0
36 2 S106 845 629598 3649 0
36 2 S106 804 630402 4453 0
36 2 S106 784 631186 5237 0
36 2 S106 797 631983 6034 0
36 2 S106 857 632840 6891 0
0 0 0 903 633743 -9762 0
0 0 0 842 634585 -8920 0
0 0 0 784 635369 -8136 0
0 0 0 806 636175 -7330 0
0 0 0 803 636978 -6527 0
0 0 0 770 637748 -5757 0
0 0 0 724 638472 -5033 0
0 0 0 744 639216 -4289 0
0 0 0 740 639956 -3549 0
0 0 0 772 640728 -2777 0
0 0 0 734 641462 -2043 0
37 1 S116 725 642187 -1318 0
37 1 S116 722 642909 -596 0
37 2 S116 770 643679 174 0
37 2 S116 826 644505 1000 0
37 2 S116 897 645402 1897 0
37 2 S116 881 646283 2778 0
37 2 S116 801 647084 3579 0
37 2 S116 751 647835 4330 0
37 2 S116 719 648554 5049 0
37 2 S116 719 649273 5768 0
37 2 S116 762 650035 6530 0
0 0 0 838 650873 -11780 0
0 0 0 889 651762 -10891 0
0 0 0 834 652596 -10057 0
0 0 0 786 653382 -9271 0
0 0 0 792 654174 -8479 0
0 0 0 769 654943 -7710 0
0 0 0 753 655696 -6957 0
0 0 0 718 656414 -6239 0
0 0 0 730 657144 -5509 0
0 0 0 734 657878 -4775 0
0 0 0 773 658651 -4002 0
0 0 0 847 659498 -3155 0
0 0 0 798 660296 -2357 0
38 1 S102 764 661060 -1593 0
38 1 S102 773 661833 -820 0
38 1 S102 809 662642 -11 0
38 2 S102 858 663500 847 0
38 2 S102 834 664334 1681 0
38 2 S102 787 665121 2468 0
38 2 S102 796 665917 3264 0
38 2 S102 831 666748 4095 0
38 2 S102 868 667616 4963 0
38 2 S102 857 668473 5820 0
38 2 S102 792 669265 6612 0
0 0 0 758 670023 -9656 0
0 0 0 742 670765 -8914 0
0 0 0 780 671545 -8134 0
0 0 0 845 672390 -7289 0
0 0 0 824 673214 -6465 0
0 0 0 835 674049 -5630 0
0 0 0 868 674917 -4762 0
0 0 0 863 675780 -3899 0
0 0 0 781 676561 -3118 0
0 0 0 743 677304 -2375 0
39 1 S116 751 678055 -1624 0
39 1 S116 741 678796 -883 0
39 1 S116 721 679517 -162 0
39 2 S116 691 680208 529 0
39 2 S116 686 680894 1215 0
39 2 S116 710 681604 1925 0
39 2 S116 741 682345 2666 0
39 2 S116 843 683188 3509 0
39 2 S116 913 684101 4422 0
39 2 S116 914 685015 5336 0
39 2 S116 852 685867 6188 0
39 2 S116 795 686662 6983 0
0 0 0 757 687419 -6650 0
0 0 0 780 688199 -5870 0
0 0 0 760 688959 -5110 0
0 0 0 717 689676 -4393 0
0 0 0 700 690376 -3693 0
0 0 0 730 691106 -2963 0
0 0 0 758 691864 -2205 0
40 1 S112 818 692682 -1387 0
40 1 S112 801 693483 -586 0
40 2 S112 760 694243 174 0
40 2 S112 734 694977 908 0
40 2 S112 762 695739 1670 0
40 2 S112 806 696545 2476 0
40 2 S112 834 697379 3310 0
40 2 S112 835 698214 4145 0
40 2 S112 774 698988 4919 0
40 2 S112 725 699713 5644 0
40 2 S112 707 700420 6351 0
0 0 0 732 701152 -188575 0
0 0 0 777 701929 -187798 0
0 0 0 874 702803 -186924 0
0 0 0 829 703632 -186095 0
0 0 0 843 704475 -185252 0
0 0 0 882 705357 -184370 0
0 0 0 870 706227 -183500 0
0 0 0 771 706998 -182729 0
0 0 0 716 707714 -182013 0
0 0 0 671 708385 -181342 0
0 0 0 704 709089 -180638 0
0 0 0 724 709813 -179914 0
0 0 0 754 710567 -179160 0
0 0 0 752 711319 -178408 0
0 0 0 777 712096 -177631 0
0 0 0 789 712885 -176842 0
0 0 0 719 713604 -176123 0
0 0 0 739 714343 -175384 0
0 0 0 709 715052 -174675 0
0 0 0 662 715714 -174013 0
0 0 0 676 716390 -173337 0
0 0 0 624 717014 -172713 0
0 0 0 621 717635 -172092 0
0 0 0 611 718246 -171481 0
0 0 0 626 718872 -170855 0
0 0 0 605 719477 -170250 0
0 0 0 599 720076 -169651 0
0 0 0 599 720675 -169052 0
0 0 0 582 721257 -168470 0
0 0 0 584 721841 -167886 0
0 0 0 585 722426 -167301 0
0 0 0 583 723009 -166718 0
0 0 0 581 723590 -166137 0
0 0 0 574 724164 -165563 1
0 0 0 569 724733 -164994 1
0 0 0 569 725302 -164425 1
0 0 0 557 725859 -163868 1
0 0 0 556 726415 -163312 1
0 0 0 566 726981 -162746 1
0 0 0 584 727565 -162162 0
0 0 0 586 728151 -161576 0
0 0 0 592 728743 -160984 0
0 0 0 597 729340 -160387 0
0 0 0 602 729942 -159785 0
0 0 0 620 730562 -159165 0
0 0 0 667 731229 -158498 0
0 0 0 744 731973 -157754 0
0 0 0 833 732806 -156921 0
0 0 0 795 733601 -156126 0
0 0 0 692 734293 -155434 0
0 0 0 698 734991 -154736 0
0 0 0 658 735649 -154078 0
0 0 0 678 736327 -153400 0
0 0 0 647 736974 -152753 0
0 0 0 655 737629 -152098 0
0 0 0 645 738274 -151453 0
0 0 0 646 738920 -150807 0
0 0 0 674 739594 -150133 0
0 0 0 697 740291 -149436 0
0 0 0 695 740986 -148741 0
0 0 0 655 741641 -148086 0
0 0 0 662 742303 -147424 0
0 0 0 717 743020 -146707 0
0 0 0 702 743722 -146005 0
0 0 0 718 744440 -145287 0
0 0 0 692 745132 -144595 0
0 0 0 710 745842 -143885 0
0 0 0 706 746548 -143179 0
0 0 0 710 747258 -142469 0
0 0 0 655 747913 -141814 0
0 0 0 650 748563 -141164 0
0 0 0 677 749240 -140487 0
0 0 0 659 749899 -139828 0
0 0 0 665 750564 -139163 0
0 0 0 714 751278 -138449 0
0 0 0 679 751957 -137770 0
0 0 0 673 752630 -137097 0
0 0 0 684 753314 -136413 0
0 0 0 719 754033 -135694 0
0 0 0 783 754816 -134911 0
0 0 0 741 755557 -134170 0
0 0 0 764 756321 -133406 0
0 0 0 784 757105 -132622 0
0 0 0 801 757906 -131821 0
0 0 0 754 758660 -131067 0
0 0 0 689 759349 -130378 0
0 0 0 733 760082 -129645 0
0 0 0 756 760838 -128889 0
0 0 0 728 761566 -128161 0
0 0 0 747 762313 -127414 0
0 0 0 737 763050 -126677 0
0 0 0 718 763768 -125959 0
0 0 0 695 764463 -125264 0
0 0 0 691 765154 -124573 0
0 0 0 670 765824 -123903 0
0 0 0 663 766487 -123240 0
0 0 0 747 767234 -122493 0
0 0 0 749 767983 -121744 0
0 0 0 691 768674 -121053 0
0 0 0 664 769338 -120389 0
0 0 0 690 770028 -119699 0
0 0 0 710 770738 -118989 0
0 0 0 713 771451 -118276 0
0 0 0 696 772147 -117580 0
0 0 0 706 772853 -116874 0
0 0 0 695 773548 -116179 0
0 0 0 663 774211 -115516 0
0 0 0 647 774858 -114869 0
0 0 0 621 775479 -114248 0
0 0 0 633 776112 -113615 0
0 0 0 661 776773 -112954 0
0 0 0 632 777405 -112322 0
0 0 0 626 778031 -111696 0
0 0 0 631 778662 -111065 0
0 0 0 647 779309 -110418 0
0 0 0 683 779992 -109735 0
0 0 0 756 780748 -108979 0
0 0 0 723 781471 -108256 0
0 0 0 708 782179 -107548 0
0 0 0 701 782880 -106847 0
0 0 0 687 783567 -106160 0
0 0 0 626 784193 -105534 0
0 0 0 656 784849 -104878 0
0 0 0 634 785483 -104244 0
0 0 0 624 786107 -103620 0
0 0 0 600 786707 -103020 0
0 0 0 614 787321 -102406 0
0 0 0 596 787917 -101810 0
0 0 0 592 788509 -101218 0
0 0 0 598 789107 -100620 0
0 0 0 606 789713 -100014 0
0 0 0 613 790326 -99401 0
0 0 0 614 790940 -98787 0
0 0 0 643 791583 -98144 0
0 0 0 696 792279 -97448 0
0 0 0 783 793062 -96665 0
0 0 0 862 793924 -95803 0
0 0 0 813 794737 -94990 0
0 0 0 842 795579 -94148 0
0 0 0 811 796390 -93337 0
0 0 0 746 797136 -92591 0
0 0 0 707 797843 -91884 0
0 0 0 722 798565 -91162 0
0 0 0 779 799344 -90383 0
0 0 0 827 800171 -89556 0
0 0 0 945 801116 -88611 0
0 0 0 916 802032 -87695 0
0 0 0 810 802842 -86885 0
0 0 0 768 803610 -86117 0
0 0 0 725 804335 -85392 0
0 0 0 691 805026 -84701 0
0 0 0 696 805722 -84005 0
0 0 0 684 806406 -83321 0
0 0 0 673 807079 -82648 0
0 0 0 652 807731 -81996 0
0 0 0 677 808408 -81319 0
0 0 0 658 809066 -80661 0
0 0 0 643 809709 -80018 0
0 0 0 688 810397 -79330 0
0 0 0 671 811068 -78659 0
0 0 0 721 811789 -77938 0
0 0 0 730 812519 -77208 0
0 0 0 692 813211 -76516 0
0 0 0 677 813888 -75839 0
0 0 0 669 814557 -75170 0
0 0 0 688 815245 -74482 0
0 0 0 667 815912 -73815 0
0 0 0 649 816561 -73166 0
0 0 0 667 817228 -72499 0
0 0 0 636 817864 -71863 0
0 0 0 686 818550 -71177 0
0 0 0 726 819276 -70451 0
0 0 0 758 820034 -69693 0
0 0 0 771 820805 -68922 0
0 0 0 774 821579 -68148 0
0 0 0 766 822345 -67382 0
0 0 0 731 823076 -66651 0
0 0 0 703 823779 -65948 0
0 0 0 675 824454 -65273 0
0 0 0 648 825102 -64625 0
0 0 0 644 825746 -63981 0
0 0 0 637 826383 -63344 0
0 0 0 658 827041 -62686 0
0 0 0 635 827676 -62051 0
0 0 0 675 828351 -61376 0
0 0 0 726 829077 -60650 0
0 0 0 751 829828 -59899 0
0 0 0 817 830645 -59082 0
0 0 0 871 831516 -58211 0
0 0 0 860 832376 -57351 0
0 0 0 828 833204 -56523 0
0 0 0 845 834049 -55678 0
0 0 0 845 834894 -54833 0
0 0 0 824 835718 -54009 0
0 0 0 803 836521 -53206 0
0 0 0 757 837278 -52449 0
0 0 0 750 838028 -51699 0
0 0 0 736 838764 -50963 0
0 0 0 749 839513 -50214 0
0 0 0 736 840249 -49478 0
0 0 0 776 841025 -48702 0
0 0 0 807 841832 -47895 0
0 0 0 860 842692 -47035 0
0 0 0 894 843586 -46141 0
0 0 0 892 844478 -45249 0
0 0 0 886 845364 -44363 0
0 0 0 874 846238 -43489 0
0 0 0 867 847105 -42622 0
0 0 0 848 847953 -41774 0
0 0 0 843 848796 -40931 0
0 0 0 811 849607 -40120 0
0 0 0 792 850399 -39328 0
0 0 0 791 851190 -38537 0
0 0 0 798 851988 -37739 0
0 0 0 775 852763 -36964 0
0 0 0 826 853589 -36138 0
0 0 0 842 854431 -35296 0
0 0 0 829 855260 -34467 0
0 0 0 783 856043 -33684 0
0 0 0 800 856843 -32884 0
0 0 0 731 857574 -32153 0
0 0 0 704 858278 -31449 0
0 0 0 675 858953 -30774 0
0 0 0 648 859601 -30126 0
0 0 0 669 860270 -29457 0
0 0 0 656 860926 -28801 0
0 0 0 658 861584 -28143 0
0 0 0 1386 862970 -26757 1
0 0 0 763 863733 -25994 0
0 0 0 845 864578 -25149 0
0 0 0 834 865412 -24315 0
0 0 0 812 866224 -23503 0
0 0 0 803 867027 -22700 0
0 0 0 845 867872 -21855 0
0 0 0 828 868700 -21027 0
0 0 0 773 869473 -20254 0
0 0 0 718 870191 -19536 0
0 0 0 690 870881 -18846 0
0 0 0 674 871555 -18172 0
0 0 0 629 872184 -17543 0
0 0 0 603 872787 -16940 0
0 0 0 587 873374 -16353 0
0 0 0 578 873952 -15775 1
0 0 0 574 874526 -15201 1
0 0 0 574 875100 -14627 1
0 0 0 633 875733 -13994 0
0 0 0 619 876352 -13375 0
0 0 0 619 876971 -12756 0
0 0 0 614 877585 -12142 0
0 0 0 623 878208 -11519 0
0 0 0 668 878876 -10851 0
0 0 0 750 879626 -10101 0
0 0 0 747 880373 -9354 0
0 0 0 784 881157 -8570 0
0 0 0 808 881965 -7762 0
0 0 0 841 882806 -6921 0
0 0 0 787 883593 -6134 0
0 0 0 771 884364 -5363 0
0 0 0 867 885231 -4496 0
0 0 0 881 886112 -3615 0
0 0 0 820 886932 -2795 0
0 0 0 788 887720 -2007 0
41 1 S102 715 888435 -1292 0
41 1 S102 682 889117 -610 0
41 2 S102 664 889781 54 0
41 2 S102 679 890460 733 0
41 2 S102 699 891159 1432 0
41 2 S102 760 891919 2192 0
41 2 S102 740 892659 2932 0
41 2 S102 688 893347 3620 0
41 2 S102 703 894050 4323 0
41 2 S102 748 894798 5071 0
41 2 S102 768 895566 5839 0
41 2 S102 837 896403 6676 0
0 0 0 968 897371 -6315 0
0 0 0 979 898350 -5336 0
0 0 0 954 899304 -4382 0
0 0 0 871 900175 -3511 0
0 0 0 798 900973 -2713 0
42 1 S112 737 901710 -1976 0
42 1 S112 746 902456 -1230 0
42 1 S112 739 903195 -491 0
42 2 S112 756 903951 265 0
42 2 S112 768 904719 1033 0
42 2 S112 744 905463 1777 0
42 2 S112 717 906180 2494 0
42 2 S112 702 906882 3196 0
42 2 S112 697 907579 3893 0
42 2 S112 740 908319 4633 0
42 2 S112 864 909183 5497 0
42 2 S112 979 910162 6476 0
0 0 0 987 911149 -8950 0
0 0 0 946 912095 -8004 0
0 0 0 868 912963 -7136 0
0 0 0 831 913794 -6305 0
0 0 0 796 914590 -5509 0
0 0 0 748 915338 -4761 0
0 0 0 737 916075 -4024 0
0 0 0 763 916838 -3261 0
0 0 0 764 917602 -2497 0
43 1 S116 749 918351 -1748 0
43 1 S116 744 919095 -1004 0
43 1 S116 719 919814 -285 0
43 2 S116 727 920541 442 0
43 2 S116 814 921355 1256 0
43 2 S116 938 922293 2194 0
43 2 S116 987 923280 3181 0
43 2 S116 973 924253 4154 0
43 2 S116 916 925169 5070 0
43 2 S116 834 926003 5904 0
43 2 S116 790 926793 6694 0
0 0 0 751 927544 -7592 0
0 0 0 773 928317 -6819 0
0 0 0 791 929108 -6028 0
0 0 0 838 929946 -5190 0
0 0 0 814 930760 -4376 0
0 0 0 775 931535 -3601 0
0 0 0 812 932347 -2789 0
44 1 S102 848 933195 -1941 0
44 1 S102 885 934080 -1056 0
44 1 S102 823 934903 -233 0
44 2 S102 793 935696 560 0
44 2 S102 850 936546 1410 0
44 2 S102 888 937434 2298 0
44 2 S102 881 938315 3179 0
44 2 S102 822 939137 4001 0
44 2 S102 797 939934 4798 0
44 2 S102 792 940726 5590 0
44 2 S102 822 941548 6412 0
0 0 0 907 942455 -8745 0
0 0 0 953 943408 -7792 0
0 0 0 861 944269 -6931 0
0 0 0 772 945041 -6159 0
0 0 0 750 945791 -5409 0
0 0 0 689 946480 -4720 0
0 0 0 688 947168 -4032 0
0 0 0 688 947856 -3344 0
0 0 0 661 948517 -2683 0
45 1 S116 726 949243 -1957 0
45 1 S116 741 949984 -1216 0
45 1 S116 772 950756 -444 0
45 2 S116 736 951492 292 0
45 2 S116 700 952192 992 0
45 2 S116 684 952876 1676 0
45 2 S116 692 953568 2368 0
45 2 S116 692 954260 3060 0
45 2 S116 775 955035 3835 0
45 2 S116 954 955989 4789 0
45 2 S116 988 956977 5777 0
45 2 S116 956 957933 6733 0
0 0 0 872 958805 -11593 0
0 0 0 808 959613 -10785 0
0 0 0 801 960414 -9984 0
0 0 0 806 961220 -9178 0
0 0 0 844 962064 -8334 0
0 0 0 819 962883 -7515 0
0 0 0 793 963676 -6722 0
0 0 0 793 964469 -5929 0
0 0 0 786 965255 -5143 0
0 0 0 738 965993 -4405 0
0 0 0 780 966773 -3625 0
0 0 0 804 967577 -2821 0
46 1 S102 867 968444 -1954 0
46 1 S102 816 969260 -1138 0
46 1 S102 774 970034 -364 0
46 2 S102 749 970783 385 0
46 2 S102 761 971544 1146 0
46 2 S102 851 972395 1997 0
46 2 S102 1023 973418 3020 1
46 2 S102 1055 974473 4075 1
46 2 S102 989 975462 5064 0
46 2 S102 878 976340 5942 0
46 2 S102 785 977125 6727 0
0 0 0 733 977858 -9997 0
0 0 0 730 978588 -9267 0
0 0 0 794 979382 -8473 0
0 0 0 932 980314 -7541 0
0 0 0 973 981287 -6568 0
0 0 0 883 982170 -5685 0
0 0 0 849 983019 -4836 0
0 0 0 888 983907 -3948 0
0 0 0 930 984837 -3018 0
0 0 0 929 985766 -2089 0
47 1 S112 901 986667 -1188 0
47 1 S112 815 987482 -373 0
47 2 S112 766 988248 393 0
47 2 S112 731 988979 1124 0
47 2 S112 731 989710 1855 0
47 2 S112 801 990511 2656 0
47 2 S112 918 991429 3574 0
47 2 S112 982 992411 4556 0
47 2 S112 894 993305 5450 0
47 2 S112 818 994123 6268 0
0 0 0 777 994900 -12385 0
0 0 0 776 995676 -11609 0
0 0 0 831 996507 -10778 0
0 0 0 887 997394 -9891 0
0 0 0 854 998248 -9037 0
0 0 0 798 999046 -8239 0
0 0 0 800 999846 -7439 0
0 0 0 765 1000611 -6674 0
0 0 0 717 1001328 -5957 0
0 0 0 742 1002070 -5215 0
0 0 0 732 1002802 -4483 0
0 0 0 730 1003532 -3753 0
0 0 0 709 1004241 -3044 0
0 0 0 707 1004948 -2337 0
48 1 S116 729 1005677 -1608 0
48 1 S116 787 1006464 -821 0
48 2 S116 935 1007399 114 0
48 2 S116 981 1008380 1095 0
48 2 S116 966 1009346 2061 0
48 2 S116 886 1010232 2947 0
48 2 S116 793 1011025 3740 0
48 2 S116 745 1011770 4485 0
48 2 S116 734 1012504 5219 0
48 2 S116 790 1013294 6009 0
48 2 S116 917 1014211 6926 0
0 0 0 1004 1015215 -7355 0
0 0 0 904 1016119 -6451 0
0 0 0 821 1016940 -5630 0
0 0 0 838 1017778 -4792 0
0 0 0 841 1018619 -3951 0
0 0 0 864 1019483 -3087 0
0 0 0 799 1020282 -2288 0
49 1 S112 799 1021081 -1489 0
49 1 S112 808 1021889 -681 0
49 2 S112 794 1022683 113 0
49 2 S112 753 1023436 866 0
49 2 S112 740 1024176 1606 0
49 2 S112 765 1024941 2371 0
49 2 S112 859 1025800 3230 0
49 2 S112 987 1026787 4217 0
49 2 S112 986 1027773 5203 0
49 2 S112 893 1028666 6096 0
49 2 S112 834 1029500 6930 0
0 0 0 816 1030316 -12082 0
0 0 0 874 1031190 -11208 0
0 0 0 918 1032108 -10290 0
0 0 0 853 1032961 -9437 0
0 0 0 880 1033841 -8557 0
0 0 0 888 1034729 -7669 0
0 0 0 861 1035590 -6808 0
0 0 0 783 1036373 -6025 0
0 0 0 782 1037155 -5243 0
0 0 0 797 1037952 -4446 0
0 0 0 852 1038804 -3594 0
0 0 0 848 1039652 -2746 0
50 1 S106 801 1040453 -1945 0
50 1 S106 827 1041280 -1118 0
50 1 S106 864 1042144 -254 0
50 2 S106 872 1043016 618 0
50 2 S106 823 1043839 1441 0
50 2 S106 796 1044635 2237 0
50 2 S106 838 1045473 3075 0
50 2 S106 900 1046373 3975 0
50 2 S106 931 1047304 4906 0
50 2 S106 896 1048200 5802 0
50 2 S106 832 1049032 6634 0
0 0 0 784 1049816 -8132 0
0 0 0 777 1050593 -7355 0
0 0 0 824 1051417 -6531 0
0 0 0 917 1052334 -5614 0
0 0 0 875 1053209 -4739 0
0 0 0 925 1054134 -3814 0
0 0 0 962 1055096 -2852 0
51 1 S112 936 1056032 -1916 0
51 1 S112 839 1056871 -1077 0
51 1 S112 783 1057654 -294 0
51 2 S112 748 1058402 454 0
51 2 S112 778 1059180 1232 0
51 2 S112 832 1060012 2064 0
51 2 S112 851 1060863 2915 0
51 2 S112 813 1061676 3728 0
51 2 S112 808 1062484 4536 0
51 2 S112 822 1063306 5358 0
51 2 S112 920 1064226 6278 0
0 0 0 1014 1065240 -8690 0
0 0 0 1015 1066255 -7675 0
0 0 0 878 1067133 -6797 0
0 0 0 796 1067929 -6001 0
0 0 0 822 1068751 -5179 0
0 0 0 839 1069590 -4340 0
0 0 0 778 1070368 -3562 0
0 0 0 757 1071125 -2805 0
0 0 0 791 1071916 -2014 0
52 1 S116 866 1072782 -1148 0
52 1 S116 914 1073696 -234 0
52 2 S116 846 1074542 612 0
52 2 S116 808 1075350 1420 0
52 2 S116 817 1076167 2237 0
52 2 S116 892 1077059 3129 0
52 2 S116 964 1078023 4093 0
52 2 S116 965 1078988 5058 0
52 2 S116 908 1079896 5966 0
52 2 S116 832 1080728 6798 0
0 0 0 781 1081509 -9762 0
0 0 0 763 1082272 -8999 0
0 0 0 814 1083086 -8185 0
0 0 0 894 1083980 -7291 0
0 0 0 847 1084827 -6444 0
0 0 0 804 1085631 -5640 0
0 0 0 859 1086490 -4781 0
0 0 0 928 1087418 -3853 0
0 0 0 990 1088408 -2863 0
53 1 S106 879 1089287 -1984 0
53 1 S106 795 1090082 -1189 0
53 1 S106 748 1090830 -441 0
53 2 S106 745 1091575 304 0
53 2 S106 788 1092363 1092 0
53 2 S106 901 1093264 1993 0
53 2 S106 961 1094225 2954 0
53 2 S106 906 1095131 3860 0
53 2 S106 846 1095977 4706 0
53 2 S106 808 1096785 5514 0
53 2 S106 802 1097587 6316 0
0 0 0 835 1098422 -7852 0
0 0 0 929 1099351 -6923 0
0 0 0 944 1100295 -5979 0
0 0 0 838 1101133 -5141 0
0 0 0 761 1101894 -4380 0
0 0 0 722 1102616 -3658 0
0 0 0 715 1103331 -2943 0
0 0 0 769 1104100 -2174 0
54 1 S102 813 1104913 -1361 0
54 1 S102 915 1105828 -446 0
54 2 S102 834 1106662 388 0
54 2 S102 776 1107438 1164 0
54 2 S102 741 1108179 1905 0
54 2 S102 741 1108920 2646 0
54 2 S102 788 1109708 3434 0
54 2 S102 866 1110574 4300 0
54 2 S102 929 1111503 5229 0
54 2 S102 893 1112396 6122 0
54 2 S102 825 1113221 6947 0
0 0 0 802 1114023 -10869 0
0 0 0 843 1114866 -10026 0
0 0 0 888 1115754 -9138 0
0 0 0 908 1116662 -8230 0
0 0 0 814 1117476 -7416 0
0 0 0 810 1118286 -6606 0
0 0 0 836 1119122 -5770 0
0 0 0 879 1120001 -4891 0
0 0 0 845 1120846 -4046 0
0 0 0 790 1121636 -3256 0
0 0 0 810 1122446 -2446 0
55 1 S106 845 1123291 -1601 0
55 1 S106 902 1124193 -699 0
55 2 S106 924 1125117 225 0
55 2 S106 823 1125940 1048 0
55 2 S106 783 1126723 1831 0
55 2 S106 784 1127507 2615 0
55 2 S106 856 1128363 3471 0
55 2 S106 956 1129319 4427 0
55 2 S106 947 1130266 5374 0
55 2 S106 842 1131108 6216 0
55 2 S106 794 1131902 7010 0
0 0 0 772 1132674 -7138 0
0 0 0 804 1133478 -6334 0
0 0 0 869 1134347 -5465 0
0 0 0 863 1135210 -4602 0
0 0 0 805 1136015 -3797 0
0 0 0 838 1136853 -2959 0
0 0 0 840 1137693 -2119 0
56 1 S116 779 1138472 -1340 0
56 1 S116 756 1139228 -584 0
56 2 S116 799 1140027 215 0
56 2 S116 837 1140864 1052 0
56 2 S116 953 1141817 2005 0
56 2 S116 903 1142720 2908 0
56 2 S116 819 1143539 3727 0
56 2 S116 772 1144311 4499 0
56 2 S116 802 1145113 5301 0
56 2 S116 885 1145998 6186 0
0 0 0 989 1146987 -8077 0
0 0 0 972 1147959 -7105 0
0 0 0 823 1148782 -6282 0
0 0 0 836 1149618 -5446 0
0 0 0 868 1150486 -4578 0
0 0 0 905 1151391 -3673 0
0 0 0 840 1152231 -2833 0
0 0 0 783 1153014 -2050 0
57 1 S106 773 1153787 -1277 0
57 1 S106 807 1154594 -470 0
57 2 S106 847 1155441 377 0
57 2 S106 862 1156303 1239 0
57 2 S106 823 1157126 2062 0
57 2 S106 889 1158015 2951 0
57 2 S106 939 1158954 3890 0
57 2 S106 913 1159867 4803 0
57 2 S106 836 1160703 5639 0
57 2 S106 827 1161530 6466 0
0 0 0 873 1162403 -8593 0
0 0 0 904 1163307 -7689 0
0 0 0 851 1164158 -6838 0
0 0 0 825 1164983 -6013 0
0 0 0 858 1165841 -5155 0
0 0 0 922 1166763 -4233 0
0 0 0 901 1167664 -3332 0
0 0 0 807 1168471 -2525 0
58 1 S102 771 1169242 -1754 0
58 1 S102 799 1170041 -955 0
58 1 S102 839 1170880 -116 0
58 2 S102 906 1171786 790 0
58 2 S102 884 1172670 1674 0
58 2 S102 863 1173533 2537 0
58 2 S102 940 1174473 3477 0
58 2 S102 969 1175442 4446 0
58 2 S102 925 1176367 5371 0
58 2 S102 837 1177204 6208 0
58 2 S102 799 1178003 7007 0
0 0 0 818 1178821 -7261 0
0 0 0 824 1179645 -6437 0
0 0 0 769 1180414 -5668 0
0 0 0 768 1181182 -4900 0
0 0 0 780 1181962 -4120 0
0 0 0 795 1182757 -3325 0
0 0 0 758 1183515 -2567 0
59 1 S112 746 1184261 -1821 0
59 1 S112 796 1185057 -1025 0
59 1 S112 863 1185920 -162 0
59 2 S112 866 1186786 704 0
59 2 S112 844 1187630 1548 0
59 2 S112 827 1188457 2375 0
59 2 S112 870 1189327 3245 0
59 2 S112 950 1190277 4195 0
59 2 S112 973 1191250 5168 0
59 2 S112 878 1192128 6046 0
59 2 S112 819 1192947 6865 0
0 0 0 818 1193765 -9343 0
0 0 0 840 1194605 -8503 0
0 0 0 804 1195409 -7699 0
0 0 0 775 1196184 -6924 0
0 0 0 815 1196999 -6109 0
0 0 0 863 1197862 -5246 0
0 0 0 957 1198819 -4289 0
0 0 0 862 1199681 -3427 0
0 0 0 816 1200497 -2611 0
60 1 S102 861 1201358 -1750 0
60 1 S102 903 1202261 -847 0
60 2 S102 886 1203147 39 0
60 2 S102 857 1204004 896 0
60 2 S102 925 1204929 1821 0
60 2 S102 973 1205902 2794 0
60 2 S102 901 1206803 3695 0
60 2 S102 835 1207638 4530 0
60 2 S102 820 1208458 5350 0
60 2 S102 902 1209360 6252 0
0 0 0 977 1210337 -11339 0
0 0 0 881 1211218 -10458 0
0 0 0 896 1212114 -9562 0
0 0 0 931 1213045 -8631 0
0 0 0 856 1213901 -7775 0
0 0 0 838 1214739 -6937 0
0 0 0 855 1215594 -6082 0
0 0 0 916 1216510 -5166 0
0 0 0 935 1217445 -4231 0
0 0 0 854 1218299 -3377 0
0 0 0 835 1219134 -2542 0
61 1 S106 899 1220033 -1643 0
61 1 S106 947 1220980 -696 0
61 2 S106 868 1221848 172 0
61 2 S106 842 1222690 1014 0
61 2 S106 924 1223614 1938 0
61 2 S106 981 1224595 2919 0
61 2 S106 912 1225507 3831 0
61 2 S106 856 1226363 4687 0
61 2 S106 891 1227254 5578 0
61 2 S106 921 1228175 6499 0
0 0 0 954 1229129 -8164 0
0 0 0 875 1230004 -7289 0
0 0 0 793 1230797 -6496 0
0 0 0 828 1231625 -5668 0
0 0 0 855 1232480 -4813 0
0 0 0 853 1233333 -3960 0
0 0 0 813 1234146 -3147 0
0 0 0 854 1235000 -2293 0
62 1 S112 916 1235916 -1377 0
62 1 S112 839 1236755 -538 0
62 2 S112 888 1237643 350 0
62 2 S112 974 1238617 1324 0
62 2 S112 971 1239588 2295 0
62 2 S112 870 1240458 3165 0
62 2 S112 877 1241335 4042 0
62 2 S112 942 1242277 4984 0
62 2 S112 895 1243172 5879 0
62 2 S112 862 1244034 6741 0
0 0 0 913 1244947 -11610 0
0 0 0 944 1245891 -10666 0
0 0 0 848 1246739 -9818 0
0 0 0 892 1247631 -8926 0
0 0 0 906 1248537 -8020 0
0 0 0 879 1249416 -7141 0
0 0 0 797 1250213 -6344 0
0 0 0 766 1250979 -5578 0
0 0 0 776 1251755 -4802 0
0 0 0 820 1252575 -3982 0
0 0 0 879 1253454 -3103 0
0 0 0 853 1254307 -2250 0
63 1 S102 913 1255220 -1337 0
63 1 S102 988 1256208 -349 0
63 2 S102 953 1257161 604 0
63 2 S102 864 1258025 1468 0
63 2 S102 848 1258873 2316 0
63 2 S102 878 1259751 3194 0
63 2 S102 924 1260675 4118 0
63 2 S102 858 1261533 4976 0
63 2 S102 800 1262333 5776 0
63 2 S102 777 1263110 6553 0
0 0 0 815 1263925 -8896 0
0 0 0 887 1264812 -8009 0
0 0 0 872 1265684 -7137 0
0 0 0 853 1266537 -6284 0
0 0 0 908 1267445 -5376 0
0 0 0 952 1268397 -4424 0
0 0 0 909 1269306 -3515 0
0 0 0 889 1270195 -2626 0
64 1 S112 913 1271108 -1713 0
64 1 S112 962 1272070 -751 0
64 2 S112 968 1273038 217 0
64 2 S112 866 1273904 1083 0
64 2 S112 827 1274731 1910 0
64 2 S112 847 1275578 2757 0
64 2 S112 968 1276546 3725 0
64 2 S112 1042 1277588 4767 1
64 2 S112 942 1278530 5709 0
64 2 S112 895 1279425 6604 0
0 0 0 965 1280390 -8064 0
0 0 0 976 1281366 -7088 0
0 0 0 878 1282244 -6210 0
0 0 0 926 1283170 -5284 0
0 0 0 956 1284126 -4328 0
0 0 0 905 1285031 -3423 0
0 0 0 871 1285902 -2552 0
65 1 S106 902 1286804 -1650 0
65 1 S106 877 1287681 -773 0
65 2 S106 834 1288515 61 0
65 2 S106 870 1289385 931 0
65 2 S106 947 1290332 1878 0
65 2 S106 984 1291316 2862 0
65 2 S106 970 1292286 3832 0
65 2 S106 853 1293139 4685 0
65 2 S106 772 1293911 5457 0
65 2 S106 732 1294643 6189 0
65 2 S106 728 1295371 6917 0
0 0 0 786 1296157 -6753 0
0 0 0 929 1297086 -5824 0
0 0 0 1025 1298111 -4799 1
0 0 0 898 1299009 -3901 0
0 0 0 883 1299892 -3018 0
0 0 0 941 1300833 -2077 0
66 1 S116 964 1301797 -1113 0
66 1 S116 945 1302742 -168 0
66 2 S116 838 1303580 670 0
66 2 S116 781 1304361 1451 0
66 2 S116 776 1305137 2227 0
66 2 S116 844 1305981 3071 0
66 2 S116 946 1306927 4017 0
66 2 S116 1010 1307937 5027 0
66 2 S116 998 1308935 6025 0
66 2 S116 902 1309837 6927 0
0 0 0 820 1310657 -10738 0
0 0 0 816 1311473 -9922 0
0 0 0 838 1312311 -9084 0
0 0 0 882 1313193 -8202 0
0 0 0 826 1314019 -7376 0
0 0 0 782 1314801 -6594 0
0 0 0 790 1315591 -5804 0
0 0 0 851 1316442 -4953 0
0 0 0 914 1317356 -4039 0
0 0 0 927 1318283 -3112 0
0 0 0 828 1319111 -2284 0
67 1 S102 819 1319930 -1465 0
67 1 S102 862 1320792 -603 0
67 2 S102 878 1321670 275 0
67 2 S102 849 1322519 1124 0
67 2 S102 792 1323311 1916 0
67 2 S102 848 1324159 2764 0
67 2 S102 850 1325009 3614 0
67 2 S102 804 1325813 4418 0
67 2 S102 792 1326605 5210 0
67 2 S102 833 1327438 6043 0
67 2 S102 904 1328342 6947 0
0 0 0 941 1329283 -7248 0
0 0 0 832 1330115 -6416 0
0 0 0 832 1330947 -5584 0
0 0 0 865 1331812 -4719 0
0 0 0 873 1332685 -3846 0
0 0 0 790 1333475 -3056 0
0 0 0 781 1334256 -2275 0
68 1 S106 831 1335087 -1444 0
68 1 S106 894 1335981 -550 0
68 2 S106 848 1336829 298 0
68 2 S106 898 1337727 1196 0
68 2 S106 969 1338696 2165 0
68 2 S106 995 1339691 3160 0
68 2 S106 858 1340549 4018 0
68 2 S106 790 1341339 4808 0
68 2 S106 766 1342105 5574 0
68 2 S106 794 1342899 6368 0
0 0 0 870 1343769 -12839 0
0 0 0 915 1344684 -11924 0
0 0 0 822 1345506 -11102 0
0 0 0 795 1346301 -10307 0
0 0 0 834 1347135 -9473 0
0 0 0 921 1348056 -8552 0
0 0 0 852 1348908 -7700 0
0 0 0 801 1349709 -6899 0
0 0 0 822 1350531 -6077 0
0 0 0 830 1351361 -5247 0
0 0 0 790 1352151 -4457 0
0 0 0 768 1352919 -3689 0
0 0 0 798 1353717 -2891 0
0 0 0 824 1354541 -2067 0
69 1 S102 790 1355331 -1277 0
69 1 S102 772 1356103 -505 0
69 2 S102 816 1356919 311 0
69 2 S102 861 1357780 1172 0
69 2 S102 875 1358655 2047 0
69 2 S102 815 1359470 2862 0
69 2 S102 801 1360271 3663 0
69 2 S102 863 1361134 4526 0
69 2 S102 968 1362102 5494 0
69 2 S102 1001 1363103 6495 0
0 0 0 919 1364022 -8700 0
0 0 0 906 1364928 -7794 0
0 0 0 935 1365863 -6859 0
0 0 0 860 1366723 -5999 0
0 0 0 812 1367535 -5187 0
0 0 0 842 1368377 -4345 0
0 0 0 850 1369227 -3495 0
0 0 0 801 1370028 -2694 0
70 1 S112 805 1370833 -1889 0
70 1 S112 830 1371663 -1059 0
70 1 S112 865 1372528 -194 0
70 2 S112 809 1373337 615 0
70 2 S112 877 1374214 1492 0
70 2 S112 902 1375116 2394 0
70 2 S112 832 1375948 3226 0
70 2 S112 809 1376757 4035 0
70 2 S112 883 1377640 4918 0
70 2 S112 956 1378596 5874 0
70 2 S112 890 1379486 6764 0
0 0 0 848 1380334 -11039 0
0 0 0 900 1381234 -10139 0
0 0 0 838 1382072 -9301 0
0 0 0 808 1382880 -8493 0
0 0 0 827 1383707 -7666 0
0 0 0 808 1384515 -6858 0
0 0 0 765 1385280 -6093 0
0 0 0 813 1386093 -5280 0
0 0 0 819 1386912 -4461 0
0 0 0 826 1387738 -3635 0
0 0 0 803 1388541 -2832 0
71 1 S116 840 1389381 -1992 0
71 1 S116 853 1390234 -1139 0
71 1 S116 817 1391051 -322 0
71 2 S116 809 1391860 487 0
71 2 S116 895 1392755 1382 0
71 2 S116 973 1393728 2355 0
71 2 S116 899 1394627 3254 0
71 2 S116 836 1395463 4090 0
71 2 S116 833 1396296 4923 0
71 2 S116 897 1397193 5820 0
71 2 S116 949 1398142 6769 0
0 0 0 946 1399088 -8962 0
0 0 0 849 1399937 -8113 0
0 0 0 871 1400808 -7242 0
0 0 0 883 1401691 -6359 0
0 0 0 836 1402527 -5523 0
0 0 0 812 1403339 -4711 0
0 0 0 872 1404211 -3839 0
0 0 0 953 1405164 -2886 0
0 0 0 862 1406026 -2024 0
72 1 S102 904 1406930 -1120 0
72 1 S102 910 1407840 -210 0
72 2 S102 879 1408719 669 0
72 2 S102 814 1409533 1483 0
72 2 S102 872 1410405 2355 0
72 2 S102 913 1411318 3268 0
72 2 S102 956 1412274 4224 0
72 2 S102 866 1413140 5090 0
72 2 S102 820 1413960 5910 0
72 2 S102 815 1414775 6725 0
0 0 0 894 1415669 -7518 0
0 0 0 971 1416640 -6547 0
0 0 0 865 1417505 -5682 0
0 0 0 865 1418370 -4817 0
0 0 0 877 1419247 -3940 0
0 0 0 838 1420085 -3102 0
0 0 0 773 1420858 -2329 0
73 1 S116 791 1421649 -1538 0
73 1 S116 789 1422438 -749 0
73 2 S116 782 1423220 33 0
73 2 S116 758 1423978 791 0
73 2 S116 801 1424779 1592 0
73 2 S116 882 1425661 2474 0
73 2 S116 986 1426647 3460 0
73 2 S116 950 1427597 4410 0
73 2 S116 863 1428460 5273 0
73 2 S116 821 1429281 6094 0
73 2 S116 839 1430120 6933 0
0 0 0 917 1431037 -8612 0
0 0 0 937 1431974 -7675 0
0 0 0 852 1432826 -6823 0
0 0 0 791 1433617 -6032 0
0 0 0 820 1434437 -5212 0
0 0 0 844 1435281 -4368 0
0 0 0 800 1436081 -3568 0
0 0 0 781 1436862 -2787 0
74 1 S106 821 1437683 -1966 0
74 1 S106 879 1438562 -1087 0
74 1 S106 885 1439447 -202 0
74 2 S106 814 1440261 612 0
74 2 S106 779 1441040 1391 0
74 2 S106 787 1441827 2178 0
74 2 S106 881 1442708 3059 0
74 2 S106 997 1443705 4056 0
74 2 S106 994 1444699 5050 0
74 2 S106 879 1445578 5929 0
74 2 S106 879 1446457 6808 0
0 0 0 903 1447360 -7309 0
0 0 0 898 1448258 -6411 0
0 0 0 805 1449063 -5606 0
0 0 0 836 1449899 -4770 0
0 0 0 826 1450725 -3944 0
0 0 0 802 1451527 -3142 0
0 0 0 790 1452317 -2352 0
75 1 S112 832 1453149 -1520 0
75 1 S112 872 1454021 -648 0
75 2 S112 827 1454848 179 0
75 2 S112 838 1455686 1017 0
75 2 S112 902 1456588 1919 0
75 2 S112 902 1457490 2821 0
75 2 S112 834 1458324 3655 0
75 2 S112 819 1459143 4474 0
75 2 S112 865 1460008 5339 0
75 2 S112 915 1460923 6254 0
0 0 0 868 1461791 -7566 0
0 0 0 819 1462610 -6747 0
0 0 0 829 1463439 -5918 0
0 0 0 817 1464256 -5101 0
0 0 0 764 1465020 -4337 0
0 0 0 796 1465816 -3541 0
0 0 0 815 1466631 -2726 0
76 1 S116 808 1467439 -1918 0
76 1 S116 772 1468211 -1146 0
76 1 S116 815 1469026 -331 0
76 2 S116 852 1469878 521 0
76 2 S116 834 1470712 1355 0
76 2 S116 820 1471532 2175 0
76 2 S116 867 1472399 3042 0
76 2 S116 899 1473298 3941 0
76 2 S116 896 1474194 4837 0
76 2 S116 831 1475025 5668 0
76 2 S116 792 1475817 6460 0
0 0 0 842 1476659 -8000 0
0 0 0 890 1477549 -7110 0
0 0 0 823 1478372 -6287 0
0 0 0 802 1479174 -5485 0
0 0 0 869 1480043 -4616 0
0 0 0 893 1480936 -3723 0
0 0 0 823 1481759 -2900 0
0 0 0 867 1482626 -2033 0
77 1 S106 877 1483503 -1156 0
77 1 S106 855 1484358 -301 0
77 2 S106 797 1485155 496 0
77 2 S106 846 1486001 1342 0
77 2 S106 886 1486887 2228 0
77 2 S106 905 1487792 3133 0
77 2 S106 838 1488630 3971 0
77 2 S106 824 1489454 4795 0
77 2 S106 887 1490341 5682 0
77 2 S106 936 1491277 6618 0
0 0 0 981 1492258 -8665 0
0 0 0 846 1493104 -7819 0
0 0 0 786 1493890 -7033 0
0 0 0 794 1494684 -6239 0
0 0 0 804 1495488 -5435 0
0 0 0 784 1496272 -4651 0
0 0 0 776 1497048 -3875 0
0 0 0 850 1497898 -3025 0
0 0 0 902 1498800 -2123 0
78 1 S112 848 1499648 -1275 0
78 1 S112 814 1500462 -461 0
78 2 S112 848 1501310 387 0
78 2 S112 896 1502206 1283 0
78 2 S112 837 1503043 2120 0
78 2 S112 771 1503814 2891 0
78 2 S112 739 1504553 3630 0
78 2 S112 764 1505317 4394 0
78 2 S112 828 1506145 5222 0
78 2 S112 878 1507023 6100 0
78 2 S112 902 1507925 7002 0
0 0 0 823 1508748 -12284 0
0 0 0 785 1509533 -11499 0
0 0 0 815 1510348 -10684 0
0 0 0 832 1511180 -9852 0
0 0 0 783 1511963 -9069 0
0 0 0 787 1512750 -8282 0
0 0 0 804 1513554 -7478 0
0 0 0 823 1514377 -6655 0
0 0 0 773 1515150 -5882 0
0 0 0 820 1515970 -5062 0
0 0 0 859 1516829 -4203 0
0 0 0 910 1517739 -3293 0
0 0 0 838 1518577 -2455 0
79 1 S102 907 1519484 -1548 0
79 1 S102 946 1520430 -602 0
79 2 S102 880 1521310 278 0
79 2 S102 867 1522177 1145 0
79 2 S102 903 1523080 2048 0
79 2 S102 919 1523999 2967 0
79 2 S102 832 1524831 3799 0
79 2 S102 861 1525692 4660 0
79 2 S102 872 1526564 5532 0
79 2 S102 882 1527446 6414 0
0 0 0 822 1528268 -8447 0
0 0 0 844 1529112 -7603 0
0 0 0 879 1529991 -6724 0
0 0 0 882 1530873 -5842 0
0 0 0 814 1531687 -5028 0
0 0 0 894 1532581 -4134 0
0 0 0 928 1533509 -3206 0
0 0 0 861 1534370 -2345 0
80 1 S116 874 1535244 -1471 0
80 1 S116 888 1536132 -583 0
80 2 S116 859 1536991 276 0
80 2 S116 803 1537794 1079 0
80 2 S116 813 1538607 1892 0
80 2 S116 867 1539474 2759 0
80 2 S116 909 1540383 3668 0
80 2 S116 852 1541235 4520 0
80 2 S116 861 1542096 5381 0
80 2 S116 940 1543036 6321 0
