T_0085
BeatCount Mean SD BeatCountNoOutliers MeanNoOutliers SDNoOutliers
2070 754,825120772947 47,9071151685201 2041 753,181283684468 44,9596666523418

Trial TrialStatus Trialtype IBI AbsPosition RelPosition Outlier
0 0 0 717 1042 -14691 0
0 0 0 718 1760 -13973 0
0 0 0 696 2456 -13277 0
0 0 0 668 3124 -12609 0
0 0 0 660 3784 -11949 0
0 0 0 663 4447 -11286 0
0 0 0 678 5125 -10608 0
0 0 0 696 5821 -9912 0
0 0 0 682 6503 -9230 0
0 0 0 698 7201 -8532 0
0 0 0 709 7910 -7823 0
0 0 0 770 8680 -7053 0
0 0 0 854 9534 -6199 0
0 0 0 926 10460 -5273 1
0 0 0 862 11322 -4411 0
0 0 0 904 12226 -3507 1
0 0 0 869 13095 -2638 0
1 1 S112 839 13934 -1799 0
1 1 S112 816 14750 -983 0
1 1 S112 810 15560 -173 0
1 2 S112 809 16369 636 0
1 2 S112 767 17136 1403 0
1 2 S112 804 17940 2207 0
1 2 S112 794 18734 3001 0
1 2 S112 757 19491 3758 0
1 2 S112 794 20285 4552 0
1 2 S112 843 21128 5395 0
1 2 S112 824 21952 6219 0
1 2 S112 774 22726 6993 0
0 0 0 796 23522 -10248 0
0 0 0 794 24316 -9454 0
0 0 0 768 25084 -8686 0
0 0 0 738 25822 -7948 0
0 0 0 741 26563 -7207 0
0 0 0 748 27311 -6459 0
0 0 0 731 28042 -5728 0
0 0 0 732 28774 -4996 0
0 0 0 752 29526 -4244 0
0 0 0 774 30300 -3470 0
0 0 0 762 31062 -2708 0
2 1 S102 761 31823 -1947 0
2 1 S102 769 32592 -1178 0
2 1 S102 767 33359 -411 0
2 2 S102 731 34090 320 0
2 2 S102 762 34852 1082 0
2 2 S102 761 35613 1843 0
2 2 S102 745 36358 2588 0
2 2 S102 779 37137 3367 0
2 2 S102 844 37981 4211 0
2 2 S102 842 38823 5053 0
2 2 S102 800 39623 5853 0
2 2 S102 828 40451 6681 0
0 0 0 821 41272 -7949 0
0 0 0 767 42039 -7182 0
0 0 0 780 42819 -6402 0
0 0 0 763 43582 -5639 0
0 0 0 723 44305 -4916 0
0 0 0 726 45031 -4190 0
0 0 0 728 45759 -3462 0
0 0 0 731 46490 -2731 0
0 0 0 703 47193 -2028 0
3 1 S116 721 47914 -1307 0
3 1 S116 746 48660 -561 0
3 2 S116 765 49425 204 0
3 2 S116 739 50164 943 0
3 2 S116 805 50969 1748 0
3 2 S116 847 51816 2595 0
3 2 S116 814 52630 3409 0
3 2 S116 784 53414 4193 0
3 2 S116 810 54224 5003 0
3 2 S116 815 55039 5818 0
3 2 S116 768 55807 6586 0
0 0 0 775 56582 -10461 0
0 0 0 779 57361 -9682 0
0 0 0 762 58123 -8920 0
0 0 0 742 58865 -8178 0
0 0 0 759 59624 -7419 0
0 0 0 775 60399 -6644 0
0 0 0 752 61151 -5892 0
0 0 0 736 61887 -5156 0
0 0 0 748 62635 -4408 0
0 0 0 761 63396 -3647 0
0 0 0 779 64175 -2868 0
0 0 0 753 64928 -2115 0
4 1 S106 760 65688 -1355 0
4 1 S106 798 66486 -557 0
4 2 S106 829 67315 272 0
4 2 S106 799 68114 1071 0
4 2 S106 790 68904 1861 0
4 2 S106 802 69706 2663 0
4 2 S106 793 70499 3456 0
4 2 S106 761 71260 4217 0
4 2 S106 795 72055 5012 0
4 2 S106 808 72863 5820 0
4 2 S106 781 73644 6601 0
0 0 0 807 74451 -5954 0
0 0 0 810 75261 -5144 0
0 0 0 755 76016 -4389 0
0 0 0 780 76796 -3609 0
0 0 0 767 77563 -2842 0
0 0 0 720 78283 -2122 0
5 1 S116 714 78997 -1408 0
5 1 S116 692 79689 -716 0
5 1 S116 677 80366 -39 0
5 2 S116 691 81057 652 0
5 2 S116 744 81801 1396 0
5 2 S116 780 82581 2176 0
5 2 S116 830 83411 3006 0
5 2 S116 795 84206 3801 0
5 2 S116 800 85006 4601 0
5 2 S116 806 85812 5407 0
5 2 S116 812 86624 6219 0
5 2 S116 779 87403 6998 0
0 0 0 788 88191 -8859 0
0 0 0 799 88990 -8060 0
0 0 0 820 89810 -7240 0
0 0 0 791 90601 -6449 0
0 0 0 787 91388 -5662 0
0 0 0 796 92184 -4866 0
0 0 0 800 92984 -4066 0
0 0 0 747 93731 -3319 0
0 0 0 729 94460 -2590 0
6 1 S106 738 95198 -1852 0
6 1 S106 743 95941 -1109 0
6 1 S106 760 96701 -349 0
6 2 S106 759 97460 410 0
6 2 S106 802 98262 1212 0
6 2 S106 843 99105 2055 0
6 2 S106 856 99961 2911 0
6 2 S106 802 100763 3713 0
6 2 S106 807 101570 4520 0
6 2 S106 790 102360 5310 0
6 2 S106 747 103107 6057 0
6 2 S106 759 103866 6816 0
0 0 0 769 104635 -9706 0
0 0 0 759 105394 -8947 0
0 0 0 737 106131 -8210 0
0 0 0 759 106890 -7451 0
0 0 0 774 107664 -6677 0
0 0 0 745 108409 -5932 0
0 0 0 733 109142 -5199 0
0 0 0 749 109891 -4450 0
0 0 0 785 110676 -3665 0
0 0 0 764 111440 -2901 0
0 0 0 746 112186 -2155 0
7 1 S102 753 112939 -1402 0
7 1 S102 752 113691 -650 0
7 2 S102 751 114442 101 0
7 2 S102 763 115205 864 0
7 2 S102 798 116003 1662 0
7 2 S102 818 116821 2480 0
7 2 S102 794 117615 3274 0
7 2 S102 816 118431 4090 0
7 2 S102 812 119243 4902 0
7 2 S102 762 120005 5664 0
7 2 S102 782 120787 6446 0
0 0 0 765 121552 -9020 0
0 0 0 745 122297 -8275 0
0 0 0 736 123033 -7539 0
0 0 0 763 123796 -6776 0
0 0 0 780 124576 -5996 0
0 0 0 749 125325 -5247 0
0 0 0 742 126067 -4505 0
0 0 0 763 126830 -3742 0
0 0 0 799 127629 -2943 0
0 0 0 779 128408 -2164 0
8 1 S112 785 129193 -1379 0
8 1 S112 780 129973 -599 0
8 2 S112 775 130748 176 0
8 2 S112 748 131496 924 0
8 2 S112 775 132271 1699 0
8 2 S112 790 133061 2489 0
8 2 S112 816 133877 3305 0
8 2 S112 796 134673 4101 0
8 2 S112 801 135474 4902 0
8 2 S112 811 136285 5713 0
8 2 S112 808 137093 6521 0
0 0 0 778 137871 -7472 0
0 0 0 796 138667 -6676 0
0 0 0 806 139473 -5870 0
0 0 0 769 140242 -5101 0
0 0 0 788 141030 -4313 0
0 0 0 784 141814 -3529 0
0 0 0 740 142554 -2789 0
0 0 0 758 143312 -2031 0
9 1 S116 771 144083 -1260 0
9 1 S116 734 144817 -526 0
9 2 S116 711 145528 185 0
9 2 S116 713 146241 898 0
9 2 S116 704 146945 1602 0
9 2 S116 711 147656 2313 0
9 2 S116 697 148353 3010 0
9 2 S116 708 149061 3718 0
9 2 S116 729 149790 4447 0
9 2 S116 779 150569 5226 0
9 2 S116 762 151331 5988 0
9 2 S116 775 152106 6763 0
0 0 0 788 152894 -10022 0
0 0 0 802 153696 -9220 0
0 0 0 755 154451 -8465 0
0 0 0 772 155223 -7693 0
0 0 0 768 155991 -6925 0
0 0 0 735 156726 -6190 0
0 0 0 756 157482 -5434 0
0 0 0 752 158234 -4682 0
0 0 0 742 158976 -3940 0
0 0 0 712 159688 -3228 0
0 0 0 715 160403 -2513 0
10 1 S102 712 161115 -1801 0
10 1 S102 749 161864 -1052 0
10 1 S102 798 162662 -254 0
10 2 S102 777 163439 523 0
10 2 S102 846 164285 1369 0
10 2 S102 891 165176 2260 1
10 2 S102 861 166037 3121 0
10 2 S102 823 166860 3944 0
10 2 S102 828 167688 4772 0
10 2 S102 818 168506 5590 0
10 2 S102 766 169272 6356 0
0 0 0 772 170044 -10445 0
0 0 0 770 170814 -9675 0
0 0 0 754 171568 -8921 0
0 0 0 755 172323 -8166 0
0 0 0 754 173077 -7412 0
0 0 0 747 173824 -6665 0
0 0 0 726 174550 -5939 0
0 0 0 743 175293 -5196 0
0 0 0 749 176042 -4447 0
0 0 0 757 176799 -3690 0
0 0 0 738 177537 -2952 0
0 0 0 785 178322 -2167 0
11 1 S112 792 179114 -1375 0
11 1 S112 762 179876 -613 0
11 2 S112 775 180651 162 0
11 2 S112 780 181431 942 0
11 2 S112 791 182222 1733 0
11 2 S112 782 183004 2515 0
11 2 S112 809 183813 3324 0
11 2 S112 811 184624 4135 0
11 2 S112 787 185411 4922 0
11 2 S112 810 186221 5732 0
11 2 S112 825 187046 6557 0
0 0 0 794 187840 -6857 0
0 0 0 810 188650 -6047 0
0 0 0 785 189435 -5262 0
0 0 0 751 190186 -4511 0
0 0 0 754 190940 -3757 0
0 0 0 748 191688 -3009 0
0 0 0 723 192411 -2286 0
12 1 S116 715 193126 -1571 0
12 1 S116 703 193829 -868 0
12 1 S116 697 194526 -171 0
12 2 S116 688 195214 517 0
12 2 S116 719 195933 1236 0
12 2 S116 755 196688 1991 0
12 2 S116 828 197516 2819 0
12 2 S116 844 198360 3663 0
12 2 S116 870 199230 4533 0
12 2 S116 826 200056 5359 0
12 2 S116 810 200866 6169 0
12 2 S116 803 201669 6972 0
0 0 0 772 202441 -9796 0
0 0 0 749 203190 -9047 0
0 0 0 749 203939 -8298 0
0 0 0 730 204669 -7568 0
0 0 0 715 205384 -6853 0
0 0 0 722 206106 -6131 0
0 0 0 732 206838 -5399 0
0 0 0 738 207576 -4661 0
0 0 0 740 208316 -3921 0
0 0 0 725 209041 -3196 0
0 0 0 731 209772 -2465 0
13 1 S112 712 210484 -1753 0
13 1 S112 701 211185 -1052 0
13 1 S112 702 211887 -350 0
13 2 S112 712 212599 362 0
13 2 S112 732 213331 1094 0
13 2 S112 742 214073 1836 0
13 2 S112 781 214854 2617 0
13 2 S112 801 215655 3418 0
13 2 S112 762 216417 4180 0
13 2 S112 754 217171 4934 0
13 2 S112 771 217942 5705 0
13 2 S112 796 218738 6501 0
0 0 0 761 219499 -10477 0
0 0 0 771 220270 -9706 0
0 0 0 760 221030 -8946 0
0 0 0 714 221744 -8232 0
0 0 0 702 222446 -7530 0
0 0 0 698 223144 -6832 0
0 0 0 716 223860 -6116 0
0 0 0 707 224567 -5409 0
0 0 0 765 225332 -4644 0
0 0 0 823 226155 -3821 0
0 0 0 829 226984 -2992 0
0 0 0 780 227764 -2212 0
14 1 S106 811 228575 -1401 0
14 1 S106 803 229378 -598 0
14 2 S106 782 230160 184 0
14 2 S106 775 230935 959 0
14 2 S106 750 231685 1709 0
14 2 S106 755 232440 2464 0
14 2 S106 757 233197 3221 0
14 2 S106 745 233942 3966 0
14 2 S106 718 234660 4684 0
14 2 S106 725 235385 5409 0
14 2 S106 731 236116 6140 0
14 2 S106 734 236850 6874 0
0 0 0 719 237569 -10179 0
0 0 0 728 238297 -9451 0
0 0 0 732 239029 -8719 0
0 0 0 717 239746 -8002 0
0 0 0 712 240458 -7290 0
0 0 0 721 241179 -6569 0
0 0 0 727 241906 -5842 0
0 0 0 714 242620 -5128 0
0 0 0 738 243358 -4390 0
0 0 0 719 244077 -3671 0
0 0 0 685 244762 -2986 0
0 0 0 705 245467 -2281 0
15 1 S116 714 246181 -1567 0
15 1 S116 727 246908 -840 0
15 1 S116 702 247610 -138 0
15 2 S116 711 248321 573 0
15 2 S116 722 249043 1295 0
15 2 S116 738 249781 2033 0
15 2 S116 713 250494 2746 0
15 2 S116 740 251234 3486 0
15 2 S116 756 251990 4242 0
15 2 S116 727 252717 4969 0
15 2 S116 727 253444 5696 0
15 2 S116 742 254186 6438 0
0 0 0 740 254926 -8190 0
0 0 0 734 255660 -7456 0
0 0 0 773 256433 -6683 0
0 0 0 774 257207 -5909 0
0 0 0 740 257947 -5169 0
0 0 0 758 258705 -4411 0
0 0 0 771 259476 -3640 0
0 0 0 752 260228 -2888 0
0 0 0 761 260989 -2127 0
16 1 S116 763 261752 -1364 0
16 1 S116 738 262490 -626 0
16 2 S116 715 263205 89 0
16 2 S116 720 263925 809 0
16 2 S116 715 264640 1524 0
16 2 S116 706 265346 2230 0
16 2 S116 702 266048 2932 0
16 2 S116 695 266743 3627 0
16 2 S116 686 267429 4313 0
16 2 S116 677 268106 4990 0
16 2 S116 675 268781 5665 0
16 2 S116 666 269447 6331 0
16 2 S116 662 270109 6993 0
0 0 0 669 270778 -7756 0
0 0 0 698 271476 -7058 0
0 0 0 725 272201 -6333 0
0 0 0 706 272907 -5627 0
0 0 0 716 273623 -4911 0
0 0 0 709 274332 -4202 0
0 0 0 701 275033 -3501 0
0 0 0 688 275721 -2813 0
0 0 0 683 276404 -2130 0
17 1 S106 690 277094 -1440 0
17 1 S106 693 277787 -747 0
17 1 S106 718 278505 -29 0
17 2 S106 699 279204 670 0
17 2 S106 700 279904 1370 0
17 2 S106 722 280626 2092 0
17 2 S106 742 281368 2834 0
17 2 S106 745 282113 3579 0
17 2 S106 763 282876 4342 0
17 2 S106 799 283675 5141 0
17 2 S106 760 284435 5901 0
17 2 S106 736 285171 6637 0
0 0 0 745 285916 -9992 0
0 0 0 725 286641 -9267 0
0 0 0 704 287345 -8563 0
0 0 0 704 288049 -7859 0
0 0 0 686 288735 -7173 0
0 0 0 673 289408 -6500 0
0 0 0 657 290065 -5843 0
0 0 0 644 290709 -5199 0
0 0 0 651 291360 -4548 0
0 0 0 656 292016 -3892 0
0 0 0 680 292696 -3212 0
0 0 0 723 293419 -2489 0
18 1 S102 740 294159 -1749 0
18 1 S102 745 294904 -1004 0
18 1 S102 781 295685 -223 0
18 2 S102 783 296468 560 0
18 2 S102 748 297216 1308 0
18 2 S102 740 297956 2048 0
18 2 S102 730 298686 2778 0
18 2 S102 715 299401 3493 0
18 2 S102 705 300106 4198 0
18 2 S102 719 300825 4917 0
18 2 S102 733 301558 5650 0
18 2 S102 713 302271 6363 0
0 0 0 705 302976 -6775 0
0 0 0 726 303702 -6049 0
0 0 0 743 304445 -5306 0
0 0 0 731 305176 -4575 0
0 0 0 756 305932 -3819 0
0 0 0 771 306703 -3048 0
0 0 0 741 307444 -2307 0
19 1 S106 745 308189 -1562 0
19 1 S106 756 308945 -806 0
19 1 S106 751 309696 -55 0
19 2 S106 723 310419 668 0
19 2 S106 750 311169 1418 0
19 2 S106 750 311919 2168 0
19 2 S106 745 312664 2913 0
19 2 S106 749 313413 3662 0
19 2 S106 764 314177 4426 0
19 2 S106 778 314955 5204 0
19 2 S106 754 315709 5958 0
19 2 S106 763 316472 6721 0
0 0 0 776 317248 -10640 0
0 0 0 730 317978 -9910 0
0 0 0 751 318729 -9159 0
0 0 0 747 319476 -8412 0
0 0 0 726 320202 -7686 0
0 0 0 730 320932 -6956 0
0 0 0 714 321646 -6242 0
0 0 0 687 322333 -5555 0
0 0 0 684 323017 -4871 0
0 0 0 674 323691 -4197 0
0 0 0 662 324353 -3535 0
0 0 0 667 325020 -2868 0
0 0 0 684 325704 -2184 0
20 1 S112 694 326398 -1490 0
20 1 S112 713 327111 -777 0
20 1 S112 743 327854 -34 0
20 2 S112 747 328601 713 0
20 2 S112 726 329327 1439 0
20 2 S112 738 330065 2177 0
20 2 S112 742 330807 2919 0
20 2 S112 738 331545 3657 0
20 2 S112 739 332284 4396 0
20 2 S112 742 333026 5138 0
20 2 S112 742 333768 5880 0
20 2 S112 717 334485 6597 0
0 0 0 715 335200 -8205 0
0 0 0 718 335918 -7487 0
0 0 0 715 336633 -6772 0
0 0 0 700 337333 -6072 0
0 0 0 711 338044 -5361 0
0 0 0 730 338774 -4631 0
0 0 0 738 339512 -3893 0
0 0 0 747 340259 -3146 0
0 0 0 757 341016 -2389 0
21 1 S106 749 341765 -1640 0
21 1 S106 724 342489 -916 0
21 1 S106 742 343231 -174 0
21 2 S106 743 343974 569 0
21 2 S106 729 344703 1298 0
21 2 S106 741 345444 2039 0
21 2 S106 764 346208 2803 0
21 2 S106 771 346979 3574 0
21 2 S106 744 347723 4318 0
21 2 S106 777 348500 5095 0
21 2 S106 776 349276 5871 0
21 2 S106 743 350019 6614 0
0 0 0 762 350781 -10230 0
0 0 0 769 351550 -9461 0
0 0 0 744 352294 -8717 0
0 0 0 735 353029 -7982 0
0 0 0 741 353770 -7241 0
0 0 0 730 354500 -6511 0
0 0 0 724 355224 -5787 0
0 0 0 738 355962 -5049 0
0 0 0 745 356707 -4304 0
0 0 0 752 357459 -3552 0
0 0 0 732 358191 -2820 0
0 0 0 743 358934 -2077 0
22 1 S116 746 359680 -1331 0
22 1 S116 732 360412 -599 0
22 2 S116 753 361165 154 0
22 2 S116 789 361954 943 0
22 2 S116 831 362785 1774 0
22 2 S116 831 363616 2605 0
22 2 S116 808 364424 3413 0
22 2 S116 833 365257 4246 0
22 2 S116 856 366113 5102 0
22 2 S116 825 366938 5927 0
22 2 S116 841 367779 6768 0
0 0 0 848 368627 -9013 0
0 0 0 815 369442 -8198 0
0 0 0 757 370199 -7441 0
0 0 0 728 370927 -6713 0
0 0 0 732 371659 -5981 0
0 0 0 755 372414 -5226 0
0 0 0 808 373222 -4418 0
0 0 0 876 374098 -3542 0
0 0 0 850 374948 -2692 0
23 1 S112 824 375772 -1868 0
23 1 S112 794 376566 -1074 0
23 1 S112 758 377324 -316 0
23 2 S112 736 378060 420 0
23 2 S112 725 378785 1145 0
23 2 S112 726 379511 1871 0
23 2 S112 716 380227 2587 0
23 2 S112 715 380942 3302 0
23 2 S112 741 381683 4043 0
23 2 S112 781 382464 4824 0
23 2 S112 818 383282 5642 0
23 2 S112 820 384102 6462 0
0 0 0 789 384891 -8730 0
0 0 0 767 385658 -7963 0
0 0 0 780 386438 -7183 0
0 0 0 792 387230 -6391 0
0 0 0 762 387992 -5629 0
0 0 0 771 388763 -4858 0
0 0 0 807 389570 -4051 0
0 0 0 841 390411 -3210 0
0 0 0 822 391233 -2388 0
24 1 S106 807 392040 -1581 0
24 1 S106 807 392847 -774 0
24 2 S106 782 393629 8 0
24 2 S106 753 394382 761 0
24 2 S106 787 395169 1548 0
24 2 S106 778 395947 2326 0
24 2 S106 744 396691 3070 0
24 2 S106 763 397454 3833 0
24 2 S106 792 398246 4625 0
24 2 S106 828 399074 5453 0
24 2 S106 784 399858 6237 0
0 0 0 793 400651 -7924 0
0 0 0 769 401420 -7155 0
0 0 0 738 402158 -6417 0
0 0 0 746 402904 -5671 0
0 0 0 770 403674 -4901 0
0 0 0 792 404466 -4109 0
0 0 0 761 405227 -3348 0
0 0 0 810 406037 -2538 0
25 1 S102 887 406924 -1651 1
25 1 S102 796 407720 -855 0
25 1 S102 798 408518 -57 0
25 2 S102 810 409328 753 0
25 2 S102 789 410117 1542 0
25 2 S102 763 410880 2305 0
25 2 S102 801 411681 3106 0
25 2 S102 804 412485 3910 0
25 2 S102 765 413250 4675 0
25 2 S102 806 414056 5481 0
25 2 S102 792 414848 6273 0
0 0 0 763 415611 -6409 0
0 0 0 775 416386 -5634 0
0 0 0 756 417142 -4878 0
0 0 0 722 417864 -4156 0
0 0 0 738 418602 -3418 0
0 0 0 751 419353 -2667 0
26 1 S116 743 420096 -1924 0
26 1 S116 758 420854 -1166 0
26 1 S116 784 421638 -382 0
26 2 S116 797 422435 415 0
26 2 S116 808 423243 1223 0
26 2 S116 828 424071 2051 0
26 2 S116 789 424860 2840 0
26 2 S116 776 425636 3616 0
26 2 S116 797 426433 4413 0
26 2 S116 763 427196 5176 0
26 2 S116 743 427939 5919 0
26 2 S116 748 428687 6667 0
0 0 0 740 429427 -5972 0
0 0 0 716 430143 -5256 0
0 0 0 720 430863 -4536 0
0 0 0 690 431553 -3846 0
0 0 0 673 432226 -3173 0
0 0 0 647 432873 -2526 0
27 1 S106 655 433528 -1871 0
27 1 S106 652 434180 -1219 0
27 1 S106 675 434855 -544 0
27 2 S106 782 435637 238 0
27 2 S106 839 436476 1077 0
27 2 S106 833 437309 1910 0
27 2 S106 846 438155 2756 0
27 2 S106 842 438997 3598 0
27 2 S106 778 439775 4376 0
27 2 S106 792 440567 5168 0
27 2 S106 784 441351 5952 0
27 2 S106 781 442132 6733 0
0 0 0 729 442861 -6298 0
0 0 0 723 443584 -5575 0
0 0 0 731 444315 -4844 0
0 0 0 732 445047 -4112 0
0 0 0 757 445804 -3355 0
0 0 0 742 446546 -2613 0
28 1 S102 745 447291 -1868 0
28 1 S102 772 448063 -1096 0
28 1 S102 808 448871 -288 0
28 2 S102 760 449631 472 0
28 2 S102 786 450417 1258 0
28 2 S102 810 451227 2068 0
28 2 S102 787 452014 2855 0
28 2 S102 782 452796 3637 0
28 2 S102 807 453603 4444 0
28 2 S102 795 454398 5239 0
28 2 S102 760 455158 5999 0
28 2 S102 784 455942 6783 0
0 0 0 778 456720 -10045 0
0 0 0 744 457464 -9301 0
0 0 0 752 458216 -8549 0
0 0 0 733 458949 -7816 0
0 0 0 709 459658 -7107 0
0 0 0 714 460372 -6393 0
0 0 0 718 461090 -5675 0
0 0 0 725 461815 -4950 0
0 0 0 701 462516 -4249 0
0 0 0 712 463228 -3537 0
0 0 0 693 463921 -2844 0
0 0 0 684 464605 -2160 0
29 1 S112 677 465282 -1483 0
29 1 S112 682 465964 -801 0
29 1 S112 710 466674 -91 0
29 2 S112 727 467401 636 0
29 2 S112 777 468178 1413 0
29 2 S112 782 468960 2195 0
29 2 S112 782 469742 2977 0
29 2 S112 782 470524 3759 0
29 2 S112 791 471315 4550 0
29 2 S112 775 472090 5325 0
29 2 S112 757 472847 6082 0
29 2 S112 779 473626 6861 0
0 0 0 775 474401 -5826 0
0 0 0 754 475155 -5072 0
0 0 0 731 475886 -4341 0
0 0 0 722 476608 -3619 0
0 0 0 721 477329 -2898 0
0 0 0 714 478043 -2184 0
30 1 S112 711 478754 -1473 0
30 1 S112 722 479476 -751 0
30 1 S112 737 480213 -14 0
30 2 S112 742 480955 728 0
30 2 S112 740 481695 1468 0
30 2 S112 779 482474 2247 0
30 2 S112 792 483266 3039 0
30 2 S112 780 484046 3819 0
30 2 S112 771 484817 4590 0
30 2 S112 792 485609 5382 0
30 2 S112 806 486415 6188 0
30 2 S112 798 487213 6986 0
0 0 0 764 487977 -8181 0
0 0 0 772 488749 -7409 0
0 0 0 747 489496 -6662 0
0 0 0 714 490210 -5948 0
0 0 0 709 490919 -5239 0
0 0 0 708 491627 -4531 0
0 0 0 722 492349 -3809 0
0 0 0 737 493086 -3072 0
0 0 0 710 493796 -2362 0
31 1 S106 699 494495 -1663 0
31 1 S106 704 495199 -959 0
31 1 S106 726 495925 -233 0
31 2 S106 729 496654 496 0
31 2 S106 756 497410 1252 0
31 2 S106 764 498174 2016 0
31 2 S106 736 498910 2752 0
31 2 S106 755 499665 3507 0
31 2 S106 745 500410 4252 0
31 2 S106 741 501151 4993 0
31 2 S106 739 501890 5732 0
31 2 S106 720 502610 6452 0
0 0 0 692 503302 -8540 0
0 0 0 703 504005 -7837 0
0 0 0 714 504719 -7123 0
0 0 0 727 505446 -6396 0
0 0 0 731 506177 -5665 0
0 0 0 764 506941 -4901 0
0 0 0 743 507684 -4158 0
0 0 0 705 508389 -3453 0
0 0 0 706 509095 -2747 0
0 0 0 735 509830 -2012 0
32 1 S102 754 510584 -1258 0
32 1 S102 734 511318 -524 0
32 2 S102 728 512046 204 0
32 2 S102 737 512783 941 0
32 2 S102 748 513531 1689 0
32 2 S102 738 514269 2427 0
32 2 S102 728 514997 3155 0
32 2 S102 747 515744 3902 0
32 2 S102 743 516487 4645 0
32 2 S102 728 517215 5373 0
32 2 S102 726 517941 6099 0
32 2 S102 726 518667 6825 0
0 0 0 736 519403 -9995 0
0 0 0 721 520124 -9274 0
0 0 0 733 520857 -8541 0
0 0 0 737 521594 -7804 0
0 0 0 715 522309 -7089 0
0 0 0 712 523021 -6377 0
0 0 0 718 523739 -5659 0
0 0 0 727 524466 -4932 0
0 0 0 710 525176 -4222 0
0 0 0 699 525875 -3523 0
0 0 0 706 526581 -2817 0
0 0 0 698 527279 -2119 0
33 1 S112 697 527976 -1422 0
33 1 S112 686 528662 -736 0
33 1 S112 724 529386 -12 0
33 2 S112 759 530145 747 0
33 2 S112 799 530944 1546 0
33 2 S112 813 531757 2359 0
33 2 S112 836 532593 3195 0
33 2 S112 864 533457 4059 0
33 2 S112 832 534289 4891 0
33 2 S112 800 535089 5691 0
33 2 S112 807 535896 6498 0
0 0 0 771 536667 -10337 0
0 0 0 742 537409 -9595 0
0 0 0 742 538151 -8853 0
0 0 0 715 538866 -8138 0
0 0 0 696 539562 -7442 0
0 0 0 690 540252 -6752 0
0 0 0 698 540950 -6054 0
0 0 0 698 541648 -5356 0
0 0 0 701 542349 -4655 0
0 0 0 710 543059 -3945 0
0 0 0 721 543780 -3224 0
0 0 0 707 544487 -2517 0
34 1 S106 712 545199 -1805 0
34 1 S106 702 545901 -1103 0
34 1 S106 705 546606 -398 0
34 2 S106 687 547293 289 0
34 2 S106 689 547982 978 0
34 2 S106 700 548682 1678 0
34 2 S106 704 549386 2382 0
34 2 S106 692 550078 3074 0
34 2 S106 700 550778 3774 0
34 2 S106 727 551505 4501 0
34 2 S106 735 552240 5236 0
34 2 S106 744 552984 5980 0
34 2 S106 710 553694 6690 0
0 0 0 726 554420 -8384 0
0 0 0 746 555166 -7638 0
0 0 0 734 555900 -6904 0
0 0 0 722 556622 -6182 0
0 0 0 727 557349 -5455 0
0 0 0 731 558080 -4724 0
0 0 0 725 558805 -3999 0
0 0 0 714 559519 -3285 0
0 0 0 736 560255 -2549 0
35 1 S102 750 561005 -1799 0
35 1 S102 759 561764 -1040 0
35 1 S102 740 562504 -300 0
35 2 S102 747 563251 447 0
35 2 S102 762 564013 1209 0
35 2 S102 765 564778 1974 0
35 2 S102 726 565504 2700 0
35 2 S102 722 566226 3422 0
35 2 S102 728 566954 4150 0
35 2 S102 739 567693 4889 0
35 2 S102 764 568457 5653 0
35 2 S102 738 569195 6391 0
0 0 0 760 569955 -6625 0
0 0 0 775 570730 -5850 0
0 0 0 752 571482 -5098 0
0 0 0 741 572223 -4357 0
0 0 0 748 572971 -3609 0
0 0 0 736 573707 -2873 0
0 0 0 707 574414 -2166 0
36 1 S106 700 575114 -1466 0
36 1 S106 701 575815 -765 0
36 1 S106 706 576521 -59 0
36 2 S106 728 577249 669 0
36 2 S106 722 577971 1391 0
36 2 S106 738 578709 2129 0
36 2 S106 756 579465 2885 0
36 2 S106 783 580248 3668 0
36 2 S106 803 581051 4471 0
36 2 S106 764 581815 5235 0
36 2 S106 761 582576 5996 0
36 2 S106 762 583338 6758 0
0 0 0 754 584092 -8221 0
0 0 0 747 584839 -7474 0
0 0 0 748 585587 -6726 0
0 0 0 746 586333 -5980 0
0 0 0 707 587040 -5273 0
0 0 0 707 587747 -4566 0
0 0 0 699 588446 -3867 0
0 0 0 691 589137 -3176 0
0 0 0 676 589813 -2500 0
37 1 S116 686 590499 -1814 0
37 1 S116 710 591209 -1104 0
37 1 S116 748 591957 -356 0
37 2 S116 769 592726 413 0
37 2 S116 795 593521 1208 0
37 2 S116 823 594344 2031 0
37 2 S116 793 595137 2824 0
37 2 S116 799 595936 3623 0
37 2 S116 812 596748 4435 0
37 2 S116 768 597516 5203 0
37 2 S116 762 598278 5965 0
37 2 S116 759 599037 6724 0
0 0 0 745 599782 -10121 0
0 0 0 711 600493 -9410 0
0 0 0 726 601219 -8684 0
0 0 0 728 601947 -7956 0
0 0 0 721 602668 -7235 0
0 0 0 709 603377 -6526 0
0 0 0 718 604095 -5808 0
0 0 0 731 604826 -5077 0
0 0 0 763 605589 -4314 0
0 0 0 788 606377 -3526 0
0 0 0 841 607218 -2685 0
38 1 S102 891 608109 -1794 1
38 1 S102 886 608995 -908 1
38 1 S102 822 609817 -86 0
38 2 S102 833 610650 747 0
38 2 S102 824 611474 1571 0
38 2 S102 765 612239 2336 0
38 2 S102 741 612980 3077 0
38 2 S102 738 613718 3815 0
38 2 S102 757 614475 4572 0
38 2 S102 759 615234 5331 0
38 2 S102 731 615965 6062 0
38 2 S102 758 616723 6820 0
0 0 0 768 617491 -7896 0
0 0 0 756 618247 -7140 0
0 0 0 742 618989 -6398 0
0 0 0 735 619724 -5663 0
0 0 0 720 620444 -4943 0
0 0 0 701 621145 -4242 0
0 0 0 690 621835 -3552 0
0 0 0 665 622500 -2887 0
0 0 0 653 623153 -2234 0
39 1 S116 655 623808 -1579 0
39 1 S116 656 624464 -923 0
39 1 S116 698 625162 -225 0
39 2 S116 756 625918 531 0
39 2 S116 781 626699 1312 0
39 2 S116 782 627481 2094 0
39 2 S116 791 628272 2885 0
39 2 S116 782 629054 3667 0
39 2 S116 731 629785 4398 0
39 2 S116 731 630516 5129 0
39 2 S116 708 631224 5837 0
39 2 S116 716 631940 6553 0
0 0 0 716 632656 -6160 0
0 0 0 714 633370 -5446 0
0 0 0 717 634087 -4729 0
0 0 0 707 634794 -4022 0
0 0 0 686 635480 -3336 0
0 0 0 685 636165 -2651 0
40 1 S112 684 636849 -1967 0
40 1 S112 687 637536 -1280 0
40 1 S112 711 638247 -569 0
40 2 S112 783 639030 214 0
40 2 S112 875 639905 1089 0
40 2 S112 868 640773 1957 0
40 2 S112 837 641610 2794 0
40 2 S112 826 642436 3620 0
40 2 S112 805 643241 4425 0
40 2 S112 762 644003 5187 0
40 2 S112 738 644741 5925 0
40 2 S112 744 645485 6669 0
0 0 0 747 646232 -186153 0
0 0 0 769 647001 -185384 0
0 0 0 738 647739 -184646 0
0 0 0 771 648510 -183875 0
0 0 0 773 649283 -183102 0
0 0 0 772 650055 -182330 0
0 0 0 779 650834 -181551 0
0 0 0 761 651595 -180790 0
0 0 0 736 652331 -180054 0
0 0 0 728 653059 -179326 0
0 0 0 767 653826 -178559 0
0 0 0 749 654575 -177810 0
0 0 0 728 655303 -177082 0
0 0 0 733 656036 -176349 0
0 0 0 729 656765 -175620 0
0 0 0 710 657475 -174910 0
0 0 0 706 658181 -174204 0
0 0 0 705 658886 -173499 0
0 0 0 698 659584 -172801 0
0 0 0 714 660298 -172087 0
0 0 0 737 661035 -171350 0
0 0 0 755 661790 -170595 0
0 0 0 745 662535 -169850 0
0 0 0 732 663267 -169118 0
0 0 0 729 663996 -168389 0
0 0 0 721 664717 -167668 0
0 0 0 714 665431 -166954 0
0 0 0 712 666143 -166242 0
0 0 0 709 666852 -165533 0
0 0 0 708 667560 -164825 0
0 0 0 687 668247 -164138 0
0 0 0 696 668943 -163442 0
0 0 0 724 669667 -162718 0
0 0 0 787 670454 -161931 0
0 0 0 742 671196 -161189 0
0 0 0 719 671915 -160470 0
0 0 0 732 672647 -159738 0
0 0 0 710 673357 -159028 0
0 0 0 671 674028 -158357 0
0 0 0 664 674692 -157693 0
0 0 0 675 675367 -157018 0
0 0 0 665 676032 -156353 0
0 0 0 653 676685 -155700 0
0 0 0 685 677370 -155015 0
0 0 0 743 678113 -154272 0
0 0 0 762 678875 -153510 0
0 0 0 775 679650 -152735 0
0 0 0 717 680367 -152018 0
0 0 0 678 681045 -151340 0
0 0 0 653 681698 -150687 0
0 0 0 634 682332 -150053 0
0 0 0 617 682949 -149436 1
0 0 0 602 683551 -148834 1
0 0 0 609 684160 -148225 1
0 0 0 670 684830 -147555 0
0 0 0 804 685634 -146751 0
0 0 0 859 686493 -145892 0
0 0 0 800 687293 -145092 0
0 0 0 844 688137 -144248 0
0 0 0 843 688980 -143405 0
0 0 0 785 689765 -142620 0
0 0 0 771 690536 -141849 0
0 0 0 810 691346 -141039 0
0 0 0 769 692115 -140270 0
0 0 0 798 692913 -139472 0
0 0 0 826 693739 -138646 0
0 0 0 806 694545 -137840 0
0 0 0 770 695315 -137070 0
0 0 0 802 696117 -136268 0
0 0 0 815 696932 -135453 0
0 0 0 783 697715 -134670 0
0 0 0 786 698501 -133884 0
0 0 0 779 699280 -133105 0
0 0 0 743 700023 -132362 0
0 0 0 743 700766 -131619 0
0 0 0 747 701513 -130872 0
0 0 0 726 702239 -130146 0
0 0 0 737 702976 -129409 0
0 0 0 750 703726 -128659 0
0 0 0 750 704476 -127909 0
0 0 0 742 705218 -127167 0
0 0 0 749 705967 -126418 0
0 0 0 762 706729 -125656 0
0 0 0 758 707487 -124898 0
0 0 0 779 708266 -124119 0
0 0 0 753 709019 -123366 0
0 0 0 730 709749 -122636 0
0 0 0 748 710497 -121888 0
0 0 0 736 711233 -121152 0
0 0 0 716 711949 -120436 0
0 0 0 714 712663 -119722 0
0 0 0 714 713377 -119008 0
0 0 0 709 714086 -118299 0
0 0 0 707 714793 -117592 0
0 0 0 716 715509 -116876 0
0 0 0 723 716232 -116153 0
0 0 0 701 716933 -115452 0
0 0 0 668 717601 -114784 0
0 0 0 667 718268 -114117 0
0 0 0 682 718950 -113435 0
0 0 0 720 719670 -112715 0
0 0 0 823 720493 -111892 0
0 0 0 778 721271 -111114 0
0 0 0 844 722115 -110270 0
0 0 0 873 722988 -109397 0
0 0 0 887 723875 -108510 1
0 0 0 788 724663 -107722 0
0 0 0 794 725457 -106928 0
0 0 0 800 726257 -106128 0
0 0 0 807 727064 -105321 0
0 0 0 768 727832 -104553 0
0 0 0 789 728621 -103764 0
0 0 0 802 729423 -102962 0
0 0 0 817 730240 -102145 0
0 0 0 780 731020 -101365 0
0 0 0 837 731857 -100528 0
0 0 0 880 732737 -99648 1
0 0 0 816 733553 -98832 0
0 0 0 808 734361 -98024 0
0 0 0 833 735194 -97191 0
0 0 0 784 735978 -96407 0
0 0 0 774 736752 -95633 0
0 0 0 805 737557 -94828 0
0 0 0 849 738406 -93979 0
0 0 0 812 739218 -93167 0
0 0 0 845 740063 -92322 0
0 0 0 849 740912 -91473 0
0 0 0 790 741702 -90683 0
0 0 0 789 742491 -89894 0
0 0 0 804 743295 -89090 0
0 0 0 774 744069 -88316 0
0 0 0 769 744838 -87547 0
0 0 0 787 745625 -86760 0
0 0 0 825 746450 -85935 0
0 0 0 809 747259 -85126 0
0 0 0 806 748065 -84320 0
0 0 0 793 748858 -83527 0
0 0 0 763 749621 -82764 0
0 0 0 739 750360 -82025 0
0 0 0 756 751116 -81269 0
0 0 0 761 751877 -80508 0
0 0 0 790 752667 -79718 0
0 0 0 763 753430 -78955 0
0 0 0 722 754152 -78233 0
0 0 0 725 754877 -77508 0
0 0 0 726 755603 -76782 0
0 0 0 737 756340 -76045 0
0 0 0 747 757087 -75298 0
0 0 0 749 757836 -74549 0
0 0 0 753 758589 -73796 0
0 0 0 747 759336 -73049 0
0 0 0 716 760052 -72333 0
0 0 0 717 760769 -71616 0
0 0 0 714 761483 -70902 0
0 0 0 707 762190 -70195 0
0 0 0 703 762893 -69492 0
0 0 0 725 763618 -68767 0
0 0 0 720 764338 -68047 0
0 0 0 717 765055 -67330 0
0 0 0 694 765749 -66636 0
0 0 0 711 766460 -65925 0
0 0 0 723 767183 -65202 0
0 0 0 734 767917 -64468 0
0 0 0 741 768658 -63727 0
0 0 0 754 769412 -62973 0
0 0 0 759 770171 -62214 0
0 0 0 751 770922 -61463 0
0 0 0 740 771662 -60723 0
0 0 0 716 772378 -60007 0
0 0 0 727 773105 -59280 0
0 0 0 717 773822 -58563 0
0 0 0 704 774526 -57859 0
0 0 0 686 775212 -57173 0
0 0 0 687 775899 -56486 0
0 0 0 680 776579 -55806 0
0 0 0 704 777283 -55102 0
0 0 0 734 778017 -54368 0
0 0 0 768 778785 -53600 0
0 0 0 841 779626 -52759 0
0 0 0 815 780441 -51944 0
0 0 0 764 781205 -51180 0
0 0 0 750 781955 -50430 0
0 0 0 755 782710 -49675 0
0 0 0 768 783478 -48907 0
0 0 0 751 784229 -48156 0
0 0 0 810 785039 -47346 0
0 0 0 841 785880 -46505 0
0 0 0 796 786676 -45709 0
0 0 0 800 787476 -44909 0
0 0 0 817 788293 -44092 0
0 0 0 826 789119 -43266 0
0 0 0 773 789892 -42493 0
0 0 0 781 790673 -41712 0
0 0 0 783 791456 -40929 0
0 0 0 772 792228 -40157 0
0 0 0 760 792988 -39397 0
0 0 0 783 793771 -38614 0
0 0 0 827 794598 -37787 0
0 0 0 791 795389 -36996 0
0 0 0 844 796233 -36152 0
0 0 0 864 797097 -35288 0
0 0 0 787 797884 -34501 0
0 0 0 805 798689 -33696 0
0 0 0 816 799505 -32880 0
0 0 0 784 800289 -32096 0
0 0 0 787 801076 -31309 0
0 0 0 772 801848 -30537 0
0 0 0 748 802596 -29789 0
0 0 0 740 803336 -29049 0
0 0 0 750 804086 -28299 0
0 0 0 744 804830 -27555 0
0 0 0 718 805548 -26837 0
0 0 0 727 806275 -26110 0
0 0 0 747 807022 -25363 0
0 0 0 743 807765 -24620 0
0 0 0 781 808546 -23839 0
0 0 0 810 809356 -23029 0
0 0 0 771 810127 -22258 0
0 0 0 822 810949 -21436 0
0 0 0 837 811786 -20599 0
0 0 0 779 812565 -19820 0
0 0 0 797 813362 -19023 0
0 0 0 816 814178 -18207 0
0 0 0 774 814952 -17433 0
0 0 0 794 815746 -16639 0
0 0 0 802 816548 -15837 0
0 0 0 778 817326 -15059 0
0 0 0 773 818099 -14286 0
0 0 0 786 818885 -13500 0
0 0 0 782 819667 -12718 0
0 0 0 762 820429 -11956 0
0 0 0 773 821202 -11183 0
0 0 0 778 821980 -10405 0
0 0 0 773 822753 -9632 0
0 0 0 785 823538 -8847 0
0 0 0 793 824331 -8054 0
0 0 0 762 825093 -7292 0
0 0 0 767 825860 -6525 0
0 0 0 765 826625 -5760 0
0 0 0 751 827376 -5009 0
0 0 0 771 828147 -4238 0
0 0 0 783 828930 -3455 0
0 0 0 745 829675 -2710 0
41 1 S102 728 830403 -1982 0
41 1 S102 718 831121 -1264 0
41 1 S102 727 831848 -537 0
41 2 S102 725 832573 188 0
41 2 S102 738 833311 926 0
41 2 S102 713 834024 1639 0
41 2 S102 690 834714 2329 0
41 2 S102 687 835401 3016 0
41 2 S102 669 836070 3685 0
41 2 S102 661 836731 4346 0
41 2 S102 675 837406 5021 0
41 2 S102 690 838096 5711 0
41 2 S102 681 838777 6392 0
0 0 0 699 839476 -5939 0
0 0 0 715 840191 -5224 0
0 0 0 735 840926 -4489 0
0 0 0 720 841646 -3769 0
0 0 0 728 842374 -3041 0
0 0 0 740 843114 -2301 0
42 1 S112 727 843841 -1574 0
42 1 S112 699 844540 -875 0
42 1 S112 704 845244 -171 0
42 2 S112 702 845946 531 0
42 2 S112 700 846646 1231 0
42 2 S112 700 847346 1931 0
42 2 S112 731 848077 2662 0
42 2 S112 779 848856 3441 0
42 2 S112 843 849699 4284 0
42 2 S112 834 850533 5118 0
42 2 S112 760 851293 5878 0
42 2 S112 757 852050 6635 0
0 0 0 761 852811 -8719 0
0 0 0 753 853564 -7966 0
0 0 0 727 854291 -7239 0
0 0 0 709 855000 -6530 0
0 0 0 705 855705 -5825 0
0 0 0 705 856410 -5120 0
0 0 0 682 857092 -4438 0
0 0 0 675 857767 -3763 0
0 0 0 682 858449 -3081 0
0 0 0 686 859135 -2395 0
43 1 S116 729 859864 -1666 0
43 1 S116 772 860636 -894 0
43 1 S116 811 861447 -83 0
43 2 S116 891 862338 808 1
43 2 S116 942 863280 1750 1
43 2 S116 857 864137 2607 0
43 2 S116 852 864989 3459 0
43 2 S116 857 865846 4316 0
43 2 S116 822 866668 5138 0
43 2 S116 765 867433 5903 0
43 2 S116 760 868193 6663 0
0 0 0 763 868956 -7179 0
0 0 0 805 869761 -6374 0
0 0 0 817 870578 -5557 0
0 0 0 803 871381 -4754 0
0 0 0 808 872189 -3946 0
0 0 0 775 872964 -3171 0
0 0 0 738 873702 -2433 0
44 1 S102 746 874448 -1687 0
44 1 S102 759 875207 -928 0
44 1 S102 750 875957 -178 0
44 2 S102 756 876713 578 0
44 2 S102 787 877500 1365 0
44 2 S102 827 878327 2192 0
44 2 S102 781 879108 2973 0
44 2 S102 776 879884 3749 0
44 2 S102 761 880645 4510 0
44 2 S102 765 881410 5275 0
44 2 S102 733 882143 6008 0
44 2 S102 740 882883 6748 0
0 0 0 772 883655 -7848 0
0 0 0 773 884428 -7075 0
0 0 0 747 885175 -6328 0
0 0 0 766 885941 -5562 0
0 0 0 745 886686 -4817 0
0 0 0 717 887403 -4100 0
0 0 0 733 888136 -3367 0
0 0 0 755 888891 -2612 0
45 1 S116 732 889623 -1880 0
45 1 S116 703 890326 -1177 0
45 1 S116 716 891042 -461 0
45 2 S116 730 891772 269 0
45 2 S116 811 892583 1080 0
45 2 S116 835 893418 1915 0
45 2 S116 787 894205 2702 0
45 2 S116 815 895020 3517 0
45 2 S116 803 895823 4320 0
45 2 S116 777 896600 5097 0
45 2 S116 801 897401 5898 0
45 2 S116 787 898188 6685 0
0 0 0 757 898945 -10960 0
0 0 0 760 899705 -10200 0
0 0 0 758 900463 -9442 0
0 0 0 760 901223 -8682 0
0 0 0 728 901951 -7954 0
0 0 0 734 902685 -7220 0
0 0 0 734 903419 -6486 0
0 0 0 733 904152 -5753 0
0 0 0 722 904874 -5031 0
0 0 0 749 905623 -4282 0
0 0 0 777 906400 -3505 0
0 0 0 796 907196 -2709 0
46 1 S102 779 907975 -1930 0
46 1 S102 796 908771 -1134 0
46 1 S102 815 909586 -319 0
46 2 S102 796 910382 477 0
46 2 S102 789 911171 1266 0
46 2 S102 771 911942 2037 0
46 2 S102 758 912700 2795 0
46 2 S102 754 913454 3549 0
46 2 S102 778 914232 4327 0
46 2 S102 786 915018 5113 0
46 2 S102 762 915780 5875 0
46 2 S102 778 916558 6653 0
0 0 0 765 917323 -8498 0
0 0 0 735 918058 -7763 0
0 0 0 744 918802 -7019 0
0 0 0 745 919547 -6274 0
0 0 0 727 920274 -5547 0
0 0 0 715 920989 -4832 0
0 0 0 738 921727 -4094 0
0 0 0 739 922466 -3355 0
0 0 0 730 923196 -2625 0
47 1 S112 744 923940 -1881 0
47 1 S112 734 924674 -1147 0
47 1 S112 707 925381 -440 0
47 2 S112 703 926084 263 0
47 2 S112 697 926781 960 0
47 2 S112 737 927518 1697 0
47 2 S112 765 928283 2462 0
47 2 S112 752 929035 3214 0
47 2 S112 734 929769 3948 0
47 2 S112 743 930512 4691 0
47 2 S112 743 931255 5434 0
47 2 S112 761 932016 6195 0
47 2 S112 736 932752 6931 0
0 0 0 735 933487 -10918 0
0 0 0 721 934208 -10197 0
0 0 0 724 934932 -9473 0
0 0 0 706 935638 -8767 0
0 0 0 701 936339 -8066 0
0 0 0 698 937037 -7368 0
0 0 0 684 937721 -6684 0
0 0 0 675 938396 -6009 0
0 0 0 674 939070 -5335 0
0 0 0 708 939778 -4627 0
0 0 0 692 940470 -3935 0
0 0 0 708 941178 -3227 0
0 0 0 761 941939 -2466 0
48 1 S116 779 942718 -1687 0
48 1 S116 767 943485 -920 0
48 1 S116 734 944219 -186 0
48 2 S116 709 944928 523 0
48 2 S116 685 945613 1208 0
48 2 S116 669 946282 1877 0
48 2 S116 650 946932 2527 0
48 2 S116 640 947572 3167 0
48 2 S116 645 948217 3812 0
48 2 S116 670 948887 4482 0
48 2 S116 716 949603 5198 0
48 2 S116 772 950375 5970 0
48 2 S116 821 951196 6791 0
0 0 0 849 952045 -6717 0
0 0 0 830 952875 -5887 0
0 0 0 784 953659 -5103 0
0 0 0 748 954407 -4355 0
0 0 0 752 955159 -3603 0
0 0 0 756 955915 -2847 0
0 0 0 741 956656 -2106 0
49 1 S112 718 957374 -1388 0
49 1 S112 738 958112 -650 0
49 2 S112 776 958888 126 0
49 2 S112 829 959717 955 0
49 2 S112 807 960524 1762 0
49 2 S112 861 961385 2623 0
49 2 S112 889 962274 3512 1
49 2 S112 829 963103 4341 0
49 2 S112 778 963881 5119 0
49 2 S112 783 964664 5902 0
49 2 S112 788 965452 6690 0
0 0 0 795 966247 -10768 0
0 0 0 780 967027 -9988 0
0 0 0 790 967817 -9198 0
0 0 0 771 968588 -8427 0
0 0 0 745 969333 -7682 0
0 0 0 724 970057 -6958 0
0 0 0 699 970756 -6259 0
0 0 0 688 971444 -5571 0
0 0 0 677 972121 -4894 0
0 0 0 674 972795 -4220 0
0 0 0 687 973482 -3533 0
0 0 0 746 974228 -2787 0
50 1 S106 787 975015 -2000 0
50 1 S106 766 975781 -1234 0
50 1 S106 795 976576 -439 0
50 2 S106 809 977385 370 0
50 2 S106 797 978182 1167 0
50 2 S106 763 978945 1930 0
50 2 S106 766 979711 2696 0
50 2 S106 765 980476 3461 0
50 2 S106 755 981231 4216 0
50 2 S106 726 981957 4942 0
50 2 S106 735 982692 5677 0
50 2 S106 722 983414 6399 0
0 0 0 716 984130 -6429 0
0 0 0 736 984866 -5693 0
0 0 0 763 985629 -4930 0
0 0 0 755 986384 -4175 0
0 0 0 737 987121 -3438 0
0 0 0 742 987863 -2696 0
51 1 S112 734 988597 -1962 0
51 1 S112 716 989313 -1246 0
51 1 S112 718 990031 -528 0
51 2 S112 717 990748 189 0
51 2 S112 725 991473 914 0
51 2 S112 714 992187 1628 0
51 2 S112 717 992904 2345 0
51 2 S112 728 993632 3073 0
51 2 S112 761 994393 3834 0
51 2 S112 765 995158 4599 0
51 2 S112 761 995919 5360 0
51 2 S112 723 996642 6083 0
51 2 S112 725 997367 6808 0
0 0 0 709 998076 -6724 0
0 0 0 707 998783 -6017 0
0 0 0 684 999467 -5333 0
0 0 0 690 1000157 -4643 0
0 0 0 683 1000840 -3960 0
0 0 0 680 1001520 -3280 0
0 0 0 732 1002252 -2548 0
52 1 S116 738 1002990 -1810 0
52 1 S116 769 1003759 -1041 0
52 1 S116 804 1004563 -237 0
52 2 S116 828 1005391 591 0
52 2 S116 842 1006233 1433 0
52 2 S116 805 1007038 2238 0
52 2 S116 764 1007802 3002 0
52 2 S116 756 1008558 3758 0
52 2 S116 754 1009312 4512 0
52 2 S116 761 1010073 5273 0
52 2 S116 745 1010818 6018 0
52 2 S116 704 1011522 6722 0
0 0 0 726 1012248 -9429 0
0 0 0 717 1012965 -8712 0
0 0 0 719 1013684 -7993 0
0 0 0 722 1014406 -7271 0
0 0 0 724 1015130 -6547 0
0 0 0 721 1015851 -5826 0
0 0 0 694 1016545 -5132 0
0 0 0 695 1017240 -4437 0
0 0 0 693 1017933 -3744 0
0 0 0 712 1018645 -3032 0
0 0 0 749 1019394 -2283 0
53 1 S106 709 1020103 -1574 0
53 1 S106 709 1020812 -865 0
53 1 S106 719 1021531 -146 0
53 2 S106 756 1022287 610 0
53 2 S106 818 1023105 1428 0
53 2 S106 845 1023950 2273 0
53 2 S106 832 1024782 3105 0
53 2 S106 751 1025533 3856 0
53 2 S106 758 1026291 4614 0
53 2 S106 745 1027036 5359 0
53 2 S106 766 1027802 6125 0
53 2 S106 772 1028574 6897 0
0 0 0 747 1029321 -6564 0
0 0 0 784 1030105 -5780 0
0 0 0 816 1030921 -4964 0
0 0 0 781 1031702 -4183 0
0 0 0 750 1032452 -3433 0
0 0 0 762 1033214 -2671 0
54 1 S102 794 1034008 -1877 0
54 1 S102 816 1034824 -1061 0
54 1 S102 780 1035604 -281 0
54 2 S102 741 1036345 460 0
54 2 S102 740 1037085 1200 0
54 2 S102 733 1037818 1933 0
54 2 S102 730 1038548 2663 0
54 2 S102 708 1039256 3371 0
54 2 S102 702 1039958 4073 0
54 2 S102 738 1040696 4811 0
54 2 S102 718 1041414 5529 0
54 2 S102 726 1042140 6255 0
54 2 S102 751 1042891 7006 0
0 0 0 775 1043666 -10273 0
0 0 0 775 1044441 -9498 0
0 0 0 760 1045201 -8738 0
0 0 0 752 1045953 -7986 0
0 0 0 753 1046706 -7233 0
0 0 0 726 1047432 -6507 0
0 0 0 710 1048142 -5797 0
0 0 0 707 1048849 -5090 0
0 0 0 721 1049570 -4369 0
0 0 0 756 1050326 -3613 0
0 0 0 741 1051067 -2872 0
0 0 0 791 1051858 -2081 0
55 1 S106 821 1052679 -1260 0
55 1 S106 863 1053542 -397 0
55 2 S106 829 1054371 432 0
55 2 S106 849 1055220 1281 0
55 2 S106 819 1056039 2100 0
55 2 S106 763 1056802 2863 0
55 2 S106 762 1057564 3625 0
55 2 S106 772 1058336 4397 0
55 2 S106 761 1059097 5158 0
55 2 S106 742 1059839 5900 0
55 2 S106 771 1060610 6671 0
0 0 0 785 1061395 -5806 0
0 0 0 758 1062153 -5048 0
0 0 0 748 1062901 -4300 0
0 0 0 761 1063662 -3539 0
0 0 0 729 1064391 -2810 0
0 0 0 700 1065091 -2110 0
56 1 S116 700 1065791 -1410 0
56 1 S116 692 1066483 -718 0
56 1 S116 696 1067179 -22 0
56 2 S116 743 1067922 721 0
56 2 S116 793 1068715 1514 0
56 2 S116 781 1069496 2295 0
56 2 S116 822 1070318 3117 0
56 2 S116 838 1071156 3955 0
56 2 S116 857 1072013 4812 0
56 2 S116 780 1072793 5592 0
56 2 S116 781 1073574 6373 0
0 0 0 775 1074349 -6513 0
0 0 0 751 1075100 -5762 0
0 0 0 737 1075837 -5025 0
0 0 0 746 1076583 -4279 0
0 0 0 758 1077341 -3521 0
0 0 0 770 1078111 -2751 0
57 1 S106 765 1078876 -1986 0
57 1 S106 781 1079657 -1205 0
57 1 S106 790 1080447 -415 0
57 2 S106 773 1081220 358 0
57 2 S106 783 1082003 1141 0
57 2 S106 785 1082788 1926 0
57 2 S106 755 1083543 2681 0
57 2 S106 723 1084266 3404 0
57 2 S106 723 1084989 4127 0
57 2 S106 728 1085717 4855 0
57 2 S106 716 1086433 5571 0
57 2 S106 743 1087176 6314 0
0 0 0 771 1087947 -8399 0
0 0 0 782 1088729 -7617 0
0 0 0 749 1089478 -6868 0
0 0 0 770 1090248 -6098 0
0 0 0 747 1090995 -5351 0
0 0 0 716 1091711 -4635 0
0 0 0 716 1092427 -3919 0
0 0 0 710 1093137 -3209 0
0 0 0 701 1093838 -2508 0
58 1 S102 677 1094515 -1831 0
58 1 S102 672 1095187 -1159 0
58 1 S102 677 1095864 -482 0
58 2 S102 699 1096563 217 0
58 2 S102 701 1097264 918 0
58 2 S102 728 1097992 1646 0
58 2 S102 748 1098740 2394 0
58 2 S102 780 1099520 3174 0
58 2 S102 761 1100281 3935 0
58 2 S102 772 1101053 4707 0
58 2 S102 775 1101828 5482 0
58 2 S102 748 1102576 6230 0
58 2 S102 728 1103304 6958 0
0 0 0 748 1104052 -7331 0
0 0 0 766 1104818 -6565 0
0 0 0 774 1105592 -5791 0
0 0 0 771 1106363 -5020 0
0 0 0 789 1107152 -4231 0
0 0 0 792 1107944 -3439 0
0 0 0 754 1108698 -2685 0
59 1 S112 774 1109472 -1911 0
59 1 S112 785 1110257 -1126 0
59 1 S112 758 1111015 -368 0
59 2 S112 731 1111746 363 0
59 2 S112 762 1112508 1125 0
59 2 S112 783 1113291 1908 0
59 2 S112 788 1114079 2696 0
59 2 S112 819 1114898 3515 0
59 2 S112 838 1115736 4353 0
59 2 S112 839 1116575 5192 0
59 2 S112 808 1117383 6000 0
59 2 S112 828 1118211 6828 0
0 0 0 780 1118991 -7710 0
0 0 0 747 1119738 -6963 0
0 0 0 751 1120489 -6212 0
0 0 0 733 1121222 -5479 0
0 0 0 696 1121918 -4783 0
0 0 0 679 1122597 -4104 0
0 0 0 677 1123274 -3427 0
0 0 0 698 1123972 -2729 0
0 0 0 688 1124660 -2041 0
60 1 S102 722 1125382 -1319 0
60 1 S102 823 1126205 -496 0
60 2 S102 864 1127069 368 0
60 2 S102 898 1127967 1266 1
60 2 S102 885 1128852 2151 1
60 2 S102 858 1129710 3009 0
60 2 S102 836 1130546 3845 0
60 2 S102 793 1131339 4638 0
60 2 S102 771 1132110 5409 0
60 2 S102 755 1132865 6164 0
60 2 S102 735 1133600 6899 0
0 0 0 724 1134324 -9818 0
0 0 0 736 1135060 -9082 0
0 0 0 726 1135786 -8356 0
0 0 0 743 1136529 -7613 0
0 0 0 761 1137290 -6852 0
0 0 0 735 1138025 -6117 0
0 0 0 742 1138767 -5375 0
0 0 0 757 1139524 -4618 0
0 0 0 761 1140285 -3857 0
0 0 0 787 1141072 -3070 0
0 0 0 791 1141863 -2279 0
61 1 S106 781 1142644 -1498 0
61 1 S106 791 1143435 -707 0
61 2 S106 787 1144222 80 0
61 2 S106 762 1144984 842 0
61 2 S106 794 1145778 1636 0
61 2 S106 859 1146637 2495 0
61 2 S106 879 1147516 3374 1
61 2 S106 819 1148335 4193 0
61 2 S106 847 1149182 5040 0
61 2 S106 854 1150036 5894 0
61 2 S106 782 1150818 6676 0
0 0 0 765 1151583 -6368 0
0 0 0 780 1152363 -5588 0
0 0 0 783 1153146 -4805 0
0 0 0 754 1153900 -4051 0
0 0 0 724 1154624 -3327 0
0 0 0 730 1155354 -2597 0
62 1 S112 731 1156085 -1866 0
62 1 S112 769 1156854 -1097 0
62 1 S112 776 1157630 -321 0
62 2 S112 752 1158382 431 0
62 2 S112 796 1159178 1227 0
62 2 S112 832 1160010 2059 0
62 2 S112 829 1160839 2888 0
62 2 S112 825 1161664 3713 0
62 2 S112 822 1162486 4535 0
62 2 S112 825 1163311 5360 0
62 2 S112 771 1164082 6131 0
62 2 S112 776 1164858 6907 0
0 0 0 792 1165650 -10272 0
0 0 0 774 1166424 -9498 0
0 0 0 734 1167158 -8764 0
0 0 0 755 1167913 -8009 0
0 0 0 742 1168655 -7267 0
0 0 0 720 1169375 -6547 0
0 0 0 724 1170099 -5823 0
0 0 0 738 1170837 -5085 0
0 0 0 737 1171574 -4348 0
0 0 0 728 1172302 -3620 0
0 0 0 757 1173059 -2863 0
0 0 0 773 1173832 -2090 0
63 1 S102 776 1174608 -1314 0
63 1 S102 737 1175345 -577 0
63 2 S102 737 1176082 160 0
63 2 S102 726 1176808 886 0
63 2 S102 759 1177567 1645 0
63 2 S102 749 1178316 2394 0
63 2 S102 761 1179077 3155 0
63 2 S102 781 1179858 3936 0
63 2 S102 744 1180602 4680 0
63 2 S102 734 1181336 5414 0
63 2 S102 742 1182078 6156 0
63 2 S102 764 1182842 6920 0
0 0 0 771 1183613 -7876 0
0 0 0 739 1184352 -7137 0
0 0 0 742 1185094 -6395 0
0 0 0 719 1185813 -5676 0
0 0 0 697 1186510 -4979 0
0 0 0 682 1187192 -4297 0
0 0 0 663 1187855 -3634 0
0 0 0 651 1188506 -2983 0
0 0 0 662 1189168 -2321 0
64 1 S112 684 1189852 -1637 0
64 1 S112 733 1190585 -904 0
64 1 S112 771 1191356 -133 0
64 2 S112 781 1192137 648 0
64 2 S112 759 1192896 1407 0
64 2 S112 759 1193655 2166 0
64 2 S112 750 1194405 2916 0
64 2 S112 758 1195163 3674 0
64 2 S112 730 1195893 4404 0
64 2 S112 714 1196607 5118 0
64 2 S112 723 1197330 5841 0
64 2 S112 730 1198060 6571 0
0 0 0 755 1198815 -6650 0
0 0 0 736 1199551 -5914 0
0 0 0 755 1200306 -5159 0
0 0 0 756 1201062 -4403 0
0 0 0 724 1201786 -3679 0
0 0 0 723 1202509 -2956 0
0 0 0 733 1203242 -2223 0
65 1 S106 745 1203987 -1478 0
65 1 S106 729 1204716 -749 0
65 2 S106 786 1205502 37 0
65 2 S106 838 1206340 875 0
65 2 S106 765 1207105 1640 0
65 2 S106 750 1207855 2390 0
65 2 S106 747 1208602 3137 0
65 2 S106 737 1209339 3874 0
65 2 S106 715 1210054 4589 0
65 2 S106 693 1210747 5282 0
65 2 S106 694 1211441 5976 0
65 2 S106 683 1212124 6659 0
0 0 0 673 1212797 -6130 0
0 0 0 668 1213465 -5462 0
0 0 0 664 1214129 -4798 0
0 0 0 666 1214795 -4132 0
0 0 0 668 1215463 -3464 0
0 0 0 693 1216156 -2771 0
0 0 0 700 1216856 -2071 0
66 1 S116 686 1217542 -1385 0
66 1 S116 697 1218239 -688 0
66 2 S116 722 1218961 34 0
66 2 S116 739 1219700 773 0
66 2 S116 754 1220454 1527 0
66 2 S116 720 1221174 2247 0
66 2 S116 729 1221903 2976 0
66 2 S116 733 1222636 3709 0
66 2 S116 782 1223418 4491 0
66 2 S116 805 1224223 5296 0
66 2 S116 820 1225043 6116 0
66 2 S116 770 1225813 6886 0
0 0 0 733 1226546 -10899 0
0 0 0 724 1227270 -10175 0
0 0 0 720 1227990 -9455 0
0 0 0 704 1228694 -8751 0
0 0 0 685 1229379 -8066 0
0 0 0 703 1230082 -7363 0
0 0 0 687 1230769 -6676 0
0 0 0 690 1231459 -5986 0
0 0 0 682 1232141 -5304 0
0 0 0 665 1232806 -4639 0
0 0 0 667 1233473 -3972 0
0 0 0 673 1234146 -3299 0
0 0 0 673 1234819 -2626 0
67 1 S102 697 1235516 -1929 0
67 1 S102 749 1236265 -1180 0
67 1 S102 758 1237023 -422 0
67 2 S102 746 1237769 324 0
67 2 S102 786 1238555 1110 0
67 2 S102 824 1239379 1934 0
67 2 S102 795 1240174 2729 0
67 2 S102 749 1240923 3478 0
67 2 S102 737 1241660 4215 0
67 2 S102 725 1242385 4940 0
67 2 S102 733 1243118 5673 0
67 2 S102 745 1243863 6418 0
0 0 0 714 1244577 -6810 0
0 0 0 763 1245340 -6047 0
0 0 0 781 1246121 -5266 0
0 0 0 791 1246912 -4475 0
0 0 0 743 1247655 -3732 0
0 0 0 770 1248425 -2962 0
0 0 0 776 1249201 -2186 0
68 1 S106 804 1250005 -1382 0
68 1 S106 763 1250768 -619 0
68 2 S106 769 1251537 150 0
68 2 S106 771 1252308 921 0
68 2 S106 799 1253107 1720 0
68 2 S106 774 1253881 2494 0
68 2 S106 775 1254656 3269 0
68 2 S106 786 1255442 4055 0
68 2 S106 750 1256192 4805 0
68 2 S106 718 1256910 5523 0
68 2 S106 730 1257640 6253 0
68 2 S106 708 1258348 6961 0
0 0 0 693 1259041 -10765 0
0 0 0 686 1259727 -10079 0
0 0 0 681 1260408 -9398 0
0 0 0 682 1261090 -8716 0
0 0 0 687 1261777 -8029 0
0 0 0 725 1262502 -7304 0
0 0 0 794 1263296 -6510 0
0 0 0 873 1264169 -5637 0
0 0 0 803 1264972 -4834 0
0 0 0 760 1265732 -4074 0
0 0 0 717 1266449 -3357 0
0 0 0 706 1267155 -2651 0
69 1 S102 699 1267854 -1952 0
69 1 S102 716 1268570 -1236 0
69 1 S102 735 1269305 -501 0
69 2 S102 700 1270005 199 0
69 2 S102 684 1270689 883 0
69 2 S102 688 1271377 1571 0
69 2 S102 684 1272061 2255 0
69 2 S102 722 1272783 2977 0
69 2 S102 852 1273635 3829 0
69 2 S102 840 1274475 4669 0
69 2 S102 840 1275315 5509 0
69 2 S102 853 1276168 6362 0
0 0 0 869 1277037 -8783 0
0 0 0 806 1277843 -7977 0
0 0 0 809 1278652 -7168 0
0 0 0 803 1279455 -6365 0
0 0 0 754 1280209 -5611 0
0 0 0 717 1280926 -4894 0
0 0 0 705 1281631 -4189 0
0 0 0 678 1282309 -3511 0
0 0 0 659 1282968 -2852 0
0 0 0 656 1283624 -2196 0
70 1 S112 676 1284300 -1520 0
70 1 S112 693 1284993 -827 0
70 1 S112 741 1285734 -86 0
70 2 S112 836 1286570 750 0
70 2 S112 867 1287437 1617 0
70 2 S112 848 1288285 2465 0
70 2 S112 901 1289186 3366 1
70 2 S112 950 1290136 4316 1
70 2 S112 895 1291031 5211 1
70 2 S112 801 1291832 6012 0
70 2 S112 807 1292639 6819 0
0 0 0 800 1293439 -12375 0
0 0 0 775 1294214 -11600 0
0 0 0 765 1294979 -10835 0
0 0 0 793 1295772 -10042 0
0 0 0 812 1296584 -9230 0
0 0 0 770 1297354 -8460 0
0 0 0 794 1298148 -7666 0
0 0 0 778 1298926 -6888 0
0 0 0 741 1299667 -6147 0
0 0 0 741 1300408 -5406 0
0 0 0 754 1301162 -4652 0
0 0 0 748 1301910 -3904 0
0 0 0 745 1302655 -3159 0
0 0 0 721 1303376 -2438 0
71 1 S116 735 1304111 -1703 0
71 1 S116 740 1304851 -963 0
71 1 S116 760 1305611 -203 0
71 2 S116 735 1306346 532 0
71 2 S116 740 1307086 1272 0
71 2 S116 745 1307831 2017 0
71 2 S116 739 1308570 2756 0
71 2 S116 757 1309327 3513 0
71 2 S116 754 1310081 4267 0
71 2 S116 734 1310815 5001 0
71 2 S116 745 1311560 5746 0
71 2 S116 755 1312315 6501 0
0 0 0 763 1313078 -9712 0
0 0 0 755 1313833 -8957 0
0 0 0 715 1314548 -8242 0
0 0 0 724 1315272 -7518 0
0 0 0 729 1316001 -6789 0
0 0 0 734 1316735 -6055 0
0 0 0 736 1317471 -5319 0
0 0 0 774 1318245 -4545 0
0 0 0 795 1319040 -3750 0
0 0 0 785 1319825 -2965 0
0 0 0 774 1320599 -2191 0
72 1 S102 771 1321370 -1420 0
72 1 S102 732 1322102 -688 0
72 2 S102 728 1322830 40 0
72 2 S102 718 1323548 758 0
72 2 S102 722 1324270 1480 0
72 2 S102 718 1324988 2198 0
72 2 S102 718 1325706 2916 0
72 2 S102 717 1326423 3633 0
72 2 S102 687 1327110 4320 0
72 2 S102 673 1327783 4993 0
72 2 S102 673 1328456 5666 0
72 2 S102 664 1329120 6330 0
72 2 S102 673 1329793 7003 0
0 0 0 710 1330503 -6031 0
0 0 0 781 1331284 -5250 0
0 0 0 810 1332094 -4440 0
0 0 0 851 1332945 -3589 0
0 0 0 906 1333851 -2683 1
73 1 S116 919 1334770 -1764 1
73 1 S116 924 1335694 -840 1
73 2 S116 892 1336586 52 1
73 2 S116 870 1337456 922 0
73 2 S116 892 1338348 1814 1
73 2 S116 857 1339205 2671 0
73 2 S116 801 1340006 3472 0
73 2 S116 767 1340773 4239 0
73 2 S116 781 1341554 5020 0
73 2 S116 806 1342360 5826 0
73 2 S116 822 1343182 6648 0
0 0 0 776 1343958 -9187 0
0 0 0 732 1344690 -8455 0
0 0 0 726 1345416 -7729 0
0 0 0 708 1346124 -7021 0
0 0 0 684 1346808 -6337 0
0 0 0 664 1347472 -5673 0
0 0 0 664 1348136 -5009 0
0 0 0 681 1348817 -4328 0
0 0 0 753 1349570 -3575 0
0 0 0 849 1350419 -2726 0
74 1 S106 831 1351250 -1895 0
74 1 S106 898 1352148 -997 1
74 1 S106 901 1353049 -96 1
74 2 S106 828 1353877 732 0
74 2 S106 915 1354792 1647 1
74 2 S106 839 1355631 2486 0
74 2 S106 792 1356423 3278 0
74 2 S106 798 1357221 4076 0
74 2 S106 767 1357988 4843 0
74 2 S106 738 1358726 5581 0
74 2 S106 704 1359430 6285 0
74 2 S106 696 1360126 6981 0
0 0 0 685 1360811 -5630 0
0 0 0 669 1361480 -4961 0
0 0 0 666 1362146 -4295 0
0 0 0 670 1362816 -3625 0
0 0 0 679 1363495 -2946 0
0 0 0 698 1364193 -2248 0
75 1 S112 729 1364922 -1519 0
75 1 S112 784 1365706 -735 0
75 2 S112 789 1366495 54 0
75 2 S112 800 1367295 854 0
75 2 S112 788 1368083 1642 0
75 2 S112 766 1368849 2408 0
75 2 S112 754 1369603 3162 0
75 2 S112 721 1370324 3883 0
75 2 S112 729 1371053 4612 0
75 2 S112 744 1371797 5356 0
75 2 S112 775 1372572 6131 0
75 2 S112 788 1373360 6919 0
0 0 0 792 1374152 -6165 0
0 0 0 813 1374965 -5352 0
0 0 0 757 1375722 -4595 0
0 0 0 733 1376455 -3862 0
0 0 0 736 1377191 -3126 0
0 0 0 722 1377913 -2404 0
76 1 S116 725 1378638 -1679 0
76 1 S116 724 1379362 -955 0
76 1 S116 701 1380063 -254 0
76 2 S116 707 1380770 453 0
76 2 S116 731 1381501 1184 0
76 2 S116 758 1382259 1942 0
76 2 S116 786 1383045 2728 0
76 2 S116 771 1383816 3499 0
76 2 S116 788 1384604 4287 0
76 2 S116 808 1385412 5095 0
76 2 S116 825 1386237 5920 0
76 2 S116 817 1387054 6737 0
0 0 0 763 1387817 -6211 0
0 0 0 767 1388584 -5444 0
0 0 0 770 1389354 -4674 0
0 0 0 750 1390104 -3924 0
0 0 0 726 1390830 -3198 0
0 0 0 751 1391581 -2447 0
77 1 S106 777 1392358 -1670 0
77 1 S106 819 1393177 -851 0
77 1 S106 772 1393949 -79 0
77 2 S106 789 1394738 710 0
77 2 S106 807 1395545 1517 0
77 2 S106 788 1396333 2305 0
77 2 S106 752 1397085 3057 0
77 2 S106 787 1397872 3844 0
77 2 S106 787 1398659 4631 0
77 2 S106 767 1399426 5398 0
77 2 S106 717 1400143 6115 0
77 2 S106 716 1400859 6831 0
0 0 0 724 1401583 -7896 0
0 0 0 751 1402334 -7145 0
0 0 0 784 1403118 -6361 0
0 0 0 772 1403890 -5589 0
0 0 0 737 1404627 -4852 0
0 0 0 737 1405364 -4115 0
0 0 0 744 1406108 -3371 0
0 0 0 779 1406887 -2592 0
78 1 S112 763 1407650 -1829 0
78 1 S112 802 1408452 -1027 0
78 1 S112 865 1409317 -162 0
78 2 S112 888 1410205 726 1
78 2 S112 854 1411059 1580 0
78 2 S112 838 1411897 2418 0
78 2 S112 839 1412736 3257 0
78 2 S112 837 1413573 4094 0
78 2 S112 811 1414384 4905 0
78 2 S112 817 1415201 5722 0
78 2 S112 809 1416010 6531 0
0 0 0 762 1416772 -10263 0
0 0 0 767 1417539 -9496 0
0 0 0 764 1418303 -8732 0
0 0 0 728 1419031 -8004 0
0 0 0 718 1419749 -7286 0
0 0 0 718 1420467 -6568 0
0 0 0 709 1421176 -5859 0
0 0 0 702 1421878 -5157 0
0 0 0 715 1422593 -4442 0
0 0 0 721 1423314 -3721 0
0 0 0 752 1424066 -2969 0
0 0 0 766 1424832 -2203 0
79 1 S102 748 1425580 -1455 0
79 1 S102 756 1426336 -699 0
79 2 S102 771 1427107 72 0
79 2 S102 790 1427897 862 0
79 2 S102 732 1428629 1594 0
79 2 S102 720 1429349 2314 0
79 2 S102 706 1430055 3020 0
79 2 S102 709 1430764 3729 0
79 2 S102 699 1431463 4428 0
79 2 S102 719 1432182 5147 0
79 2 S102 743 1432925 5890 0
79 2 S102 755 1433680 6645 0
0 0 0 747 1434427 -8026 0
0 0 0 774 1435201 -7252 0
0 0 0 762 1435963 -6490 0
0 0 0 721 1436684 -5769 0
0 0 0 712 1437396 -5057 0
0 0 0 695 1438091 -4362 0
0 0 0 691 1438782 -3671 0
0 0 0 684 1439466 -2987 0
0 0 0 682 1440148 -2305 0
80 1 S116 692 1440840 -1613 0
80 1 S116 714 1441554 -899 0
80 1 S116 748 1442302 -151 0
80 2 S116 753 1443055 602 0
80 2 S116 791 1443846 1393 0
80 2 S116 805 1444651 2198 0
80 2 S116 847 1445498 3045 0
80 2 S116 808 1446306 3853 0
80 2 S116 820 1447126 4673 0
80 2 S116 846 1447972 5519 0
80 2 S116 831 1448803 6350 0
