T_0052
BeatCount Mean SD BeatCountNoOutliers MeanNoOutliers SDNoOutliers
2010 796,180099502488 84,3015127341635 1971 790,131405377981 72,6605673468352

Trial TrialStatus Trialtype IBI AbsPosition RelPosition Outlier
0 0 0 841 1154 -13417 0
0 0 0 769 1923 -12648 0
0 0 0 737 2660 -11911 0
0 0 0 724 3384 -11187 0
0 0 0 772 4156 -10415 0
0 0 0 871 5027 -9544 0
0 0 0 829 5856 -8715 0
0 0 0 779 6635 -7936 0
0 0 0 730 7365 -7206 0
0 0 0 738 8103 -6468 0
0 0 0 844 8947 -5624 0
0 0 0 1226 10173 -4398 1
0 0 0 1121 11294 -3277 1
0 0 0 865 12159 -2412 0
1 1 S112 819 12978 -1593 0
1 1 S112 876 13854 -717 0
1 2 S112 881 14735 164 0
1 2 S112 826 15561 990 0
1 2 S112 904 16465 1894 0
1 2 S112 1091 17556 2985 1
1 2 S112 1056 18612 4041 1
1 2 S112 881 19493 4922 0
1 2 S112 906 20399 5828 0
1 2 S112 956 21355 6784 0
0 0 0 885 22240 -11081 0
0 0 0 846 23086 -10235 0
0 0 0 917 24003 -9318 0
0 0 0 961 24964 -8357 0
0 0 0 816 25780 -7541 0
0 0 0 826 26606 -6715 0
0 0 0 946 27552 -5769 0
0 0 0 966 28518 -4803 0
0 0 0 913 29431 -3890 0
0 0 0 865 30296 -3025 0
0 0 0 935 31231 -2090 0
2 1 S102 891 32122 -1199 0
2 1 S102 832 32954 -367 0
2 2 S102 880 33834 513 0
2 2 S102 904 34738 1417 0
2 2 S102 854 35592 2271 0
2 2 S102 760 36352 3031 0
2 2 S102 804 37156 3835 0
2 2 S102 814 37970 4649 0
2 2 S102 883 38853 5532 0
2 2 S102 876 39729 6408 0
0 0 0 828 40557 -8232 0
0 0 0 859 41416 -7373 0
0 0 0 952 42368 -6421 0
0 0 0 864 43232 -5557 0
0 0 0 817 44049 -4740 0
0 0 0 873 44922 -3867 0
0 0 0 935 45857 -2932 0
0 0 0 888 46745 -2044 0
3 1 S116 816 47561 -1228 0
3 1 S116 884 48445 -344 0
3 2 S116 954 49399 610 0
3 2 S116 919 50318 1529 0
3 2 S116 903 51221 2432 0
3 2 S116 967 52188 3399 0
3 2 S116 961 53149 4360 0
3 2 S116 836 53985 5196 0
3 2 S116 899 54884 6095 0
0 0 0 960 55844 -11562 0
0 0 0 1069 56913 -10493 1
0 0 0 842 57755 -9651 0
0 0 0 914 58669 -8737 0
0 0 0 826 59495 -7911 0
0 0 0 833 60328 -7078 0
0 0 0 929 61257 -6149 0
0 0 0 1012 62269 -5137 0
0 0 0 861 63130 -4276 0
0 0 0 832 63962 -3444 0
0 0 0 862 64824 -2582 0
4 1 S106 884 65708 -1698 0
4 1 S106 837 66545 -861 0
4 1 S106 853 67398 -8 0
4 2 S106 910 68308 902 0
4 2 S106 937 69245 1839 0
4 2 S106 877 70122 2716 0
4 2 S106 867 70989 3583 0
4 2 S106 961 71950 4544 0
4 2 S106 963 72913 5507 0
4 2 S106 871 73784 6378 0
0 0 0 844 74628 -6273 0
0 0 0 907 75535 -5366 0
0 0 0 944 76479 -4422 0
0 0 0 945 77424 -3477 0
0 0 0 812 78236 -2665 0
5 1 S116 835 79071 -1830 0
5 1 S116 901 79972 -929 0
5 1 S116 882 80854 -47 0
5 2 S116 865 81719 818 0
5 2 S116 795 82514 1613 0
5 2 S116 845 83359 2458 0
5 2 S116 900 84259 3358 0
5 2 S116 856 85115 4214 0
5 2 S116 792 85907 5006 0
5 2 S116 837 86744 5843 0
5 2 S116 930 87674 6773 0
0 0 0 970 88644 -8802 0
0 0 0 919 89563 -7883 0
0 0 0 861 90424 -7022 0
0 0 0 851 91275 -6171 0
0 0 0 818 92093 -5353 0
0 0 0 800 92893 -4553 0
0 0 0 808 93701 -3745 0
0 0 0 858 94559 -2887 0
0 0 0 803 95362 -2084 0
6 1 S106 765 96127 -1319 0
6 1 S106 847 96974 -472 0
6 2 S106 918 97892 446 0
6 2 S106 982 98874 1428 0
6 2 S106 788 99662 2216 0
6 2 S106 763 100425 2979 0
6 2 S106 794 101219 3773 0
6 2 S106 1161 102380 4934 1
6 2 S106 1049 103429 5983 1
6 2 S106 896 104325 6879 0
0 0 0 801 105126 -9412 0
0 0 0 833 105959 -8579 0
0 0 0 801 106760 -7778 0
0 0 0 804 107564 -6974 0
0 0 0 855 108419 -6119 0
0 0 0 892 109311 -5227 0
0 0 0 819 110130 -4408 0
0 0 0 846 110976 -3562 0
0 0 0 907 111883 -2655 0
7 1 S102 872 112755 -1783 0
7 1 S102 806 113561 -977 0
7 1 S102 774 114335 -203 0
7 2 S102 786 115121 583 0
7 2 S102 823 115944 1406 0
7 2 S102 918 116862 2324 0
7 2 S102 882 117744 3206 0
7 2 S102 797 118541 4003 0
7 2 S102 817 119358 4820 0
7 2 S102 862 120220 5682 0
7 2 S102 844 121064 6526 0
0 0 0 785 121849 -8141 0
0 0 0 819 122668 -7322 0
0 0 0 859 123527 -6463 0
0 0 0 812 124339 -5651 0
0 0 0 738 125077 -4913 0
0 0 0 745 125822 -4168 0
0 0 0 723 126545 -3445 0
0 0 0 755 127300 -2690 0
8 1 S112 828 128128 -1862 0
8 1 S112 762 128890 -1100 0
8 1 S112 724 129614 -376 0
8 2 S112 759 130373 383 0
8 2 S112 892 131265 1275 0
8 2 S112 1089 132354 2364 1
8 2 S112 910 133264 3274 0
8 2 S112 830 134094 4104 0
8 2 S112 882 134976 4986 0
8 2 S112 912 135888 5898 0
8 2 S112 883 136771 6781 0
0 0 0 806 137577 -6968 0
0 0 0 895 138472 -6073 0
0 0 0 975 139447 -5098 0
0 0 0 903 140350 -4195 0
0 0 0 829 141179 -3366 0
0 0 0 887 142066 -2479 0
9 1 S116 939 143005 -1540 0
9 1 S116 851 143856 -689 0
9 2 S116 819 144675 130 0
9 2 S116 868 145543 998 0
9 2 S116 934 146477 1932 0
9 2 S116 1019 147496 2951 1
9 2 S116 944 148440 3895 0
9 2 S116 852 149292 4747 0
9 2 S116 898 150190 5645 0
9 2 S116 940 151130 6585 0
0 0 0 884 152014 -11862 0
0 0 0 874 152888 -10988 0
0 0 0 972 153860 -10016 0
0 0 0 965 154825 -9051 0
0 0 0 836 155661 -8215 0
0 0 0 869 156530 -7346 0
0 0 0 908 157438 -6438 0
0 0 0 890 158328 -5548 0
0 0 0 800 159128 -4748 0
0 0 0 865 159993 -3883 0
0 0 0 921 160914 -2962 0
10 1 S102 976 161890 -1986 0
10 1 S102 840 162730 -1146 0
10 1 S102 867 163597 -279 0
10 2 S102 906 164503 627 0
10 2 S102 907 165410 1534 0
10 2 S102 827 166237 2361 0
10 2 S102 865 167102 3226 0
10 2 S102 884 167986 4110 0
10 2 S102 853 168839 4963 0
10 2 S102 813 169652 5776 0
10 2 S102 865 170517 6641 0
0 0 0 906 171423 -11286 0
0 0 0 868 172291 -10418 0
0 0 0 858 173149 -9560 0
0 0 0 918 174067 -8642 0
0 0 0 869 174936 -7773 0
0 0 0 818 175754 -6955 0
0 0 0 854 176608 -6101 0
0 0 0 902 177510 -5199 0
0 0 0 855 178365 -4344 0
0 0 0 795 179160 -3549 0
0 0 0 827 179987 -2722 0
11 1 S112 861 180848 -1861 0
11 1 S112 893 181741 -968 0
11 1 S112 809 182550 -159 0
11 2 S112 809 183359 650 0
11 2 S112 865 184224 1515 0
11 2 S112 919 185143 2434 0
11 2 S112 897 186040 3331 0
11 2 S112 909 186949 4240 0
11 2 S112 977 187926 5217 0
11 2 S112 916 188842 6133 0
11 2 S112 841 189683 6974 0
0 0 0 877 190560 -8263 0
0 0 0 918 191478 -7345 0
0 0 0 875 192353 -6470 0
0 0 0 825 193178 -5645 0
0 0 0 897 194075 -4748 0
0 0 0 879 194954 -3869 0
0 0 0 788 195742 -3081 0
0 0 0 817 196559 -2264 0
12 1 S116 797 197356 -1467 0
12 1 S116 784 198140 -683 0
12 2 S116 738 198878 55 0
12 2 S116 738 199616 793 0
12 2 S116 758 200374 1551 0
12 2 S116 809 201183 2360 0
12 2 S116 829 202012 3189 0
12 2 S116 757 202769 3946 0
12 2 S116 787 203556 4733 0
12 2 S116 789 204345 5522 0
12 2 S116 765 205110 6287 0
12 2 S116 730 205840 7017 0
0 0 0 737 206577 -12853 0
0 0 0 747 207324 -12106 0
0 0 0 738 208062 -11368 0
0 0 0 700 208762 -10668 0
0 0 0 716 209478 -9952 0
0 0 0 761 210239 -9191 0
0 0 0 845 211084 -8346 0
0 0 0 799 211883 -7547 0
0 0 0 755 212638 -6792 0
0 0 0 801 213439 -5991 0
0 0 0 851 214290 -5140 0
0 0 0 837 215127 -4303 0
0 0 0 759 215886 -3544 0
0 0 0 762 216648 -2782 0
13 1 S112 789 217437 -1993 0
13 1 S112 863 218300 -1130 0
13 1 S112 876 219176 -254 0
13 2 S112 788 219964 534 0
13 2 S112 789 220753 1323 0
13 2 S112 880 221633 2203 0
13 2 S112 1135 222768 3338 1
13 2 S112 925 223693 4263 0
13 2 S112 830 224523 5093 0
13 2 S112 869 225392 5962 0
13 2 S112 932 226324 6894 0
0 0 0 961 227285 -12752 0
0 0 0 856 228141 -11896 0
0 0 0 878 229019 -11018 0
0 0 0 895 229914 -10123 0
0 0 0 835 230749 -9288 0
0 0 0 866 231615 -8422 0
0 0 0 848 232463 -7574 0
0 0 0 789 233252 -6785 0
0 0 0 776 234028 -6009 0
0 0 0 818 234846 -5191 0
0 0 0 893 235739 -4298 0
0 0 0 863 236602 -3435 0
0 0 0 838 237440 -2597 0
14 1 S106 862 238302 -1735 0
14 1 S106 849 239151 -886 0
14 1 S106 804 239955 -82 0
14 2 S106 842 240797 760 0
14 2 S106 832 241629 1592 0
14 2 S106 785 242414 2377 0
14 2 S106 748 243162 3125 0
14 2 S106 803 243965 3928 0
14 2 S106 842 244807 4770 0
14 2 S106 873 245680 5643 0
14 2 S106 816 246496 6459 0
0 0 0 810 247306 -13338 0
0 0 0 880 248186 -12458 0
0 0 0 936 249122 -11522 0
0 0 0 826 249948 -10696 0
0 0 0 864 250812 -9832 0
0 0 0 1003 251815 -8829 0
0 0 0 843 252658 -7986 0
0 0 0 779 253437 -7207 0
0 0 0 795 254232 -6412 0
0 0 0 821 255053 -5591 0
0 0 0 828 255881 -4763 0
0 0 0 785 256666 -3978 0
0 0 0 846 257512 -3132 0
0 0 0 868 258380 -2264 0
15 1 S116 850 259230 -1414 0
15 1 S116 846 260076 -568 0
15 2 S116 855 260931 287 0
15 2 S116 850 261781 1137 0
15 2 S116 820 262601 1957 0
15 2 S116 853 263454 2810 0
15 2 S116 958 264412 3768 0
15 2 S116 925 265337 4693 0
15 2 S116 831 266168 5524 0
15 2 S116 822 266990 6346 0
0 0 0 836 267826 -11419 0
0 0 0 840 268666 -10579 0
0 0 0 774 269440 -9805 0
0 0 0 823 270263 -8982 0
0 0 0 818 271081 -8164 0
0 0 0 771 271852 -7393 0
0 0 0 813 272665 -6580 0
0 0 0 811 273476 -5769 0
0 0 0 789 274265 -4980 0
0 0 0 740 275005 -4240 0
0 0 0 759 275764 -3481 0
0 0 0 769 276533 -2712 0
16 1 S116 770 277303 -1942 0
16 1 S116 716 278019 -1226 0
16 1 S116 752 278771 -474 0
16 2 S116 775 279546 301 0
16 2 S116 806 280352 1107 0
16 2 S116 778 281130 1885 0
16 2 S116 769 281899 2654 0
16 2 S116 878 282777 3532 0
16 2 S116 993 283770 4525 0
16 2 S116 897 284667 5422 0
16 2 S116 798 285465 6220 0
16 2 S116 802 286267 7022 0
0 0 0 818 287085 -10413 0
0 0 0 800 287885 -9613 0
0 0 0 747 288632 -8866 0
0 0 0 740 289372 -8126 0
0 0 0 790 290162 -7336 0
0 0 0 848 291010 -6488 0
0 0 0 798 291808 -5690 0
0 0 0 772 292580 -4918 0
0 0 0 803 293383 -4115 0
0 0 0 836 294219 -3279 0
0 0 0 784 295003 -2495 0
17 1 S106 785 295788 -1710 0
17 1 S106 830 296618 -880 0
17 1 S106 865 297483 -15 0
17 2 S106 795 298278 780 0
17 2 S106 838 299116 1618 0
17 2 S106 842 299958 2460 0
17 2 S106 908 300866 3368 0
17 2 S106 822 301688 4190 0
17 2 S106 803 302491 4993 0
17 2 S106 841 303332 5834 0
17 2 S106 850 304182 6684 0
0 0 0 793 304975 -10693 0
0 0 0 822 305797 -9871 0
0 0 0 900 306697 -8971 0
0 0 0 832 307529 -8139 0
0 0 0 763 308292 -7376 0
0 0 0 779 309071 -6597 0
0 0 0 790 309861 -5807 0
0 0 0 793 310654 -5014 0
0 0 0 747 311401 -4267 0
0 0 0 712 312113 -3555 0
0 0 0 683 312796 -2872 0
0 0 0 708 313504 -2164 0
18 1 S102 768 314272 -1396 0
18 1 S102 840 315112 -556 0
18 2 S102 885 315997 329 0
18 2 S102 883 316880 1212 0
18 2 S102 860 317740 2072 0
18 2 S102 771 318511 2843 0
18 2 S102 753 319264 3596 0
18 2 S102 729 319993 4325 0
18 2 S102 718 320711 5043 0
18 2 S102 700 321411 5743 0
18 2 S102 669 322080 6412 0
0 0 0 643 322723 -9540 0
0 0 0 636 323359 -8904 0
0 0 0 633 323992 -8271 0
0 0 0 634 324626 -7637 0
0 0 0 659 325285 -6978 0
0 0 0 666 325951 -6312 0
0 0 0 713 326664 -5599 0
0 0 0 820 327484 -4779 0
0 0 0 864 328348 -3915 0
0 0 0 783 329131 -3132 0
0 0 0 773 329904 -2359 0
19 1 S106 803 330707 -1556 0
19 1 S106 838 331545 -718 0
19 2 S106 881 332426 163 0
19 2 S106 806 333232 969 0
19 2 S106 852 334084 1821 0
19 2 S106 863 334947 2684 0
19 2 S106 902 335849 3586 0
19 2 S106 792 336641 4378 0
19 2 S106 767 337408 5145 0
19 2 S106 793 338201 5938 0
19 2 S106 924 339125 6862 0
0 0 0 1159 340284 -11889 1
0 0 0 897 341181 -10992 0
0 0 0 803 341984 -10189 0
0 0 0 838 342822 -9351 0
0 0 0 845 343667 -8506 0
0 0 0 808 344475 -7698 0
0 0 0 777 345252 -6921 0
0 0 0 805 346057 -6116 0
0 0 0 832 346889 -5284 0
0 0 0 811 347700 -4473 0
0 0 0 816 348516 -3657 0
0 0 0 895 349411 -2762 0
20 1 S112 849 350260 -1913 0
20 1 S112 768 351028 -1145 0
20 1 S112 769 351797 -376 0
20 2 S112 778 352575 402 0
20 2 S112 810 353385 1212 0
20 2 S112 846 354231 2058 0
20 2 S112 770 355001 2828 0
20 2 S112 827 355828 3655 0
20 2 S112 911 356739 4566 0
20 2 S112 1047 357786 5613 1
20 2 S112 870 358656 6483 0
0 0 0 844 359500 -11274 0
0 0 0 863 360363 -10411 0
0 0 0 810 361173 -9601 0
0 0 0 785 361958 -8816 0
0 0 0 763 362721 -8053 0
0 0 0 812 363533 -7241 0
0 0 0 919 364452 -6322 0
0 0 0 811 365263 -5511 0
0 0 0 812 366075 -4699 0
0 0 0 809 366884 -3890 0
0 0 0 802 367686 -3088 0
0 0 0 758 368444 -2330 0
21 1 S106 780 369224 -1550 0
21 1 S106 805 370029 -745 0
21 2 S106 865 370894 120 0
21 2 S106 901 371795 1021 0
21 2 S106 871 372666 1892 0
21 2 S106 910 373576 2802 0
21 2 S106 876 374452 3678 0
21 2 S106 808 375260 4486 0
21 2 S106 829 376089 5315 0
21 2 S106 854 376943 6169 0
0 0 0 879 377822 -13559 0
0 0 0 820 378642 -12739 0
0 0 0 810 379452 -11929 0
0 0 0 808 380260 -11121 0
0 0 0 764 381024 -10357 0
0 0 0 792 381816 -9565 0
0 0 0 846 382662 -8719 0
0 0 0 815 383477 -7904 0
0 0 0 752 384229 -7152 0
0 0 0 769 384998 -6383 0
0 0 0 790 385788 -5593 0
0 0 0 793 386581 -4800 0
0 0 0 770 387351 -4030 0
0 0 0 735 388086 -3295 0
0 0 0 763 388849 -2532 0
22 1 S116 786 389635 -1746 0
22 1 S116 798 390433 -948 0
22 1 S116 769 391202 -179 0
22 2 S116 767 391969 588 0
22 2 S116 832 392801 1420 0
22 2 S116 955 393756 2375 0
22 2 S116 1016 394772 3391 1
22 2 S116 881 395653 4272 0
22 2 S116 822 396475 5094 0
22 2 S116 864 397339 5958 0
22 2 S116 887 398226 6845 0
0 0 0 854 399080 -10869 0
0 0 0 760 399840 -10109 0
0 0 0 764 400604 -9345 0
0 0 0 786 401390 -8559 0
0 0 0 895 402285 -7664 0
0 0 0 823 403108 -6841 0
0 0 0 831 403939 -6010 0
0 0 0 837 404776 -5173 0
0 0 0 769 405545 -4404 0
0 0 0 744 406289 -3660 0
0 0 0 718 407007 -2942 0
0 0 0 707 407714 -2235 0
23 1 S112 678 408392 -1557 0
23 1 S112 685 409077 -872 0
23 1 S112 698 409775 -174 0
23 2 S112 675 410450 501 0
23 2 S112 705 411155 1206 0
23 2 S112 746 411901 1952 0
23 2 S112 803 412704 2755 0
23 2 S112 818 413522 3573 0
23 2 S112 758 414280 4331 0
23 2 S112 726 415006 5057 0
23 2 S112 733 415739 5790 0
23 2 S112 758 416497 6548 0
0 0 0 765 417262 -10260 0
0 0 0 744 418006 -9516 0
0 0 0 696 418702 -8820 0
0 0 0 702 419404 -8118 0
0 0 0 747 420151 -7371 0
0 0 0 846 420997 -6525 0
0 0 0 774 421771 -5751 0
0 0 0 791 422562 -4960 0
0 0 0 834 423396 -4126 0
0 0 0 903 424299 -3223 0
0 0 0 814 425113 -2409 0
24 1 S106 777 425890 -1632 0
24 1 S106 822 426712 -810 0
24 2 S106 838 427550 28 0
24 2 S106 774 428324 802 0
24 2 S106 747 429071 1549 0
24 2 S106 766 429837 2315 0
24 2 S106 834 430671 3149 0
24 2 S106 827 431498 3976 0
24 2 S106 808 432306 4784 0
24 2 S106 936 433242 5720 0
24 2 S106 1060 434302 6780 1
0 0 0 879 435181 -10942 0
0 0 0 784 435965 -10158 0
0 0 0 784 436749 -9374 0
0 0 0 791 437540 -8583 0
0 0 0 814 438354 -7769 0
0 0 0 762 439116 -7007 0
0 0 0 785 439901 -6222 0
0 0 0 760 440661 -5462 0
0 0 0 766 441427 -4696 0
0 0 0 728 442155 -3968 0
0 0 0 741 442896 -3227 0
0 0 0 731 443627 -2496 0
25 1 S102 716 444343 -1780 0
25 1 S102 696 445039 -1084 0
25 1 S102 697 445736 -387 0
25 2 S102 676 446412 289 0
25 2 S102 669 447081 958 0
25 2 S102 686 447767 1644 0
25 2 S102 738 448505 2382 0
25 2 S102 782 449287 3164 0
25 2 S102 748 450035 3912 0
25 2 S102 726 450761 4638 0
25 2 S102 756 451517 5394 0
25 2 S102 797 452314 6191 0
0 0 0 868 453182 -9536 0
0 0 0 875 454057 -8661 0
0 0 0 766 454823 -7895 0
0 0 0 773 455596 -7122 0
0 0 0 784 456380 -6338 0
0 0 0 804 457184 -5534 0
0 0 0 802 457986 -4732 0
0 0 0 805 458791 -3927 0
0 0 0 784 459575 -3143 0
0 0 0 737 460312 -2406 0
26 1 S116 748 461060 -1658 0
26 1 S116 734 461794 -924 0
26 1 S116 728 462522 -196 0
26 2 S116 684 463206 488 0
26 2 S116 678 463884 1166 0
26 2 S116 691 464575 1857 0
26 2 S116 738 465313 2595 0
26 2 S116 788 466101 3383 0
26 2 S116 782 466883 4165 0
26 2 S116 752 467635 4917 0
26 2 S116 824 468459 5741 0
26 2 S116 915 469374 6656 0
0 0 0 899 470273 -9040 0
0 0 0 813 471086 -8227 0
0 0 0 790 471876 -7437 0
0 0 0 789 472665 -6648 0
0 0 0 725 473390 -5923 0
0 0 0 723 474113 -5200 0
0 0 0 750 474863 -4450 0
0 0 0 763 475626 -3687 0
0 0 0 728 476354 -2959 0
0 0 0 726 477080 -2233 0
27 1 S106 748 477828 -1485 0
27 1 S106 765 478593 -720 0
27 2 S106 798 479391 78 0
27 2 S106 755 480146 833 0
27 2 S106 796 480942 1629 0
27 2 S106 831 481773 2460 0
27 2 S106 873 482646 3333 0
27 2 S106 835 483481 4168 0
27 2 S106 768 484249 4936 0
27 2 S106 738 484987 5674 0
27 2 S106 751 485738 6425 0
0 0 0 819 486557 -9086 0
0 0 0 901 487458 -8185 0
0 0 0 900 488358 -7285 0
0 0 0 791 489149 -6494 0
0 0 0 849 489998 -5645 0
0 0 0 935 490933 -4710 0
0 0 0 804 491737 -3906 0
0 0 0 762 492499 -3144 0
0 0 0 785 493284 -2359 0
28 1 S102 779 494063 -1580 0
28 1 S102 752 494815 -828 0
28 1 S102 769 495584 -59 0
28 2 S102 818 496402 759 0
28 2 S102 902 497304 1661 0
28 2 S102 807 498111 2468 0
28 2 S102 779 498890 3247 0
28 2 S102 782 499672 4029 0
28 2 S102 827 500499 4856 0
28 2 S102 882 501381 5738 0
28 2 S102 802 502183 6540 0
0 0 0 770 502953 -11489 0
0 0 0 792 503745 -10697 0
0 0 0 846 504591 -9851 0
0 0 0 890 505481 -8961 0
0 0 0 789 506270 -8172 0
0 0 0 794 507064 -7378 0
0 0 0 796 507860 -6582 0
0 0 0 818 508678 -5764 0
0 0 0 767 509445 -4997 0
0 0 0 789 510234 -4208 0
0 0 0 820 511054 -3388 0
0 0 0 889 511943 -2499 0
29 1 S112 1033 512976 -1466 1
29 1 S112 932 513908 -534 0
29 2 S112 797 514705 263 0
29 2 S112 776 515481 1039 0
29 2 S112 790 516271 1829 0
29 2 S112 845 517116 2674 0
29 2 S112 899 518015 3573 0
29 2 S112 804 518819 4377 0
29 2 S112 955 519774 5332 0
29 2 S112 914 520688 6246 0
0 0 0 868 521556 -9166 0
0 0 0 774 522330 -8392 0
0 0 0 779 523109 -7613 0
0 0 0 795 523904 -6818 0
0 0 0 861 524765 -5957 0
0 0 0 792 525557 -5165 0
0 0 0 812 526369 -4353 0
0 0 0 782 527151 -3571 0
0 0 0 748 527899 -2823 0
0 0 0 726 528625 -2097 0
30 1 S112 747 529372 -1350 0
30 1 S112 788 530160 -562 0
30 2 S112 810 530970 248 0
30 2 S112 779 531749 1027 0
30 2 S112 793 532542 1820 0
30 2 S112 873 533415 2693 0
30 2 S112 861 534276 3554 0
30 2 S112 801 535077 4355 0
30 2 S112 800 535877 5155 0
30 2 S112 819 536696 5974 0
30 2 S112 888 537584 6862 0
0 0 0 907 538491 -10832 0
0 0 0 813 539304 -10019 0
0 0 0 725 540029 -9294 0
0 0 0 690 540719 -8604 0
0 0 0 654 541373 -7950 0
0 0 0 658 542031 -7292 0
0 0 0 746 542777 -6546 0
0 0 0 1237 544014 -5309 1
0 0 0 1053 545067 -4256 1
0 0 0 1021 546088 -3235 1
0 0 0 892 546980 -2343 0
31 1 S106 808 547788 -1535 0
31 1 S106 794 548582 -741 0
31 2 S106 773 549355 32 0
31 2 S106 738 550093 770 0
31 2 S106 704 550797 1474 0
31 2 S106 686 551483 2160 0
31 2 S106 683 552166 2843 0
31 2 S106 691 552857 3534 0
31 2 S106 708 553565 4242 0
31 2 S106 677 554242 4919 0
31 2 S106 703 554945 5622 0
31 2 S106 713 555658 6335 0
0 0 0 778 556436 -10941 0
0 0 0 782 557218 -10159 0
0 0 0 728 557946 -9431 0
0 0 0 748 558694 -8683 0
0 0 0 810 559504 -7873 0
0 0 0 854 560358 -7019 0
0 0 0 770 561128 -6249 0
0 0 0 795 561923 -5454 0
0 0 0 808 562731 -4646 0
0 0 0 768 563499 -3878 0
0 0 0 762 564261 -3116 0
0 0 0 791 565052 -2325 0
32 1 S102 789 565841 -1536 0
32 1 S102 735 566576 -801 0
32 1 S102 747 567323 -54 0
32 2 S102 769 568092 715 0
32 2 S102 800 568892 1515 0
32 2 S102 775 569667 2290 0
32 2 S102 731 570398 3021 0
32 2 S102 745 571143 3766 0
32 2 S102 775 571918 4541 0
32 2 S102 836 572754 5377 0
32 2 S102 886 573640 6263 0
0 0 0 817 574457 -11140 0
0 0 0 744 575201 -10396 0
0 0 0 754 575955 -9642 0
0 0 0 753 576708 -8889 0
0 0 0 744 577452 -8145 0
0 0 0 694 578146 -7451 0
0 0 0 687 578833 -6764 0
0 0 0 699 579532 -6065 0
0 0 0 731 580263 -5334 0
0 0 0 743 581006 -4591 0
0 0 0 734 581740 -3857 0
0 0 0 795 582535 -3062 0
0 0 0 810 583345 -2252 0
33 1 S112 800 584145 -1452 0
33 1 S112 740 584885 -712 0
33 2 S112 734 585619 22 0
33 2 S112 741 586360 763 0
33 2 S112 774 587134 1537 0
33 2 S112 821 587955 2358 0
33 2 S112 797 588752 3155 0
33 2 S112 771 589523 3926 0
33 2 S112 786 590309 4712 0
33 2 S112 795 591104 5507 0
33 2 S112 801 591905 6308 0
0 0 0 777 592682 -12958 0
0 0 0 811 593493 -12147 0
0 0 0 820 594313 -11327 0
0 0 0 789 595102 -10538 0
0 0 0 739 595841 -9799 0
0 0 0 787 596628 -9012 0
0 0 0 788 597416 -8224 0
0 0 0 779 598195 -7445 0
0 0 0 749 598944 -6696 0
0 0 0 789 599733 -5907 0
0 0 0 779 600512 -5128 0
0 0 0 789 601301 -4339 0
0 0 0 753 602054 -3586 0
0 0 0 797 602851 -2789 0
34 1 S106 789 603640 -2000 0
34 1 S106 760 604400 -1240 0
34 1 S106 743 605143 -497 0
34 2 S106 753 605896 256 0
34 2 S106 770 606666 1026 0
34 2 S106 759 607425 1785 0
34 2 S106 701 608126 2486 0
34 2 S106 673 608799 3159 0
34 2 S106 653 609452 3812 0
34 2 S106 663 610115 4475 0
34 2 S106 702 610817 5177 0
34 2 S106 803 611620 5980 0
34 2 S106 948 612568 6928 0
0 0 0 821 613389 -9592 0
0 0 0 759 614148 -8833 0
0 0 0 732 614880 -8101 0
0 0 0 757 615637 -7344 0
0 0 0 802 616439 -6542 0
0 0 0 788 617227 -5754 0
0 0 0 740 617967 -5014 0
0 0 0 722 618689 -4292 0
0 0 0 736 619425 -3556 0
0 0 0 778 620203 -2778 0
35 1 S102 843 621046 -1935 0
35 1 S102 769 621815 -1166 0
35 1 S102 730 622545 -436 0
35 2 S102 698 623243 262 0
35 2 S102 710 623953 972 0
35 2 S102 738 624691 1710 0
35 2 S102 812 625503 2522 0
35 2 S102 855 626358 3377 0
35 2 S102 875 627233 4252 0
35 2 S102 838 628071 5090 0
35 2 S102 810 628881 5900 0
35 2 S102 786 629667 6686 0
0 0 0 782 630449 -8364 0
0 0 0 791 631240 -7573 0
0 0 0 823 632063 -6750 0
0 0 0 798 632861 -5952 0
0 0 0 853 633714 -5099 0
0 0 0 838 634552 -4261 0
0 0 0 808 635360 -3453 0
0 0 0 743 636103 -2710 0
36 1 S106 765 636868 -1945 0
36 1 S106 759 637627 -1186 0
36 1 S106 766 638393 -420 0
36 2 S106 764 639157 344 0
36 2 S106 737 639894 1081 0
36 2 S106 793 640687 1874 0
36 2 S106 900 641587 2774 0
36 2 S106 974 642561 3748 0
36 2 S106 866 643427 4614 0
36 2 S106 792 644219 5406 0
36 2 S106 810 645029 6216 0
36 2 S106 808 645837 7024 0
0 0 0 839 646676 -9793 0
0 0 0 774 647450 -9019 0
0 0 0 716 648166 -8303 0
0 0 0 713 648879 -7590 0
0 0 0 742 649621 -6848 0
0 0 0 784 650405 -6064 0
0 0 0 850 651255 -5214 0
0 0 0 847 652102 -4367 0
0 0 0 799 652901 -3568 0
0 0 0 829 653730 -2739 0
37 1 S116 826 654556 -1913 0
37 1 S116 769 655325 -1144 0
37 1 S116 782 656107 -362 0
37 2 S116 781 656888 419 0
37 2 S116 823 657711 1242 0
37 2 S116 821 658532 2063 0
37 2 S116 786 659318 2849 0
37 2 S116 837 660155 3686 0
37 2 S116 1018 661173 4704 1
37 2 S116 1029 662202 5733 1
37 2 S116 949 663151 6682 0
0 0 0 825 663976 -11708 0
0 0 0 771 664747 -10937 0
0 0 0 749 665496 -10188 0
0 0 0 773 666269 -9415 0
0 0 0 811 667080 -8604 0
0 0 0 719 667799 -7885 0
0 0 0 726 668525 -7159 0
0 0 0 737 669262 -6422 0
0 0 0 761 670023 -5661 0
0 0 0 756 670779 -4905 0
0 0 0 730 671509 -4175 0
0 0 0 755 672264 -3420 0
0 0 0 762 673026 -2658 0
38 1 S102 734 673760 -1924 0
38 1 S102 706 674466 -1218 0
38 1 S102 708 675174 -510 0
38 2 S102 730 675904 220 0
38 2 S102 781 676685 1001 0
38 2 S102 820 677505 1821 0
38 2 S102 838 678343 2659 0
38 2 S102 755 679098 3414 0
38 2 S102 730 679828 4144 0
38 2 S102 726 680554 4870 0
38 2 S102 740 681294 5610 0
38 2 S102 777 682071 6387 0
0 0 0 769 682840 -8676 0
0 0 0 735 683575 -7941 0
0 0 0 762 684337 -7179 0
0 0 0 762 685099 -6417 0
0 0 0 747 685846 -5670 0
0 0 0 728 686574 -4942 0
0 0 0 745 687319 -4197 0
0 0 0 781 688100 -3416 0
0 0 0 839 688939 -2577 0
39 1 S116 776 689715 -1801 0
39 1 S116 771 690486 -1030 0
39 1 S116 797 691283 -233 0
39 2 S116 805 692088 572 0
39 2 S116 795 692883 1367 0
39 2 S116 763 693646 2130 0
39 2 S116 783 694429 2913 0
39 2 S116 791 695220 3704 0
39 2 S116 854 696074 4558 0
39 2 S116 867 696941 5425 0
39 2 S116 859 697800 6284 0
0 0 0 797 698597 -8735 0
0 0 0 792 699389 -7943 0
0 0 0 783 700172 -7160 0
0 0 0 735 700907 -6425 0
0 0 0 681 701588 -5744 0
0 0 0 676 702264 -5068 0
0 0 0 668 702932 -4400 0
0 0 0 682 703614 -3718 0
0 0 0 686 704300 -3032 0
0 0 0 741 705041 -2291 0
40 1 S112 733 705774 -1558 0
40 1 S112 702 706476 -856 0
40 1 S112 670 707146 -186 0
40 2 S112 696 707842 510 0
40 2 S112 737 708579 1247 0
40 2 S112 762 709341 2009 0
40 2 S112 737 710078 2746 0
40 2 S112 685 710763 3431 0
40 2 S112 666 711429 4097 0
40 2 S112 648 712077 4745 0
40 2 S112 640 712717 5385 0
40 2 S112 654 713371 6039 0
40 2 S112 721 714092 6760 0
0 0 0 756 714848 -188855 0
0 0 0 777 715625 -188078 0
0 0 0 711 716336 -187367 0
0 0 0 720 717056 -186647 0
0 0 0 708 717764 -185939 0
0 0 0 752 718516 -185187 0
0 0 0 760 719276 -184427 0
0 0 0 745 720021 -183682 0
0 0 0 775 720796 -182907 0
0 0 0 782 721578 -182125 0
0 0 0 739 722317 -181386 0
0 0 0 812 723129 -180574 0
0 0 0 845 723974 -179729 0
0 0 0 797 724771 -178932 0
0 0 0 711 725482 -178221 0
0 0 0 681 726163 -177540 0
0 0 0 672 726835 -176868 0
0 0 0 680 727515 -176188 0
0 0 0 712 728227 -175476 0
0 0 0 731 728958 -174745 0
0 0 0 735 729693 -174010 0
0 0 0 748 730441 -173262 0
0 0 0 735 731176 -172527 0
0 0 0 732 731908 -171795 0
0 0 0 711 732619 -171084 0
0 0 0 695 733314 -170389 0
0 0 0 695 734009 -169694 0
0 0 0 685 734694 -169009 0
0 0 0 697 735391 -168312 0
0 0 0 698 736089 -167614 0
0 0 0 669 736758 -166945 0
0 0 0 696 737454 -166249 0
0 0 0 761 738215 -165488 0
0 0 0 847 739062 -164641 0
0 0 0 818 739880 -163823 0
0 0 0 731 740611 -163092 0
0 0 0 745 741356 -162347 0
0 0 0 768 742124 -161579 0
0 0 0 904 743028 -160675 0
0 0 0 853 743881 -159822 0
0 0 0 795 744676 -159027 0
0 0 0 784 745460 -158243 0
0 0 0 749 746209 -157494 0
0 0 0 732 746941 -156762 0
0 0 0 708 747649 -156054 0
0 0 0 656 748305 -155398 0
0 0 0 650 748955 -154748 0
0 0 0 679 749634 -154069 0
0 0 0 1287 750921 -152782 1
0 0 0 1010 751931 -151772 0
0 0 0 1007 752938 -150765 0
0 0 0 1008 753946 -149757 0
0 0 0 901 754847 -148856 0
0 0 0 850 755697 -148006 0
0 0 0 849 756546 -147157 0
0 0 0 776 757322 -146381 0
0 0 0 747 758069 -145634 0
0 0 0 761 758830 -144873 0
0 0 0 781 759611 -144092 0
0 0 0 763 760374 -143329 0
0 0 0 785 761159 -142544 0
0 0 0 799 761958 -141745 0
0 0 0 837 762795 -140908 0
0 0 0 839 763634 -140069 0
0 0 0 826 764460 -139243 0
0 0 0 807 765267 -138436 0
0 0 0 766 766033 -137670 0
0 0 0 778 766811 -136892 0
0 0 0 822 767633 -136070 0
0 0 0 862 768495 -135208 0
0 0 0 906 769401 -134302 0
0 0 0 833 770234 -133469 0
0 0 0 894 771128 -132575 0
0 0 0 914 772042 -131661 0
0 0 0 856 772898 -130805 0
0 0 0 847 773745 -129958 0
0 0 0 931 774676 -129027 0
0 0 0 863 775539 -128164 0
0 0 0 799 776338 -127365 0
0 0 0 834 777172 -126531 0
0 0 0 798 777970 -125733 0
0 0 0 760 778730 -124973 0
0 0 0 721 779451 -124252 0
0 0 0 700 780151 -123552 0
0 0 0 690 780841 -122862 0
0 0 0 714 781555 -122148 0
0 0 0 810 782365 -121338 0
0 0 0 808 783173 -120530 0
0 0 0 775 783948 -119755 0
0 0 0 764 784712 -118991 0
0 0 0 797 785509 -118194 0
0 0 0 757 786266 -117437 0
0 0 0 714 786980 -116723 0
0 0 0 685 787665 -116038 0
0 0 0 659 788324 -115379 0
0 0 0 649 788973 -114730 0
0 0 0 660 789633 -114070 0
0 0 0 684 790317 -113386 0
0 0 0 704 791021 -112682 0
0 0 0 724 791745 -111958 0
0 0 0 760 792505 -111198 0
0 0 0 747 793252 -110451 0
0 0 0 746 793998 -109705 0
0 0 0 731 794729 -108974 0
0 0 0 700 795429 -108274 0
0 0 0 648 796077 -107626 0
0 0 0 639 796716 -106987 0
0 0 0 619 797335 -106368 0
0 0 0 617 797952 -105751 0
0 0 0 635 798587 -105116 0
0 0 0 719 799306 -104397 0
0 0 0 809 800115 -103588 0
0 0 0 818 800933 -102770 0
0 0 0 804 801737 -101966 0
0 0 0 854 802591 -101112 0
0 0 0 896 803487 -100216 0
0 0 0 844 804331 -99372 0
0 0 0 866 805197 -98506 0
0 0 0 946 806143 -97560 0
0 0 0 849 806992 -96711 0
0 0 0 833 807825 -95878 0
0 0 0 855 808680 -95023 0
0 0 0 833 809513 -94190 0
0 0 0 816 810329 -93374 0
0 0 0 901 811230 -92473 0
0 0 0 843 812073 -91630 0
0 0 0 781 812854 -90849 0
0 0 0 773 813627 -90076 0
0 0 0 773 814400 -89303 0
0 0 0 744 815144 -88559 0
0 0 0 718 815862 -87841 0
0 0 0 693 816555 -87148 0
0 0 0 703 817258 -86445 0
0 0 0 733 817991 -85712 0
0 0 0 786 818777 -84926 0
0 0 0 827 819604 -84099 0
0 0 0 790 820394 -83309 0
0 0 0 791 821185 -82518 0
0 0 0 788 821973 -81730 0
0 0 0 761 822734 -80969 0
0 0 0 720 823454 -80249 0
0 0 0 701 824155 -79548 0
0 0 0 666 824821 -78882 0
0 0 0 669 825490 -78213 0
0 0 0 647 826137 -77566 0
0 0 0 639 826776 -76927 0
0 0 0 632 827408 -76295 0
0 0 0 626 828034 -75669 0
0 0 0 612 828646 -75057 0
0 0 0 620 829266 -74437 0
0 0 0 619 829885 -73818 0
0 0 0 630 830515 -73188 0
0 0 0 650 831165 -72538 0
0 0 0 656 831821 -71882 0
0 0 0 653 832474 -71229 0
0 0 0 639 833113 -70590 0
0 0 0 635 833748 -69955 0
0 0 0 634 834382 -69321 0
0 0 0 628 835010 -68693 0
0 0 0 626 835636 -68067 0
0 0 0 625 836261 -67442 0
0 0 0 644 836905 -66798 0
0 0 0 708 837613 -66090 0
0 0 0 727 838340 -65363 0
0 0 0 699 839039 -64664 0
0 0 0 668 839707 -63996 0
0 0 0 652 840359 -63344 0
0 0 0 647 841006 -62697 0
0 0 0 640 841646 -62057 0
0 0 0 682 842328 -61375 0
0 0 0 725 843053 -60650 0
0 0 0 807 843860 -59843 0
0 0 0 891 844751 -58952 0
0 0 0 867 845618 -58085 0
0 0 0 852 846470 -57233 0
0 0 0 784 847254 -56449 0
0 0 0 762 848016 -55687 0
0 0 0 739 848755 -54948 0
0 0 0 698 849453 -54250 0
0 0 0 664 850117 -53586 0
0 0 0 664 850781 -52922 0
0 0 0 672 851453 -52250 0
0 0 0 705 852158 -51545 0
0 0 0 710 852868 -50835 0
0 0 0 690 853558 -50145 0
0 0 0 667 854225 -49478 0
0 0 0 651 854876 -48827 0
0 0 0 656 855532 -48171 0
0 0 0 658 856190 -47513 0
0 0 0 684 856874 -46829 0
0 0 0 753 857627 -46076 0
0 0 0 774 858401 -45302 0
0 0 0 839 859240 -44463 0
0 0 0 851 860091 -43612 0
0 0 0 826 860917 -42786 0
0 0 0 790 861707 -41996 0
0 0 0 750 862457 -41246 0
0 0 0 720 863177 -40526 0
0 0 0 680 863857 -39846 0
0 0 0 660 864517 -39186 0
0 0 0 668 865185 -38518 0
0 0 0 715 865900 -37803 0
0 0 0 824 866724 -36979 0
0 0 0 930 867654 -36049 0
0 0 0 833 868487 -35216 0
0 0 0 864 869351 -34352 0
0 0 0 907 870258 -33445 0
0 0 0 888 871146 -32557 0
0 0 0 817 871963 -31740 0
0 0 0 866 872829 -30874 0
0 0 0 902 873731 -29972 0
0 0 0 858 874589 -29114 0
0 0 0 794 875383 -28320 0
0 0 0 780 876163 -27540 0
0 0 0 842 877005 -26698 0
0 0 0 933 877938 -25765 0
0 0 0 933 878871 -24832 0
0 0 0 796 879667 -24036 0
0 0 0 764 880431 -23272 0
0 0 0 756 881187 -22516 0
0 0 0 783 881970 -21733 0
0 0 0 807 882777 -20926 0
0 0 0 814 883591 -20112 0
0 0 0 756 884347 -19356 0
0 0 0 777 885124 -18579 0
0 0 0 803 885927 -17776 0
0 0 0 790 886717 -16986 0
0 0 0 750 887467 -16236 0
0 0 0 785 888252 -15451 0
0 0 0 793 889045 -14658 0
0 0 0 780 889825 -13878 0
0 0 0 737 890562 -13141 0
0 0 0 754 891316 -12387 0
0 0 0 771 892087 -11616 0
0 0 0 789 892876 -10827 0
0 0 0 764 893640 -10063 0
0 0 0 730 894370 -9333 0
0 0 0 757 895127 -8576 0
0 0 0 743 895870 -7833 0
0 0 0 738 896608 -7095 0
0 0 0 702 897310 -6393 0
0 0 0 658 897968 -5735 0
0 0 0 649 898617 -5086 0
0 0 0 641 899258 -4445 0
0 0 0 669 899927 -3776 0
0 0 0 753 900680 -3023 0
41 1 S102 1208 901888 -1815 1
41 1 S102 934 902822 -881 0
41 1 S102 860 903682 -21 0
41 2 S102 777 904459 756 0
41 2 S102 767 905226 1523 0
41 2 S102 716 905942 2239 0
41 2 S102 689 906631 2928 0
41 2 S102 674 907305 3602 0
41 2 S102 684 907989 4286 0
41 2 S102 682 908671 4968 0
41 2 S102 701 909372 5669 0
41 2 S102 662 910034 6331 0
41 2 S102 679 910713 7010 0
0 0 0 698 911411 -6848 0
0 0 0 760 912171 -6088 0
0 0 0 822 912993 -5266 0
0 0 0 798 913791 -4468 0
0 0 0 774 914565 -3694 0
0 0 0 783 915348 -2911 0
0 0 0 819 916167 -2092 0
42 1 S112 752 916919 -1340 0
42 1 S112 756 917675 -584 0
42 2 S112 746 918421 162 0
42 2 S112 721 919142 883 0
42 2 S112 747 919889 1630 0
42 2 S112 749 920638 2379 0
42 2 S112 803 921441 3182 0
42 2 S112 756 922197 3938 0
42 2 S112 759 922956 4697 0
42 2 S112 829 923785 5526 0
42 2 S112 919 924704 6445 0
0 0 0 909 925613 -8975 0
0 0 0 804 926417 -8171 0
0 0 0 796 927213 -7375 0
0 0 0 797 928010 -6578 0
0 0 0 786 928796 -5792 0
0 0 0 742 929538 -5050 0
0 0 0 726 930264 -4324 0
0 0 0 769 931033 -3555 0
0 0 0 854 931887 -2701 0
43 1 S116 844 932731 -1857 0
43 1 S116 787 933518 -1070 0
43 1 S116 785 934303 -285 0
43 2 S116 815 935118 530 0
43 2 S116 833 935951 1363 0
43 2 S116 864 936815 2227 0
43 2 S116 805 937620 3032 0
43 2 S116 831 938451 3863 0
43 2 S116 867 939318 4730 0
43 2 S116 927 940245 5657 0
43 2 S116 910 941155 6567 0
0 0 0 819 941974 -9176 0
0 0 0 840 942814 -8336 0
0 0 0 806 943620 -7530 0
0 0 0 821 944441 -6709 0
0 0 0 778 945219 -5931 0
0 0 0 774 945993 -5157 0
0 0 0 824 946817 -4333 0
0 0 0 821 947638 -3512 0
0 0 0 805 948443 -2707 0
44 1 S102 744 949187 -1963 0
44 1 S102 726 949913 -1237 0
44 1 S102 752 950665 -485 0
44 2 S102 801 951466 316 0
44 2 S102 851 952317 1167 0
44 2 S102 821 953138 1988 0
44 2 S102 772 953910 2760 0
44 2 S102 811 954721 3571 0
44 2 S102 820 955541 4391 0
44 2 S102 907 956448 5298 0
44 2 S102 814 957262 6112 0
44 2 S102 742 958004 6854 0
0 0 0 747 958751 -8630 0
0 0 0 753 959504 -7877 0
0 0 0 810 960314 -7067 0
0 0 0 815 961129 -6252 0
0 0 0 758 961887 -5494 0
0 0 0 734 962621 -4760 0
0 0 0 747 963368 -4013 0
0 0 0 760 964128 -3253 0
0 0 0 801 964929 -2452 0
45 1 S116 796 965725 -1656 0
45 1 S116 742 966467 -914 0
45 1 S116 765 967232 -149 0
45 2 S116 802 968034 653 0
45 2 S116 854 968888 1507 0
45 2 S116 800 969688 2307 0
45 2 S116 784 970472 3091 0
45 2 S116 811 971283 3902 0
45 2 S116 857 972140 4759 0
45 2 S116 857 972997 5616 0
45 2 S116 790 973787 6406 0
0 0 0 816 974603 -13384 0
0 0 0 798 975401 -12586 0
0 0 0 777 976178 -11809 0
0 0 0 732 976910 -11077 0
0 0 0 717 977627 -10360 0
0 0 0 728 978355 -9632 0
0 0 0 799 979154 -8833 0
0 0 0 828 979982 -8005 0
0 0 0 740 980722 -7265 0
0 0 0 733 981455 -6532 0
0 0 0 737 982192 -5795 0
0 0 0 774 982966 -5021 0
0 0 0 747 983713 -4274 0
0 0 0 721 984434 -3553 0
0 0 0 729 985163 -2824 0
0 0 0 753 985916 -2071 0
46 1 S102 803 986719 -1268 0
46 1 S102 833 987552 -435 0
46 2 S102 753 988305 318 0
46 2 S102 780 989085 1098 0
46 2 S102 811 989896 1909 0
46 2 S102 835 990731 2744 0
46 2 S102 826 991557 3570 0
46 2 S102 815 992372 4385 0
46 2 S102 867 993239 5252 0
46 2 S102 862 994101 6114 0
46 2 S102 802 994903 6916 0
0 0 0 784 995687 -10901 0
0 0 0 781 996468 -10120 0
0 0 0 767 997235 -9353 0
0 0 0 758 997993 -8595 0
0 0 0 735 998728 -7860 0
0 0 0 824 999552 -7036 0
0 0 0 892 1000444 -6144 0
0 0 0 848 1001292 -5296 0
0 0 0 795 1002087 -4501 0
0 0 0 797 1002884 -3704 0
0 0 0 798 1003682 -2906 0
0 0 0 794 1004476 -2112 0
47 1 S112 738 1005214 -1374 0
47 1 S112 696 1005910 -678 0
47 1 S112 662 1006572 -16 0
47 2 S112 650 1007222 634 0
47 2 S112 674 1007896 1308 0
47 2 S112 876 1008772 2184 0
47 2 S112 1284 1010056 3468 1
47 2 S112 1081 1011137 4549 1
47 2 S112 1009 1012146 5558 0
47 2 S112 919 1013065 6477 0
0 0 0 876 1013941 -11895 0
0 0 0 840 1014781 -11055 0
0 0 0 783 1015564 -10272 0
0 0 0 732 1016296 -9540 0
0 0 0 699 1016995 -8841 0
0 0 0 670 1017665 -8171 0
0 0 0 662 1018327 -7509 0
0 0 0 654 1018981 -6855 0
0 0 0 671 1019652 -6184 0
0 0 0 716 1020368 -5468 0
0 0 0 795 1021163 -4673 0
0 0 0 860 1022023 -3813 0
0 0 0 819 1022842 -2994 0
0 0 0 874 1023716 -2120 0
48 1 S116 1036 1024752 -1084 1
48 1 S116 1068 1025820 -16 1
48 2 S116 839 1026659 823 0
48 2 S116 834 1027493 1657 0
48 2 S116 862 1028355 2519 0
48 2 S116 903 1029258 3422 0
48 2 S116 868 1030126 4290 0
48 2 S116 885 1031011 5175 0
48 2 S116 954 1031965 6129 0
0 0 0 937 1032902 -7954 0
0 0 0 854 1033756 -7100 0
0 0 0 770 1034526 -6330 0
0 0 0 771 1035297 -5559 0
0 0 0 832 1036129 -4727 0
0 0 0 821 1036950 -3906 0
0 0 0 767 1037717 -3139 0
0 0 0 750 1038467 -2389 0
49 1 S112 779 1039246 -1610 0
49 1 S112 841 1040087 -769 0
49 2 S112 799 1040886 30 0
49 2 S112 769 1041655 799 0
49 2 S112 775 1042430 1574 0
49 2 S112 819 1043249 2393 0
49 2 S112 820 1044069 3213 0
49 2 S112 829 1044898 4042 0
49 2 S112 776 1045674 4818 0
49 2 S112 749 1046423 5567 0
49 2 S112 786 1047209 6353 0
0 0 0 867 1048076 -13387 0
0 0 0 917 1048993 -12470 0
0 0 0 814 1049807 -11656 0
0 0 0 739 1050546 -10917 0
0 0 0 746 1051292 -10171 0
0 0 0 752 1052044 -9419 0
0 0 0 872 1052916 -8547 0
0 0 0 780 1053696 -7767 0
0 0 0 782 1054478 -6985 0
0 0 0 766 1055244 -6219 0
0 0 0 801 1056045 -5418 0
0 0 0 798 1056843 -4620 0
0 0 0 758 1057601 -3862 0
0 0 0 782 1058383 -3080 0
0 0 0 776 1059159 -2304 0
50 1 S106 745 1059904 -1559 0
50 1 S106 724 1060628 -835 0
50 1 S106 696 1061324 -139 0
50 2 S106 667 1061991 528 0
50 2 S106 681 1062672 1209 0
50 2 S106 694 1063366 1903 0
50 2 S106 739 1064105 2642 0
50 2 S106 741 1064846 3383 0
50 2 S106 709 1065555 4092 0
50 2 S106 700 1066255 4792 0
50 2 S106 724 1066979 5516 0
50 2 S106 767 1067746 6283 0
0 0 0 825 1068571 -8973 0
0 0 0 847 1069418 -8126 0
0 0 0 797 1070215 -7329 0
0 0 0 736 1070951 -6593 0
0 0 0 752 1071703 -5841 0
0 0 0 799 1072502 -5042 0
0 0 0 811 1073313 -4231 0
0 0 0 763 1074076 -3468 0
0 0 0 721 1074797 -2747 0
51 1 S112 756 1075553 -1991 0
51 1 S112 781 1076334 -1210 0
51 1 S112 828 1077162 -382 0
51 2 S112 764 1077926 382 0
51 2 S112 786 1078712 1168 0
51 2 S112 785 1079497 1953 0
51 2 S112 778 1080275 2731 0
51 2 S112 771 1081046 3502 0
51 2 S112 734 1081780 4236 0
51 2 S112 750 1082530 4986 0
51 2 S112 775 1083305 5761 0
51 2 S112 845 1084150 6606 0
0 0 0 833 1084983 -7647 0
0 0 0 760 1085743 -6887 0
0 0 0 761 1086504 -6126 0
0 0 0 777 1087281 -5349 0
0 0 0 811 1088092 -4538 0
0 0 0 764 1088856 -3774 0
0 0 0 753 1089609 -3021 0
0 0 0 772 1090381 -2249 0
52 1 S116 790 1091171 -1459 0
52 1 S116 770 1091941 -689 0
52 2 S116 718 1092659 29 0
52 2 S116 684 1093343 713 0
52 2 S116 696 1094039 1409 0
52 2 S116 752 1094791 2161 0
52 2 S116 913 1095704 3074 0
52 2 S116 1114 1096818 4188 1
52 2 S116 955 1097773 5143 0
52 2 S116 955 1098728 6098 0
0 0 0 933 1099661 -11205 0
0 0 0 897 1100558 -10308 0
0 0 0 804 1101362 -9504 0
0 0 0 778 1102140 -8726 0
0 0 0 728 1102868 -7998 0
0 0 0 748 1103616 -7250 0
0 0 0 812 1104428 -6438 0
0 0 0 731 1105159 -5707 0
0 0 0 742 1105901 -4965 0
0 0 0 771 1106672 -4194 0
0 0 0 891 1107563 -3303 0
0 0 0 932 1108495 -2371 0
53 1 S106 809 1109304 -1562 0
53 1 S106 776 1110080 -786 0
53 2 S106 793 1110873 7 0
53 2 S106 805 1111678 812 0
53 2 S106 792 1112470 1604 0
53 2 S106 737 1113207 2341 0
53 2 S106 748 1113955 3089 0
53 2 S106 764 1114719 3853 0
53 2 S106 799 1115518 4652 0
53 2 S106 772 1116290 5424 0
53 2 S106 728 1117018 6152 0
53 2 S106 714 1117732 6866 0
0 0 0 737 1118469 -8727 0
0 0 0 759 1119228 -7968 0
0 0 0 789 1120017 -7179 0
0 0 0 786 1120803 -6393 0
0 0 0 766 1121569 -5627 0
0 0 0 794 1122363 -4833 0
0 0 0 765 1123128 -4068 0
0 0 0 733 1123861 -3335 0
0 0 0 688 1124549 -2647 0
54 1 S102 683 1125232 -1964 0
54 1 S102 694 1125926 -1270 0
54 1 S102 745 1126671 -525 0
54 2 S102 824 1127495 299 0
54 2 S102 858 1128353 1157 0
54 2 S102 810 1129163 1967 0
54 2 S102 777 1129940 2744 0
54 2 S102 783 1130723 3527 0
54 2 S102 789 1131512 4316 0
54 2 S102 792 1132304 5108 0
54 2 S102 774 1133078 5882 0
54 2 S102 816 1133894 6698 0
0 0 0 793 1134687 -13116 0
0 0 0 764 1135451 -12352 0
0 0 0 715 1136166 -11637 0
0 0 0 680 1136846 -10957 0
0 0 0 692 1137538 -10265 0
0 0 0 790 1138328 -9475 0
0 0 0 1069 1139397 -8406 1
0 0 0 788 1140185 -7618 0
0 0 0 817 1141002 -6801 0
0 0 0 810 1141812 -5991 0
0 0 0 812 1142624 -5179 0
0 0 0 740 1143364 -4439 0
0 0 0 697 1144061 -3742 0
0 0 0 691 1144752 -3051 0
0 0 0 697 1145449 -2354 0
55 1 S106 733 1146182 -1621 0
55 1 S106 757 1146939 -864 0
55 1 S106 722 1147661 -142 0
55 2 S106 740 1148401 598 0
55 2 S106 741 1149142 1339 0
55 2 S106 746 1149888 2085 0
55 2 S106 708 1150596 2793 0
55 2 S106 694 1151290 3487 0
55 2 S106 696 1151986 4183 0
55 2 S106 707 1152693 4890 0
55 2 S106 723 1153416 5613 0
55 2 S106 707 1154123 6320 0
0 0 0 718 1154841 -8032 0
0 0 0 781 1155622 -7251 0
0 0 0 831 1156453 -6420 0
0 0 0 904 1157357 -5516 0
0 0 0 815 1158172 -4701 0
0 0 0 811 1158983 -3890 0
0 0 0 831 1159814 -3059 0
0 0 0 832 1160646 -2227 0
56 1 S116 753 1161399 -1474 0
56 1 S116 745 1162144 -729 0
56 2 S116 751 1162895 22 0
56 2 S116 760 1163655 782 0
56 2 S116 800 1164455 1582 0
56 2 S116 762 1165217 2344 0
56 2 S116 753 1165970 3097 0
56 2 S116 795 1166765 3892 0
56 2 S116 868 1167633 4760 0
56 2 S116 1039 1168672 5799 1
56 2 S116 1016 1169688 6815 1
0 0 0 888 1170576 -8892 0
0 0 0 774 1171350 -8118 0
0 0 0 739 1172089 -7379 0
0 0 0 729 1172818 -6650 0
0 0 0 729 1173547 -5921 0
0 0 0 691 1174238 -5230 0
0 0 0 718 1174956 -4512 0
0 0 0 705 1175661 -3807 0
0 0 0 711 1176372 -3096 0
0 0 0 696 1177068 -2400 0
57 1 S106 692 1177760 -1708 0
57 1 S106 718 1178478 -990 0
57 1 S106 729 1179207 -261 0
57 2 S106 728 1179935 467 0
57 2 S106 699 1180634 1166 0
57 2 S106 717 1181351 1883 0
57 2 S106 730 1182081 2613 0
57 2 S106 713 1182794 3326 0
57 2 S106 674 1183468 4000 0
57 2 S106 641 1184109 4641 0
57 2 S106 630 1184739 5271 0
57 2 S106 615 1185354 5886 0
57 2 S106 605 1185959 6491 0
0 0 0 623 1186582 -10376 0
0 0 0 695 1187277 -9681 0
0 0 0 915 1188192 -8766 0
0 0 0 1089 1189281 -7677 1
0 0 0 960 1190241 -6717 0
0 0 0 881 1191122 -5836 0
0 0 0 843 1191965 -4993 0
0 0 0 776 1192741 -4217 0
0 0 0 750 1193491 -3467 0
0 0 0 709 1194200 -2758 0
0 0 0 691 1194891 -2067 0
58 1 S102 710 1195601 -1357 0
58 1 S102 730 1196331 -627 0
58 2 S102 751 1197082 124 0
58 2 S102 735 1197817 859 0
58 2 S102 693 1198510 1552 0
58 2 S102 691 1199201 2243 0
58 2 S102 718 1199919 2961 0
58 2 S102 735 1200654 3696 0
58 2 S102 762 1201416 4458 0
58 2 S102 803 1202219 5261 0
58 2 S102 798 1203017 6059 0
58 2 S102 752 1203769 6811 0
0 0 0 757 1204526 -7452 0
0 0 0 753 1205279 -6699 0
0 0 0 770 1206049 -5929 0
0 0 0 787 1206836 -5142 0
0 0 0 759 1207595 -4383 0
0 0 0 742 1208337 -3641 0
0 0 0 726 1209063 -2915 0
0 0 0 716 1209779 -2199 0
59 1 S112 690 1210469 -1509 0
59 1 S112 723 1211192 -786 0
59 1 S112 766 1211958 -20 0
59 2 S112 831 1212789 811 0
59 2 S112 842 1213631 1653 0
59 2 S112 855 1214486 2508 0
59 2 S112 814 1215300 3322 0
59 2 S112 765 1216065 4087 0
59 2 S112 723 1216788 4810 0
59 2 S112 724 1217512 5534 0
59 2 S112 739 1218251 6273 0
59 2 S112 752 1219003 7025 0
0 0 0 718 1219721 -8653 0
0 0 0 732 1220453 -7921 0
0 0 0 757 1221210 -7164 0
0 0 0 767 1221977 -6397 0
0 0 0 742 1222719 -5655 0
0 0 0 722 1223441 -4933 0
0 0 0 733 1224174 -4200 0
0 0 0 753 1224927 -3447 0
0 0 0 807 1225734 -2640 0
60 1 S102 776 1226510 -1864 0
60 1 S102 743 1227253 -1121 0
60 1 S102 767 1228020 -354 0
60 2 S102 800 1228820 446 0
60 2 S102 787 1229607 1233 0
60 2 S102 732 1230339 1965 0
60 2 S102 732 1231071 2697 0
60 2 S102 746 1231817 3443 0
60 2 S102 774 1232591 4217 0
60 2 S102 778 1233369 4995 0
60 2 S102 746 1234115 5741 0
60 2 S102 748 1234863 6489 0
0 0 0 761 1235624 -9842 0
0 0 0 775 1236399 -9067 0
0 0 0 758 1237157 -8309 0
0 0 0 710 1237867 -7599 0
0 0 0 693 1238560 -6906 0
0 0 0 701 1239261 -6205 0
0 0 0 716 1239977 -5489 0
0 0 0 740 1240717 -4749 0
0 0 0 730 1241447 -4019 0
0 0 0 762 1242209 -3257 0
0 0 0 806 1243015 -2451 0
61 1 S106 824 1243839 -1627 0
61 1 S106 773 1244612 -854 0
61 1 S106 790 1245402 -64 0
61 2 S106 783 1246185 719 0
61 2 S106 792 1246977 1511 0
61 2 S106 740 1247717 2251 0
61 2 S106 753 1248470 3004 0
61 2 S106 769 1249239 3773 0
61 2 S106 842 1250081 4615 0
61 2 S106 874 1250955 5489 0
61 2 S106 806 1251761 6295 0
0 0 0 765 1252526 -8242 0
0 0 0 797 1253323 -7445 0
0 0 0 786 1254109 -6659 0
0 0 0 820 1254929 -5839 0
0 0 0 758 1255687 -5081 0
0 0 0 762 1256449 -4319 0
0 0 0 736 1257185 -3583 0
0 0 0 745 1257930 -2838 0
0 0 0 727 1258657 -2111 0
62 1 S112 740 1259397 -1371 0
62 1 S112 739 1260136 -632 0
62 2 S112 718 1260854 86 0
62 2 S112 679 1261533 765 0
62 2 S112 652 1262185 1417 0
62 2 S112 666 1262851 2083 0
62 2 S112 710 1263561 2793 0
62 2 S112 798 1264359 3591 0
62 2 S112 965 1265324 4556 0
62 2 S112 852 1266176 5408 0
62 2 S112 792 1266968 6200 0
62 2 S112 783 1267751 6983 0
0 0 0 758 1268509 -11556 0
0 0 0 725 1269234 -10831 0
0 0 0 664 1269898 -10167 0
0 0 0 652 1270550 -9515 0
0 0 0 648 1271198 -8867 0
0 0 0 651 1271849 -8216 0
0 0 0 664 1272513 -7552 0
0 0 0 658 1273171 -6894 0
0 0 0 665 1273836 -6229 0
0 0 0 713 1274549 -5516 0
0 0 0 839 1275388 -4677 0
0 0 0 1177 1276565 -3500 1
0 0 0 901 1277466 -2599 0
63 1 S102 902 1278368 -1697 0
63 1 S102 948 1279316 -749 0
63 2 S102 971 1280287 222 0
63 2 S102 876 1281163 1098 0
63 2 S102 898 1282061 1996 0
63 2 S102 890 1282951 2886 0
63 2 S102 929 1283880 3815 0
63 2 S102 806 1284686 4621 0
63 2 S102 731 1285417 5352 0
63 2 S102 729 1286146 6081 0
63 2 S102 744 1286890 6825 0
0 0 0 796 1287686 -10980 0
0 0 0 823 1288509 -10157 0
0 0 0 760 1289269 -9397 0
0 0 0 823 1290092 -8574 0
0 0 0 973 1291065 -7601 0
0 0 0 910 1291975 -6691 0
0 0 0 781 1292756 -5910 0
0 0 0 750 1293506 -5160 0
0 0 0 736 1294242 -4424 0
0 0 0 725 1294967 -3699 0
0 0 0 727 1295694 -2972 0
0 0 0 764 1296458 -2208 0
64 1 S112 856 1297314 -1352 0
64 1 S112 856 1298170 -496 0
64 2 S112 837 1299007 341 0
64 2 S112 898 1299905 1239 0
64 2 S112 942 1300847 2181 0
64 2 S112 826 1301673 3007 0
64 2 S112 768 1302441 3775 0
64 2 S112 789 1303230 4564 0
64 2 S112 819 1304049 5383 0
64 2 S112 918 1304967 6301 0
0 0 0 930 1305897 -6529 0
0 0 0 808 1306705 -5721 0
0 0 0 860 1307565 -4861 0
0 0 0 827 1308392 -4034 0
0 0 0 789 1309181 -3245 0
0 0 0 752 1309933 -2493 0
65 1 S106 782 1310715 -1711 0
65 1 S106 850 1311565 -861 0
65 1 S106 859 1312424 -2 0
65 2 S106 809 1313233 807 0
65 2 S106 847 1314080 1654 0
65 2 S106 868 1314948 2522 0
65 2 S106 824 1315772 3346 0
65 2 S106 791 1316563 4137 0
65 2 S106 797 1317360 4934 0
65 2 S106 808 1318168 5742 0
65 2 S106 809 1318977 6551 0
0 0 0 755 1319732 -9289 0
0 0 0 742 1320474 -8547 0
0 0 0 778 1321252 -7769 0
0 0 0 809 1322061 -6960 0
0 0 0 905 1322966 -6055 0
0 0 0 804 1323770 -5251 0
0 0 0 842 1324612 -4409 0
0 0 0 798 1325410 -3611 0
0 0 0 775 1326185 -2836 0
0 0 0 739 1326924 -2097 0
66 1 S116 750 1327674 -1347 0
66 1 S116 784 1328458 -563 0
66 2 S116 821 1329279 258 0
66 2 S116 755 1330034 1013 0
66 2 S116 783 1330817 1796 0
66 2 S116 824 1331641 2620 0
66 2 S116 943 1332584 3563 0
66 2 S116 892 1333476 4455 0
66 2 S116 862 1334338 5317 0
66 2 S116 836 1335174 6153 0
66 2 S116 838 1336012 6991 0
0 0 0 843 1336855 -12773 0
0 0 0 759 1337614 -12014 0
0 0 0 767 1338381 -11247 0
0 0 0 768 1339149 -10479 0
0 0 0 775 1339924 -9704 0
0 0 0 742 1340666 -8962 0
0 0 0 768 1341434 -8194 0
0 0 0 759 1342193 -7435 0
0 0 0 727 1342920 -6708 0
0 0 0 716 1343636 -5992 0
0 0 0 686 1344322 -5306 0
0 0 0 709 1345031 -4597 0
0 0 0 757 1345788 -3840 0
0 0 0 854 1346642 -2986 0
0 0 0 887 1347529 -2099 0
67 1 S102 780 1348309 -1319 0
67 1 S102 802 1349111 -517 0
67 2 S102 783 1349894 266 0
67 2 S102 770 1350664 1036 0
67 2 S102 733 1351397 1769 0
67 2 S102 718 1352115 2487 0
67 2 S102 739 1352854 3226 0
67 2 S102 779 1353633 4005 0
67 2 S102 766 1354399 4771 0
67 2 S102 754 1355153 5525 0
67 2 S102 783 1355936 6308 0
0 0 0 809 1356745 -9495 0
0 0 0 784 1357529 -8711 0
0 0 0 817 1358346 -7894 0
0 0 0 810 1359156 -7084 0
0 0 0 842 1359998 -6242 0
0 0 0 762 1360760 -5480 0
0 0 0 836 1361596 -4644 0
0 0 0 881 1362477 -3763 0
0 0 0 829 1363306 -2934 0
0 0 0 797 1364103 -2137 0
68 1 S106 834 1364937 -1303 0
68 1 S106 845 1365782 -458 0
68 2 S106 799 1366581 341 0
68 2 S106 743 1367324 1084 0
68 2 S106 786 1368110 1870 0
68 2 S106 864 1368974 2734 0
68 2 S106 844 1369818 3578 0
68 2 S106 799 1370617 4377 0
68 2 S106 808 1371425 5185 0
68 2 S106 820 1372245 6005 0
68 2 S106 787 1373032 6792 0
0 0 0 776 1373808 -12823 0
0 0 0 793 1374601 -12030 0
0 0 0 802 1375403 -11228 0
0 0 0 730 1376133 -10498 0
0 0 0 729 1376862 -9769 0
0 0 0 771 1377633 -8998 0
0 0 0 764 1378397 -8234 0
0 0 0 741 1379138 -7493 0
0 0 0 716 1379854 -6777 0
0 0 0 716 1380570 -6061 0
0 0 0 694 1381264 -5367 0
0 0 0 720 1381984 -4647 0
0 0 0 716 1382700 -3931 0
0 0 0 714 1383414 -3217 0
0 0 0 679 1384093 -2538 0
69 1 S102 652 1384745 -1886 0
69 1 S102 632 1385377 -1254 0
69 1 S102 635 1386012 -619 0
69 2 S102 674 1386686 55 0
69 2 S102 778 1387464 833 0
69 2 S102 1179 1388643 2012 1
69 2 S102 960 1389603 2972 0
69 2 S102 858 1390461 3830 0
69 2 S102 798 1391259 4628 0
69 2 S102 812 1392071 5440 0
69 2 S102 785 1392856 6225 0
69 2 S102 790 1393646 7015 0
0 0 0 788 1394434 -10815 0
0 0 0 723 1395157 -10092 0
0 0 0 704 1395861 -9388 0
0 0 0 692 1396553 -8696 0
0 0 0 691 1397244 -8005 0
0 0 0 689 1397933 -7316 0
0 0 0 772 1398705 -6544 0
0 0 0 761 1399466 -5783 0
0 0 0 808 1400274 -4975 0
0 0 0 762 1401036 -4213 0
0 0 0 784 1401820 -3429 0
0 0 0 849 1402669 -2580 0
70 1 S112 827 1403496 -1753 0
70 1 S112 778 1404274 -975 0
70 1 S112 892 1405166 -83 0
70 2 S112 912 1406078 829 0
70 2 S112 878 1406956 1707 0
70 2 S112 779 1407735 2486 0
70 2 S112 825 1408560 3311 0
70 2 S112 876 1409436 4187 0
70 2 S112 929 1410365 5116 0
70 2 S112 833 1411198 5949 0
70 2 S112 853 1412051 6802 0
0 0 0 885 1412936 -10466 0
0 0 0 896 1413832 -9570 0
0 0 0 797 1414629 -8773 0
0 0 0 791 1415420 -7982 0
0 0 0 790 1416210 -7192 0
0 0 0 796 1417006 -6396 0
0 0 0 757 1417763 -5639 0
0 0 0 815 1418578 -4824 0
0 0 0 945 1419523 -3879 0
0 0 0 925 1420448 -2954 0
0 0 0 826 1421274 -2128 0
71 1 S116 886 1422160 -1242 0
71 1 S116 891 1423051 -351 0
71 2 S116 813 1423864 462 0
71 2 S116 793 1424657 1255 0
71 2 S116 829 1425486 2084 0
71 2 S116 846 1426332 2930 0
71 2 S116 850 1427182 3780 0
71 2 S116 770 1427952 4550 0
71 2 S116 769 1428721 5319 0
71 2 S116 779 1429500 6098 0
71 2 S116 841 1430341 6939 0
0 0 0 826 1431167 -10853 0
0 0 0 813 1431980 -10040 0
0 0 0 791 1432771 -9249 0
0 0 0 791 1433562 -8458 0
0 0 0 734 1434296 -7724 0
0 0 0 797 1435093 -6927 0
0 0 0 845 1435938 -6082 0
0 0 0 869 1436807 -5213 0
0 0 0 808 1437615 -4405 0
0 0 0 832 1438447 -3573 0
0 0 0 821 1439268 -2752 0
72 1 S102 780 1440048 -1972 0
72 1 S102 739 1440787 -1233 0
72 1 S102 783 1441570 -450 0
72 2 S102 816 1442386 366 0
72 2 S102 839 1443225 1205 0
72 2 S102 768 1443993 1973 0
72 2 S102 731 1444724 2704 0
72 2 S102 706 1445430 3410 0
72 2 S102 696 1446126 4106 0
72 2 S102 692 1446818 4798 0
72 2 S102 690 1447508 5488 0
72 2 S102 780 1448288 6268 0
0 0 0 893 1449181 -8489 0
0 0 0 1102 1450283 -7387 1
0 0 0 879 1451162 -6508 0
0 0 0 866 1452028 -5642 0
0 0 0 827 1452855 -4815 0
0 0 0 741 1453596 -4074 0
0 0 0 709 1454305 -3365 0
0 0 0 677 1454982 -2688 0
0 0 0 637 1455619 -2051 0
73 1 S116 627 1456246 -1424 0
73 1 S116 618 1456864 -806 0
73 1 S116 619 1457483 -187 0
73 2 S116 628 1458111 441 0
73 2 S116 626 1458737 1067 0
73 2 S116 633 1459370 1700 0
73 2 S116 632 1460002 2332 0
73 2 S116 647 1460649 2979 0
73 2 S116 683 1461332 3662 0
73 2 S116 732 1462064 4394 0
73 2 S116 757 1462821 5151 0
73 2 S116 759 1463580 5910 0
73 2 S116 737 1464317 6647 0
0 0 0 758 1465075 -11212 0
0 0 0 801 1465876 -10411 0
0 0 0 796 1466672 -9615 0
0 0 0 814 1467486 -8801 0
0 0 0 758 1468244 -8043 0
0 0 0 795 1469039 -7248 0
0 0 0 797 1469836 -6451 0
0 0 0 763 1470599 -5688 0
0 0 0 737 1471336 -4951 0
0 0 0 741 1472077 -4210 0
0 0 0 761 1472838 -3449 0
0 0 0 785 1473623 -2664 0
74 1 S106 765 1474388 -1899 0
74 1 S106 740 1475128 -1159 0
74 1 S106 774 1475902 -385 0
74 2 S106 872 1476774 487 0
74 2 S106 992 1477766 1479 0
74 2 S106 894 1478660 2373 0
74 2 S106 782 1479442 3155 0
74 2 S106 780 1480222 3935 0
74 2 S106 789 1481011 4724 0
74 2 S106 825 1481836 5549 0
74 2 S106 776 1482612 6325 0
0 0 0 737 1483349 -9533 0
0 0 0 705 1484054 -8828 0
0 0 0 705 1484759 -8123 0
0 0 0 713 1485472 -7410 0
0 0 0 744 1486216 -6666 0
0 0 0 746 1486962 -5920 0
0 0 0 759 1487721 -5161 0
0 0 0 781 1488502 -4380 0
0 0 0 779 1489281 -3601 0
0 0 0 712 1489993 -2889 0
0 0 0 670 1490663 -2219 0
75 1 S112 671 1491334 -1548 0
75 1 S112 692 1492026 -856 0
75 1 S112 830 1492856 -26 0
75 2 S112 1037 1493893 1011 1
75 2 S112 894 1494787 1905 0
75 2 S112 866 1495653 2771 0
75 2 S112 881 1496534 3652 0
75 2 S112 872 1497406 4524 0
75 2 S112 868 1498274 5392 0
75 2 S112 773 1499047 6165 0
75 2 S112 738 1499785 6903 0
0 0 0 754 1500539 -8938 0
0 0 0 779 1501318 -8159 0
0 0 0 785 1502103 -7374 0
0 0 0 728 1502831 -6646 0
0 0 0 737 1503568 -5909 0
0 0 0 777 1504345 -5132 0
0 0 0 802 1505147 -4330 0
0 0 0 761 1505908 -3569 0
0 0 0 716 1506624 -2853 0
0 0 0 715 1507339 -2138 0
76 1 S116 691 1508030 -1447 0
76 1 S116 692 1508722 -755 0
76 1 S116 669 1509391 -86 0
76 2 S116 690 1510081 604 0
76 2 S116 737 1510818 1341 0
76 2 S116 818 1511636 2159 0
76 2 S116 796 1512432 2955 0
76 2 S116 741 1513173 3696 0
76 2 S116 750 1513923 4446 0
76 2 S116 772 1514695 5218 0
76 2 S116 817 1515512 6035 0
76 2 S116 829 1516341 6864 0
0 0 0 799 1517140 -8932 0
0 0 0 739 1517879 -8193 0
0 0 0 733 1518612 -7460 0
0 0 0 725 1519337 -6735 0
0 0 0 710 1520047 -6025 0
0 0 0 682 1520729 -5343 0
0 0 0 716 1521445 -4627 0
0 0 0 707 1522152 -3920 0
0 0 0 717 1522869 -3203 0
0 0 0 663 1523532 -2540 0
77 1 S106 660 1524192 -1880 0
77 1 S106 677 1524869 -1203 0
77 1 S106 797 1525666 -406 0
77 2 S106 1256 1526922 850 1
77 2 S106 859 1527781 1709 0
77 2 S106 929 1528710 2638 0
77 2 S106 948 1529658 3586 0
77 2 S106 905 1530563 4491 0
77 2 S106 810 1531373 5301 0
77 2 S106 762 1532135 6063 0
77 2 S106 751 1532886 6814 0
0 0 0 738 1533624 -9922 0
0 0 0 763 1534387 -9159 0
0 0 0 748 1535135 -8411 0
0 0 0 713 1535848 -7698 0
0 0 0 704 1536552 -6994 0
0 0 0 713 1537265 -6281 0
0 0 0 727 1537992 -5554 0
0 0 0 755 1538747 -4799 0
0 0 0 737 1539484 -4062 0
0 0 0 745 1540229 -3317 0
0 0 0 780 1541009 -2537 0
78 1 S112 787 1541796 -1750 0
78 1 S112 774 1542570 -976 0
78 1 S112 732 1543302 -244 0
78 2 S112 732 1544034 488 0
78 2 S112 761 1544795 1249 0
78 2 S112 792 1545587 2041 0
78 2 S112 796 1546383 2837 0
78 2 S112 782 1547165 3619 0
78 2 S112 864 1548029 4483 0
78 2 S112 927 1548956 5410 0
78 2 S112 1092 1550048 6502 1
0 0 0 874 1550922 -12717 0
0 0 0 836 1551758 -11881 0
0 0 0 812 1552570 -11069 0
0 0 0 806 1553376 -10263 0
0 0 0 760 1554136 -9503 0
0 0 0 815 1554951 -8688 0
0 0 0 808 1555759 -7880 0
0 0 0 875 1556634 -7005 0
0 0 0 789 1557423 -6216 0
0 0 0 807 1558230 -5409 0
0 0 0 851 1559081 -4558 0
0 0 0 947 1560028 -3611 0
0 0 0 840 1560868 -2771 0
79 1 S102 856 1561724 -1915 0
79 1 S102 847 1562571 -1068 0
79 1 S102 840 1563411 -228 0
79 2 S102 775 1564186 547 0
79 2 S102 821 1565007 1368 0
79 2 S102 949 1565956 2317 0
79 2 S102 912 1566868 3229 0
79 2 S102 794 1567662 4023 0
79 2 S102 782 1568444 4805 0
79 2 S102 830 1569274 5635 0
79 2 S102 893 1570167 6528 0
0 0 0 932 1571099 -10627 0
0 0 0 828 1571927 -9799 0
0 0 0 850 1572777 -8949 0
0 0 0 845 1573622 -8104 0
0 0 0 825 1574447 -7279 0
0 0 0 781 1575228 -6498 0
0 0 0 806 1576034 -5692 0
0 0 0 790 1576824 -4902 0
0 0 0 807 1577631 -4095 0
0 0 0 740 1578371 -3355 0
0 0 0 747 1579118 -2608 0
80 1 S116 789 1579907 -1819 0
80 1 S116 838 1580745 -981 0
80 1 S116 898 1581643 -83 0
80 2 S116 838 1582481 755 0
80 2 S116 905 1583386 1660 0
80 2 S116 937 1584323 2597 0
80 2 S116 920 1585243 3517 0
80 2 S116 849 1586092 4366 0
80 2 S116 888 1586980 5254 0
80 2 S116 1057 1588037 6311 1
