T_0068
BeatCount Mean SD BeatCountNoOutliers MeanNoOutliers SDNoOutliers
2037 705,456062837506 63,0571485800394 2017 704,422409519088 53,9724960679617

Trial TrialStatus Trialtype IBI AbsPosition RelPosition Outlier
0 0 0 620 719 -15488 0
0 0 0 606 1325 -14882 0
0 0 0 595 1920 -14287 0
0 0 0 619 2539 -13668 0
0 0 0 706 3245 -12962 0
0 0 0 737 3982 -12225 0
0 0 0 751 4733 -11474 0
0 0 0 695 5428 -10779 0
0 0 0 686 6114 -10093 0
0 0 0 696 6810 -9397 0
0 0 0 672 7482 -8725 0
0 0 0 655 8137 -8070 0
0 0 0 618 8755 -7452 0
0 0 0 612 9367 -6840 0
0 0 0 599 9966 -6241 0
0 0 0 604 10570 -5637 0
0 0 0 641 11211 -4996 0
0 0 0 730 11941 -4266 0
0 0 0 719 12660 -3547 0
0 0 0 696 13356 -2851 0
0 0 0 767 14123 -2084 0
1 1 S112 852 14975 -1232 0
1 1 S112 796 15771 -436 0
1 2 S112 752 16523 316 0
1 2 S112 773 17296 1089 0
1 2 S112 788 18084 1877 0
1 2 S112 730 18814 2607 0
1 2 S112 693 19507 3300 0
1 2 S112 710 20217 4010 0
1 2 S112 752 20969 4762 0
1 2 S112 758 21727 5520 0
1 2 S112 712 22439 6232 0
1 2 S112 739 23178 6971 0
0 0 0 789 23967 -10111 0
0 0 0 751 24718 -9360 0
0 0 0 721 25439 -8639 0
0 0 0 737 26176 -7902 0
0 0 0 736 26912 -7166 0
0 0 0 710 27622 -6456 0
0 0 0 713 28335 -5743 0
0 0 0 735 29070 -5008 0
0 0 0 793 29863 -4215 0
0 0 0 738 30601 -3477 0
0 0 0 744 31345 -2733 0
2 1 S102 767 32112 -1966 0
2 1 S102 794 32906 -1172 0
2 1 S102 734 33640 -438 0
2 2 S102 724 34364 286 0
2 2 S102 777 35141 1063 0
2 2 S102 769 35910 1832 0
2 2 S102 734 36644 2566 0
2 2 S102 699 37343 3265 0
2 2 S102 713 38056 3978 0
2 2 S102 745 38801 4723 0
2 2 S102 755 39556 5478 0
2 2 S102 747 40303 6225 0
2 2 S102 761 41064 6986 0
0 0 0 804 41868 -7661 0
0 0 0 722 42590 -6939 0
0 0 0 723 43313 -6216 0
0 0 0 742 44055 -5474 0
0 0 0 738 44793 -4736 0
0 0 0 709 45502 -4027 0
0 0 0 751 46253 -3276 0
0 0 0 810 47063 -2466 0
3 1 S116 796 47859 -1670 0
3 1 S116 755 48614 -915 0
3 1 S116 764 49378 -151 0
3 2 S116 811 50189 660 0
3 2 S116 827 51016 1487 0
3 2 S116 780 51796 2267 0
3 2 S116 780 52576 3047 0
3 2 S116 794 53370 3841 0
3 2 S116 800 54170 4641 0
3 2 S116 767 54937 5408 0
3 2 S116 771 55708 6179 0
3 2 S116 787 56495 6966 0
0 0 0 805 57300 -10532 0
0 0 0 748 58048 -9784 0
0 0 0 750 58798 -9034 0
0 0 0 758 59556 -8276 0
0 0 0 727 60283 -7549 0
0 0 0 701 60984 -6848 0
0 0 0 732 61716 -6116 0
0 0 0 855 62571 -5261 0
0 0 0 819 63390 -4442 0
0 0 0 743 64133 -3699 0
0 0 0 741 64874 -2958 0
0 0 0 742 65616 -2216 0
4 1 S106 709 66325 -1507 0
4 1 S106 684 67009 -823 0
4 1 S106 701 67710 -122 0
4 2 S106 728 68438 606 0
4 2 S106 795 69233 1401 0
4 2 S106 740 69973 2141 0
4 2 S106 733 70706 2874 0
4 2 S106 758 71464 3632 0
4 2 S106 803 72267 4435 0
4 2 S106 784 73051 5219 0
4 2 S106 728 73779 5947 0
4 2 S106 727 74506 6674 0
0 0 0 742 75248 -6344 0
0 0 0 757 76005 -5587 0
0 0 0 689 76694 -4898 0
0 0 0 686 77380 -4212 0
0 0 0 687 78067 -3525 0
0 0 0 722 78789 -2803 0
0 0 0 688 79477 -2115 0
5 1 S116 710 80187 -1405 0
5 1 S116 761 80948 -644 0
5 2 S116 815 81763 171 0
5 2 S116 774 82537 945 0
5 2 S116 767 83304 1712 0
5 2 S116 750 84054 2462 0
5 2 S116 739 84793 3201 0
5 2 S116 699 85492 3900 0
5 2 S116 693 86185 4593 0
5 2 S116 752 86937 5345 0
5 2 S116 836 87773 6181 0
5 2 S116 797 88570 6978 0
0 0 0 774 89344 -8063 0
0 0 0 770 90114 -7293 0
0 0 0 753 90867 -6540 0
0 0 0 730 91597 -5810 0
0 0 0 681 92278 -5129 0
0 0 0 690 92968 -4439 0
0 0 0 732 93700 -3707 0
0 0 0 773 94473 -2934 0
0 0 0 729 95202 -2205 0
6 1 S106 706 95908 -1499 0
6 1 S106 733 96641 -766 0
6 1 S106 765 97406 -1 0
6 2 S106 761 98167 760 0
6 2 S106 719 98886 1479 0
6 2 S106 752 99638 2231 0
6 2 S106 781 100419 3012 0
6 2 S106 774 101193 3786 0
6 2 S106 720 101913 4506 0
6 2 S106 711 102624 5217 0
6 2 S106 736 103360 5953 0
6 2 S106 735 104095 6688 0
0 0 0 714 104809 -10536 0
0 0 0 705 105514 -9831 0
0 0 0 707 106221 -9124 0
0 0 0 728 106949 -8396 0
0 0 0 688 107637 -7708 0
0 0 0 673 108310 -7035 0
0 0 0 696 109006 -6339 0
0 0 0 755 109761 -5584 0
0 0 0 717 110478 -4867 0
0 0 0 678 111156 -4189 0
0 0 0 692 111848 -3497 0
0 0 0 695 112543 -2802 0
0 0 0 692 113235 -2110 0
7 1 S102 675 113910 -1435 0
7 1 S102 687 114597 -748 0
7 1 S102 718 115315 -30 0
7 2 S102 746 116061 716 0
7 2 S102 710 116771 1426 0
7 2 S102 686 117457 2112 0
7 2 S102 699 118156 2811 0
7 2 S102 711 118867 3522 0
7 2 S102 674 119541 4196 0
7 2 S102 655 120196 4851 0
7 2 S102 665 120861 5516 0
7 2 S102 686 121547 6202 0
7 2 S102 761 122308 6963 0
0 0 0 711 123019 -8175 0
0 0 0 694 123713 -7481 0
0 0 0 690 124403 -6791 0
0 0 0 688 125091 -6103 0
0 0 0 646 125737 -5457 0
0 0 0 644 126381 -4813 0
0 0 0 671 127052 -4142 0
0 0 0 730 127782 -3412 0
0 0 0 698 128480 -2714 0
0 0 0 679 129159 -2035 0
8 1 S112 715 129874 -1320 0
8 1 S112 732 130606 -588 0
8 2 S112 695 131301 107 0
8 2 S112 679 131980 786 0
8 2 S112 709 132689 1495 0
8 2 S112 714 133403 2209 0
8 2 S112 682 134085 2891 0
8 2 S112 671 134756 3562 0
8 2 S112 712 135468 4274 0
8 2 S112 774 136242 5048 0
8 2 S112 771 137013 5819 0
8 2 S112 724 137737 6543 0
0 0 0 743 138480 -6507 0
0 0 0 765 139245 -5742 0
0 0 0 707 139952 -5035 0
0 0 0 683 140635 -4352 0
0 0 0 684 141319 -3668 0
0 0 0 702 142021 -2966 0
0 0 0 670 142691 -2296 0
9 1 S116 660 143351 -1636 0
9 1 S116 673 144024 -963 0
9 1 S116 704 144728 -259 0
9 2 S116 691 145419 432 0
9 2 S116 677 146096 1109 0
9 2 S116 715 146811 1824 0
9 2 S116 747 147558 2571 0
9 2 S116 746 148304 3317 0
9 2 S116 700 149004 4017 0
9 2 S116 735 149739 4752 0
9 2 S116 724 150463 5476 0
9 2 S116 709 151172 6185 0
9 2 S116 695 151867 6880 0
0 0 0 718 152585 -10324 0
0 0 0 754 153339 -9570 0
0 0 0 746 154085 -8824 0
0 0 0 695 154780 -8129 0
0 0 0 680 155460 -7449 0
0 0 0 706 156166 -6743 0
0 0 0 725 156891 -6018 0
0 0 0 685 157576 -5333 0
0 0 0 668 158244 -4665 0
0 0 0 667 158911 -3998 0
0 0 0 688 159599 -3310 0
0 0 0 676 160275 -2634 0
10 1 S102 657 160932 -1977 0
10 1 S102 656 161588 -1321 0
10 1 S102 687 162275 -634 0
10 2 S102 699 162974 65 0
10 2 S102 672 163646 737 0
10 2 S102 646 164292 1383 0
10 2 S102 641 164933 2024 0
10 2 S102 642 165575 2666 0
10 2 S102 650 166225 3316 0
10 2 S102 629 166854 3945 0
10 2 S102 622 167476 4567 0
10 2 S102 630 168106 5197 0
10 2 S102 638 168744 5835 0
10 2 S102 634 169378 6469 0
0 0 0 615 169993 -10389 0
0 0 0 614 170607 -9775 0
0 0 0 633 171240 -9142 0
0 0 0 653 171893 -8489 0
0 0 0 653 172546 -7836 0
0 0 0 667 173213 -7169 0
0 0 0 765 173978 -6404 0
0 0 0 825 174803 -5579 0
0 0 0 771 175574 -4808 0
0 0 0 769 176343 -4039 0
0 0 0 795 177138 -3244 0
0 0 0 760 177898 -2484 0
11 1 S112 725 178623 -1759 0
11 1 S112 746 179369 -1013 0
11 1 S112 792 180161 -221 0
11 2 S112 786 180947 565 0
11 2 S112 763 181710 1328 0
11 2 S112 783 182493 2111 0
11 2 S112 799 183292 2910 0
11 2 S112 752 184044 3662 0
11 2 S112 733 184777 4395 0
11 2 S112 747 185524 5142 0
11 2 S112 772 186296 5914 0
11 2 S112 734 187030 6648 0
0 0 0 738 187768 -6490 0
0 0 0 780 188548 -5710 0
0 0 0 772 189320 -4938 0
0 0 0 726 190046 -4212 0
0 0 0 733 190779 -3479 0
0 0 0 776 191555 -2703 0
12 1 S116 752 192307 -1951 0
12 1 S116 709 193016 -1242 0
12 1 S116 725 193741 -517 0
12 2 S116 776 194517 259 0
12 2 S116 796 195313 1055 0
12 2 S116 746 196059 1801 0
12 2 S116 770 196829 2571 0
12 2 S116 784 197613 3355 0
12 2 S116 782 198395 4137 0
12 2 S116 743 199138 4880 0
12 2 S116 787 199925 5667 0
12 2 S116 840 200765 6507 0
0 0 0 826 201591 -10837 0
0 0 0 788 202379 -10049 0
0 0 0 793 203172 -9256 0
0 0 0 798 203970 -8458 0
0 0 0 743 204713 -7715 0
0 0 0 732 205445 -6983 0
0 0 0 763 206208 -6220 0
0 0 0 816 207024 -5404 0
0 0 0 770 207794 -4634 0
0 0 0 780 208574 -3854 0
0 0 0 801 209375 -3053 0
0 0 0 820 210195 -2233 0
13 1 S112 766 210961 -1467 0
13 1 S112 771 211732 -696 0
13 2 S112 770 212502 74 0
13 2 S112 802 213304 876 0
13 2 S112 750 214054 1626 0
13 2 S112 751 214805 2377 0
13 2 S112 763 215568 3140 0
13 2 S112 785 216353 3925 0
13 2 S112 736 217089 4661 0
13 2 S112 722 217811 5383 0
13 2 S112 752 218563 6135 0
13 2 S112 769 219332 6904 0
0 0 0 733 220065 -10832 0
0 0 0 703 220768 -10129 0
0 0 0 684 221452 -9445 0
0 0 0 665 222117 -8780 0
0 0 0 653 222770 -8127 0
0 0 0 664 223434 -7463 0
0 0 0 733 224167 -6730 0
0 0 0 793 224960 -5937 0
0 0 0 748 225708 -5189 0
0 0 0 773 226481 -4416 0
0 0 0 780 227261 -3636 0
0 0 0 755 228016 -2881 0
0 0 0 689 228705 -2192 0
14 1 S106 678 229383 -1514 0
14 1 S106 689 230072 -825 0
14 1 S106 755 230827 -70 0
14 2 S106 748 231575 678 0
14 2 S106 712 232287 1390 0
14 2 S106 728 233015 2118 0
14 2 S106 741 233756 2859 0
14 2 S106 754 234510 3613 0
14 2 S106 726 235236 4339 0
14 2 S106 748 235984 5087 0
14 2 S106 781 236765 5868 0
14 2 S106 790 237555 6658 0
0 0 0 730 238285 -9621 0
0 0 0 772 239057 -8849 0
0 0 0 822 239879 -8027 0
0 0 0 791 240670 -7236 0
0 0 0 721 241391 -6515 0
0 0 0 720 242111 -5795 0
0 0 0 740 242851 -5055 0
0 0 0 750 243601 -4305 0
0 0 0 714 244315 -3591 0
0 0 0 738 245053 -2853 0
0 0 0 774 245827 -2079 0
15 1 S116 786 246613 -1293 0
15 1 S116 716 247329 -577 0
15 2 S116 713 248042 136 0
15 2 S116 758 248800 894 0
15 2 S116 747 249547 1641 0
15 2 S116 720 250267 2361 0
15 2 S116 721 250988 3082 0
15 2 S116 776 251764 3858 0
15 2 S116 820 252584 4678 0
15 2 S116 803 253387 5481 0
15 2 S116 803 254190 6284 0
0 0 0 813 255003 -8769 0
0 0 0 801 255804 -7968 0
0 0 0 748 256552 -7220 0
0 0 0 731 257283 -6489 0
0 0 0 738 258021 -5751 0
0 0 0 737 258758 -5014 0
0 0 0 701 259459 -4313 0
0 0 0 724 260183 -3589 0
0 0 0 772 260955 -2817 0
0 0 0 773 261728 -2044 0
16 1 S116 726 262454 -1318 0
16 1 S116 732 263186 -586 0
16 2 S116 787 263973 201 0
16 2 S116 808 264781 1009 0
16 2 S116 750 265531 1759 0
16 2 S116 736 266267 2495 0
16 2 S116 773 267040 3268 0
16 2 S116 787 267827 4055 0
16 2 S116 758 268585 4813 0
16 2 S116 741 269326 5554 0
16 2 S116 754 270080 6308 0
0 0 0 809 270889 -8798 0
0 0 0 760 271649 -8038 0
0 0 0 753 272402 -7285 0
0 0 0 766 273168 -6519 0
0 0 0 763 273931 -5756 0
0 0 0 700 274631 -5056 0
0 0 0 651 275282 -4405 0
0 0 0 623 275905 -3782 0
0 0 0 638 276543 -3144 0
0 0 0 700 277243 -2444 0
17 1 S106 786 278029 -1658 0
17 1 S106 816 278845 -842 0
17 1 S106 754 279599 -88 0
17 2 S106 706 280305 618 0
17 2 S106 672 280977 1290 0
17 2 S106 671 281648 1961 0
17 2 S106 679 282327 2640 0
17 2 S106 664 282991 3304 0
17 2 S106 657 283648 3961 0
17 2 S106 669 284317 4630 0
17 2 S106 689 285006 5319 0
17 2 S106 695 285701 6014 0
17 2 S106 668 286369 6682 0
0 0 0 660 287029 -11557 0
0 0 0 678 287707 -10879 0
0 0 0 737 288444 -10142 0
0 0 0 710 289154 -9432 0
0 0 0 690 289844 -8742 0
0 0 0 724 290568 -8018 0
0 0 0 775 291343 -7243 0
0 0 0 763 292106 -6480 0
0 0 0 758 292864 -5722 0
0 0 0 805 293669 -4917 0
0 0 0 834 294503 -4083 0
0 0 0 771 295274 -3312 0
0 0 0 733 296007 -2579 0
18 1 S102 744 296751 -1835 0
18 1 S102 753 297504 -1082 0
18 1 S102 728 298232 -354 0
18 2 S102 710 298942 356 0
18 2 S102 754 299696 1110 0
18 2 S102 790 300486 1900 0
18 2 S102 783 301269 2683 0
18 2 S102 724 301993 3407 0
18 2 S102 735 302728 4142 0
18 2 S102 763 303491 4905 0
18 2 S102 759 304250 5664 0
18 2 S102 717 304967 6381 0
0 0 0 723 305690 -6922 0
0 0 0 746 306436 -6176 0
0 0 0 751 307187 -5425 0
0 0 0 704 307891 -4721 0
0 0 0 726 308617 -3995 0
0 0 0 733 309350 -3262 0
0 0 0 695 310045 -2567 0
19 1 S106 671 310716 -1896 0
19 1 S106 693 311409 -1203 0
19 1 S106 748 312157 -455 0
19 2 S106 713 312870 258 0
19 2 S106 705 313575 963 0
19 2 S106 719 314294 1682 0
19 2 S106 743 315037 2425 0
19 2 S106 703 315740 3128 0
19 2 S106 688 316428 3816 0
19 2 S106 728 317156 4544 0
19 2 S106 770 317926 5314 0
19 2 S106 738 318664 6052 0
19 2 S106 735 319399 6787 0
0 0 0 765 320164 -10054 0
0 0 0 797 320961 -9257 0
0 0 0 753 321714 -8504 0
0 0 0 706 322420 -7798 0
0 0 0 738 323158 -7060 0
0 0 0 747 323905 -6313 0
0 0 0 744 324649 -5569 0
0 0 0 714 325363 -4855 0
0 0 0 710 326073 -4145 0
0 0 0 740 326813 -3405 0
0 0 0 774 327587 -2631 0
20 1 S112 743 328330 -1888 0
20 1 S112 733 329063 -1155 0
20 1 S112 756 329819 -399 0
20 2 S112 758 330577 359 0
20 2 S112 728 331305 1087 0
20 2 S112 703 332008 1790 0
20 2 S112 707 332715 2497 0
20 2 S112 731 333446 3228 0
20 2 S112 706 334152 3934 0
20 2 S112 689 334841 4623 0
20 2 S112 708 335549 5331 0
20 2 S112 747 336296 6078 0
20 2 S112 769 337065 6847 0
0 0 0 715 337780 -8270 0
0 0 0 725 338505 -7545 0
0 0 0 773 339278 -6772 0
0 0 0 762 340040 -6010 0
0 0 0 707 340747 -5303 0
0 0 0 690 341437 -4613 0
0 0 0 699 342136 -3914 0
0 0 0 716 342852 -3198 0
0 0 0 711 343563 -2487 0
21 1 S106 702 344265 -1785 0
21 1 S106 743 345008 -1042 0
21 1 S106 780 345788 -262 0
21 2 S106 743 346531 481 0
21 2 S106 707 347238 1188 0
21 2 S106 727 347965 1915 0
21 2 S106 735 348700 2650 0
21 2 S106 735 349435 3385 0
21 2 S106 712 350147 4097 0
21 2 S106 736 350883 4833 0
21 2 S106 765 351648 5598 0
21 2 S106 755 352403 6353 0
0 0 0 716 353119 -10272 0
0 0 0 732 353851 -9540 0
0 0 0 761 354612 -8779 0
0 0 0 753 355365 -8026 0
0 0 0 707 356072 -7319 0
0 0 0 710 356782 -6609 0
0 0 0 702 357484 -5907 0
0 0 0 707 358191 -5200 0
0 0 0 666 358857 -4534 0
0 0 0 641 359498 -3893 0
0 0 0 625 360123 -3268 0
0 0 0 642 360765 -2626 0
22 1 S116 677 361442 -1949 0
22 1 S116 719 362161 -1230 0
22 1 S116 726 362887 -504 0
22 2 S116 723 363610 219 0
22 2 S116 675 364285 894 0
22 2 S116 660 364945 1554 0
22 2 S116 678 365623 2232 0
22 2 S116 667 366290 2899 0
22 2 S116 671 366961 3570 0
22 2 S116 660 367621 4230 0
22 2 S116 672 368293 4902 0
22 2 S116 711 369004 5613 0
22 2 S116 755 369759 6368 0
0 0 0 752 370511 -8248 0
0 0 0 761 371272 -7487 0
0 0 0 762 372034 -6725 0
0 0 0 767 372801 -5958 0
0 0 0 724 373525 -5234 0
0 0 0 730 374255 -4504 0
0 0 0 742 374997 -3762 0
0 0 0 732 375729 -3030 0
0 0 0 747 376476 -2283 0
23 1 S112 721 377197 -1562 0
23 1 S112 741 377938 -821 0
23 1 S112 781 378719 -40 0
23 2 S112 797 379516 757 0
23 2 S112 757 380273 1514 0
23 2 S112 747 381020 2261 0
23 2 S112 745 381765 3006 0
23 2 S112 759 382524 3765 0
23 2 S112 707 383231 4472 0
23 2 S112 718 383949 5190 0
23 2 S112 757 384706 5947 0
23 2 S112 784 385490 6731 0
0 0 0 741 386231 -8444 0
0 0 0 766 386997 -7678 0
0 0 0 809 387806 -6869 0
0 0 0 777 388583 -6092 0
0 0 0 715 389298 -5377 0
0 0 0 724 390022 -4653 0
0 0 0 726 390748 -3927 0
0 0 0 734 391482 -3193 0
0 0 0 685 392167 -2508 0
24 1 S106 682 392849 -1826 0
24 1 S106 711 393560 -1115 0
24 1 S106 724 394284 -391 0
24 2 S106 679 394963 288 0
24 2 S106 700 395663 988 0
24 2 S106 730 396393 1718 0
24 2 S106 691 397084 2409 0
24 2 S106 666 397750 3075 0
24 2 S106 696 398446 3771 0
24 2 S106 719 399165 4490 0
24 2 S106 720 399885 5210 0
24 2 S106 687 400572 5897 0
24 2 S106 709 401281 6606 0
0 0 0 767 402048 -7895 0
0 0 0 732 402780 -7163 0
0 0 0 681 403461 -6482 0
0 0 0 688 404149 -5794 0
0 0 0 700 404849 -5094 0
0 0 0 697 405546 -4397 0
0 0 0 671 406217 -3726 0
0 0 0 706 406923 -3020 0
0 0 0 746 407669 -2274 0
25 1 S102 746 408415 -1528 0
25 1 S102 690 409105 -838 0
25 1 S102 677 409782 -161 0
25 2 S102 688 410470 527 0
25 2 S102 714 411184 1241 0
25 2 S102 679 411863 1920 0
25 2 S102 652 412515 2572 0
25 2 S102 629 413144 3201 0
25 2 S102 614 413758 3815 0
25 2 S102 630 414388 4445 0
25 2 S102 708 415096 5153 0
25 2 S102 775 415871 5928 0
25 2 S102 790 416661 6718 0
0 0 0 798 417459 -6178 0
0 0 0 743 418202 -5435 0
0 0 0 719 418921 -4716 0
0 0 0 722 419643 -3994 0
0 0 0 772 420415 -3222 0
0 0 0 755 421170 -2467 0
26 1 S116 713 421883 -1754 0
26 1 S116 690 422573 -1064 0
26 1 S116 728 423301 -336 0
26 2 S116 797 424098 461 0
26 2 S116 824 424922 1285 0
26 2 S116 764 425686 2049 0
26 2 S116 764 426450 2813 0
26 2 S116 775 427225 3588 0
26 2 S116 794 428019 4382 0
26 2 S116 765 428784 5147 0
26 2 S116 754 429538 5901 0
26 2 S116 779 430317 6680 0
0 0 0 802 431119 -6079 0
0 0 0 791 431910 -5288 0
0 0 0 733 432643 -4555 0
0 0 0 704 433347 -3851 0
0 0 0 709 434056 -3142 0
0 0 0 741 434797 -2401 0
27 1 S106 734 435531 -1667 0
27 1 S106 778 436309 -889 0
27 1 S106 791 437100 -98 0
27 2 S106 762 437862 664 0
27 2 S106 730 438592 1394 0
27 2 S106 735 439327 2129 0
27 2 S106 754 440081 2883 0
27 2 S106 717 440798 3600 0
27 2 S106 687 441485 4287 0
27 2 S106 719 442204 5006 0
27 2 S106 757 442961 5763 0
27 2 S106 728 443689 6491 0
0 0 0 695 444384 -6160 0
0 0 0 722 445106 -5438 0
0 0 0 735 445841 -4703 0
0 0 0 711 446552 -3992 0
0 0 0 680 447232 -3312 0
0 0 0 709 447941 -2603 0
28 1 S102 733 448674 -1870 0
28 1 S102 747 449421 -1123 0
28 1 S102 716 450137 -407 0
28 2 S102 695 450832 288 0
28 2 S102 695 451527 983 0
28 2 S102 725 452252 1708 0
28 2 S102 744 452996 2452 0
28 2 S102 726 453722 3178 0
28 2 S102 710 454432 3888 0
28 2 S102 744 455176 4632 0
28 2 S102 787 455963 5419 0
28 2 S102 783 456746 6202 0
28 2 S102 731 457477 6933 0
0 0 0 746 458223 -9363 0
0 0 0 750 458973 -8613 0
0 0 0 749 459722 -7864 0
0 0 0 713 460435 -7151 0
0 0 0 690 461125 -6461 0
0 0 0 712 461837 -5749 0
0 0 0 764 462601 -4985 0
0 0 0 775 463376 -4210 0
0 0 0 753 464129 -3457 0
0 0 0 753 464882 -2704 0
29 1 S112 771 465653 -1933 0
29 1 S112 758 466411 -1175 0
29 1 S112 699 467110 -476 0
29 2 S112 704 467814 228 0
29 2 S112 727 468541 955 0
29 2 S112 747 469288 1702 0
29 2 S112 702 469990 2404 0
29 2 S112 686 470676 3090 0
29 2 S112 702 471378 3792 0
29 2 S112 732 472110 4524 0
29 2 S112 691 472801 5215 0
29 2 S112 700 473501 5915 0
29 2 S112 734 474235 6649 0
0 0 0 736 474971 -6061 0
0 0 0 703 475674 -5358 0
0 0 0 703 476377 -4655 0
0 0 0 710 477087 -3945 0
0 0 0 677 477764 -3268 0
0 0 0 642 478406 -2626 0
30 1 S112 629 479035 -1997 0
30 1 S112 633 479668 -1364 0
30 1 S112 638 480306 -726 0
30 1 S112 620 480926 -106 0
30 2 S112 606 481532 500 0
30 2 S112 601 482133 1101 0
30 2 S112 592 482725 1693 0
30 2 S112 587 483312 2280 0
30 2 S112 582 483894 2862 0
30 2 S112 578 484472 3440 0
30 2 S112 589 485061 4029 0
30 2 S112 597 485658 4626 0
30 2 S112 598 486256 5224 0
30 2 S112 589 486845 5813 0
30 2 S112 585 487430 6398 0
30 2 S112 595 488025 6993 0
0 0 0 613 488638 -7928 0
0 0 0 614 489252 -7314 0
0 0 0 599 489851 -6715 0
0 0 0 597 490448 -6118 0
0 0 0 610 491058 -5508 0
0 0 0 641 491699 -4867 0
0 0 0 650 492349 -4217 0
0 0 0 659 493008 -3558 0
0 0 0 718 493726 -2840 0
0 0 0 823 494549 -2017 0
31 1 S106 771 495320 -1246 0
31 1 S106 739 496059 -507 0
31 2 S106 786 496845 279 0
31 2 S106 815 497660 1094 0
31 2 S106 751 498411 1845 0
31 2 S106 704 499115 2549 0
31 2 S106 701 499816 3250 0
31 2 S106 746 500562 3996 0
31 2 S106 722 501284 4718 0
31 2 S106 697 501981 5415 0
31 2 S106 754 502735 6169 0
31 2 S106 816 503551 6985 0
0 0 0 837 504388 -7463 0
0 0 0 743 505131 -6720 0
0 0 0 713 505844 -6007 0
0 0 0 709 506553 -5298 0
0 0 0 706 507259 -4592 0
0 0 0 685 507944 -3907 0
0 0 0 730 508674 -3177 0
0 0 0 812 509486 -2365 0
32 1 S102 795 510281 -1570 0
32 1 S102 743 511024 -827 0
32 1 S102 756 511780 -71 0
32 2 S102 798 512578 727 0
32 2 S102 770 513348 1497 0
32 2 S102 705 514053 2202 0
32 2 S102 711 514764 2913 0
32 2 S102 741 515505 3654 0
32 2 S102 737 516242 4391 0
32 2 S102 706 516948 5097 0
32 2 S102 716 517664 5813 0
32 2 S102 778 518442 6591 0
0 0 0 805 519247 -10227 0
0 0 0 737 519984 -9490 0
0 0 0 744 520728 -8746 0
0 0 0 734 521462 -8012 0
0 0 0 701 522163 -7311 0
0 0 0 675 522838 -6636 0
0 0 0 704 523542 -5932 0
0 0 0 807 524349 -5125 0
0 0 0 798 525147 -4327 0
0 0 0 738 525885 -3589 0
0 0 0 758 526643 -2831 0
0 0 0 761 527404 -2070 0
33 1 S112 722 528126 -1348 0
33 1 S112 683 528809 -665 0
33 2 S112 693 529502 28 0
33 2 S112 738 530240 766 0
33 2 S112 745 530985 1511 0
33 2 S112 716 531701 2227 0
33 2 S112 754 532455 2981 0
33 2 S112 823 533278 3804 0
33 2 S112 785 534063 4589 0
33 2 S112 733 534796 5322 0
33 2 S112 754 535550 6076 0
33 2 S112 782 536332 6858 0
0 0 0 743 537075 -9806 0
0 0 0 704 537779 -9102 0
0 0 0 716 538495 -8386 0
0 0 0 731 539226 -7655 0
0 0 0 723 539949 -6932 0
0 0 0 723 540672 -6209 0
0 0 0 810 541482 -5399 0
0 0 0 853 542335 -4546 0
0 0 0 812 543147 -3734 0
0 0 0 748 543895 -2986 0
0 0 0 743 544638 -2243 0
34 1 S106 745 545383 -1498 0
34 1 S106 759 546142 -739 0
34 1 S106 707 546849 -32 0
34 2 S106 723 547572 691 0
34 2 S106 729 548301 1420 0
34 2 S106 773 549074 2193 0
34 2 S106 723 549797 2916 0
34 2 S106 710 550507 3626 0
34 2 S106 752 551259 4378 0
34 2 S106 788 552047 5166 0
34 2 S106 783 552830 5949 0
34 2 S106 756 553586 6705 0
0 0 0 781 554367 -7982 0
0 0 0 805 555172 -7177 0
0 0 0 750 555922 -6427 0
0 0 0 699 556621 -5728 0
0 0 0 669 557290 -5059 0
0 0 0 673 557963 -4386 0
0 0 0 751 558714 -3635 0
0 0 0 803 559517 -2832 0
0 0 0 741 560258 -2091 0
35 1 S102 740 560998 -1351 0
35 1 S102 762 561760 -589 0
35 2 S102 748 562508 159 0
35 2 S102 710 563218 869 0
35 2 S102 670 563888 1539 0
35 2 S102 646 564534 2185 0
35 2 S102 642 565176 2827 0
35 2 S102 656 565832 3483 0
35 2 S102 673 566505 4156 0
35 2 S102 665 567170 4821 0
35 2 S102 640 567810 5461 0
35 2 S102 625 568435 6086 0
35 2 S102 611 569046 6697 0
0 0 0 609 569655 -6238 0
0 0 0 643 570298 -5595 0
0 0 0 649 570947 -4946 0
0 0 0 635 571582 -4311 0
0 0 0 644 572226 -3667 0
0 0 0 670 572896 -2997 0
0 0 0 699 573595 -2298 0
36 1 S106 680 574275 -1618 0
36 1 S106 685 574960 -933 0
36 1 S106 707 575667 -226 0
36 2 S106 702 576369 476 0
36 2 S106 684 577053 1160 0
36 2 S106 662 577715 1822 0
36 2 S106 672 578387 2494 0
36 2 S106 684 579071 3178 0
36 2 S106 696 579767 3874 0
36 2 S106 670 580437 4544 0
36 2 S106 664 581101 5208 0
36 2 S106 700 581801 5908 0
36 2 S106 724 582525 6632 0
0 0 0 720 583245 -7768 0
0 0 0 703 583948 -7065 0
0 0 0 704 584652 -6361 0
0 0 0 721 585373 -5640 0
0 0 0 706 586079 -4934 0
0 0 0 695 586774 -4239 0
0 0 0 732 587506 -3507 0
0 0 0 736 588242 -2771 0
0 0 0 704 588946 -2067 0
37 1 S116 672 589618 -1395 0
37 1 S116 670 590288 -725 0
37 1 S116 682 590970 -43 0
37 2 S116 679 591649 636 0
37 2 S116 651 592300 1287 0
37 2 S116 622 592922 1909 0
37 2 S116 610 593532 2519 0
37 2 S116 616 594148 3135 0
37 2 S116 611 594759 3746 0
37 2 S116 633 595392 4379 0
37 2 S116 673 596065 5052 0
37 2 S116 697 596762 5749 0
37 2 S116 662 597424 6411 0
0 0 0 643 598067 -10419 0
0 0 0 657 598724 -9762 0
0 0 0 671 599395 -9091 0
0 0 0 705 600100 -8386 0
0 0 0 674 600774 -7712 0
0 0 0 650 601424 -7062 0
0 0 0 673 602097 -6389 0
0 0 0 693 602790 -5696 0
0 0 0 709 603499 -4987 0
0 0 0 669 604168 -4318 0
0 0 0 667 604835 -3651 0
0 0 0 686 605521 -2965 0
0 0 0 718 606239 -2247 0
38 1 S102 701 606940 -1546 0
38 1 S102 680 607620 -866 0
38 1 S102 665 608285 -201 0
38 2 S102 672 608957 471 0
38 2 S102 710 609667 1181 0
38 2 S102 759 610426 1940 0
38 2 S102 763 611189 2703 0
38 2 S102 744 611933 3447 0
38 2 S102 698 612631 4145 0
38 2 S102 653 613284 4798 0
38 2 S102 623 613907 5421 0
38 2 S102 607 614514 6028 0
38 2 S102 589 615103 6617 0
0 0 0 587 615690 -8347 0
0 0 0 622 616312 -7725 0
0 0 0 666 616978 -7059 0
0 0 0 680 617658 -6379 0
0 0 0 647 618305 -5732 0
0 0 0 653 618958 -5079 0
0 0 0 685 619643 -4394 0
0 0 0 735 620378 -3659 0
0 0 0 705 621083 -2954 0
0 0 0 670 621753 -2284 0
39 1 S116 681 622434 -1603 0
39 1 S116 697 623131 -906 0
39 1 S116 698 623829 -208 0
39 2 S116 667 624496 459 0
39 2 S116 654 625150 1113 0
39 2 S116 684 625834 1797 0
39 2 S116 719 626553 2516 0
39 2 S116 757 627310 3273 0
39 2 S116 715 628025 3988 0
39 2 S116 720 628745 4708 0
39 2 S116 747 629492 5455 0
39 2 S116 760 630252 6215 0
39 2 S116 718 630970 6933 0
0 0 0 674 631644 -6053 0
0 0 0 677 632321 -5376 0
0 0 0 676 632997 -4700 0
0 0 0 682 633679 -4018 0
0 0 0 673 634352 -3345 0
0 0 0 667 635019 -2678 0
40 1 S112 714 635733 -1964 0
40 1 S112 738 636471 -1226 0
40 1 S112 707 637178 -519 0
40 2 S112 671 637849 152 0
40 2 S112 635 638484 787 0
40 2 S112 614 639098 1401 0
40 2 S112 604 639702 2005 0
40 2 S112 601 640303 2606 0
40 2 S112 595 640898 3201 0
40 2 S112 587 641485 3788 0
40 2 S112 581 642066 4369 0
40 2 S112 584 642650 4953 0
40 2 S112 631 643281 5584 0
40 2 S112 680 643961 6264 0
40 2 S112 693 644654 6957 0
0 0 0 702 645356 -185994 0
0 0 0 664 646020 -185330 0
0 0 0 682 646702 -184648 0
0 0 0 679 647381 -183969 0
0 0 0 685 648066 -183284 0
0 0 0 644 648710 -182640 0
0 0 0 609 649319 -182031 0
0 0 0 594 649913 -181437 0
0 0 0 586 650499 -180851 0
0 0 0 588 651087 -180263 0
0 0 0 602 651689 -179661 0
0 0 0 629 652318 -179032 0
0 0 0 617 652935 -178415 0
0 0 0 598 653533 -177817 0
0 0 0 586 654119 -177231 0
0 0 0 577 654696 -176654 0
0 0 0 575 655271 -176079 0
0 0 0 567 655838 -175512 0
0 0 0 571 656409 -174941 0
0 0 0 587 656996 -174354 0
0 0 0 582 657578 -173772 0
0 0 0 573 658151 -173199 0
0 0 0 561 658712 -172638 0
0 0 0 558 659270 -172080 0
0 0 0 548 659818 -171532 0
0 0 0 1080 660898 -170452 1
0 0 0 534 661432 -169918 1
0 0 0 530 661962 -169388 1
0 0 0 1580 663542 -167808 1
0 0 0 521 664063 -167287 1
0 0 0 1042 665105 -166245 1
0 0 0 516 665621 -165729 1
0 0 0 509 666130 -165220 1
0 0 0 510 666640 -164710 1
0 0 0 503 667143 -164207 1
0 0 0 994 668137 -163213 1
0 0 0 1473 669610 -161740 1
0 0 0 507 670117 -161233 1
0 0 0 534 670651 -160699 1
0 0 0 543 671194 -160156 0
0 0 0 550 671744 -159606 0
0 0 0 566 672310 -159040 0
0 0 0 619 672929 -158421 0
0 0 0 694 673623 -157727 0
0 0 0 773 674396 -156954 0
0 0 0 808 675204 -156146 0
0 0 0 768 675972 -155378 0
0 0 0 743 676715 -154635 0
0 0 0 748 677463 -153887 0
0 0 0 765 678228 -153122 0
0 0 0 758 678986 -152364 0
0 0 0 778 679764 -151586 0
0 0 0 841 680605 -150745 0
0 0 0 888 681493 -149857 1
0 0 0 823 682316 -149034 0
0 0 0 748 683064 -148286 0
0 0 0 780 683844 -147506 0
0 0 0 767 684611 -146739 0
0 0 0 770 685381 -145969 0
0 0 0 743 686124 -145226 0
0 0 0 794 686918 -144432 0
0 0 0 945 687863 -143487 1
0 0 0 865 688728 -142622 0
0 0 0 768 689496 -141854 0
0 0 0 763 690259 -141091 0
0 0 0 751 691010 -140340 0
0 0 0 807 691817 -139533 0
0 0 0 787 692604 -138746 0
0 0 0 722 693326 -138024 0
0 0 0 711 694037 -137313 0
0 0 0 733 694770 -136580 0
0 0 0 764 695534 -135816 0
0 0 0 753 696287 -135063 0
0 0 0 708 696995 -134355 0
0 0 0 697 697692 -133658 0
0 0 0 753 698445 -132905 0
0 0 0 879 699324 -132026 1
0 0 0 806 700130 -131220 0
0 0 0 733 700863 -130487 0
0 0 0 726 701589 -129761 0
0 0 0 803 702392 -128958 0
0 0 0 825 703217 -128133 0
0 0 0 778 703995 -127355 0
0 0 0 750 704745 -126605 0
0 0 0 774 705519 -125831 0
0 0 0 816 706335 -125015 0
0 0 0 833 707168 -124182 0
0 0 0 782 707950 -123400 0
0 0 0 764 708714 -122636 0
0 0 0 807 709521 -121829 0
0 0 0 829 710350 -121000 0
0 0 0 815 711165 -120185 0
0 0 0 774 711939 -119411 0
0 0 0 778 712717 -118633 0
0 0 0 815 713532 -117818 0
0 0 0 841 714373 -116977 0
0 0 0 812 715185 -116165 0
0 0 0 744 715929 -115421 0
0 0 0 724 716653 -114697 0
0 0 0 770 717423 -113927 0
0 0 0 864 718287 -113063 0
0 0 0 814 719101 -112249 0
0 0 0 727 719828 -111522 0
0 0 0 694 720522 -110828 0
0 0 0 698 721220 -110130 0
0 0 0 734 721954 -109396 0
0 0 0 692 722646 -108704 0
0 0 0 685 723331 -108019 0
0 0 0 703 724034 -107316 0
0 0 0 744 724778 -106572 0
0 0 0 721 725499 -105851 0
0 0 0 716 726215 -105135 0
0 0 0 772 726987 -104363 0
0 0 0 758 727745 -103605 0
0 0 0 700 728445 -102905 0
0 0 0 672 729117 -102233 0
0 0 0 687 729804 -101546 0
0 0 0 699 730503 -100847 0
0 0 0 686 731189 -100161 0
0 0 0 662 731851 -99499 0
0 0 0 638 732489 -98861 0
0 0 0 629 733118 -98232 0
0 0 0 641 733759 -97591 0
0 0 0 665 734424 -96926 0
0 0 0 696 735120 -96230 0
0 0 0 668 735788 -95562 0
0 0 0 691 736479 -94871 0
0 0 0 776 737255 -94095 0
0 0 0 851 738106 -93244 0
0 0 0 819 738925 -92425 0
0 0 0 720 739645 -91705 0
0 0 0 677 740322 -91028 0
0 0 0 681 741003 -90347 0
0 0 0 726 741729 -89621 0
0 0 0 698 742427 -88923 0
0 0 0 668 743095 -88255 0
0 0 0 671 743766 -87584 0
0 0 0 737 744503 -86847 0
0 0 0 797 745300 -86050 0
0 0 0 828 746128 -85222 0
0 0 0 727 746855 -84495 0
0 0 0 695 747550 -83800 0
0 0 0 693 748243 -83107 0
0 0 0 686 748929 -82421 0
0 0 0 699 749628 -81722 0
0 0 0 709 750337 -81013 0
0 0 0 691 751028 -80322 0
0 0 0 690 751718 -79632 0
0 0 0 758 752476 -78874 0
0 0 0 886 753362 -77988 1
0 0 0 876 754238 -77112 1
0 0 0 765 755003 -76347 0
0 0 0 739 755742 -75608 0
0 0 0 754 756496 -74854 0
0 0 0 799 757295 -74055 0
0 0 0 710 758005 -73345 0
0 0 0 650 758655 -72695 0
0 0 0 652 759307 -72043 0
0 0 0 799 760106 -71244 0
0 0 0 859 760965 -70385 0
0 0 0 803 761768 -69582 0
0 0 0 748 762516 -68834 0
0 0 0 697 763213 -68137 0
0 0 0 654 763867 -67483 0
0 0 0 625 764492 -66858 0
0 0 0 598 765090 -66260 0
0 0 0 598 765688 -65662 0
0 0 0 607 766295 -65055 0
0 0 0 603 766898 -64452 0
0 0 0 600 767498 -63852 0
0 0 0 586 768084 -63266 0
0 0 0 593 768677 -62673 0
0 0 0 586 769263 -62087 0
0 0 0 581 769844 -61506 0
0 0 0 586 770430 -60920 0
0 0 0 590 771020 -60330 0
0 0 0 587 771607 -59743 0
0 0 0 567 772174 -59176 0
0 0 0 569 772743 -58607 0
0 0 0 583 773326 -58024 0
0 0 0 588 773914 -57436 0
0 0 0 581 774495 -56855 0
0 0 0 576 775071 -56279 0
0 0 0 571 775642 -55708 0
0 0 0 576 776218 -55132 0
0 0 0 581 776799 -54551 0
0 0 0 606 777405 -53945 0
0 0 0 620 778025 -53325 0
0 0 0 629 778654 -52696 0
0 0 0 622 779276 -52074 0
0 0 0 625 779901 -51449 0
0 0 0 619 780520 -50830 0
0 0 0 627 781147 -50203 0
0 0 0 668 781815 -49535 0
0 0 0 699 782514 -48836 0
0 0 0 721 783235 -48115 0
0 0 0 727 783962 -47388 0
0 0 0 748 784710 -46640 0
0 0 0 774 785484 -45866 0
0 0 0 760 786244 -45106 0
0 0 0 745 786989 -44361 0
0 0 0 708 787697 -43653 0
0 0 0 677 788374 -42976 0
0 0 0 683 789057 -42293 0
0 0 0 726 789783 -41567 0
0 0 0 798 790581 -40769 0
0 0 0 771 791352 -39998 0
0 0 0 701 792053 -39297 0
0 0 0 678 792731 -38619 0
0 0 0 670 793401 -37949 0
0 0 0 702 794103 -37247 0
0 0 0 708 794811 -36539 0
0 0 0 715 795526 -35824 0
0 0 0 684 796210 -35140 0
0 0 0 657 796867 -34483 0
0 0 0 658 797525 -33825 0
0 0 0 698 798223 -33127 0
0 0 0 739 798962 -32388 0
0 0 0 738 799700 -31650 0
0 0 0 715 800415 -30935 0
0 0 0 730 801145 -30205 0
0 0 0 761 801906 -29444 0
0 0 0 792 802698 -28652 0
0 0 0 743 803441 -27909 0
0 0 0 684 804125 -27225 0
0 0 0 678 804803 -26547 0
0 0 0 690 805493 -25857 0
0 0 0 701 806194 -25156 0
0 0 0 692 806886 -24464 0
0 0 0 657 807543 -23807 0
0 0 0 660 808203 -23147 0
0 0 0 678 808881 -22469 0
0 0 0 767 809648 -21702 0
0 0 0 731 810379 -20971 0
0 0 0 699 811078 -20272 0
0 0 0 681 811759 -19591 0
0 0 0 668 812427 -18923 0
0 0 0 648 813075 -18275 0
0 0 0 626 813701 -17649 0
0 0 0 604 814305 -17045 0
0 0 0 592 814897 -16453 0
0 0 0 610 815507 -15843 0
0 0 0 624 816131 -15219 0
0 0 0 624 816755 -14595 0
0 0 0 625 817380 -13970 0
0 0 0 617 817997 -13353 0
0 0 0 615 818612 -12738 0
0 0 0 619 819231 -12119 0
0 0 0 629 819860 -11490 0
0 0 0 650 820510 -10840 0
0 0 0 676 821186 -10164 0
0 0 0 649 821835 -9515 0
0 0 0 646 822481 -8869 0
0 0 0 677 823158 -8192 0
0 0 0 754 823912 -7438 0
0 0 0 763 824675 -6675 0
0 0 0 697 825372 -5978 0
0 0 0 674 826046 -5304 0
0 0 0 720 826766 -4584 0
0 0 0 696 827462 -3888 0
0 0 0 683 828145 -3205 0
0 0 0 659 828804 -2546 0
41 1 S102 658 829462 -1888 0
41 1 S102 673 830135 -1215 0
41 1 S102 683 830818 -532 0
41 2 S102 672 831490 140 0
41 2 S102 667 832157 807 0
41 2 S102 676 832833 1483 0
41 2 S102 671 833504 2154 0
41 2 S102 667 834171 2821 0
41 2 S102 647 834818 3468 0
41 2 S102 623 835441 4091 0
41 2 S102 610 836051 4701 0
41 2 S102 610 836661 5311 0
41 2 S102 654 837315 5965 0
41 2 S102 735 838050 6700 0
0 0 0 722 838772 -6006 0
0 0 0 674 839446 -5332 0
0 0 0 657 840103 -4675 0
0 0 0 641 840744 -4034 0
0 0 0 612 841356 -3422 0
0 0 0 602 841958 -2820 0
0 0 0 605 842563 -2215 0
42 1 S112 607 843170 -1608 0
42 1 S112 616 843786 -992 0
42 1 S112 640 844426 -352 0
42 2 S112 695 845121 343 0
42 2 S112 753 845874 1096 0
42 2 S112 738 846612 1834 0
42 2 S112 697 847309 2531 0
42 2 S112 678 847987 3209 0
42 2 S112 694 848681 3903 0
42 2 S112 717 849398 4620 0
42 2 S112 694 850092 5314 0
42 2 S112 695 850787 6009 0
42 2 S112 805 851592 6814 0
0 0 0 887 852479 -7999 1
0 0 0 810 853289 -7189 0
0 0 0 772 854061 -6417 0
0 0 0 751 854812 -5666 0
0 0 0 748 855560 -4918 0
0 0 0 707 856267 -4211 0
0 0 0 671 856938 -3540 0
0 0 0 675 857613 -2865 0
0 0 0 700 858313 -2165 0
43 1 S116 757 859070 -1408 0
43 1 S116 728 859798 -680 0
43 2 S116 708 860506 28 0
43 2 S116 748 861254 776 0
43 2 S116 804 862058 1580 0
43 2 S116 790 862848 2370 0
43 2 S116 750 863598 3120 0
43 2 S116 768 864366 3888 0
43 2 S116 769 865135 4657 0
43 2 S116 783 865918 5440 0
43 2 S116 748 866666 6188 0
43 2 S116 725 867391 6913 0
0 0 0 730 868121 -6200 0
0 0 0 740 868861 -5460 0
0 0 0 734 869595 -4726 0
0 0 0 690 870285 -4036 0
0 0 0 682 870967 -3354 0
0 0 0 680 871647 -2674 0
44 1 S102 713 872360 -1961 0
44 1 S102 703 873063 -1258 0
44 1 S102 667 873730 -591 0
44 2 S102 673 874403 82 0
44 2 S102 715 875118 797 0
44 2 S102 724 875842 1521 0
44 2 S102 687 876529 2208 0
44 2 S102 670 877199 2878 0
44 2 S102 673 877872 3551 0
44 2 S102 671 878543 4222 0
44 2 S102 671 879214 4893 0
44 2 S102 659 879873 5552 0
44 2 S102 653 880526 6205 0
44 2 S102 702 881228 6907 0
0 0 0 758 881986 -7703 0
0 0 0 754 882740 -6949 0
0 0 0 681 883421 -6268 0
0 0 0 649 884070 -5619 0
0 0 0 641 884711 -4978 0
0 0 0 643 885354 -4335 0
0 0 0 655 886009 -3680 0
0 0 0 647 886656 -3033 0
0 0 0 659 887315 -2374 0
45 1 S116 701 888016 -1673 0
45 1 S116 751 888767 -922 0
45 1 S116 763 889530 -159 0
45 2 S116 701 890231 542 0
45 2 S116 689 890920 1231 0
45 2 S116 714 891634 1945 0
45 2 S116 735 892369 2680 0
45 2 S116 722 893091 3402 0
45 2 S116 682 893773 4084 0
45 2 S116 689 894462 4773 0
45 2 S116 732 895194 5505 0
45 2 S116 806 896000 6311 0
0 0 0 776 896776 -10718 0
0 0 0 744 897520 -9974 0
0 0 0 782 898302 -9192 0
0 0 0 783 899085 -8409 0
0 0 0 730 899815 -7679 0
0 0 0 693 900508 -6986 0
0 0 0 698 901206 -6288 0
0 0 0 747 901953 -5541 0
0 0 0 717 902670 -4824 0
0 0 0 683 903353 -4141 0
0 0 0 697 904050 -3444 0
0 0 0 730 904780 -2714 0
46 1 S102 737 905517 -1977 0
46 1 S102 702 906219 -1275 0
46 1 S102 677 906896 -598 0
46 2 S102 673 907569 75 0
46 2 S102 647 908216 722 0
46 2 S102 648 908864 1370 0
46 2 S102 624 909488 1994 0
46 2 S102 613 910101 2607 0
46 2 S102 604 910705 3211 0
46 2 S102 592 911297 3803 0
46 2 S102 582 911879 4385 0
46 2 S102 574 912453 4959 0
46 2 S102 567 913020 5526 0
46 2 S102 577 913597 6103 0
46 2 S102 648 914245 6751 0
0 0 0 688 914933 -7913 0
0 0 0 705 915638 -7208 0
0 0 0 693 916331 -6515 0
0 0 0 652 916983 -5863 0
0 0 0 622 917605 -5241 0
0 0 0 602 918207 -4639 0
0 0 0 588 918795 -4051 0
0 0 0 615 919410 -3436 0
0 0 0 668 920078 -2768 0
0 0 0 718 920796 -2050 0
47 1 S112 743 921539 -1307 0
47 1 S112 695 922234 -612 0
47 2 S112 687 922921 75 0
47 2 S112 728 923649 803 0
47 2 S112 772 924421 1575 0
47 2 S112 780 925201 2355 0
47 2 S112 744 925945 3099 0
47 2 S112 723 926668 3822 0
47 2 S112 768 927436 4590 0
47 2 S112 816 928252 5406 0
47 2 S112 857 929109 6263 0
0 0 0 793 929902 -10036 0
0 0 0 820 930722 -9216 0
0 0 0 800 931522 -8416 0
0 0 0 788 932310 -7628 0
0 0 0 725 933035 -6903 0
0 0 0 705 933740 -6198 0
0 0 0 716 934456 -5482 0
0 0 0 780 935236 -4702 0
0 0 0 743 935979 -3959 0
0 0 0 720 936699 -3239 0
0 0 0 739 937438 -2500 0
48 1 S116 785 938223 -1715 0
48 1 S116 775 938998 -940 0
48 1 S116 732 939730 -208 0
48 2 S116 700 940430 492 0
48 2 S116 729 941159 1221 0
48 2 S116 763 941922 1984 0
48 2 S116 780 942702 2764 0
48 2 S116 716 943418 3480 0
48 2 S116 700 944118 4180 0
48 2 S116 742 944860 4922 0
48 2 S116 782 945642 5704 0
48 2 S116 756 946398 6460 0
0 0 0 723 947121 -6925 0
0 0 0 773 947894 -6152 0
0 0 0 855 948749 -5297 0
0 0 0 806 949555 -4491 0
0 0 0 729 950284 -3762 0
0 0 0 706 950990 -3056 0
0 0 0 705 951695 -2351 0
49 1 S112 725 952420 -1626 0
49 1 S112 702 953122 -924 0
49 1 S112 680 953802 -244 0
49 2 S112 710 954512 466 0
49 2 S112 775 955287 1241 0
49 2 S112 779 956066 2020 0
49 2 S112 712 956778 2732 0
49 2 S112 701 957479 3433 0
49 2 S112 720 958199 4153 0
49 2 S112 727 958926 4880 0
49 2 S112 720 959646 5600 0
49 2 S112 689 960335 6289 0
49 2 S112 715 961050 7004 0
0 0 0 723 961773 -9946 0
0 0 0 712 962485 -9234 0
0 0 0 687 963172 -8547 0
0 0 0 675 963847 -7872 0
0 0 0 664 964511 -7208 0
0 0 0 650 965161 -6558 0
0 0 0 634 965795 -5924 0
0 0 0 630 966425 -5294 0
0 0 0 640 967065 -4654 0
0 0 0 668 967733 -3986 0
0 0 0 657 968390 -3329 0
0 0 0 632 969022 -2697 0
0 0 0 620 969642 -2077 0
50 1 S106 620 970262 -1457 0
50 1 S106 635 970897 -822 0
50 1 S106 637 971534 -185 0
50 2 S106 623 972157 438 0
50 2 S106 615 972772 1053 0
50 2 S106 621 973393 1674 0
50 2 S106 636 974029 2310 0
50 2 S106 668 974697 2978 0
50 2 S106 671 975368 3649 0
50 2 S106 685 976053 4334 0
50 2 S106 718 976771 5052 0
50 2 S106 765 977536 5817 0
50 2 S106 771 978307 6588 0
0 0 0 706 979013 -6366 0
0 0 0 692 979705 -5674 0
0 0 0 712 980417 -4962 0
0 0 0 687 981104 -4275 0
0 0 0 674 981778 -3601 0
0 0 0 661 982439 -2940 0
0 0 0 659 983098 -2281 0
51 1 S112 677 983775 -1604 0
51 1 S112 717 984492 -887 0
51 1 S112 712 985204 -175 0
51 2 S112 684 985888 509 0
51 2 S112 702 986590 1211 0
51 2 S112 721 987311 1932 0
51 2 S112 724 988035 2656 0
51 2 S112 683 988718 3339 0
51 2 S112 664 989382 4003 0
51 2 S112 708 990090 4711 0
51 2 S112 746 990836 5457 0
51 2 S112 709 991545 6166 0
51 2 S112 677 992222 6843 0
0 0 0 706 992928 -5830 0
0 0 0 721 993649 -5109 0
0 0 0 731 994380 -4378 0
0 0 0 679 995059 -3699 0
0 0 0 669 995728 -3030 0
0 0 0 673 996401 -2357 0
52 1 S116 713 997114 -1644 0
52 1 S116 690 997804 -954 0
52 1 S116 662 998466 -292 0
52 2 S116 652 999118 360 0
52 2 S116 681 999799 1041 0
52 2 S116 708 1000507 1749 0
52 2 S116 692 1001199 2441 0
52 2 S116 674 1001873 3115 0
52 2 S116 710 1002583 3825 0
52 2 S116 742 1003325 4567 0
52 2 S116 777 1004102 5344 0
52 2 S116 730 1004832 6074 0
52 2 S116 710 1005542 6784 0
0 0 0 753 1006295 -7782 0
0 0 0 795 1007090 -6987 0
0 0 0 741 1007831 -6246 0
0 0 0 690 1008521 -5556 0
0 0 0 682 1009203 -4874 0
0 0 0 718 1009921 -4156 0
0 0 0 751 1010672 -3405 0
0 0 0 789 1011461 -2616 0
53 1 S106 707 1012168 -1909 0
53 1 S106 701 1012869 -1208 0
53 1 S106 714 1013583 -494 0
53 2 S106 700 1014283 206 0
53 2 S106 692 1014975 898 0
53 2 S106 672 1015647 1570 0
53 2 S106 665 1016312 2235 0
53 2 S106 670 1016982 2905 0
53 2 S106 645 1017627 3550 0
53 2 S106 638 1018265 4188 0
53 2 S106 634 1018899 4822 0
53 2 S106 664 1019563 5486 0
53 2 S106 689 1020252 6175 0
53 2 S106 721 1020973 6896 0
0 0 0 683 1021656 -5717 0
0 0 0 667 1022323 -5050 0
0 0 0 663 1022986 -4387 0
0 0 0 687 1023673 -3700 0
0 0 0 692 1024365 -3008 0
0 0 0 684 1025049 -2324 0
54 1 S102 650 1025699 -1674 0
54 1 S102 650 1026349 -1024 0
54 1 S102 664 1027013 -360 0
54 2 S102 691 1027704 331 0
54 2 S102 716 1028420 1047 0
54 2 S102 690 1029110 1737 0
54 2 S102 688 1029798 2425 0
54 2 S102 738 1030536 3163 0
54 2 S102 767 1031303 3930 0
54 2 S102 748 1032051 4678 0
54 2 S102 719 1032770 5397 0
54 2 S102 721 1033491 6118 0
54 2 S102 725 1034216 6843 0
0 0 0 708 1034924 -10104 0
0 0 0 681 1035605 -9423 0
0 0 0 675 1036280 -8748 0
0 0 0 675 1036955 -8073 0
0 0 0 648 1037603 -7425 0
0 0 0 629 1038232 -6796 0
0 0 0 625 1038857 -6171 0
0 0 0 648 1039505 -5523 0
0 0 0 699 1040204 -4824 0
0 0 0 671 1040875 -4153 0
0 0 0 656 1041531 -3497 0
0 0 0 668 1042199 -2829 0
0 0 0 674 1042873 -2155 0
55 1 S106 713 1043586 -1442 0
55 1 S106 703 1044289 -739 0
55 1 S106 677 1044966 -62 0
55 2 S106 695 1045661 633 0
55 2 S106 717 1046378 1350 0
55 2 S106 702 1047080 2052 0
55 2 S106 668 1047748 2720 0
55 2 S106 658 1048406 3378 0
55 2 S106 648 1049054 4026 0
55 2 S106 648 1049702 4674 0
55 2 S106 662 1050364 5336 0
55 2 S106 661 1051025 5997 0
55 2 S106 657 1051682 6654 0
0 0 0 678 1052360 -6843 0
0 0 0 735 1053095 -6108 0
0 0 0 763 1053858 -5345 0
0 0 0 725 1054583 -4620 0
0 0 0 673 1055256 -3947 0
0 0 0 670 1055926 -3277 0
0 0 0 674 1056600 -2603 0
56 1 S116 680 1057280 -1923 0
56 1 S116 662 1057942 -1261 0
56 1 S116 655 1058597 -606 0
56 2 S116 685 1059282 79 0
56 2 S116 717 1059999 796 0
56 2 S116 731 1060730 1527 0
56 2 S116 687 1061417 2214 0
56 2 S116 694 1062111 2908 0
56 2 S116 720 1062831 3628 0
56 2 S116 758 1063589 4386 0
56 2 S116 734 1064323 5120 0
56 2 S116 721 1065044 5841 0
56 2 S116 721 1065765 6562 0
0 0 0 696 1066461 -6452 0
0 0 0 689 1067150 -5763 0
0 0 0 747 1067897 -5016 0
0 0 0 819 1068716 -4197 0
0 0 0 786 1069502 -3411 0
0 0 0 719 1070221 -2692 0
57 1 S106 719 1070940 -1973 0
57 1 S106 746 1071686 -1227 0
57 1 S106 743 1072429 -484 0
57 2 S106 705 1073134 221 0
57 2 S106 670 1073804 891 0
57 2 S106 667 1074471 1558 0
57 2 S106 666 1075137 2224 0
57 2 S106 684 1075821 2908 0
57 2 S106 669 1076490 3577 0
57 2 S106 652 1077142 4229 0
57 2 S106 665 1077807 4894 0
57 2 S106 684 1078491 5578 0
57 2 S106 730 1079221 6308 0
57 2 S106 701 1079922 7009 0
0 0 0 673 1080595 -7471 0
0 0 0 668 1081263 -6803 0
0 0 0 664 1081927 -6139 0
0 0 0 664 1082591 -5475 0
0 0 0 653 1083244 -4822 0
0 0 0 635 1083879 -4187 0
0 0 0 620 1084499 -3567 0
0 0 0 611 1085110 -2956 0
0 0 0 626 1085736 -2330 0
58 1 S102 662 1086398 -1668 0
58 1 S102 708 1087106 -960 0
58 1 S102 711 1087817 -249 0
58 2 S102 678 1088495 429 0
58 2 S102 644 1089139 1073 0
58 2 S102 622 1089761 1695 0
58 2 S102 614 1090375 2309 0
58 2 S102 613 1090988 2922 0
58 2 S102 629 1091617 3551 0
58 2 S102 624 1092241 4175 0
58 2 S102 617 1092858 4792 0
58 2 S102 624 1093482 5416 0
58 2 S102 657 1094139 6073 0
58 2 S102 760 1094899 6833 0
0 0 0 727 1095626 -5736 0
0 0 0 685 1096311 -5051 0
0 0 0 681 1096992 -4370 0
0 0 0 684 1097676 -3686 0
0 0 0 689 1098365 -2997 0
0 0 0 659 1099024 -2338 0
59 1 S112 651 1099675 -1687 0
59 1 S112 678 1100353 -1009 0
59 1 S112 711 1101064 -298 0
59 2 S112 735 1101799 437 0
59 2 S112 694 1102493 1131 0
59 2 S112 663 1103156 1794 0
59 2 S112 671 1103827 2465 0
59 2 S112 688 1104515 3153 0
59 2 S112 702 1105217 3855 0
59 2 S112 663 1105880 4518 0
59 2 S112 651 1106531 5169 0
59 2 S112 682 1107213 5851 0
59 2 S112 754 1107967 6605 0
0 0 0 771 1108738 -8025 0
0 0 0 748 1109486 -7277 0
0 0 0 737 1110223 -6540 0
0 0 0 726 1110949 -5814 0
0 0 0 700 1111649 -5114 0
0 0 0 665 1112314 -4449 0
0 0 0 631 1112945 -3818 0
0 0 0 624 1113569 -3194 0
0 0 0 631 1114200 -2563 0
60 1 S102 683 1114883 -1880 0
60 1 S102 778 1115661 -1102 0
60 1 S102 820 1116481 -282 0
60 2 S102 772 1117253 490 0
60 2 S102 746 1117999 1236 0
60 2 S102 768 1118767 2004 0
60 2 S102 778 1119545 2782 0
60 2 S102 787 1120332 3569 0
60 2 S102 735 1121067 4304 0
60 2 S102 727 1121794 5031 0
60 2 S102 750 1122544 5781 0
60 2 S102 774 1123318 6555 0
0 0 0 772 1124090 -10031 0
0 0 0 713 1124803 -9318 0
0 0 0 706 1125509 -8612 0
0 0 0 708 1126217 -7904 0
0 0 0 702 1126919 -7202 0
0 0 0 704 1127623 -6498 0
0 0 0 716 1128339 -5782 0
0 0 0 753 1129092 -5029 0
0 0 0 761 1129853 -4268 0
0 0 0 722 1130575 -3546 0
0 0 0 712 1131287 -2834 0
0 0 0 735 1132022 -2099 0
61 1 S106 763 1132785 -1336 0
61 1 S106 758 1133543 -578 0
61 2 S106 723 1134266 145 0
61 2 S106 709 1134975 854 0
61 2 S106 735 1135710 1589 0
61 2 S106 779 1136489 2368 0
61 2 S106 761 1137250 3129 0
61 2 S106 730 1137980 3859 0
61 2 S106 715 1138695 4574 0
61 2 S106 705 1139400 5279 0
61 2 S106 713 1140113 5992 0
61 2 S106 676 1140789 6668 0
0 0 0 642 1141431 -6035 0
0 0 0 616 1142047 -5419 0
0 0 0 600 1142647 -4819 0
0 0 0 588 1143235 -4231 0
0 0 0 602 1143837 -3629 0
0 0 0 644 1144481 -2985 0
0 0 0 638 1145119 -2347 0
62 1 S112 667 1145786 -1680 0
62 1 S112 746 1146532 -934 0
62 1 S112 757 1147289 -177 0
62 2 S112 716 1148005 539 0
62 2 S112 703 1148708 1242 0
62 2 S112 692 1149400 1934 0
62 2 S112 675 1150075 2609 0
62 2 S112 666 1150741 3275 0
62 2 S112 668 1151409 3943 0
62 2 S112 662 1152071 4605 0
62 2 S112 671 1152742 5276 0
62 2 S112 668 1153410 5944 0
62 2 S112 647 1154057 6591 0
0 0 0 634 1154691 -10614 0
0 0 0 641 1155332 -9973 0
0 0 0 659 1155991 -9314 0
0 0 0 694 1156685 -8620 0
0 0 0 814 1157499 -7806 0
0 0 0 788 1158287 -7018 0
0 0 0 733 1159020 -6285 0
0 0 0 721 1159741 -5564 0
0 0 0 711 1160452 -4853 0
0 0 0 662 1161114 -4191 0
0 0 0 677 1161791 -3514 0
0 0 0 683 1162474 -2831 0
0 0 0 655 1163129 -2176 0
63 1 S102 641 1163770 -1535 0
63 1 S102 648 1164418 -887 0
63 1 S102 669 1165087 -218 0
63 2 S102 698 1165785 480 0
63 2 S102 684 1166469 1164 0
63 2 S102 664 1167133 1828 0
63 2 S102 685 1167818 2513 0
63 2 S102 727 1168545 3240 0
63 2 S102 730 1169275 3970 0
63 2 S102 673 1169948 4643 0
63 2 S102 648 1170596 5291 0
63 2 S102 665 1171261 5956 0
63 2 S102 688 1171949 6644 0
0 0 0 699 1172648 -7975 0
0 0 0 674 1173322 -7301 0
0 0 0 669 1173991 -6632 0
0 0 0 665 1174656 -5967 0
0 0 0 684 1175340 -5283 0
0 0 0 691 1176031 -4592 0
0 0 0 658 1176689 -3934 0
0 0 0 643 1177332 -3291 0
0 0 0 682 1178014 -2609 0
64 1 S112 768 1178782 -1841 0
64 1 S112 765 1179547 -1076 0
64 1 S112 704 1180251 -372 0
64 2 S112 695 1180946 323 0
64 2 S112 720 1181666 1043 0
64 2 S112 732 1182398 1775 0
64 2 S112 701 1183099 2476 0
64 2 S112 681 1183780 3157 0
64 2 S112 694 1184474 3851 0
64 2 S112 715 1185189 4566 0
64 2 S112 740 1185929 5306 0
64 2 S112 699 1186628 6005 0
64 2 S112 695 1187323 6700 0
0 0 0 710 1188033 -5969 0
0 0 0 719 1188752 -5250 0
0 0 0 686 1189438 -4564 0
0 0 0 674 1190112 -3890 0
0 0 0 693 1190805 -3197 0
0 0 0 719 1191524 -2478 0
65 1 S106 723 1192247 -1755 0
65 1 S106 694 1192941 -1061 0
65 1 S106 680 1193621 -381 0
65 2 S106 720 1194341 339 0
65 2 S106 770 1195111 1109 0
65 2 S106 743 1195854 1852 0
65 2 S106 702 1196556 2554 0
65 2 S106 696 1197252 3250 0
65 2 S106 694 1197946 3944 0
65 2 S106 696 1198642 4640 0
65 2 S106 695 1199337 5335 0
65 2 S106 695 1200032 6030 0
65 2 S106 678 1200710 6708 0
0 0 0 664 1201374 -5940 0
0 0 0 637 1202011 -5303 0
0 0 0 620 1202631 -4683 0
0 0 0 608 1203239 -4075 0
0 0 0 595 1203834 -3480 0
0 0 0 602 1204436 -2878 0
0 0 0 630 1205066 -2248 0
66 1 S116 698 1205764 -1550 0
66 1 S116 711 1206475 -839 0
66 1 S116 670 1207145 -169 0
66 2 S116 674 1207819 505 0
66 2 S116 707 1208526 1212 0
66 2 S116 745 1209271 1957 0
66 2 S116 717 1209988 2674 0
66 2 S116 686 1210674 3360 0
66 2 S116 703 1211377 4063 0
66 2 S116 750 1212127 4813 0
66 2 S116 790 1212917 5603 0
66 2 S116 730 1213647 6333 0
0 0 0 713 1214360 -10212 0
0 0 0 746 1215106 -9466 0
0 0 0 748 1215854 -8718 0
0 0 0 709 1216563 -8009 0
0 0 0 675 1217238 -7334 0
0 0 0 664 1217902 -6670 0
0 0 0 674 1218576 -5996 0
0 0 0 682 1219258 -5314 0
0 0 0 694 1219952 -4620 0
0 0 0 667 1220619 -3953 0
0 0 0 653 1221272 -3300 0
0 0 0 678 1221950 -2622 0
67 1 S102 708 1222658 -1914 0
67 1 S102 741 1223399 -1173 0
67 1 S102 710 1224109 -463 0
67 2 S102 672 1224781 209 0
67 2 S102 659 1225440 868 0
67 2 S102 655 1226095 1523 0
67 2 S102 657 1226752 2180 0
67 2 S102 641 1227393 2821 0
67 2 S102 634 1228027 3455 0
67 2 S102 657 1228684 4112 0
67 2 S102 707 1229391 4819 0
67 2 S102 719 1230110 5538 0
67 2 S102 679 1230789 6217 0
67 2 S102 663 1231452 6880 0
0 0 0 682 1232134 -6862 0
0 0 0 715 1232849 -6147 0
0 0 0 696 1233545 -5451 0
0 0 0 673 1234218 -4778 0
0 0 0 691 1234909 -4087 0
0 0 0 713 1235622 -3374 0
0 0 0 679 1236301 -2695 0
0 0 0 652 1236953 -2043 0
68 1 S106 671 1237624 -1372 0
68 1 S106 689 1238313 -683 0
68 1 S106 681 1238994 -2 0
68 2 S106 660 1239654 658 0
68 2 S106 664 1240318 1322 0
68 2 S106 670 1240988 1992 0
68 2 S106 695 1241683 2687 0
68 2 S106 669 1242352 3356 0
68 2 S106 658 1243010 4014 0
68 2 S106 684 1243694 4698 0
68 2 S106 715 1244409 5413 0
68 2 S106 728 1245137 6141 0
68 2 S106 702 1245839 6843 0
0 0 0 690 1246529 -9377 0
0 0 0 692 1247221 -8685 0
0 0 0 696 1247917 -7989 0
0 0 0 702 1248619 -7287 0
0 0 0 667 1249286 -6620 0
0 0 0 652 1249938 -5968 0
0 0 0 654 1250592 -5314 0
0 0 0 666 1251258 -4648 0
0 0 0 664 1251922 -3984 0
0 0 0 653 1252575 -3331 0
0 0 0 658 1253233 -2673 0
69 1 S102 677 1253910 -1996 0
69 1 S102 723 1254633 -1273 0
69 1 S102 722 1255355 -551 0
69 2 S102 685 1256040 134 0
69 2 S102 682 1256722 816 0
69 2 S102 687 1257409 1503 0
69 2 S102 687 1258096 2190 0
69 2 S102 664 1258760 2854 0
69 2 S102 644 1259404 3498 0
69 2 S102 660 1260064 4158 0
69 2 S102 673 1260737 4831 0
69 2 S102 690 1261427 5521 0
69 2 S102 669 1262096 6190 0
69 2 S102 645 1262741 6835 0
0 0 0 665 1263406 -7918 0
0 0 0 682 1264088 -7236 0
0 0 0 671 1264759 -6565 0
0 0 0 662 1265421 -5903 0
0 0 0 664 1266085 -5239 0
0 0 0 685 1266770 -4554 0
0 0 0 682 1267452 -3872 0
0 0 0 661 1268113 -3211 0
0 0 0 665 1268778 -2546 0
70 1 S112 676 1269454 -1870 0
70 1 S112 691 1270145 -1179 0
70 1 S112 664 1270809 -515 0
70 2 S112 641 1271450 126 0
70 2 S112 654 1272104 780 0
70 2 S112 677 1272781 1457 0
70 2 S112 696 1273477 2153 0
70 2 S112 668 1274145 2821 0
70 2 S112 657 1274802 3478 0
70 2 S112 681 1275483 4159 0
70 2 S112 719 1276202 4878 0
70 2 S112 732 1276934 5610 0
70 2 S112 689 1277623 6299 0
70 2 S112 685 1278308 6984 0
0 0 0 712 1279020 -9794 0
0 0 0 752 1279772 -9042 0
0 0 0 717 1280489 -8325 0
0 0 0 678 1281167 -7647 0
0 0 0 673 1281840 -6974 0
0 0 0 691 1282531 -6283 0
0 0 0 712 1283243 -5571 0
0 0 0 686 1283929 -4885 0
0 0 0 661 1284590 -4224 0
0 0 0 659 1285249 -3565 0
0 0 0 672 1285921 -2893 0
0 0 0 692 1286613 -2201 0
71 1 S116 695 1287308 -1506 0
71 1 S116 667 1287975 -839 0
71 1 S116 669 1288644 -170 0
71 2 S116 690 1289334 520 0
71 2 S116 732 1290066 1252 0
71 2 S116 719 1290785 1971 0
71 2 S116 681 1291466 2652 0
71 2 S116 689 1292155 3341 0
71 2 S116 715 1292870 4056 0
71 2 S116 728 1293598 4784 0
71 2 S116 706 1294304 5490 0
71 2 S116 682 1294986 6172 0
71 2 S116 696 1295682 6868 0
0 0 0 719 1296401 -7897 0
0 0 0 705 1297106 -7192 0
0 0 0 675 1297781 -6517 0
0 0 0 669 1298450 -5848 0
0 0 0 681 1299131 -5167 0
0 0 0 711 1299842 -4456 0
0 0 0 674 1300516 -3782 0
0 0 0 655 1301171 -3127 0
0 0 0 654 1301825 -2473 0
72 1 S102 670 1302495 -1803 0
72 1 S102 690 1303185 -1113 0
72 1 S102 674 1303859 -439 0
72 2 S102 663 1304522 224 0
72 2 S102 695 1305217 919 0
72 2 S102 713 1305930 1632 0
72 2 S102 709 1306639 2341 0
72 2 S102 674 1307313 3015 0
72 2 S102 647 1307960 3662 0
72 2 S102 647 1308607 4309 0
72 2 S102 656 1309263 4965 0
72 2 S102 647 1309910 5612 0
72 2 S102 635 1310545 6247 0
72 2 S102 641 1311186 6888 0
0 0 0 665 1311851 -5776 0
0 0 0 677 1312528 -5099 0
0 0 0 655 1313183 -4444 0
0 0 0 625 1313808 -3819 0
0 0 0 613 1314421 -3206 0
0 0 0 618 1315039 -2588 0
73 1 S116 611 1315650 -1977 0
73 1 S116 604 1316254 -1373 0
73 1 S116 594 1316848 -779 0
73 1 S116 590 1317438 -189 0
73 2 S116 601 1318039 412 0
73 2 S116 620 1318659 1032 0
73 2 S116 631 1319290 1663 0
73 2 S116 621 1319911 2284 0
73 2 S116 605 1320516 2889 0
73 2 S116 603 1321119 3492 0
73 2 S116 614 1321733 4106 0
73 2 S116 634 1322367 4740 0
73 2 S116 655 1323022 5395 0
73 2 S116 642 1323664 6037 0
73 2 S116 642 1324306 6679 0
0 0 0 685 1324991 -8385 0
0 0 0 697 1325688 -7688 0
0 0 0 715 1326403 -6973 0
0 0 0 670 1327073 -6303 0
0 0 0 636 1327709 -5667 0
0 0 0 635 1328344 -5032 0
0 0 0 640 1328984 -4392 0
0 0 0 661 1329645 -3731 0
0 0 0 658 1330303 -3073 0
0 0 0 628 1330931 -2445 0
74 1 S106 618 1331549 -1827 0
74 1 S106 625 1332174 -1202 0
74 1 S106 647 1332821 -555 0
74 2 S106 661 1333482 106 0
74 2 S106 662 1334144 768 0
74 2 S106 657 1334801 1425 0
74 2 S106 683 1335484 2108 0
74 2 S106 694 1336178 2802 0
74 2 S106 703 1336881 3505 0
74 2 S106 666 1337547 4171 0
74 2 S106 650 1338197 4821 0
74 2 S106 670 1338867 5491 0
74 2 S106 692 1339559 6183 0
74 2 S106 684 1340243 6867 0
0 0 0 657 1340900 -5855 0
0 0 0 646 1341546 -5209 0
0 0 0 656 1342202 -4553 0
0 0 0 674 1342876 -3879 0
0 0 0 655 1343531 -3224 0
0 0 0 632 1344163 -2592 0
75 1 S112 641 1344804 -1951 0
75 1 S112 686 1345490 -1265 0
75 1 S112 741 1346231 -524 0
75 2 S112 703 1346934 179 0
75 2 S112 667 1347601 846 0
75 2 S112 694 1348295 1540 0
75 2 S112 742 1349037 2282 0
75 2 S112 744 1349781 3026 0
75 2 S112 712 1350493 3738 0
75 2 S112 679 1351172 4417 0
75 2 S112 703 1351875 5120 0
75 2 S112 744 1352619 5864 0
75 2 S112 779 1353398 6643 0
0 0 0 729 1354127 -6488 0
0 0 0 689 1354816 -5799 0
0 0 0 723 1355539 -5076 0
0 0 0 773 1356312 -4303 0
0 0 0 712 1357024 -3591 0
0 0 0 700 1357724 -2891 0
0 0 0 724 1358448 -2167 0
76 1 S116 736 1359184 -1431 0
76 1 S116 714 1359898 -717 0
76 1 S116 679 1360577 -38 0
76 2 S116 692 1361269 654 0
76 2 S116 735 1362004 1389 0
76 2 S116 759 1362763 2148 0
76 2 S116 708 1363471 2856 0
76 2 S116 678 1364149 3534 0
76 2 S116 687 1364836 4221 0
76 2 S116 720 1365556 4941 0
76 2 S116 751 1366307 5692 0
76 2 S116 699 1367006 6391 0
0 0 0 690 1367696 -6248 0
0 0 0 705 1368401 -5543 0
0 0 0 724 1369125 -4819 0
0 0 0 712 1369837 -4107 0
0 0 0 682 1370519 -3425 0
0 0 0 682 1371201 -2743 0
0 0 0 703 1371904 -2040 0
77 1 S106 726 1372630 -1314 0
77 1 S106 731 1373361 -583 0
77 2 S106 680 1374041 97 0
77 2 S106 653 1374694 750 0
77 2 S106 653 1375347 1403 0
77 2 S106 661 1376008 2064 0
77 2 S106 685 1376693 2749 0
77 2 S106 687 1377380 3436 0
77 2 S106 671 1378051 4107 0
77 2 S106 670 1378721 4777 0
77 2 S106 693 1379414 5470 0
77 2 S106 704 1380118 6174 0
77 2 S106 673 1380791 6847 0
0 0 0 675 1381466 -8012 0
0 0 0 672 1382138 -7340 0
0 0 0 698 1382836 -6642 0
0 0 0 680 1383516 -5962 0
0 0 0 661 1384177 -5301 0
0 0 0 676 1384853 -4625 0
0 0 0 713 1385566 -3912 0
0 0 0 723 1386289 -3189 0
0 0 0 696 1386985 -2493 0
78 1 S112 683 1387668 -1810 0
78 1 S112 693 1388361 -1117 0
78 1 S112 710 1389071 -407 0
78 2 S112 714 1389785 307 0
78 2 S112 681 1390466 988 0
78 2 S112 662 1391128 1650 0
78 2 S112 677 1391805 2327 0
78 2 S112 712 1392517 3039 0
78 2 S112 703 1393220 3742 0
78 2 S112 690 1393910 4432 0
78 2 S112 695 1394605 5127 0
78 2 S112 699 1395304 5826 0
78 2 S112 708 1396012 6534 0
0 0 0 687 1396699 -10302 0
0 0 0 679 1397378 -9623 0
0 0 0 687 1398065 -8936 0
0 0 0 707 1398772 -8229 0
0 0 0 684 1399456 -7545 0
0 0 0 655 1400111 -6890 0
0 0 0 655 1400766 -6235 0
0 0 0 688 1401454 -5547 0
0 0 0 724 1402178 -4823 0
0 0 0 710 1402888 -4113 0
0 0 0 684 1403572 -3429 0
0 0 0 679 1404251 -2750 0
0 0 0 680 1404931 -2070 0
79 1 S102 683 1405614 -1387 0
79 1 S102 671 1406285 -716 0
79 1 S102 652 1406937 -64 0
79 2 S102 682 1407619 618 0
79 2 S102 707 1408326 1325 0
79 2 S102 704 1409030 2029 0
79 2 S102 683 1409713 2712 0
79 2 S102 665 1410378 3377 0
79 2 S102 687 1411065 4064 0
79 2 S102 720 1411785 4784 0
79 2 S102 702 1412487 5486 0
79 2 S102 677 1413164 6163 0
79 2 S102 684 1413848 6847 0
0 0 0 733 1414581 -7390 0
0 0 0 727 1415308 -6663 0
0 0 0 686 1415994 -5977 0
0 0 0 669 1416663 -5308 0
0 0 0 673 1417336 -4635 0
0 0 0 676 1418012 -3959 0
0 0 0 646 1418658 -3313 0
0 0 0 635 1419293 -2678 0
0 0 0 654 1419947 -2024 0
80 1 S116 695 1420642 -1329 0
80 1 S116 669 1421311 -660 0
80 1 S116 646 1421957 -14 0
80 2 S116 682 1422639 668 0
80 2 S116 700 1423339 1368 0
80 2 S116 684 1424023 2052 0
80 2 S116 660 1424683 2712 0
80 2 S116 665 1425348 3377 0
80 2 S116 679 1426027 4056 0
80 2 S116 689 1426716 4745 0
80 2 S116 704 1427420 5449 0
80 2 S116 679 1428099 6128 0
80 2 S116 673 1428772 6801 0
