T_0084
BeatCount Mean SD BeatCountNoOutliers MeanNoOutliers SDNoOutliers
1793 872,467930842164 75,2778721742025 1767 872,271646859083 53,196561121851

Trial TrialStatus Trialtype IBI AbsPosition RelPosition Outlier
0 0 0 792 863 -14845 0
0 0 0 830 1693 -14015 0
0 0 0 803 2496 -13212 0
0 0 0 848 3344 -12364 0
0 0 0 820 4164 -11544 0
0 0 0 735 4899 -10809 0
0 0 0 730 5629 -10079 0
0 0 0 777 6406 -9302 0
0 0 0 790 7196 -8512 0
0 0 0 832 8028 -7680 0
0 0 0 830 8858 -6850 0
0 0 0 832 9690 -6018 0
0 0 0 854 10544 -5164 0
0 0 0 879 11423 -4285 0
0 0 0 869 12292 -3416 0
0 0 0 830 13122 -2586 0
1 1 S112 855 13977 -1731 0
1 1 S112 901 14878 -830 0
1 2 S112 922 15800 92 0
1 2 S112 913 16713 1005 0
1 2 S112 875 17588 1880 0
1 2 S112 890 18478 2770 0
1 2 S112 893 19371 3663 0
1 2 S112 888 20259 4551 0
1 2 S112 891 21150 5442 0
1 2 S112 853 22003 6295 0
0 0 0 820 22823 -12265 0
0 0 0 838 23661 -11427 0
0 0 0 866 24527 -10561 0
0 0 0 877 25404 -9684 0
0 0 0 839 26243 -8845 0
0 0 0 859 27102 -7986 0
0 0 0 883 27985 -7103 0
0 0 0 853 28838 -6250 0
0 0 0 798 29636 -5452 0
0 0 0 828 30464 -4624 0
0 0 0 850 31314 -3774 0
0 0 0 811 32125 -2963 0
0 0 0 835 32960 -2128 0
2 1 S102 857 33817 -1271 0
2 1 S102 856 34673 -415 0
2 2 S102 840 35513 425 0
2 2 S102 870 36383 1295 0
2 2 S102 893 37276 2188 0
2 2 S102 874 38150 3062 0
2 2 S102 837 38987 3899 0
2 2 S102 867 39854 4766 0
2 2 S102 880 40734 5646 0
2 2 S102 896 41630 6542 0
0 0 0 864 42494 -10582 0
0 0 0 865 43359 -9717 0
0 0 0 891 44250 -8826 0
0 0 0 915 45165 -7911 0
0 0 0 926 46091 -6985 0
0 0 0 845 46936 -6140 0
0 0 0 853 47789 -5287 0
0 0 0 830 48619 -4457 0
0 0 0 817 49436 -3640 0
0 0 0 797 50233 -2843 0
0 0 0 839 51072 -2004 0
3 1 S116 844 51916 -1160 0
3 1 S116 849 52765 -311 0
3 2 S116 829 53594 518 0
3 2 S116 887 54481 1405 0
3 2 S116 870 55351 2275 0
3 2 S116 869 56220 3144 0
3 2 S116 833 57053 3977 0
3 2 S116 826 57879 4803 0
3 2 S116 846 58725 5649 0
3 2 S116 850 59575 6499 0
0 0 0 857 60432 -12339 0
0 0 0 806 61238 -11533 0
0 0 0 842 62080 -10691 0
0 0 0 849 62929 -9842 0
0 0 0 896 63825 -8946 0
0 0 0 840 64665 -8106 0
0 0 0 785 65450 -7321 0
0 0 0 735 66185 -6586 0
0 0 0 722 66907 -5864 0
0 0 0 758 67665 -5106 0
0 0 0 764 68429 -4342 0
0 0 0 767 69196 -3575 0
0 0 0 847 70043 -2728 0
4 1 S106 903 70946 -1825 0
4 1 S106 871 71817 -954 0
4 1 S106 840 72657 -114 0
4 2 S106 879 73536 765 0
4 2 S106 900 74436 1665 0
4 2 S106 898 75334 2563 0
4 2 S106 855 76189 3418 0
4 2 S106 816 77005 4234 0
4 2 S106 843 77848 5077 0
4 2 S106 870 78718 5947 0
4 2 S106 906 79624 6853 0
0 0 0 864 80488 -7601 0
0 0 0 877 81365 -6724 0
0 0 0 935 82300 -5789 0
0 0 0 934 83234 -4855 0
0 0 0 868 84102 -3987 0
0 0 0 847 84949 -3140 0
0 0 0 848 85797 -2292 0
5 1 S116 856 86653 -1436 0
5 1 S116 817 87470 -619 0
5 2 S116 855 88325 236 0
5 2 S116 899 89224 1135 0
5 2 S116 924 90148 2059 0
5 2 S116 863 91011 2922 0
5 2 S116 863 91874 3785 0
5 2 S116 867 92741 4652 0
5 2 S116 884 93625 5536 0
5 2 S116 895 94520 6431 0
0 0 0 851 95371 -11319 0
0 0 0 831 96202 -10488 0
0 0 0 860 97062 -9628 0
0 0 0 885 97947 -8743 0
0 0 0 894 98841 -7849 0
0 0 0 833 99674 -7016 0
0 0 0 851 100525 -6165 0
0 0 0 851 101376 -5314 0
0 0 0 837 102213 -4477 0
0 0 0 803 103016 -3674 0
0 0 0 851 103867 -2823 0
6 1 S106 886 104753 -1937 0
6 1 S106 874 105627 -1063 0
6 1 S106 833 106460 -230 0
6 2 S106 872 107332 642 0
6 2 S106 926 108258 1568 0
6 2 S106 893 109151 2461 0
6 2 S106 813 109964 3274 0
6 2 S106 801 110765 4075 0
6 2 S106 862 111627 4937 0
6 2 S106 883 112510 5820 0
6 2 S106 909 113419 6729 0
0 0 0 848 114267 -11936 0
0 0 0 868 115135 -11068 0
0 0 0 893 116028 -10175 0
0 0 0 922 116950 -9253 0
0 0 0 878 117828 -8375 0
0 0 0 838 118666 -7537 0
0 0 0 846 119512 -6691 0
0 0 0 856 120368 -5835 0
0 0 0 817 121185 -5018 0
0 0 0 868 122053 -4150 0
0 0 0 910 122963 -3240 0
0 0 0 911 123874 -2329 0
7 1 S102 838 124712 -1491 0
7 1 S102 877 125589 -614 0
7 2 S102 897 126486 283 0
7 2 S102 917 127403 1200 0
7 2 S102 846 128249 2046 0
7 2 S102 880 129129 2926 0
7 2 S102 902 130031 3828 0
7 2 S102 902 130933 4730 0
7 2 S102 872 131805 5602 0
7 2 S102 882 132687 6484 0
0 0 0 909 133596 -10744 0
0 0 0 907 134503 -9837 0
0 0 0 843 135346 -8994 0
0 0 0 856 136202 -8138 0
0 0 0 885 137087 -7253 0
0 0 0 876 137963 -6377 0
0 0 0 824 138787 -5553 0
0 0 0 804 139591 -4749 0
0 0 0 813 140404 -3936 0
0 0 0 823 141227 -3113 0
0 0 0 794 142021 -2319 0
8 1 S112 830 142851 -1489 0
8 1 S112 853 143704 -636 0
8 2 S112 836 144540 200 0
8 2 S112 820 145360 1020 0
8 2 S112 850 146210 1870 0
8 2 S112 874 147084 2744 0
8 2 S112 855 147939 3599 0
8 2 S112 796 148735 4395 0
8 2 S112 820 149555 5215 0
8 2 S112 834 150389 6049 0
8 2 S112 862 151251 6911 0
0 0 0 849 152100 -8420 0
0 0 0 844 152944 -7576 0
0 0 0 835 153779 -6741 0
0 0 0 792 154571 -5949 0
0 0 0 776 155347 -5173 0
0 0 0 803 156150 -4370 0
0 0 0 780 156930 -3590 0
0 0 0 709 157639 -2881 0
0 0 0 734 158373 -2147 0
9 1 S116 766 159139 -1381 0
9 1 S116 795 159934 -586 0
9 2 S116 794 160728 208 0
9 2 S116 814 161542 1022 0
9 2 S116 845 162387 1867 0
9 2 S116 894 163281 2761 0
9 2 S116 864 164145 3625 0
9 2 S116 841 164986 4466 0
9 2 S116 878 165864 5344 0
9 2 S116 898 166762 6242 0
0 0 0 878 167640 -13487 0
0 0 0 858 168498 -12629 0
0 0 0 867 169365 -11762 0
0 0 0 897 170262 -10865 0
0 0 0 894 171156 -9971 0
0 0 0 851 172007 -9120 0
0 0 0 866 172873 -8254 0
0 0 0 867 173740 -7387 0
0 0 0 839 174579 -6548 0
0 0 0 789 175368 -5759 0
0 0 0 828 176196 -4931 0
0 0 0 865 177061 -4066 0
0 0 0 857 177918 -3209 0
0 0 0 812 178730 -2397 0
10 1 S102 873 179603 -1524 0
10 1 S102 901 180504 -623 0
10 2 S102 895 181399 272 0
10 2 S102 856 182255 1128 0
10 2 S102 896 183151 2024 0
10 2 S102 923 184074 2947 0
10 2 S102 914 184988 3861 0
10 2 S102 848 185836 4709 0
10 2 S102 860 186696 5569 0
10 2 S102 870 187566 6439 0
0 0 0 882 188448 -13087 0
0 0 0 837 189285 -12250 0
0 0 0 868 190153 -11382 0
0 0 0 898 191051 -10484 0
0 0 0 924 191975 -9560 0
0 0 0 863 192838 -8697 0
0 0 0 853 193691 -7844 0
0 0 0 868 194559 -6976 0
0 0 0 853 195412 -6123 0
0 0 0 804 196216 -5319 0
0 0 0 832 197048 -4487 0
0 0 0 847 197895 -3640 0
0 0 0 852 198747 -2788 0
11 1 S112 830 199577 -1958 0
11 1 S112 878 200455 -1080 0
11 1 S112 917 201372 -163 0
11 2 S112 896 202268 733 0
11 2 S112 871 203139 1604 0
11 2 S112 892 204031 2496 0
11 2 S112 921 204952 3417 0
11 2 S112 881 205833 4298 0
11 2 S112 849 206682 5147 0
11 2 S112 871 207553 6018 0
11 2 S112 886 208439 6904 0
0 0 0 889 209328 -7211 0
0 0 0 805 210133 -6406 0
0 0 0 826 210959 -5580 0
0 0 0 872 211831 -4708 0
0 0 0 857 212688 -3851 0
0 0 0 801 213489 -3050 0
0 0 0 784 214273 -2266 0
12 1 S116 824 215097 -1442 0
12 1 S116 848 215945 -594 0
12 2 S116 837 216782 243 0
12 2 S116 849 217631 1092 0
12 2 S116 874 218505 1966 0
12 2 S116 916 219421 2882 0
12 2 S116 895 220316 3777 0
12 2 S116 822 221138 4599 0
12 2 S116 835 221973 5434 0
12 2 S116 877 222850 6311 0
0 0 0 889 223739 -13407 0
0 0 0 887 224626 -12520 0
0 0 0 831 225457 -11689 0
0 0 0 857 226314 -10832 0
0 0 0 870 227184 -9962 0
0 0 0 894 228078 -9068 0
0 0 0 863 228941 -8205 0
0 0 0 858 229799 -7347 0
0 0 0 862 230661 -6485 0
0 0 0 860 231521 -5625 0
0 0 0 814 232335 -4811 0
0 0 0 867 233202 -3944 0
0 0 0 891 234093 -3053 0
0 0 0 868 234961 -2185 0
13 1 S112 873 235834 -1312 0
13 1 S112 907 236741 -405 0
13 2 S112 907 237648 502 0
13 2 S112 858 238506 1360 0
13 2 S112 906 239412 2266 0
13 2 S112 925 240337 3191 0
13 2 S112 940 241277 4131 0
13 2 S112 885 242162 5016 0
13 2 S112 861 243023 5877 0
13 2 S112 881 243904 6758 0
0 0 0 859 244763 -10586 0
0 0 0 759 245522 -9827 0
0 0 0 841 246363 -8986 0
0 0 0 833 247196 -8153 0
0 0 0 858 248054 -7295 0
0 0 0 822 248876 -6473 0
0 0 0 839 249715 -5634 0
0 0 0 853 250568 -4781 0
0 0 0 908 251476 -3873 0
0 0 0 858 252334 -3015 0
0 0 0 864 253198 -2151 0
14 1 S106 877 254075 -1274 0
14 1 S106 885 254960 -389 0
14 2 S106 866 255826 477 0
14 2 S106 828 256654 1305 0
14 2 S106 864 257518 2169 0
14 2 S106 890 258408 3059 0
14 2 S106 879 259287 3938 0
14 2 S106 830 260117 4768 0
14 2 S106 876 260993 5644 0
14 2 S106 895 261888 6539 0
0 0 0 911 262799 -11532 0
0 0 0 865 263664 -10667 0
0 0 0 870 264534 -9797 0
0 0 0 901 265435 -8896 0
0 0 0 873 266308 -8023 0
0 0 0 820 267128 -7203 0
0 0 0 842 267970 -6361 0
0 0 0 862 268832 -5499 0
0 0 0 894 269726 -4605 0
0 0 0 837 270563 -3768 0
0 0 0 858 271421 -2910 0
0 0 0 896 272317 -2014 0
15 1 S116 891 273208 -1123 0
15 1 S116 866 274074 -257 0
15 2 S116 901 274975 644 0
15 2 S116 926 275901 1570 0
15 2 S116 904 276805 2474 0
15 2 S116 883 277688 3357 0
15 2 S116 932 278620 4289 0
15 2 S116 931 279551 5220 0
15 2 S116 887 280438 6107 0
15 2 S116 845 281283 6952 0
0 0 0 877 282160 -8683 0
0 0 0 906 283066 -7777 0
0 0 0 885 283951 -6892 0
0 0 0 817 284768 -6075 0
0 0 0 845 285613 -5230 0
0 0 0 868 286481 -4362 0
0 0 0 818 287299 -3544 0
0 0 0 821 288120 -2723 0
16 1 S116 860 288980 -1863 0
16 1 S116 876 289856 -987 0
16 1 S116 859 290715 -128 0
16 2 S116 819 291534 691 0
16 2 S116 871 292405 1562 0
16 2 S116 920 293325 2482 0
16 2 S116 899 294224 3381 0
16 2 S116 885 295109 4266 0
16 2 S116 840 295949 5106 0
16 2 S116 869 296818 5975 0
16 2 S116 889 297707 6864 0
0 0 0 916 298623 -9180 0
0 0 0 851 299474 -8329 0
0 0 0 883 300357 -7446 0
0 0 0 902 301259 -6544 0
0 0 0 865 302124 -5679 0
0 0 0 812 302936 -4867 0
0 0 0 852 303788 -4015 0
0 0 0 880 304668 -3135 0
0 0 0 858 305526 -2277 0
17 1 S106 861 306387 -1416 0
17 1 S106 906 307293 -510 0
17 2 S106 902 308195 392 0
17 2 S106 850 309045 1242 0
17 2 S106 889 309934 2131 0
17 2 S106 911 310845 3042 0
17 2 S106 911 311756 3953 0
17 2 S106 853 312609 4806 0
17 2 S106 861 313470 5667 0
17 2 S106 893 314363 6560 0
0 0 0 916 315279 -11191 0
0 0 0 922 316201 -10269 0
0 0 0 855 317056 -9414 0
0 0 0 880 317936 -8534 0
0 0 0 879 318815 -7655 0
0 0 0 826 319641 -6829 0
0 0 0 834 320475 -5995 0
0 0 0 853 321328 -5142 0
0 0 0 839 322167 -4303 0
0 0 0 819 322986 -3484 0
0 0 0 868 323854 -2616 0
18 1 S102 885 324739 -1731 0
18 1 S102 893 325632 -838 0
18 1 S102 821 326453 -17 0
18 2 S102 856 327309 839 0
18 2 S102 881 328190 1720 0
18 2 S102 897 329087 2617 0
18 2 S102 865 329952 3482 0
18 2 S102 807 330759 4289 0
18 2 S102 854 331613 5143 0
18 2 S102 871 332484 6014 0
18 2 S102 859 333343 6873 0
0 0 0 821 334164 -6249 0
0 0 0 877 335041 -5372 0
0 0 0 887 335928 -4485 0
0 0 0 856 336784 -3629 0
0 0 0 810 337594 -2819 0
19 1 S106 839 338433 -1980 0
19 1 S106 865 339298 -1115 0
19 1 S106 844 340142 -271 0
19 2 S106 813 340955 542 0
19 2 S106 873 341828 1415 0
19 2 S106 870 342698 2285 0
19 2 S106 893 343591 3178 0
19 2 S106 830 344421 4008 0
19 2 S106 846 345267 4854 0
19 2 S106 872 346139 5726 0
19 2 S106 886 347025 6612 0
0 0 0 844 347869 -12123 0
0 0 0 855 348724 -11268 0
0 0 0 892 349616 -10376 0
0 0 0 894 350510 -9482 0
0 0 0 863 351373 -8619 0
0 0 0 801 352174 -7818 0
0 0 0 783 352957 -7035 0
0 0 0 716 353673 -6319 0
0 0 0 721 354394 -5598 0
0 0 0 709 355103 -4889 0
0 0 0 757 355860 -4132 0
0 0 0 822 356682 -3310 0
0 0 0 864 357546 -2446 0
20 1 S112 819 358365 -1627 0
20 1 S112 858 359223 -769 0
20 2 S112 906 360129 137 0
20 2 S112 877 361006 1014 0
20 2 S112 875 361881 1889 0
20 2 S112 901 362782 2790 0
20 2 S112 900 363682 3690 0
20 2 S112 818 364500 4508 0
20 2 S112 866 365366 5374 0
20 2 S112 910 366276 6284 0
0 0 0 965 367241 -9826 0
0 0 0 922 368163 -8904 0
0 0 0 844 369007 -8060 0
0 0 0 905 369912 -7155 0
0 0 0 913 370825 -6242 0
0 0 0 860 371685 -5382 0
0 0 0 853 372538 -4529 0
0 0 0 900 373438 -3629 0
0 0 0 931 374369 -2698 0
21 1 S106 886 375255 -1812 0
21 1 S106 887 376142 -925 0
21 1 S106 907 377049 -18 0
21 2 S106 911 377960 893 0
21 2 S106 874 378834 1767 0
21 2 S106 910 379744 2677 0
21 2 S106 951 380695 3628 0
21 2 S106 916 381611 4544 0
21 2 S106 873 382484 5417 0
21 2 S106 914 383398 6331 0
0 0 0 918 384316 -11502 0
0 0 0 913 385229 -10589 0
0 0 0 872 386101 -9717 0
0 0 0 945 387046 -8772 0
0 0 0 937 387983 -7835 0
0 0 0 881 388864 -6954 0
0 0 0 869 389733 -6085 0
0 0 0 910 390643 -5175 0
0 0 0 925 391568 -4250 0
0 0 0 863 392431 -3387 0
0 0 0 867 393298 -2520 0
22 1 S116 906 394204 -1614 0
22 1 S116 911 395115 -703 0
22 2 S116 861 395976 158 0
22 2 S116 911 396887 1069 0
22 2 S116 946 397833 2015 0
22 2 S116 937 398770 2952 0
22 2 S116 872 399642 3824 0
22 2 S116 877 400519 4701 0
22 2 S116 901 401420 5602 0
22 2 S116 940 402360 6542 0
0 0 0 952 403312 -10228 0
0 0 0 841 404153 -9387 0
0 0 0 873 405026 -8514 0
0 0 0 929 405955 -7585 0
0 0 0 918 406873 -6667 0
0 0 0 829 407702 -5838 0
0 0 0 828 408530 -5010 0
0 0 0 842 409372 -4168 0
0 0 0 843 410215 -3325 0
0 0 0 839 411054 -2486 0
23 1 S112 892 411946 -1594 0
23 1 S112 933 412879 -661 0
23 2 S112 926 413805 265 0
23 2 S112 897 414702 1162 0
23 2 S112 912 415614 2074 0
23 2 S112 904 416518 2978 0
23 2 S112 842 417360 3820 0
23 2 S112 851 418211 4671 0
23 2 S112 854 419065 5525 0
23 2 S112 865 419930 6390 0
0 0 0 857 420787 -9796 0
0 0 0 856 421643 -8940 0
0 0 0 894 422537 -8046 0
0 0 0 925 423462 -7121 0
0 0 0 852 424314 -6269 0
0 0 0 838 425152 -5431 0
0 0 0 856 426008 -4575 0
0 0 0 847 426855 -3728 0
0 0 0 842 427697 -2886 0
0 0 0 875 428572 -2011 0
24 1 S106 903 429475 -1108 0
24 1 S106 869 430344 -239 0
24 2 S106 930 431274 691 0
24 2 S106 958 432232 1649 0
24 2 S106 939 433171 2588 0
24 2 S106 888 434059 3476 0
24 2 S106 903 434962 4379 0
24 2 S106 903 435865 5282 0
24 2 S106 910 436775 6192 0
0 0 0 868 437643 -10247 0
0 0 0 894 438537 -9353 0
0 0 0 933 439470 -8420 0
0 0 0 956 440426 -7464 0
0 0 0 886 441312 -6578 0
0 0 0 872 442184 -5706 0
0 0 0 889 443073 -4817 0
0 0 0 868 443941 -3949 0
0 0 0 855 444796 -3094 0
0 0 0 887 445683 -2207 0
25 1 S102 899 446582 -1308 0
25 1 S102 892 447474 -416 0
25 2 S102 893 448367 477 0
25 2 S102 919 449286 1396 0
25 2 S102 946 450232 2342 0
25 2 S102 898 451130 3240 0
25 2 S102 887 452017 4127 0
25 2 S102 885 452902 5012 0
25 2 S102 878 453780 5890 0
25 2 S102 837 454617 6727 0
0 0 0 862 455479 -7183 0
0 0 0 880 456359 -6303 0
0 0 0 923 457282 -5380 0
0 0 0 855 458137 -4525 0
0 0 0 845 458982 -3680 0
0 0 0 853 459835 -2827 0
26 1 S116 848 460683 -1979 0
26 1 S116 803 461486 -1176 0
26 1 S116 842 462328 -334 0
26 2 S116 849 463177 515 0
26 2 S116 822 463999 1337 0
26 2 S116 839 464838 2176 0
26 2 S116 879 465717 3055 0
26 2 S116 899 466616 3954 0
26 2 S116 870 467486 4824 0
26 2 S116 812 468298 5636 0
26 2 S116 843 469141 6479 0
0 0 0 858 469999 -7849 0
0 0 0 856 470855 -6993 0
0 0 0 812 471667 -6181 0
0 0 0 847 472514 -5334 0
0 0 0 858 473372 -4476 0
0 0 0 829 474201 -3647 0
0 0 0 751 474952 -2896 0
0 0 0 807 475759 -2089 0
27 1 S106 728 476487 -1361 0
27 1 S106 723 477210 -638 0
27 2 S106 774 477984 136 0
27 2 S106 771 478755 907 0
27 2 S106 767 479522 1674 0
27 2 S106 835 480357 2509 0
27 2 S106 866 481223 3375 0
27 2 S106 884 482107 4259 0
27 2 S106 814 482921 5073 0
27 2 S106 846 483767 5919 0
27 2 S106 875 484642 6794 0
0 0 0 883 485525 -7807 0
0 0 0 839 486364 -6968 0
0 0 0 907 487271 -6061 0
0 0 0 969 488240 -5092 0
0 0 0 935 489175 -4157 0
0 0 0 838 490013 -3319 0
0 0 0 856 490869 -2463 0
28 1 S102 865 491734 -1598 0
28 1 S102 818 492552 -780 0
28 2 S102 842 493394 62 0
28 2 S102 894 494288 956 0
28 2 S102 926 495214 1882 0
28 2 S102 869 496083 2751 0
28 2 S102 887 496970 3638 0
28 2 S102 915 497885 4553 0
28 2 S102 905 498790 5458 0
28 2 S102 837 499627 6295 0
0 0 0 850 500477 -12368 0
0 0 0 880 501357 -11488 0
0 0 0 892 502249 -10596 0
0 0 0 859 503108 -9737 0
0 0 0 860 503968 -8877 0
0 0 0 863 504831 -8014 0
0 0 0 833 505664 -7181 0
0 0 0 823 506487 -6358 0
0 0 0 866 507353 -5492 0
0 0 0 880 508233 -4612 0
0 0 0 853 509086 -3759 0
0 0 0 868 509954 -2891 0
29 1 S112 897 510851 -1994 0
29 1 S112 918 511769 -1076 0
29 1 S112 859 512628 -217 0
29 2 S112 921 513549 704 0
29 2 S112 937 514486 1641 0
29 2 S112 949 515435 2590 0
29 2 S112 879 516314 3469 0
29 2 S112 925 517239 4394 0
29 2 S112 960 518199 5354 0
29 2 S112 979 519178 6333 0
0 0 0 893 520071 -8175 0
0 0 0 916 520987 -7259 0
0 0 0 934 521921 -6325 0
0 0 0 929 522850 -5396 0
0 0 0 853 523703 -4543 0
0 0 0 890 524593 -3653 0
0 0 0 889 525482 -2764 0
30 1 S112 852 526334 -1912 0
30 1 S112 848 527182 -1064 0
30 1 S112 863 528045 -201 0
30 2 S112 899 528944 698 0
30 2 S112 847 529791 1545 0
30 2 S112 885 530676 2430 0
30 2 S112 934 531610 3364 0
30 2 S112 950 532560 4314 0
30 2 S112 870 533430 5184 0
30 2 S112 868 534298 6052 0
30 2 S112 896 535194 6948 0
0 0 0 938 536132 -9571 0
0 0 0 885 537017 -8686 0
0 0 0 912 537929 -7774 0
0 0 0 941 538870 -6833 0
0 0 0 899 539769 -5934 0
0 0 0 843 540612 -5091 0
0 0 0 872 541484 -4219 0
0 0 0 897 542381 -3322 0
0 0 0 849 543230 -2473 0
31 1 S106 891 544121 -1582 0
31 1 S106 920 545041 -662 0
31 2 S106 901 545942 239 0
31 2 S106 885 546827 1124 0
31 2 S106 920 547747 2044 0
31 2 S106 929 548676 2973 0
31 2 S106 882 549558 3855 0
31 2 S106 856 550414 4711 0
31 2 S106 868 551282 5579 0
31 2 S106 897 552179 6476 0
0 0 0 878 553057 -9490 0
0 0 0 901 553958 -8589 0
0 0 0 930 554888 -7659 0
0 0 0 939 555827 -6720 0
0 0 0 870 556697 -5850 0
0 0 0 874 557571 -4976 0
0 0 0 857 558428 -4119 0
0 0 0 849 559277 -3270 0
0 0 0 820 560097 -2450 0
32 1 S102 868 560965 -1582 0
32 1 S102 897 561862 -685 0
32 2 S102 851 562713 166 0
32 2 S102 878 563591 1044 0
32 2 S102 894 564485 1938 0
32 2 S102 903 565388 2841 0
32 2 S102 837 566225 3678 0
32 2 S102 824 567049 4502 0
32 2 S102 856 567905 5358 0
32 2 S102 874 568779 6232 0
0 0 0 882 569661 -12199 0
0 0 0 824 570485 -11375 0
0 0 0 878 571363 -10497 0
0 0 0 928 572291 -9569 0
0 0 0 934 573225 -8635 0
0 0 0 844 574069 -7791 0
0 0 0 813 574882 -6978 0
0 0 0 740 575622 -6238 0
0 0 0 743 576365 -5495 0
0 0 0 749 577114 -4746 0
0 0 0 727 577841 -4019 0
0 0 0 783 578624 -3236 0
0 0 0 820 579444 -2416 0
33 1 S112 841 580285 -1575 0
33 1 S112 798 581083 -777 0
33 2 S112 840 581923 63 0
33 2 S112 874 582797 937 0
33 2 S112 898 583695 1835 0
33 2 S112 904 584599 2739 0
33 2 S112 768 585367 3507 0
33 2 S112 730 586097 4237 0
33 2 S112 817 586914 5054 0
33 2 S112 830 587744 5884 0
33 2 S112 829 588573 6713 0
0 0 0 750 589323 -12017 0
0 0 0 830 590153 -11187 0
0 0 0 854 591007 -10333 0
0 0 0 883 591890 -9450 0
0 0 0 870 592760 -8580 0
0 0 0 809 593569 -7771 0
0 0 0 827 594396 -6944 0
0 0 0 838 595234 -6106 0
0 0 0 851 596085 -5255 0
0 0 0 809 596894 -4446 0
0 0 0 822 597716 -3624 0
0 0 0 843 598559 -2781 0
34 1 S106 871 599430 -1910 0
34 1 S106 873 600303 -1037 0
34 1 S106 846 601149 -191 0
34 2 S106 873 602022 682 0
34 2 S106 887 602909 1569 0
34 2 S106 900 603809 2469 0
34 2 S106 851 604660 3320 0
34 2 S106 853 605513 4173 0
34 2 S106 861 606374 5034 0
34 2 S106 895 607269 5929 0
34 2 S106 926 608195 6855 0
0 0 0 866 609061 -9521 0
0 0 0 878 609939 -8643 0
0 0 0 912 610851 -7731 0
0 0 0 927 611778 -6804 0
0 0 0 859 612637 -5945 0
0 0 0 841 613478 -5104 0
0 0 0 857 614335 -4247 0
0 0 0 875 615210 -3372 0
0 0 0 843 616053 -2529 0
35 1 S102 834 616887 -1695 0
35 1 S102 889 617776 -806 0
35 2 S102 923 618699 117 0
35 2 S102 891 619590 1008 0
35 2 S102 874 620464 1882 0
35 2 S102 897 621361 2779 0
35 2 S102 893 622254 3672 0
35 2 S102 863 623117 4535 0
35 2 S102 855 623972 5390 0
35 2 S102 885 624857 6275 0
0 0 0 908 625765 -8798 0
0 0 0 905 626670 -7893 0
0 0 0 863 627533 -7030 0
0 0 0 929 628462 -6101 0
0 0 0 953 629415 -5148 0
0 0 0 911 630326 -4237 0
0 0 0 823 631149 -3414 0
0 0 0 842 631991 -2572 0
36 1 S106 851 632842 -1721 0
36 1 S106 885 633727 -836 0
36 2 S106 841 634568 5 0
36 2 S106 871 635439 876 0
36 2 S106 901 636340 1777 0
36 2 S106 902 637242 2679 0
36 2 S106 863 638105 3542 0
36 2 S106 858 638963 4400 0
36 2 S106 890 639853 5290 0
36 2 S106 906 640759 6196 0
0 0 0 893 641652 -11214 0
0 0 0 864 642516 -10350 0
0 0 0 916 643432 -9434 0
0 0 0 937 644369 -8497 0
0 0 0 919 645288 -7578 0
0 0 0 899 646187 -6679 0
0 0 0 897 647084 -5782 0
0 0 0 890 647974 -4892 0
0 0 0 828 648802 -4064 0
0 0 0 834 649636 -3230 0
0 0 0 861 650497 -2369 0
37 1 S116 848 651345 -1521 0
37 1 S116 811 652156 -710 0
37 2 S116 864 653020 154 0
37 2 S116 891 653911 1045 0
37 2 S116 916 654827 1961 0
37 2 S116 879 655706 2840 0
37 2 S116 884 656590 3724 0
37 2 S116 922 657512 4646 0
37 2 S116 930 658442 5576 0
37 2 S116 867 659309 6443 0
0 0 0 874 660183 -12510 0
0 0 0 874 661057 -11636 0
0 0 0 896 661953 -10740 0
0 0 0 862 662815 -9878 0
0 0 0 919 663734 -8959 0
0 0 0 923 664657 -8036 0
0 0 0 867 665524 -7169 0
0 0 0 855 666379 -6314 0
0 0 0 860 667239 -5454 0
0 0 0 863 668102 -4591 0
0 0 0 835 668937 -3756 0
0 0 0 845 669782 -2911 0
0 0 0 855 670637 -2056 0
38 1 S102 899 671536 -1157 0
38 1 S102 854 672390 -303 0
38 2 S102 901 673291 598 0
38 2 S102 930 674221 1528 0
38 2 S102 874 675095 2402 0
38 2 S102 842 675937 3244 0
38 2 S102 864 676801 4108 0
38 2 S102 870 677671 4978 0
38 2 S102 836 678507 5814 0
38 2 S102 759 679266 6573 0
0 0 0 876 680142 -9180 0
0 0 0 884 681026 -8296 0
0 0 0 902 681928 -7394 0
0 0 0 869 682797 -6525 0
0 0 0 852 683649 -5673 0
0 0 0 840 684489 -4833 0
0 0 0 795 685284 -4038 0
0 0 0 723 686007 -3315 0
0 0 0 763 686770 -2552 0
39 1 S116 792 687562 -1760 0
39 1 S116 830 688392 -930 0
39 1 S116 835 689227 -95 0
39 2 S116 836 690063 741 0
39 2 S116 885 690948 1626 0
39 2 S116 931 691879 2557 0
39 2 S116 916 692795 3473 0
39 2 S116 839 693634 4312 0
39 2 S116 870 694504 5182 0
39 2 S116 902 695406 6084 0
39 2 S116 908 696314 6992 0
0 0 0 876 697190 -6522 0
0 0 0 897 698087 -5625 0
0 0 0 947 699034 -4678 0
0 0 0 907 699941 -3771 0
0 0 0 852 700793 -2919 0
0 0 0 892 701685 -2027 0
40 1 S112 910 702595 -1117 0
40 1 S112 892 703487 -225 0
40 2 S112 843 704330 618 0
40 2 S112 893 705223 1511 0
40 2 S112 913 706136 2424 0
40 2 S112 924 707060 3348 0
40 2 S112 922 707982 4270 0
40 2 S112 890 708872 5160 0
40 2 S112 860 709732 6020 0
40 2 S112 908 710640 6928 0
0 0 0 933 711573 -187018 0
0 0 0 923 712496 -186095 0
0 0 0 908 713404 -185187 0
0 0 0 940 714344 -184247 0
0 0 0 918 715262 -183329 0
0 0 0 724 715986 -182605 0
0 0 0 743 716729 -181862 0
0 0 0 788 717517 -181074 0
0 0 0 782 718299 -180292 0
0 0 0 851 719150 -179441 0
0 0 0 866 720016 -178575 0
0 0 0 865 720881 -177710 0
0 0 0 820 721701 -176890 0
0 0 0 786 722487 -176104 0
0 0 0 822 723309 -175282 0
0 0 0 845 724154 -174437 0
0 0 0 1113 725267 -173324 1
0 0 0 511 725778 -172813 1
0 0 0 1567 727345 -171246 1
0 0 0 2364 729709 -168882 1
0 0 0 759 730468 -168123 0
0 0 0 754 731222 -167369 0
0 0 0 1543 732765 -165826 1
0 0 0 588 733353 -165238 1
0 0 0 678 734031 -164560 1
0 0 0 655 734686 -163905 1
0 0 0 664 735350 -163241 1
0 0 0 703 736053 -162538 0
0 0 0 739 736792 -161799 0
0 0 0 689 737481 -161110 0
0 0 0 672 738153 -160438 1
0 0 0 729 738882 -159709 0
0 0 0 778 739660 -158931 0
0 0 0 785 740445 -158146 0
0 0 0 762 741207 -157384 0
0 0 0 839 742046 -156545 0
0 0 0 872 742918 -155673 0
0 0 0 908 743826 -154765 0
0 0 0 879 744705 -153886 0
0 0 0 870 745575 -153016 0
0 0 0 901 746476 -152115 0
0 0 0 928 747404 -151187 0
0 0 0 888 748292 -150299 0
0 0 0 835 749127 -149464 0
0 0 0 900 750027 -148564 0
0 0 0 923 750950 -147641 0
0 0 0 929 751879 -146712 0
0 0 0 923 752802 -145789 0
0 0 0 830 753632 -144959 0
0 0 0 735 754367 -144224 0
0 0 0 741 755108 -143483 0
0 0 0 793 755901 -142690 0
0 0 0 1670 757571 -141020 1
0 0 0 864 758435 -140156 0
0 0 0 864 759299 -139292 0
0 0 0 757 760056 -138535 0
0 0 0 691 760747 -137844 0
0 0 0 797 761544 -137047 0
0 0 0 700 762244 -136347 0
0 0 0 690 762934 -135657 0
0 0 0 656 763590 -135001 1
0 0 0 649 764239 -134352 1
0 0 0 658 764897 -133694 1
0 0 0 684 765581 -133010 0
0 0 0 738 766319 -132272 0
0 0 0 718 767037 -131554 0
0 0 0 686 767723 -130868 0
0 0 0 831 768554 -130037 0
0 0 0 873 769427 -129164 0
0 0 0 810 770237 -128354 0
0 0 0 799 771036 -127555 0
0 0 0 702 771738 -126853 0
0 0 0 733 772471 -126120 0
0 0 0 1369 773840 -124751 1
0 0 0 702 774542 -124049 0
0 0 0 692 775234 -123357 0
0 0 0 715 775949 -122642 0
0 0 0 690 776639 -121952 0
0 0 0 673 777312 -121279 1
0 0 0 673 777985 -120606 1
0 0 0 688 778673 -119918 0
0 0 0 723 779396 -119195 0
0 0 0 728 780124 -118467 0
0 0 0 744 780868 -117723 0
0 0 0 760 781628 -116963 0
0 0 0 752 782380 -116211 0
0 0 0 777 783157 -115434 0
0 0 0 847 784004 -114587 0
0 0 0 872 784876 -113715 0
0 0 0 923 785799 -112792 0
0 0 0 965 786764 -111827 0
0 0 0 958 787722 -110869 0
0 0 0 942 788664 -109927 0
0 0 0 938 789602 -108989 0
0 0 0 910 790512 -108079 0
0 0 0 881 791393 -107198 0
0 0 0 891 792284 -106307 0
0 0 0 960 793244 -105347 0
0 0 0 941 794185 -104406 0
0 0 0 915 795100 -103491 0
0 0 0 908 796008 -102583 0
0 0 0 853 796861 -101730 0
0 0 0 826 797687 -100904 0
0 0 0 739 798426 -100165 0
0 0 0 737 799163 -99428 0
0 0 0 806 799969 -98622 0
0 0 0 838 800807 -97784 0
0 0 0 926 801733 -96858 0
0 0 0 952 802685 -95906 0
0 0 0 934 803619 -94972 0
0 0 0 895 804514 -94077 0
0 0 0 903 805417 -93174 0
0 0 0 822 806239 -92352 0
0 0 0 776 807015 -91576 0
0 0 0 816 807831 -90760 0
0 0 0 793 808624 -89967 0
0 0 0 749 809373 -89218 0
0 0 0 728 810101 -88490 0
0 0 0 707 810808 -87783 0
0 0 0 711 811519 -87072 0
0 0 0 768 812287 -86304 0
0 0 0 780 813067 -85524 0
0 0 0 855 813922 -84669 0
0 0 0 881 814803 -83788 0
0 0 0 898 815701 -82890 0
0 0 0 847 816548 -82043 0
0 0 0 822 817370 -81221 0
0 0 0 799 818169 -80422 0
0 0 0 762 818931 -79660 0
0 0 0 753 819684 -78907 0
0 0 0 711 820395 -78196 0
0 0 0 684 821079 -77512 0
0 0 0 692 821771 -76820 0
0 0 0 674 822445 -76146 1
0 0 0 681 823126 -75465 0
0 0 0 772 823898 -74693 0
0 0 0 825 824723 -73868 0
0 0 0 825 825548 -73043 0
0 0 0 728 826276 -72315 0
0 0 0 763 827039 -71552 0
0 0 0 805 827844 -70747 0
0 0 0 868 828712 -69879 0
0 0 0 886 829598 -68993 0
0 0 0 920 830518 -68073 0
0 0 0 871 831389 -67202 0
0 0 0 747 832136 -66455 0
0 0 0 878 833014 -65577 0
0 0 0 871 833885 -64706 0
0 0 0 874 834759 -63832 0
0 0 0 870 835629 -62962 0
0 0 0 826 836455 -62136 0
0 0 0 813 837268 -61323 0
0 0 0 811 838079 -60512 0
0 0 0 772 838851 -59740 0
0 0 0 774 839625 -58966 0
0 0 0 830 840455 -58136 0
0 0 0 891 841346 -57245 0
0 0 0 899 842245 -56346 0
0 0 0 858 843103 -55488 0
0 0 0 874 843977 -54614 0
0 0 0 884 844861 -53730 0
0 0 0 893 845754 -52837 0
0 0 0 898 846652 -51939 0
0 0 0 887 847539 -51052 0
0 0 0 820 848359 -50232 0
0 0 0 804 849163 -49428 0
0 0 0 830 849993 -48598 0
0 0 0 839 850832 -47759 0
0 0 0 843 851675 -46916 0
0 0 0 815 852490 -46101 0
0 0 0 871 853361 -45230 0
0 0 0 920 854281 -44310 0
0 0 0 921 855202 -43389 0
0 0 0 886 856088 -42503 0
0 0 0 813 856901 -41690 0
0 0 0 824 857725 -40866 0
0 0 0 721 858446 -40145 0
0 0 0 830 859276 -39315 0
0 0 0 800 860076 -38515 0
0 0 0 872 860948 -37643 0
0 0 0 829 861777 -36814 0
0 0 0 691 862468 -36123 0
0 0 0 794 863262 -35329 0
0 0 0 717 863979 -34612 0
0 0 0 708 864687 -33904 0
0 0 0 675 865362 -33229 1
0 0 0 656 866018 -32573 1
0 0 0 656 866674 -31917 1
0 0 0 658 867332 -31259 1
0 0 0 700 868032 -30559 0
0 0 0 787 868819 -29772 0
0 0 0 867 869686 -28905 0
0 0 0 871 870557 -28034 0
0 0 0 896 871453 -27138 0
0 0 0 875 872328 -26263 0
0 0 0 857 873185 -25406 0
0 0 0 738 873923 -24668 0
0 0 0 785 874708 -23883 0
0 0 0 894 875602 -22989 0
0 0 0 907 876509 -22082 0
0 0 0 947 877456 -21135 0
0 0 0 936 878392 -20199 0
0 0 0 929 879321 -19270 0
0 0 0 932 880253 -18338 0
0 0 0 961 881214 -17377 0
0 0 0 964 882178 -16413 0
0 0 0 950 883128 -15463 0
0 0 0 925 884053 -14538 0
0 0 0 946 884999 -13592 0
0 0 0 945 885944 -12647 0
0 0 0 959 886903 -11688 0
0 0 0 942 887845 -10746 0
0 0 0 940 888785 -9806 0
0 0 0 938 889723 -8868 0
0 0 0 924 890647 -7944 0
0 0 0 885 891532 -7059 0
0 0 0 904 892436 -6155 0
0 0 0 911 893347 -5244 0
0 0 0 934 894281 -4310 0
0 0 0 904 895185 -3406 0
0 0 0 813 895998 -2593 0
41 1 S102 801 896799 -1792 0
41 1 S102 841 897640 -951 0
41 1 S102 819 898459 -132 0
41 2 S102 746 899205 614 0
41 2 S102 759 899964 1373 0
41 2 S102 811 900775 2184 0
41 2 S102 808 901583 2992 0
41 2 S102 828 902411 3820 0
41 2 S102 815 903226 4635 0
41 2 S102 784 904010 5419 0
41 2 S102 837 904847 6256 0
0 0 0 877 905724 -7754 0
0 0 0 905 906629 -6849 0
0 0 0 888 907517 -5961 0
0 0 0 901 908418 -5060 0
0 0 0 902 909320 -4158 0
0 0 0 906 910226 -3252 0
0 0 0 898 911124 -2354 0
42 1 S112 851 911975 -1503 0
42 1 S112 849 912824 -654 0
42 2 S112 834 913658 180 0
42 2 S112 829 914487 1009 0
42 2 S112 818 915305 1827 0
42 2 S112 881 916186 2708 0
42 2 S112 913 917099 3621 0
42 2 S112 907 918006 4528 0
42 2 S112 834 918840 5362 0
42 2 S112 843 919683 6205 0
0 0 0 869 920552 -10897 0
0 0 0 906 921458 -9991 0
0 0 0 905 922363 -9086 0
0 0 0 868 923231 -8218 0
0 0 0 884 924115 -7334 0
0 0 0 888 925003 -6446 0
0 0 0 859 925862 -5587 0
0 0 0 817 926679 -4770 0
0 0 0 845 927524 -3925 0
0 0 0 860 928384 -3065 0
0 0 0 849 929233 -2216 0
43 1 S116 844 930077 -1372 0
43 1 S116 885 930962 -487 0
43 2 S116 899 931861 412 0
43 2 S116 890 932751 1302 0
43 2 S116 879 933630 2181 0
43 2 S116 908 934538 3089 0
43 2 S116 909 935447 3998 0
43 2 S116 914 936361 4912 0
43 2 S116 849 937210 5761 0
43 2 S116 840 938050 6601 0
0 0 0 870 938920 -8510 0
0 0 0 916 939836 -7594 0
0 0 0 915 940751 -6679 0
0 0 0 872 941623 -5807 0
0 0 0 926 942549 -4881 0
0 0 0 899 943448 -3982 0
0 0 0 854 944302 -3128 0
0 0 0 749 945051 -2379 0
44 1 S102 732 945783 -1647 0
44 1 S102 792 946575 -855 0
44 1 S102 816 947391 -39 0
44 2 S102 838 948229 799 0
44 2 S102 832 949061 1631 0
44 2 S102 855 949916 2486 0
44 2 S102 867 950783 3353 0
44 2 S102 873 951656 4226 0
44 2 S102 815 952471 5041 0
44 2 S102 830 953301 5871 0
44 2 S102 836 954137 6707 0
0 0 0 845 954982 -9789 0
0 0 0 874 955856 -8915 0
0 0 0 878 956734 -8037 0
0 0 0 881 957615 -7156 0
0 0 0 874 958489 -6282 0
0 0 0 893 959382 -5389 0
0 0 0 830 960212 -4559 0
0 0 0 837 961049 -3722 0
0 0 0 852 961901 -2870 0
0 0 0 864 962765 -2006 0
45 1 S116 856 963621 -1150 0
45 1 S116 898 964519 -252 0
45 2 S116 913 965432 661 0
45 2 S116 941 966373 1602 0
45 2 S116 894 967267 2496 0
45 2 S116 906 968173 3402 0
45 2 S116 928 969101 4330 0
45 2 S116 948 970049 5278 0
45 2 S116 889 970938 6167 0
0 0 0 892 971830 -12703 0
0 0 0 918 972748 -11785 0
0 0 0 926 973674 -10859 0
0 0 0 901 974575 -9958 0
0 0 0 867 975442 -9091 0
0 0 0 889 976331 -8202 0
0 0 0 880 977211 -7322 0
0 0 0 843 978054 -6479 0
0 0 0 864 978918 -5615 0
0 0 0 878 979796 -4737 0
0 0 0 866 980662 -3871 0
0 0 0 835 981497 -3036 0
0 0 0 874 982371 -2162 0
46 1 S102 911 983282 -1251 0
46 1 S102 913 984195 -338 0
46 2 S102 875 985070 537 0
46 2 S102 895 985965 1432 0
46 2 S102 905 986870 2337 0
46 2 S102 890 987760 3227 0
46 2 S102 840 988600 4067 0
46 2 S102 859 989459 4926 0
46 2 S102 889 990348 5815 0
46 2 S102 907 991255 6722 0
0 0 0 880 992135 -9424 0
0 0 0 922 993057 -8502 0
0 0 0 931 993988 -7571 0
0 0 0 946 994934 -6625 0
0 0 0 862 995796 -5763 0
0 0 0 878 996674 -4885 0
0 0 0 881 997555 -4004 0
0 0 0 872 998427 -3132 0
0 0 0 825 999252 -2307 0
47 1 S112 877 1000129 -1430 0
47 1 S112 902 1001031 -528 0
47 2 S112 907 1001938 379 0
47 2 S112 864 1002802 1243 0
47 2 S112 911 1003713 2154 0
47 2 S112 913 1004626 3067 0
47 2 S112 917 1005543 3984 0
47 2 S112 846 1006389 4830 0
47 2 S112 848 1007237 5678 0
47 2 S112 868 1008105 6546 0
0 0 0 884 1008989 -12746 0
0 0 0 884 1009873 -11862 0
0 0 0 880 1010753 -10982 0
0 0 0 920 1011673 -10062 0
0 0 0 946 1012619 -9116 0
0 0 0 885 1013504 -8231 0
0 0 0 851 1014355 -7380 0
0 0 0 878 1015233 -6502 0
0 0 0 841 1016074 -5661 0
0 0 0 791 1016865 -4870 0
0 0 0 751 1017616 -4119 0
0 0 0 832 1018448 -3287 0
0 0 0 808 1019256 -2479 0
48 1 S116 798 1020054 -1681 0
48 1 S116 790 1020844 -891 0
48 1 S116 831 1021675 -60 0
48 2 S116 857 1022532 797 0
48 2 S116 859 1023391 1656 0
48 2 S116 839 1024230 2495 0
48 2 S116 875 1025105 3370 0
48 2 S116 902 1026007 4272 0
48 2 S116 910 1026917 5182 0
48 2 S116 864 1027781 6046 0
48 2 S116 903 1028684 6949 0
0 0 0 925 1029609 -8190 0
0 0 0 925 1030534 -7265 0
0 0 0 877 1031411 -6388 0
0 0 0 940 1032351 -5448 0
0 0 0 953 1033304 -4495 0
0 0 0 896 1034200 -3599 0
0 0 0 882 1035082 -2717 0
49 1 S112 897 1035979 -1820 0
49 1 S112 894 1036873 -926 0
49 1 S112 847 1037720 -79 0
49 2 S112 865 1038585 786 0
49 2 S112 897 1039482 1683 0
49 2 S112 927 1040409 2610 0
49 2 S112 917 1041326 3527 0
49 2 S112 821 1042147 4348 0
49 2 S112 807 1042954 5155 0
49 2 S112 858 1043812 6013 0
49 2 S112 887 1044699 6900 0
0 0 0 906 1045605 -11061 0
0 0 0 849 1046454 -10212 0
0 0 0 898 1047352 -9314 0
0 0 0 921 1048273 -8393 0
0 0 0 865 1049138 -7528 0
0 0 0 862 1050000 -6666 0
0 0 0 887 1050887 -5779 0
0 0 0 898 1051785 -4881 0
0 0 0 898 1052683 -3983 0
0 0 0 885 1053568 -3098 0
0 0 0 950 1054518 -2148 0
50 1 S106 955 1055473 -1193 0
50 1 S106 943 1056416 -250 0
50 2 S106 941 1057357 691 0
50 2 S106 962 1058319 1653 0
50 2 S106 945 1059264 2598 0
50 2 S106 896 1060160 3494 0
50 2 S106 856 1061016 4350 0
50 2 S106 887 1061903 5237 0
50 2 S106 913 1062816 6150 0
0 0 0 915 1063731 -6976 0
0 0 0 912 1064643 -6064 0
0 0 0 957 1065600 -5107 0
0 0 0 937 1066537 -4170 0
0 0 0 873 1067410 -3297 0
0 0 0 889 1068299 -2408 0
51 1 S112 891 1069190 -1517 0
51 1 S112 887 1070077 -630 0
51 2 S112 838 1070915 208 0
51 2 S112 870 1071785 1078 0
51 2 S112 894 1072679 1972 0
51 2 S112 894 1073573 2866 0
51 2 S112 859 1074432 3725 0
51 2 S112 809 1075241 4534 0
51 2 S112 871 1076112 5405 0
51 2 S112 916 1077028 6321 0
0 0 0 936 1077964 -7498 0
0 0 0 902 1078866 -6596 0
0 0 0 895 1079761 -5701 0
0 0 0 923 1080684 -4778 0
0 0 0 888 1081572 -3890 0
0 0 0 857 1082429 -3033 0
0 0 0 885 1083314 -2148 0
52 1 S116 896 1084210 -1252 0
52 1 S116 858 1085068 -394 0
52 2 S116 870 1085938 476 0
52 2 S116 925 1086863 1401 0
52 2 S116 972 1087835 2373 0
52 2 S116 961 1088796 3334 0
52 2 S116 885 1089681 4219 0
52 2 S116 938 1090619 5157 0
52 2 S116 944 1091563 6101 0
52 2 S116 909 1092472 7010 0
0 0 0 843 1093315 -8875 0
0 0 0 883 1094198 -7992 0
0 0 0 917 1095115 -7075 0
0 0 0 902 1096017 -6173 0
0 0 0 856 1096873 -5317 0
0 0 0 913 1097786 -4404 0
0 0 0 924 1098710 -3480 0
0 0 0 909 1099619 -2571 0
53 1 S106 882 1100501 -1689 0
53 1 S106 937 1101438 -752 0
53 2 S106 957 1102395 205 0
53 2 S106 927 1103322 1132 0
53 2 S106 888 1104210 2020 0
53 2 S106 923 1105133 2943 0
53 2 S106 928 1106061 3871 0
53 2 S106 897 1106958 4768 0
53 2 S106 881 1107839 5649 0
53 2 S106 914 1108753 6563 0
0 0 0 961 1109714 -6899 0
0 0 0 906 1110620 -5993 0
0 0 0 914 1111534 -5079 0
0 0 0 920 1112454 -4159 0
0 0 0 875 1113329 -3284 0
0 0 0 853 1114182 -2431 0
54 1 S102 743 1114925 -1688 0
54 1 S102 802 1115727 -886 0
54 1 S102 801 1116528 -85 0
54 2 S102 837 1117365 752 0
54 2 S102 829 1118194 1581 0
54 2 S102 816 1119010 2397 0
54 2 S102 868 1119878 3265 0
54 2 S102 910 1120788 4175 0
54 2 S102 918 1121706 5093 0
54 2 S102 873 1122579 5966 0
54 2 S102 897 1123476 6863 0
0 0 0 908 1124384 -10316 0
0 0 0 933 1125317 -9383 0
0 0 0 900 1126217 -8483 0
0 0 0 868 1127085 -7615 0
0 0 0 890 1127975 -6725 0
0 0 0 901 1128876 -5824 0
0 0 0 848 1129724 -4976 0
0 0 0 898 1130622 -4078 0
0 0 0 925 1131547 -3153 0
0 0 0 908 1132455 -2245 0
55 1 S106 870 1133325 -1375 0
55 1 S106 930 1134255 -445 0
55 2 S106 947 1135202 502 0
55 2 S106 918 1136120 1420 0
55 2 S106 905 1137025 2325 0
55 2 S106 929 1137954 3254 0
55 2 S106 891 1138845 4145 0
55 2 S106 889 1139734 5034 0
55 2 S106 920 1140654 5954 0
55 2 S106 938 1141592 6892 0
0 0 0 880 1142472 -7530 0
0 0 0 928 1143400 -6602 0
0 0 0 966 1144366 -5636 0
0 0 0 950 1145316 -4686 0
0 0 0 862 1146178 -3824 0
0 0 0 890 1147068 -2934 0
0 0 0 907 1147975 -2027 0
56 1 S116 874 1148849 -1153 0
56 1 S116 887 1149736 -266 0
56 2 S116 902 1150638 636 0
56 2 S116 935 1151573 1571 0
56 2 S116 889 1152462 2460 0
56 2 S116 940 1153402 3400 0
56 2 S116 943 1154345 4343 0
56 2 S116 922 1155267 5265 0
56 2 S116 919 1156186 6184 0
0 0 0 963 1157149 -8304 0
0 0 0 959 1158108 -7345 0
0 0 0 901 1159009 -6444 0
0 0 0 960 1159969 -5484 0
0 0 0 942 1160911 -4542 0
0 0 0 873 1161784 -3669 0
0 0 0 864 1162648 -2805 0
57 1 S106 867 1163515 -1938 0
57 1 S106 855 1164370 -1083 0
57 1 S106 818 1165188 -265 0
57 2 S106 870 1166058 605 0
57 2 S106 903 1166961 1508 0
57 2 S106 910 1167871 2418 0
57 2 S106 867 1168738 3285 0
57 2 S106 876 1169614 4161 0
57 2 S106 910 1170524 5071 0
57 2 S106 909 1171433 5980 0
57 2 S106 872 1172305 6852 0
0 0 0 893 1173198 -8054 0
0 0 0 911 1174109 -7143 0
0 0 0 894 1175003 -6249 0
0 0 0 652 1175655 -5597 1
0 0 0 1018 1176673 -4579 0
0 0 0 755 1177428 -3824 0
0 0 0 769 1178197 -3055 0
0 0 0 728 1178925 -2327 0
58 1 S102 793 1179718 -1534 0
58 1 S102 814 1180532 -720 0
58 2 S102 839 1181371 119 0
58 2 S102 804 1182175 923 0
58 2 S102 840 1183015 1763 0
58 2 S102 875 1183890 2638 0
58 2 S102 878 1184768 3516 0
58 2 S102 871 1185639 4387 0
58 2 S102 873 1186512 5260 0
58 2 S102 914 1187426 6174 0
0 0 0 954 1188380 -7776 0
0 0 0 925 1189305 -6851 0
0 0 0 927 1190232 -5924 0
0 0 0 961 1191193 -4963 0
0 0 0 925 1192118 -4038 0
0 0 0 873 1192991 -3165 0
0 0 0 909 1193900 -2256 0
59 1 S112 934 1194834 -1322 0
59 1 S112 896 1195730 -426 0
59 2 S112 905 1196635 479 0
59 2 S112 957 1197592 1436 0
59 2 S112 974 1198566 2410 0
59 2 S112 907 1199473 3317 0
59 2 S112 947 1200420 4264 0
59 2 S112 972 1201392 5236 0
59 2 S112 971 1202363 6207 0
0 0 0 896 1203259 -9260 0
0 0 0 935 1204194 -8325 0
0 0 0 948 1205142 -7377 0
0 0 0 921 1206063 -6456 0
0 0 0 844 1206907 -5612 0
0 0 0 903 1207810 -4709 0
0 0 0 917 1208727 -3792 0
0 0 0 889 1209616 -2903 0
0 0 0 891 1210507 -2012 0
60 1 S102 920 1211427 -1092 0
60 1 S102 934 1212361 -158 0
60 2 S102 889 1213250 731 0
60 2 S102 921 1214171 1652 0
60 2 S102 936 1215107 2588 0
60 2 S102 923 1216030 3511 0
60 2 S102 849 1216879 4360 0
60 2 S102 877 1217756 5237 0
60 2 S102 913 1218669 6150 0
0 0 0 920 1219589 -12227 0
0 0 0 903 1220492 -11324 0
0 0 0 950 1221442 -10374 0
0 0 0 965 1222407 -9409 0
0 0 0 900 1223307 -8509 0
0 0 0 884 1224191 -7625 0
0 0 0 892 1225083 -6733 0
0 0 0 848 1225931 -5885 0
0 0 0 790 1226721 -5095 0
0 0 0 825 1227546 -4270 0
0 0 0 846 1228392 -3424 0
0 0 0 838 1229230 -2586 0
61 1 S106 849 1230079 -1737 0
61 1 S106 878 1230957 -859 0
61 2 S106 894 1231851 35 0
61 2 S106 856 1232707 891 0
61 2 S106 861 1233568 1752 0
61 2 S106 923 1234491 2675 0
61 2 S106 957 1235448 3632 0
61 2 S106 935 1236383 4567 0
61 2 S106 882 1237265 5449 0
61 2 S106 927 1238192 6376 0
0 0 0 950 1239142 -7926 0
0 0 0 935 1240077 -6991 0
0 0 0 894 1240971 -6097 0
0 0 0 933 1241904 -5164 0
0 0 0 929 1242833 -4235 0
0 0 0 858 1243691 -3377 0
0 0 0 865 1244556 -2512 0
62 1 S112 875 1245431 -1637 0
62 1 S112 897 1246328 -740 0
62 2 S112 877 1247205 137 0
62 2 S112 888 1248093 1025 0
62 2 S112 948 1249041 1973 0
62 2 S112 965 1250006 2938 0
62 2 S112 948 1250954 3886 0
62 2 S112 857 1251811 4743 0
62 2 S112 763 1252574 5506 0
62 2 S112 886 1253460 6392 0
0 0 0 893 1254353 -11267 0
0 0 0 924 1255277 -10343 0
0 0 0 846 1256123 -9497 0
0 0 0 858 1256981 -8639 0
0 0 0 868 1257849 -7771 0
0 0 0 883 1258732 -6888 0
0 0 0 634 1259366 -6254 1
0 0 0 1120 1260486 -5134 1
0 0 0 940 1261426 -4194 0
0 0 0 921 1262347 -3273 0
0 0 0 883 1263230 -2390 0
63 1 S102 913 1264143 -1477 0
63 1 S102 928 1265071 -549 0
63 2 S102 919 1265990 370 0
63 2 S102 899 1266889 1269 0
63 2 S102 947 1267836 2216 0
63 2 S102 961 1268797 3177 0
63 2 S102 914 1269711 4091 0
63 2 S102 893 1270604 4984 0
63 2 S102 918 1271522 5902 0
63 2 S102 937 1272459 6839 0
0 0 0 910 1273369 -9757 0
0 0 0 860 1274229 -8897 0
0 0 0 908 1275137 -7989 0
0 0 0 947 1276084 -7042 0
0 0 0 884 1276968 -6158 0
0 0 0 807 1277775 -5351 0
0 0 0 835 1278610 -4516 0
0 0 0 868 1279478 -3648 0
0 0 0 876 1280354 -2772 0
64 1 S112 853 1281207 -1919 0
64 1 S112 869 1282076 -1050 0
64 1 S112 897 1282973 -153 0
64 2 S112 922 1283895 769 0
64 2 S112 914 1284809 1683 0
64 2 S112 919 1285728 2602 0
64 2 S112 936 1286664 3538 0
64 2 S112 914 1287578 4452 0
64 2 S112 845 1288423 5297 0
64 2 S112 756 1289179 6053 0
64 2 S112 883 1290062 6936 0
0 0 0 892 1290954 -7076 0
0 0 0 935 1291889 -6141 0
0 0 0 908 1292797 -5233 0
0 0 0 875 1293672 -4358 0
0 0 0 912 1294584 -3446 0
0 0 0 928 1295512 -2518 0
65 1 S106 867 1296379 -1651 0
65 1 S106 916 1297295 -735 0
65 2 S106 954 1298249 219 0
65 2 S106 953 1299202 1172 0
65 2 S106 899 1300101 2071 0
65 2 S106 948 1301049 3019 0
65 2 S106 963 1302012 3982 0
65 2 S106 929 1302941 4911 0
65 2 S106 881 1303822 5792 0
65 2 S106 930 1304752 6722 0
0 0 0 954 1305706 -7460 0
0 0 0 934 1306640 -6526 0
0 0 0 898 1307538 -5628 0
0 0 0 930 1308468 -4698 0
0 0 0 924 1309392 -3774 0
0 0 0 851 1310243 -2923 0
0 0 0 872 1311115 -2051 0
66 1 S116 902 1312017 -1149 0
66 1 S116 902 1312919 -247 0
66 2 S116 863 1313782 616 0
66 2 S116 929 1314711 1545 0
66 2 S116 990 1315701 2535 0
66 2 S116 993 1316694 3528 0
66 2 S116 967 1317661 4495 0
66 2 S116 961 1318622 5456 0
66 2 S116 876 1319498 6332 0
0 0 0 873 1320371 -12192 0
0 0 0 871 1321242 -11321 0
0 0 0 846 1322088 -10475 0
0 0 0 799 1322887 -9676 0
0 0 0 814 1323701 -8862 0
0 0 0 845 1324546 -8017 0
0 0 0 863 1325409 -7154 0
0 0 0 806 1326215 -6348 0
0 0 0 867 1327082 -5481 0
0 0 0 904 1327986 -4577 0
0 0 0 888 1328874 -3689 0
0 0 0 855 1329729 -2834 0
67 1 S102 908 1330637 -1926 0
67 1 S102 920 1331557 -1006 0
67 1 S102 888 1332445 -118 0
67 2 S102 877 1333322 759 0
67 2 S102 902 1334224 1661 0
67 2 S102 932 1335156 2593 0
67 2 S102 879 1336035 3472 0
67 2 S102 887 1336922 4359 0
67 2 S102 918 1337840 5277 0
67 2 S102 930 1338770 6207 0
0 0 0 864 1339634 -9541 0
0 0 0 926 1340560 -8615 0
0 0 0 962 1341522 -7653 0
0 0 0 985 1342507 -6668 0
0 0 0 915 1343422 -5753 0
0 0 0 958 1344380 -4795 0
0 0 0 966 1345346 -3829 0
0 0 0 927 1346273 -2902 0
0 0 0 865 1347138 -2037 0
68 1 S106 885 1348023 -1152 0
68 1 S106 912 1348935 -240 0
68 2 S106 909 1349844 669 0
68 2 S106 897 1350741 1566 0
68 2 S106 934 1351675 2500 0
68 2 S106 953 1352628 3453 0
68 2 S106 904 1353532 4357 0
68 2 S106 943 1354475 5300 0
68 2 S106 956 1355431 6256 0
0 0 0 937 1356368 -11673 0
0 0 0 892 1357260 -10781 0
0 0 0 973 1358233 -9808 0
0 0 0 977 1359210 -8831 0
0 0 0 895 1360105 -7936 0
0 0 0 870 1360975 -7066 0
0 0 0 886 1361861 -6180 0
0 0 0 891 1362752 -5289 0
0 0 0 853 1363605 -4436 0
0 0 0 867 1364472 -3569 0
0 0 0 957 1365429 -2612 0
69 1 S102 957 1366386 -1655 0
69 1 S102 936 1367322 -719 0
69 2 S102 856 1368178 137 0
69 2 S102 896 1369074 1033 0
69 2 S102 924 1369998 1957 0
69 2 S102 938 1370936 2895 0
69 2 S102 879 1371815 3774 0
69 2 S102 900 1372715 4674 0
69 2 S102 932 1373647 5606 0
69 2 S102 944 1374591 6550 0
0 0 0 909 1375500 -9600 0
0 0 0 948 1376448 -8652 0
0 0 0 971 1377419 -7681 0
0 0 0 921 1378340 -6760 0
0 0 0 855 1379195 -5905 0
0 0 0 892 1380087 -5013 0
0 0 0 905 1380992 -4108 0
0 0 0 860 1381852 -3248 0
0 0 0 895 1382747 -2353 0
70 1 S112 908 1383655 -1445 0
70 1 S112 895 1384550 -550 0
70 2 S112 830 1385380 280 0
70 2 S112 870 1386250 1150 0
70 2 S112 920 1387170 2070 0
70 2 S112 941 1388111 3011 0
70 2 S112 873 1388984 3884 0
70 2 S112 918 1389902 4802 0
70 2 S112 957 1390859 5759 0
70 2 S112 958 1391817 6717 0
0 0 0 883 1392700 -11863 0
0 0 0 910 1393610 -10953 0
0 0 0 919 1394529 -10034 0
0 0 0 936 1395465 -9098 0
0 0 0 860 1396325 -8238 0
0 0 0 879 1397204 -7359 0
0 0 0 885 1398089 -6474 0
0 0 0 866 1398955 -5608 0
0 0 0 870 1399825 -4738 0
0 0 0 928 1400753 -3810 0
0 0 0 1011 1401764 -2799 0
71 1 S116 942 1402706 -1857 0
71 1 S116 945 1403651 -912 0
71 2 S116 957 1404608 45 0
71 2 S116 947 1405555 992 0
71 2 S116 895 1406450 1887 0
71 2 S116 910 1407360 2797 0
71 2 S116 963 1408323 3760 0
71 2 S116 963 1409286 4723 0
71 2 S116 895 1410181 5618 0
71 2 S116 933 1411114 6551 0
0 0 0 928 1412042 -9630 0
0 0 0 902 1412944 -8728 0
0 0 0 850 1413794 -7878 0
0 0 0 921 1414715 -6957 0
0 0 0 929 1415644 -6028 0
0 0 0 874 1416518 -5154 0
0 0 0 880 1417398 -4274 0
0 0 0 905 1418303 -3369 0
0 0 0 914 1419217 -2455 0
72 1 S102 871 1420088 -1584 0
72 1 S102 893 1420981 -691 0
72 2 S102 912 1421893 221 0
72 2 S102 912 1422805 1133 0
72 2 S102 877 1423682 2010 0
72 2 S102 934 1424616 2944 0
72 2 S102 938 1425554 3882 0
72 2 S102 861 1426415 4743 0
72 2 S102 859 1427274 5602 0
72 2 S102 947 1428221 6549 0
0 0 0 996 1429217 -7574 0
0 0 0 977 1430194 -6597 0
0 0 0 892 1431086 -5705 0
0 0 0 947 1432033 -4758 0
0 0 0 939 1432972 -3819 0
0 0 0 889 1433861 -2930 0
0 0 0 900 1434761 -2030 0
73 1 S116 925 1435686 -1105 0
73 1 S116 917 1436603 -188 0
73 2 S116 867 1437470 679 0
73 2 S116 956 1438426 1635 0
73 2 S116 983 1439409 2618 0
73 2 S116 986 1440395 3604 0
73 2 S116 917 1441312 4521 0
73 2 S116 913 1442225 5434 0
73 2 S116 905 1443130 6339 0
0 0 0 910 1444040 -9728 0
0 0 0 904 1444944 -8824 0
0 0 0 799 1445743 -8025 0
0 0 0 847 1446590 -7178 0
0 0 0 856 1447446 -6322 0
0 0 0 785 1448231 -5537 0
0 0 0 696 1448927 -4841 0
0 0 0 819 1449746 -4022 0
0 0 0 808 1450554 -3214 0
0 0 0 840 1451394 -2374 0
74 1 S106 877 1452271 -1497 0
74 1 S106 894 1453165 -603 0
74 2 S106 894 1454059 291 0
74 2 S106 885 1454944 1176 0
74 2 S106 831 1455775 2007 0
74 2 S106 863 1456638 2870 0
74 2 S106 899 1457537 3769 0
74 2 S106 923 1458460 4692 0
74 2 S106 933 1459393 5625 0
74 2 S106 881 1460274 6506 0
0 0 0 913 1461187 -7004 0
0 0 0 940 1462127 -6064 0
0 0 0 940 1463067 -5124 0
0 0 0 912 1463979 -4212 0
0 0 0 852 1464831 -3360 0
0 0 0 806 1465637 -2554 0
75 1 S112 792 1466429 -1762 0
75 1 S112 808 1467237 -954 0
75 1 S112 863 1468100 -91 0
75 2 S112 909 1469009 818 0
75 2 S112 892 1469901 1710 0
75 2 S112 927 1470828 2637 0
75 2 S112 951 1471779 3588 0
75 2 S112 955 1472734 4543 0
75 2 S112 925 1473659 5468 0
75 2 S112 879 1474538 6347 0
0 0 0 839 1475377 -6922 0
0 0 0 603 1475980 -6319 1
0 0 0 929 1476909 -5390 0
0 0 0 761 1477670 -4629 0
0 0 0 745 1478415 -3884 0
0 0 0 759 1479174 -3125 0
0 0 0 790 1479964 -2335 0
76 1 S116 840 1480804 -1495 0
76 1 S116 826 1481630 -669 0
76 2 S116 841 1482471 172 0
76 2 S116 822 1483293 994 0
76 2 S116 862 1484155 1856 0
76 2 S116 901 1485056 2757 0
76 2 S116 929 1485985 3686 0
76 2 S116 951 1486936 4637 0
76 2 S116 940 1487876 5577 0
76 2 S116 945 1488821 6522 0
0 0 0 933 1489754 -7300 0
0 0 0 920 1490674 -6380 0
0 0 0 926 1491600 -5454 0
0 0 0 912 1492512 -4542 0
0 0 0 883 1493395 -3659 0
0 0 0 871 1494266 -2788 0
77 1 S106 852 1495118 -1936 0
77 1 S106 882 1496000 -1054 0
77 1 S106 922 1496922 -132 0
77 2 S106 955 1497877 823 0
77 2 S106 936 1498813 1759 0
77 2 S106 921 1499734 2680 0
77 2 S106 948 1500682 3628 0
77 2 S106 951 1501633 4579 0
77 2 S106 927 1502560 5506 0
77 2 S106 894 1503454 6400 0
0 0 0 904 1504358 -8479 0
0 0 0 913 1505271 -7566 0
0 0 0 896 1506167 -6670 0
0 0 0 864 1507031 -5806 0
0 0 0 858 1507889 -4948 0
0 0 0 869 1508758 -4079 0
0 0 0 867 1509625 -3212 0
0 0 0 873 1510498 -2339 0
78 1 S112 892 1511390 -1447 0
78 1 S112 906 1512296 -541 0
78 2 S112 907 1513203 366 0
78 2 S112 864 1514067 1230 0
78 2 S112 889 1514956 2119 0
78 2 S112 884 1515840 3003 0
78 2 S112 856 1516696 3859 0
78 2 S112 817 1517513 4676 0
78 2 S112 850 1518363 5526 0
78 2 S112 894 1519257 6420 0
0 0 0 901 1520158 -11512 0
0 0 0 828 1520986 -10684 0
0 0 0 866 1521852 -9818 0
0 0 0 895 1522747 -8923 0
0 0 0 894 1523641 -8029 0
0 0 0 846 1524487 -7183 0
0 0 0 843 1525330 -6340 0
0 0 0 878 1526208 -5462 0
0 0 0 911 1527119 -4551 0
0 0 0 887 1528006 -3664 0
0 0 0 917 1528923 -2747 0
79 1 S102 904 1529827 -1843 0
79 1 S102 895 1530722 -948 0
79 1 S102 841 1531563 -107 0
79 2 S102 875 1532438 768 0
79 2 S102 889 1533327 1657 0
79 2 S102 871 1534198 2528 0
79 2 S102 857 1535055 3385 0
79 2 S102 914 1535969 4299 0
79 2 S102 937 1536906 5236 0
79 2 S102 946 1537852 6182 0
0 0 0 906 1538758 -10302 0
0 0 0 902 1539660 -9400 0
0 0 0 918 1540578 -8482 0
0 0 0 933 1541511 -7549 0
0 0 0 893 1542404 -6656 0
0 0 0 847 1543251 -5809 0
0 0 0 858 1544109 -4951 0
0 0 0 852 1544961 -4099 0
0 0 0 830 1545791 -3269 0
0 0 0 872 1546663 -2397 0
80 1 S116 904 1547567 -1493 0
80 1 S116 892 1548459 -601 0
80 2 S116 893 1549352 292 0
80 2 S116 925 1550277 1217 0
80 2 S116 945 1551222 2162 0
80 2 S116 947 1552169 3109 0
80 2 S116 919 1553088 4028 0
80 2 S116 934 1554022 4962 0
80 2 S116 942 1554964 5904 0
80 2 S116 868 1555832 6772 0
