T_0060
BeatCount Mean SD BeatCountNoOutliers MeanNoOutliers SDNoOutliers
1970 763,160913705584 74,1455680176221 1948 764,732546201232 69,9786792406781

Trial TrialStatus Trialtype IBI AbsPosition RelPosition Outlier
0 0 0 626 1126 -14848 0
0 0 0 656 1782 -14192 0
0 0 0 705 2487 -13487 0
0 0 0 700 3187 -12787 0
0 0 0 821 4008 -11966 0
0 0 0 851 4859 -11115 0
0 0 0 777 5636 -10338 0
0 0 0 801 6437 -9537 0
0 0 0 820 7257 -8717 0
0 0 0 808 8065 -7909 0
0 0 0 799 8864 -7110 0
0 0 0 769 9633 -6341 0
0 0 0 781 10414 -5560 0
0 0 0 804 11218 -4756 0
0 0 0 809 12027 -3947 0
0 0 0 799 12826 -3148 0
0 0 0 848 13674 -2300 0
1 1 S112 857 14531 -1443 0
1 1 S112 834 15365 -609 0
1 2 S112 838 16203 229 0
1 2 S112 854 17057 1083 0
1 2 S112 868 17925 1951 0
1 2 S112 824 18749 2775 0
1 2 S112 844 19593 3619 0
1 2 S112 871 20464 4490 0
1 2 S112 887 21351 5377 0
1 2 S112 830 22181 6207 0
0 0 0 872 23053 -12516 0
0 0 0 912 23965 -11604 0
0 0 0 883 24848 -10721 0
0 0 0 810 25658 -9911 0
0 0 0 853 26511 -9058 0
0 0 0 857 27368 -8201 0
0 0 0 792 28160 -7409 0
0 0 0 790 28950 -6619 0
0 0 0 787 29737 -5832 0
0 0 0 811 30548 -5021 0
0 0 0 774 31322 -4247 0
0 0 0 825 32147 -3422 0
0 0 0 866 33013 -2556 0
2 1 S102 848 33861 -1708 0
2 1 S102 788 34649 -920 0
2 1 S102 816 35465 -104 0
2 2 S102 814 36279 710 0
2 2 S102 804 37083 1514 0
2 2 S102 779 37862 2293 0
2 2 S102 822 38684 3115 0
2 2 S102 845 39529 3960 0
2 2 S102 819 40348 4779 0
2 2 S102 824 41172 5603 0
2 2 S102 852 42024 6455 0
0 0 0 869 42893 -9354 0
0 0 0 810 43703 -8544 0
0 0 0 808 44511 -7736 0
0 0 0 796 45307 -6940 0
0 0 0 775 46082 -6165 0
0 0 0 803 46885 -5362 0
0 0 0 832 47717 -4530 0
0 0 0 826 48543 -3704 0
0 0 0 807 49350 -2897 0
0 0 0 858 50208 -2039 0
3 1 S116 878 51086 -1161 0
3 1 S116 832 51918 -329 0
3 2 S116 815 52733 486 0
3 2 S116 856 53589 1342 0
3 2 S116 882 54471 2224 0
3 2 S116 849 55320 3073 0
3 2 S116 885 56205 3958 0
3 2 S116 900 57105 4858 0
3 2 S116 888 57993 5746 0
3 2 S116 831 58824 6577 0
0 0 0 879 59703 -11212 0
0 0 0 888 60591 -10324 0
0 0 0 813 61404 -9511 0
0 0 0 838 62242 -8673 0
0 0 0 829 63071 -7844 0
0 0 0 800 63871 -7044 0
0 0 0 805 64676 -6239 0
0 0 0 859 65535 -5380 0
0 0 0 887 66422 -4493 0
0 0 0 812 67234 -3681 0
0 0 0 854 68088 -2827 0
4 1 S106 869 68957 -1958 0
4 1 S106 856 69813 -1102 0
4 1 S106 834 70647 -268 0
4 2 S106 873 71520 605 0
4 2 S106 900 72420 1505 0
4 2 S106 832 73252 2337 0
4 2 S106 828 74080 3165 0
4 2 S106 855 74935 4020 0
4 2 S106 872 75807 4892 0
4 2 S106 822 76629 5714 0
4 2 S106 813 77442 6527 0
0 0 0 814 78256 -8375 0
0 0 0 768 79024 -7607 0
0 0 0 713 79737 -6894 0
0 0 0 676 80413 -6218 0
0 0 0 688 81101 -5530 0
0 0 0 693 81794 -4837 0
0 0 0 773 82567 -4064 0
0 0 0 851 83418 -3213 0
0 0 0 772 84190 -2441 0
5 1 S116 747 84937 -1694 0
5 1 S116 738 85675 -956 0
5 1 S116 734 86409 -222 0
5 2 S116 689 87098 467 0
5 2 S116 667 87765 1134 0
5 2 S116 642 88407 1776 0
5 2 S116 624 89031 2400 0
5 2 S116 636 89667 3036 0
5 2 S116 696 90363 3732 0
5 2 S116 718 91081 4450 0
5 2 S116 751 91832 5201 0
5 2 S116 794 92626 5995 0
5 2 S116 823 93449 6818 0
0 0 0 829 94278 -9246 0
0 0 0 823 95101 -8423 0
0 0 0 841 95942 -7582 0
0 0 0 863 96805 -6719 0
0 0 0 810 97615 -5909 0
0 0 0 806 98421 -5103 0
0 0 0 816 99237 -4287 0
0 0 0 836 100073 -3451 0
0 0 0 807 100880 -2644 0
6 1 S106 865 101745 -1779 0
6 1 S106 900 102645 -879 0
6 1 S106 830 103475 -49 0
6 2 S106 845 104320 796 0
6 2 S106 836 105156 1632 0
6 2 S106 763 105919 2395 0
6 2 S106 717 106636 3112 0
6 2 S106 678 107314 3790 0
6 2 S106 622 107936 4412 0
6 2 S106 658 108594 5070 0
6 2 S106 690 109284 5760 0
6 2 S106 715 109999 6475 0
0 0 0 835 110834 -11905 0
0 0 0 876 111710 -11029 0
0 0 0 885 112595 -10144 0
0 0 0 824 113419 -9320 0
0 0 0 859 114278 -8461 0
0 0 0 852 115130 -7609 0
0 0 0 857 115987 -6752 0
0 0 0 805 116792 -5947 0
0 0 0 820 117612 -5127 0
0 0 0 839 118451 -4288 0
0 0 0 870 119321 -3418 0
0 0 0 849 120170 -2569 0
7 1 S102 842 121012 -1727 0
7 1 S102 870 121882 -857 0
7 2 S102 857 122739 0 0
7 2 S102 794 123533 794 0
7 2 S102 736 124269 1530 0
7 2 S102 806 125075 2336 0
7 2 S102 807 125882 3143 0
7 2 S102 828 126710 3971 0
7 2 S102 864 127574 4835 0
7 2 S102 859 128433 5694 0
7 2 S102 803 129236 6497 0
0 0 0 806 130042 -8098 0
0 0 0 818 130860 -7280 0
0 0 0 789 131649 -6491 0
0 0 0 760 132409 -5731 0
0 0 0 809 133218 -4922 0
0 0 0 850 134068 -4072 0
0 0 0 896 134964 -3176 0
0 0 0 835 135799 -2341 0
8 1 S112 870 136669 -1471 0
8 1 S112 857 137526 -614 0
8 2 S112 779 138305 165 0
8 2 S112 713 139018 878 0
8 2 S112 730 139748 1608 0
8 2 S112 756 140504 2364 0
8 2 S112 823 141327 3187 0
8 2 S112 882 142209 4069 0
8 2 S112 843 143052 4912 0
8 2 S112 802 143854 5714 0
8 2 S112 848 144702 6562 0
0 0 0 880 145582 -7578 0
0 0 0 832 146414 -6746 0
0 0 0 818 147232 -5928 0
0 0 0 821 148053 -5107 0
0 0 0 834 148887 -4273 0
0 0 0 780 149667 -3493 0
0 0 0 824 150491 -2669 0
9 1 S116 848 151339 -1821 0
9 1 S116 856 152195 -965 0
9 1 S116 801 152996 -164 0
9 2 S116 839 153835 675 0
9 2 S116 868 154703 1543 0
9 2 S116 844 155547 2387 0
9 2 S116 810 156357 3197 0
9 2 S116 844 157201 4041 0
9 2 S116 867 158068 4908 0
9 2 S116 818 158886 5726 0
9 2 S116 831 159717 6557 0
0 0 0 853 160570 -11589 0
0 0 0 844 161414 -10745 0
0 0 0 785 162199 -9960 0
0 0 0 804 163003 -9156 0
0 0 0 811 163814 -8345 0
0 0 0 794 164608 -7551 0
0 0 0 804 165412 -6747 0
0 0 0 838 166250 -5909 0
0 0 0 829 167079 -5080 0
0 0 0 787 167866 -4293 0
0 0 0 805 168671 -3488 0
0 0 0 817 169488 -2671 0
10 1 S102 797 170285 -1874 0
10 1 S102 752 171037 -1122 0
10 1 S102 731 171768 -391 0
10 2 S102 689 172457 298 0
10 2 S102 688 173145 986 0
10 2 S102 751 173896 1737 0
10 2 S102 882 174778 2619 0
10 2 S102 874 175652 3493 0
10 2 S102 803 176455 4296 0
10 2 S102 826 177281 5122 0
10 2 S102 822 178103 5944 0
10 2 S102 793 178896 6737 0
0 0 0 750 179646 -10451 0
0 0 0 766 180412 -9685 0
0 0 0 759 181171 -8926 0
0 0 0 745 181916 -8181 0
0 0 0 719 182635 -7462 0
0 0 0 751 183386 -6711 0
0 0 0 772 184158 -5939 0
0 0 0 804 184962 -5135 0
0 0 0 813 185775 -4322 0
0 0 0 845 186620 -3477 0
0 0 0 887 187507 -2590 0
11 1 S112 843 188350 -1747 0
11 1 S112 841 189191 -906 0
11 1 S112 861 190052 -45 0
11 2 S112 882 190934 837 0
11 2 S112 832 191766 1669 0
11 2 S112 855 192621 2524 0
11 2 S112 885 193506 3409 0
11 2 S112 877 194383 4286 0
11 2 S112 816 195199 5102 0
11 2 S112 851 196050 5953 0
11 2 S112 873 196923 6826 0
0 0 0 838 197761 -6925 0
0 0 0 859 198620 -6066 0
0 0 0 892 199512 -5174 0
0 0 0 825 200337 -4349 0
0 0 0 809 201146 -3540 0
0 0 0 832 201978 -2708 0
12 1 S116 833 202811 -1875 0
12 1 S116 774 203585 -1101 0
12 1 S116 785 204370 -316 0
12 2 S116 796 205166 480 0
12 2 S116 875 206041 1355 0
12 2 S116 838 206879 2193 0
12 2 S116 881 207760 3074 0
12 2 S116 899 208659 3973 0
12 2 S116 843 209502 4816 0
12 2 S116 821 210323 5637 0
12 2 S116 858 211181 6495 0
0 0 0 866 212047 -10975 0
0 0 0 805 212852 -10170 0
0 0 0 829 213681 -9341 0
0 0 0 818 214499 -8523 0
0 0 0 811 215310 -7712 0
0 0 0 793 216103 -6919 0
0 0 0 854 216957 -6065 0
0 0 0 874 217831 -5191 0
0 0 0 838 218669 -4353 0
0 0 0 849 219518 -3504 0
0 0 0 855 220373 -2649 0
13 1 S112 877 221250 -1772 0
13 1 S112 811 222061 -961 0
13 1 S112 849 222910 -112 0
13 2 S112 850 223760 738 0
13 2 S112 846 224606 1584 0
13 2 S112 834 225440 2418 0
13 2 S112 863 226303 3281 0
13 2 S112 882 227185 4163 0
13 2 S112 832 228017 4995 0
13 2 S112 877 228894 5872 0
13 2 S112 876 229770 6748 0
0 0 0 835 230605 -10984 0
0 0 0 863 231468 -10121 0
0 0 0 843 232311 -9278 0
0 0 0 822 233133 -8456 0
0 0 0 798 233931 -7658 0
0 0 0 825 234756 -6833 0
0 0 0 847 235603 -5986 0
0 0 0 785 236388 -5201 0
0 0 0 811 237199 -4390 0
0 0 0 803 238002 -3587 0
0 0 0 812 238814 -2775 0
14 1 S106 790 239604 -1985 0
14 1 S106 846 240450 -1139 0
14 1 S106 873 241323 -266 0
14 2 S106 822 242145 556 0
14 2 S106 830 242975 1386 0
14 2 S106 834 243809 2220 0
14 2 S106 825 244634 3045 0
14 2 S106 775 245409 3820 0
14 2 S106 768 246177 4588 0
14 2 S106 724 246901 5312 0
14 2 S106 694 247595 6006 0
14 2 S106 701 248296 6707 0
0 0 0 768 249064 -10032 0
0 0 0 881 249945 -9151 0
0 0 0 916 250861 -8235 0
0 0 0 910 251771 -7325 0
0 0 0 826 252597 -6499 0
0 0 0 806 253403 -5693 0
0 0 0 834 254237 -4859 0
0 0 0 845 255082 -4014 0
0 0 0 798 255880 -3216 0
0 0 0 760 256640 -2456 0
15 1 S116 780 257420 -1676 0
15 1 S116 810 258230 -866 0
15 1 S116 817 259047 -49 0
15 2 S116 788 259835 739 0
15 2 S116 819 260654 1558 0
15 2 S116 858 261512 2416 0
15 2 S116 880 262392 3296 0
15 2 S116 832 263224 4128 0
15 2 S116 877 264101 5005 0
15 2 S116 887 264988 5892 0
15 2 S116 829 265817 6721 0
0 0 0 827 266644 -8716 0
0 0 0 850 267494 -7866 0
0 0 0 819 268313 -7047 0
0 0 0 752 269065 -6295 0
0 0 0 750 269815 -5545 0
0 0 0 708 270523 -4837 0
0 0 0 688 271211 -4149 0
0 0 0 784 271995 -3365 0
0 0 0 811 272806 -2554 0
16 1 S116 818 273624 -1736 0
16 1 S116 841 274465 -895 0
16 1 S116 842 275307 -53 0
16 2 S116 781 276088 728 0
16 2 S116 784 276872 1512 0
16 2 S116 767 277639 2279 0
16 2 S116 721 278360 3000 0
16 2 S116 688 279048 3688 0
16 2 S116 659 279707 4347 0
16 2 S116 642 280349 4989 0
16 2 S116 639 280988 5628 0
16 2 S116 697 281685 6325 0
0 0 0 852 282537 -8241 0
0 0 0 908 283445 -7333 0
0 0 0 878 284323 -6455 0
0 0 0 843 285166 -5612 0
0 0 0 808 285974 -4804 0
0 0 0 851 286825 -3953 0
0 0 0 841 287666 -3112 0
0 0 0 824 288490 -2288 0
17 1 S106 776 289266 -1512 0
17 1 S106 787 290053 -725 0
17 2 S106 819 290872 94 0
17 2 S106 860 291732 954 0
17 2 S106 821 292553 1775 0
17 2 S106 821 293374 2596 0
17 2 S106 851 294225 3447 0
17 2 S106 868 295093 4315 0
17 2 S106 812 295905 5127 0
17 2 S106 849 296754 5976 0
17 2 S106 856 297610 6832 0
0 0 0 854 298464 -10599 0
0 0 0 816 299280 -9783 0
0 0 0 842 300122 -8941 0
0 0 0 846 300968 -8095 0
0 0 0 802 301770 -7293 0
0 0 0 816 302586 -6477 0
0 0 0 846 303432 -5631 0
0 0 0 843 304275 -4788 0
0 0 0 792 305067 -3996 0
0 0 0 836 305903 -3160 0
0 0 0 854 306757 -2306 0
18 1 S102 858 307615 -1448 0
18 1 S102 815 308430 -633 0
18 2 S102 845 309275 212 0
18 2 S102 846 310121 1058 0
18 2 S102 804 310925 1862 0
18 2 S102 804 311729 2666 0
18 2 S102 846 312575 3512 0
18 2 S102 859 313434 4371 0
18 2 S102 804 314238 5175 0
18 2 S102 794 315032 5969 0
18 2 S102 801 315833 6770 0
0 0 0 809 316642 -6977 0
0 0 0 794 317436 -6183 0
0 0 0 814 318250 -5369 0
0 0 0 825 319075 -4544 0
0 0 0 798 319873 -3746 0
0 0 0 776 320649 -2970 0
0 0 0 758 321407 -2212 0
19 1 S106 703 322110 -1509 0
19 1 S106 668 322778 -841 0
19 1 S106 651 323429 -190 0
19 2 S106 609 324038 419 0
19 2 S106 627 324665 1046 0
19 2 S106 609 325274 1655 0
19 2 S106 616 325890 2271 0
19 2 S106 626 326516 2897 0
19 2 S106 635 327151 3532 0
19 2 S106 671 327822 4203 0
19 2 S106 708 328530 4911 0
19 2 S106 748 329278 5659 0
19 2 S106 723 330001 6382 0
0 0 0 756 330757 -10286 0
0 0 0 749 331506 -9537 0
0 0 0 699 332205 -8838 0
0 0 0 661 332866 -8177 0
0 0 0 670 333536 -7507 0
0 0 0 694 334230 -6813 0
0 0 0 721 334951 -6092 0
0 0 0 700 335651 -5392 0
0 0 0 697 336348 -4695 0
0 0 0 769 337117 -3926 0
0 0 0 853 337970 -3073 0
0 0 0 842 338812 -2231 0
20 1 S112 777 339589 -1454 0
20 1 S112 807 340396 -647 0
20 2 S112 796 341192 149 0
20 2 S112 774 341966 923 0
20 2 S112 766 342732 1689 0
20 2 S112 828 343560 2517 0
20 2 S112 827 344387 3344 0
20 2 S112 803 345190 4147 0
20 2 S112 799 345989 4946 0
20 2 S112 871 346860 5817 0
20 2 S112 841 347701 6658 0
0 0 0 782 348483 -8525 0
0 0 0 841 349324 -7684 0
0 0 0 817 350141 -6867 0
0 0 0 762 350903 -6105 0
0 0 0 756 351659 -5349 0
0 0 0 737 352396 -4612 0
0 0 0 714 353110 -3898 0
0 0 0 696 353806 -3202 0
0 0 0 693 354499 -2509 0
21 1 S106 746 355245 -1763 0
21 1 S106 780 356025 -983 0
21 1 S106 848 356873 -135 0
21 2 S106 817 357690 682 0
21 2 S106 794 358484 1476 0
21 2 S106 832 359316 2308 0
21 2 S106 801 360117 3109 0
21 2 S106 741 360858 3850 0
21 2 S106 759 361617 4609 0
21 2 S106 772 362389 5381 0
21 2 S106 780 363169 6161 0
21 2 S106 738 363907 6899 0
0 0 0 768 364675 -11813 0
0 0 0 765 365440 -11048 0
0 0 0 706 366146 -10342 0
0 0 0 685 366831 -9657 0
0 0 0 706 367537 -8951 0
0 0 0 720 368257 -8231 0
0 0 0 737 368994 -7494 0
0 0 0 732 369726 -6762 0
0 0 0 727 370453 -6035 0
0 0 0 701 371154 -5334 0
0 0 0 702 371856 -4632 0
0 0 0 708 372564 -3924 0
0 0 0 684 373248 -3240 0
0 0 0 677 373925 -2563 0
22 1 S116 697 374622 -1866 0
22 1 S116 694 375316 -1172 0
22 1 S116 689 376005 -483 0
22 2 S116 679 376684 196 0
22 2 S116 703 377387 899 0
22 2 S116 741 378128 1640 0
22 2 S116 816 378944 2456 0
22 2 S116 789 379733 3245 0
22 2 S116 818 380551 4063 0
22 2 S116 841 381392 4904 0
22 2 S116 839 382231 5743 0
22 2 S116 782 383013 6525 0
0 0 0 823 383836 -9230 0
0 0 0 839 384675 -8391 0
0 0 0 813 385488 -7578 0
0 0 0 792 386280 -6786 0
0 0 0 821 387101 -5965 0
0 0 0 856 387957 -5109 0
0 0 0 808 388765 -4301 0
0 0 0 830 389595 -3471 0
0 0 0 875 390470 -2596 0
23 1 S112 861 391331 -1735 0
23 1 S112 787 392118 -948 0
23 1 S112 820 392938 -128 0
23 2 S112 840 393778 712 0
23 2 S112 877 394655 1589 0
23 2 S112 800 395455 2389 0
23 2 S112 833 396288 3222 0
23 2 S112 834 397122 4056 0
23 2 S112 824 397946 4880 0
23 2 S112 809 398755 5689 0
23 2 S112 841 399596 6530 0
0 0 0 846 400442 -8374 0
0 0 0 815 401257 -7559 0
0 0 0 826 402083 -6733 0
0 0 0 819 402902 -5914 0
0 0 0 774 403676 -5140 0
0 0 0 789 404465 -4351 0
0 0 0 818 405283 -3533 0
0 0 0 827 406110 -2706 0
24 1 S106 778 406888 -1928 0
24 1 S106 811 407699 -1117 0
24 1 S106 802 408501 -315 0
24 2 S106 793 409294 478 0
24 2 S106 790 410084 1268 0
24 2 S106 824 410908 2092 0
24 2 S106 841 411749 2933 0
24 2 S106 797 412546 3730 0
24 2 S106 806 413352 4536 0
24 2 S106 830 414182 5366 0
24 2 S106 841 415023 6207 0
24 2 S106 787 415810 6994 0
0 0 0 809 416619 -7996 0
0 0 0 839 417458 -7157 0
0 0 0 831 418289 -6326 0
0 0 0 789 419078 -5537 0
0 0 0 818 419896 -4719 0
0 0 0 825 420721 -3894 0
0 0 0 827 421548 -3067 0
0 0 0 780 422328 -2287 0
25 1 S102 803 423131 -1484 0
25 1 S102 825 423956 -659 0
25 2 S102 798 424754 139 0
25 2 S102 814 425568 953 0
25 2 S102 827 426395 1780 0
25 2 S102 824 427219 2604 0
25 2 S102 776 427995 3380 0
25 2 S102 808 428803 4188 0
25 2 S102 825 429628 5013 0
25 2 S102 821 430449 5834 0
25 2 S102 761 431210 6595 0
0 0 0 763 431973 -6634 0
0 0 0 725 432698 -5909 0
0 0 0 686 433384 -5223 0
0 0 0 646 434030 -4577 0
0 0 0 676 434706 -3901 0
0 0 0 693 435399 -3208 0
0 0 0 665 436064 -2543 0
26 1 S116 658 436722 -1885 0
26 1 S116 664 437386 -1221 0
26 1 S116 696 438082 -525 0
26 2 S116 744 438826 219 0
26 2 S116 752 439578 971 0
26 2 S116 770 440348 1741 0
26 2 S116 759 441107 2500 0
26 2 S116 740 441847 3240 0
26 2 S116 719 442566 3959 0
26 2 S116 709 443275 4668 0
26 2 S116 712 443987 5380 0
26 2 S116 717 444704 6097 0
26 2 S116 733 445437 6830 0
0 0 0 744 446181 -7065 0
0 0 0 782 446963 -6283 0
0 0 0 806 447769 -5477 0
0 0 0 775 448544 -4702 0
0 0 0 746 449290 -3956 0
0 0 0 757 450047 -3199 0
0 0 0 702 450749 -2497 0
27 1 S106 674 451423 -1823 0
27 1 S106 717 452140 -1106 0
27 1 S106 742 452882 -364 0
27 2 S106 759 453641 395 0
27 2 S106 775 454416 1170 0
27 2 S106 788 455204 1958 0
27 2 S106 758 455962 2716 0
27 2 S106 758 456720 3474 0
27 2 S106 774 457494 4248 0
27 2 S106 782 458276 5030 0
27 2 S106 747 459023 5777 0
27 2 S106 744 459767 6521 0
0 0 0 764 460531 -7420 0
0 0 0 796 461327 -6624 0
0 0 0 754 462081 -5870 0
0 0 0 758 462839 -5112 0
0 0 0 768 463607 -4344 0
0 0 0 782 464389 -3562 0
0 0 0 743 465132 -2819 0
0 0 0 751 465883 -2068 0
28 1 S102 765 466648 -1303 0
28 1 S102 794 467442 -509 0
28 2 S102 769 468211 260 0
28 2 S102 769 468980 1029 0
28 2 S102 783 469763 1812 0
28 2 S102 804 470567 2616 0
28 2 S102 766 471333 3382 0
28 2 S102 756 472089 4138 0
28 2 S102 746 472835 4884 0
28 2 S102 720 473555 5604 0
28 2 S102 695 474250 6299 0
28 2 S102 667 474917 6966 0
0 0 0 658 475575 -10496 0
0 0 0 687 476262 -9809 0
0 0 0 685 476947 -9124 0
0 0 0 703 477650 -8421 0
0 0 0 701 478351 -7720 0
0 0 0 677 479028 -7043 0
0 0 0 670 479698 -6373 0
0 0 0 639 480337 -5734 0
0 0 0 632 480969 -5102 0
0 0 0 657 481626 -4445 0
0 0 0 625 482251 -3820 0
0 0 0 601 482852 -3219 0
0 0 0 595 483447 -2624 0
0 0 0 597 484044 -2027 0
29 1 S112 607 484651 -1420 0
29 1 S112 610 485261 -810 0
29 1 S112 625 485886 -185 0
29 2 S112 625 486511 440 0
29 2 S112 624 487135 1064 0
29 2 S112 648 487783 1712 0
29 2 S112 670 488453 2382 0
29 2 S112 699 489152 3081 0
29 2 S112 736 489888 3817 0
29 2 S112 734 490622 4551 0
29 2 S112 742 491364 5293 0
29 2 S112 769 492133 6062 0
29 2 S112 810 492943 6872 0
0 0 0 801 493744 -6386 0
0 0 0 792 494536 -5594 0
0 0 0 755 495291 -4839 0
0 0 0 728 496019 -4111 0
0 0 0 667 496686 -3444 0
0 0 0 681 497367 -2763 0
0 0 0 729 498096 -2034 0
30 1 S112 729 498825 -1305 0
30 1 S112 801 499626 -504 0
30 2 S112 841 500467 337 0
30 2 S112 846 501313 1183 0
30 2 S112 788 502101 1971 0
30 2 S112 816 502917 2787 0
30 2 S112 836 503753 3623 0
30 2 S112 815 504568 4438 0
30 2 S112 773 505341 5211 0
30 2 S112 804 506145 6015 0
30 2 S112 848 506993 6863 0
0 0 0 800 507793 -8169 0
0 0 0 779 508572 -7390 0
0 0 0 788 509360 -6602 0
0 0 0 783 510143 -5819 0
0 0 0 731 510874 -5088 0
0 0 0 743 511617 -4345 0
0 0 0 751 512368 -3594 0
0 0 0 761 513129 -2833 0
0 0 0 750 513879 -2083 0
31 1 S106 767 514646 -1316 0
31 1 S106 786 515432 -530 0
31 2 S106 789 516221 259 0
31 2 S106 744 516965 1003 0
31 2 S106 742 517707 1745 0
31 2 S106 736 518443 2481 0
31 2 S106 759 519202 3240 0
31 2 S106 718 519920 3958 0
31 2 S106 697 520617 4655 0
31 2 S106 685 521302 5340 0
31 2 S106 725 522027 6065 0
31 2 S106 828 522855 6893 0
0 0 0 850 523705 -8023 0
0 0 0 765 524470 -7258 0
0 0 0 730 525200 -6528 0
0 0 0 694 525894 -5834 0
0 0 0 679 526573 -5155 0
0 0 0 652 527225 -4503 0
0 0 0 652 527877 -3851 0
0 0 0 634 528511 -3217 0
0 0 0 635 529146 -2582 0
32 1 S102 621 529767 -1961 0
32 1 S102 604 530371 -1357 0
32 1 S102 599 530970 -758 0
32 1 S102 616 531586 -142 0
32 2 S102 637 532223 495 0
32 2 S102 628 532851 1123 0
32 2 S102 606 533457 1729 0
32 2 S102 595 534052 2324 0
32 2 S102 593 534645 2917 0
32 2 S102 595 535240 3512 0
32 2 S102 594 535834 4106 0
32 2 S102 596 536430 4702 0
32 2 S102 621 537051 5323 0
32 2 S102 662 537713 5985 0
32 2 S102 716 538429 6701 0
0 0 0 713 539142 -9993 0
0 0 0 754 539896 -9239 0
0 0 0 770 540666 -8469 0
0 0 0 813 541479 -7656 0
0 0 0 791 542270 -6865 0
0 0 0 778 543048 -6087 0
0 0 0 772 543820 -5315 0
0 0 0 789 544609 -4526 0
0 0 0 774 545383 -3752 0
0 0 0 765 546148 -2987 0
0 0 0 754 546902 -2233 0
33 1 S112 777 547679 -1456 0
33 1 S112 757 548436 -699 0
33 2 S112 744 549180 45 0
33 2 S112 737 549917 782 0
33 2 S112 753 550670 1535 0
33 2 S112 746 551416 2281 0
33 2 S112 736 552152 3017 0
33 2 S112 741 552893 3758 0
33 2 S112 698 553591 4456 0
33 2 S112 729 554320 5185 0
33 2 S112 723 555043 5908 0
33 2 S112 692 555735 6600 0
0 0 0 690 556425 -10831 0
0 0 0 689 557114 -10142 0
0 0 0 650 557764 -9492 0
0 0 0 624 558388 -8868 0
0 0 0 597 558985 -8271 0
0 0 0 609 559594 -7662 0
0 0 0 590 560184 -7072 0
0 0 0 584 560768 -6488 0
0 0 0 604 561372 -5884 0
0 0 0 644 562016 -5240 0
0 0 0 637 562653 -4603 0
0 0 0 645 563298 -3958 0
0 0 0 673 563971 -3285 0
0 0 0 700 564671 -2585 0
34 1 S106 706 565377 -1879 0
34 1 S106 687 566064 -1192 0
34 1 S106 701 566765 -491 0
34 2 S106 707 567472 216 0
34 2 S106 726 568198 942 0
34 2 S106 708 568906 1650 0
34 2 S106 693 569599 2343 0
34 2 S106 734 570333 3077 0
34 2 S106 786 571119 3863 0
34 2 S106 830 571949 4693 0
34 2 S106 814 572763 5507 0
34 2 S106 855 573618 6362 0
0 0 0 848 574466 -9434 0
0 0 0 814 575280 -8620 0
0 0 0 817 576097 -7803 0
0 0 0 796 576893 -7007 0
0 0 0 776 577669 -6231 0
0 0 0 748 578417 -5483 0
0 0 0 799 579216 -4684 0
0 0 0 858 580074 -3826 0
0 0 0 888 580962 -2938 0
0 0 0 815 581777 -2123 0
35 1 S102 843 582620 -1280 0
35 1 S102 853 583473 -427 0
35 2 S102 823 584296 396 0
35 2 S102 808 585104 1204 0
35 2 S102 809 585913 2013 0
35 2 S102 835 586748 2848 0
35 2 S102 780 587528 3628 0
35 2 S102 796 588324 4424 0
35 2 S102 830 589154 5254 0
35 2 S102 851 590005 6105 0
35 2 S102 784 590789 6889 0
0 0 0 800 591589 -7348 0
0 0 0 786 592375 -6562 0
0 0 0 738 593113 -5824 0
0 0 0 737 593850 -5087 0
0 0 0 741 594591 -4346 0
0 0 0 713 595304 -3633 0
0 0 0 677 595981 -2956 0
0 0 0 703 596684 -2253 0
36 1 S106 725 597409 -1528 0
36 1 S106 659 598068 -869 0
36 1 S106 649 598717 -220 0
36 2 S106 657 599374 437 0
36 2 S106 721 600095 1158 0
36 2 S106 771 600866 1929 0
36 2 S106 780 601646 2709 0
36 2 S106 757 602403 3466 0
36 2 S106 758 603161 4224 0
36 2 S106 775 603936 4999 0
36 2 S106 781 604717 5780 0
36 2 S106 775 605492 6555 0
0 0 0 792 606284 -8452 0
0 0 0 775 607059 -7677 0
0 0 0 764 607823 -6913 0
0 0 0 751 608574 -6162 0
0 0 0 768 609342 -5394 0
0 0 0 807 610149 -4587 0
0 0 0 802 610951 -3785 0
0 0 0 827 611778 -2958 0
0 0 0 848 612626 -2110 0
37 1 S116 830 613456 -1280 0
37 1 S116 802 614258 -478 0
37 2 S116 806 615064 328 0
37 2 S116 821 615885 1149 0
37 2 S116 793 616678 1942 0
37 2 S116 790 617468 2732 0
37 2 S116 789 618257 3521 0
37 2 S116 797 619054 4318 0
37 2 S116 752 619806 5070 0
37 2 S116 786 620592 5856 0
37 2 S116 803 621395 6659 0
0 0 0 814 622209 -10432 0
0 0 0 793 623002 -9639 0
0 0 0 772 623774 -8867 0
0 0 0 755 624529 -8112 0
0 0 0 720 625249 -7392 0
0 0 0 717 625966 -6675 0
0 0 0 696 626662 -5979 0
0 0 0 687 627349 -5292 0
0 0 0 676 628025 -4616 0
0 0 0 686 628711 -3930 0
0 0 0 687 629398 -3243 0
0 0 0 688 630086 -2555 0
38 1 S102 694 630780 -1861 0
38 1 S102 672 631452 -1189 0
38 1 S102 671 632123 -518 0
38 2 S102 671 632794 153 0
38 2 S102 678 633472 831 0
38 2 S102 661 634133 1492 0
38 2 S102 652 634785 2144 0
38 2 S102 651 635436 2795 0
38 2 S102 655 636091 3450 0
38 2 S102 653 636744 4103 0
38 2 S102 658 637402 4761 0
38 2 S102 657 638059 5418 0
38 2 S102 693 638752 6111 0
38 2 S102 746 639498 6857 0
0 0 0 786 640284 -8272 0
0 0 0 822 641106 -7450 0
0 0 0 779 641885 -6671 0
0 0 0 751 642636 -5920 0
0 0 0 736 643372 -5184 0
0 0 0 724 644096 -4460 0
0 0 0 721 644817 -3739 0
0 0 0 702 645519 -3037 0
0 0 0 714 646233 -2323 0
39 1 S116 734 646967 -1589 0
39 1 S116 759 647726 -830 0
39 1 S116 760 648486 -70 0
39 2 S116 771 649257 701 0
39 2 S116 789 650046 1490 0
39 2 S116 824 650870 2314 0
39 2 S116 800 651670 3114 0
39 2 S116 782 652452 3896 0
39 2 S116 808 653260 4704 0
39 2 S116 811 654071 5515 0
39 2 S116 782 654853 6297 0
0 0 0 771 655624 -8317 0
0 0 0 810 656434 -7507 0
0 0 0 809 657243 -6698 0
0 0 0 754 657997 -5944 0
0 0 0 772 658769 -5172 0
0 0 0 761 659530 -4411 0
0 0 0 741 660271 -3670 0
0 0 0 722 660993 -2948 0
0 0 0 730 661723 -2218 0
40 1 S112 745 662468 -1473 0
40 1 S112 764 663232 -709 0
40 2 S112 751 663983 42 0
40 2 S112 757 664740 799 0
40 2 S112 770 665510 1569 0
40 2 S112 760 666270 2329 0
40 2 S112 748 667018 3077 0
40 2 S112 765 667783 3842 0
40 2 S112 786 668569 4628 0
40 2 S112 778 669347 5406 0
40 2 S112 770 670117 6176 0
40 2 S112 794 670911 6970 0
0 0 0 804 671715 -186525 0
0 0 0 757 672472 -185768 0
0 0 0 734 673206 -185034 0
0 0 0 724 673930 -184310 0
0 0 0 747 674677 -183563 0
0 0 0 803 675480 -182760 0
0 0 0 764 676244 -181996 0
0 0 0 700 676944 -181296 0
0 0 0 667 677611 -180629 0
0 0 0 629 678240 -180000 0
0 0 0 590 678830 -179410 0
0 0 0 611 679441 -178799 0
0 0 0 578 680019 -178221 0
0 0 0 595 680614 -177626 0
0 0 0 605 681219 -177021 0
0 0 0 590 681809 -176431 0
0 0 0 577 682386 -175854 0
0 0 0 579 682965 -175275 0
0 0 0 577 683542 -174698 0
0 0 0 577 684119 -174121 0
0 0 0 587 684706 -173534 0
0 0 0 596 685302 -172938 0
0 0 0 606 685908 -172332 0
0 0 0 607 686515 -171725 0
0 0 0 600 687115 -171125 0
0 0 0 1159 688274 -169966 1
0 0 0 569 688843 -169397 1
0 0 0 561 689404 -168836 1
0 0 0 554 689958 -168282 1
0 0 0 550 690508 -167732 1
0 0 0 553 691061 -167179 1
0 0 0 555 691616 -166624 1
0 0 0 562 692178 -166062 1
0 0 0 563 692741 -165499 1
0 0 0 573 693314 -164926 0
0 0 0 600 693914 -164326 0
0 0 0 657 694571 -163669 0
0 0 0 656 695227 -163013 0
0 0 0 662 695889 -162351 0
0 0 0 673 696562 -161678 0
0 0 0 808 697370 -160870 0
0 0 0 872 698242 -159998 0
0 0 0 865 699107 -159133 0
0 0 0 790 699897 -158343 0
0 0 0 786 700683 -157557 0
0 0 0 792 701475 -156765 0
0 0 0 818 702293 -155947 0
0 0 0 773 703066 -155174 0
0 0 0 771 703837 -154403 0
0 0 0 747 704584 -153656 0
0 0 0 733 705317 -152923 0
0 0 0 693 706010 -152230 0
0 0 0 697 706707 -151533 0
0 0 0 808 707515 -150725 0
0 0 0 848 708363 -149877 0
0 0 0 817 709180 -149060 0
0 0 0 784 709964 -148276 0
0 0 0 794 710758 -147482 0
0 0 0 811 711569 -146671 0
0 0 0 752 712321 -145919 0
0 0 0 748 713069 -145171 0
0 0 0 762 713831 -144409 0
0 0 0 777 714608 -143632 0
0 0 0 744 715352 -142888 0
0 0 0 771 716123 -142117 0
0 0 0 800 716923 -141317 0
0 0 0 715 717638 -140602 0
0 0 0 728 718366 -139874 0
0 0 0 659 719025 -139215 0
0 0 0 632 719657 -138583 0
0 0 0 600 720257 -137983 0
0 0 0 595 720852 -137388 0
0 0 0 575 721427 -136813 0
0 0 0 569 721996 -136244 1
0 0 0 557 722553 -135687 1
0 0 0 551 723104 -135136 1
0 0 0 555 723659 -134581 1
0 0 0 587 724246 -133994 0
0 0 0 594 724840 -133400 0
0 0 0 610 725450 -132790 0
0 0 0 670 726120 -132120 0
0 0 0 692 726812 -131428 0
0 0 0 1331 728143 -130097 1
0 0 0 647 728790 -129450 0
0 0 0 627 729417 -128823 0
0 0 0 627 730044 -128196 0
0 0 0 608 730652 -127588 0
0 0 0 603 731255 -126985 0
0 0 0 599 731854 -126386 0
0 0 0 585 732439 -125801 0
0 0 0 586 733025 -125215 0
0 0 0 603 733628 -124612 0
0 0 0 607 734235 -124005 0
0 0 0 619 734854 -123386 0
0 0 0 677 735531 -122709 0
0 0 0 697 736228 -122012 0
0 0 0 676 736904 -121336 0
0 0 0 629 737533 -120707 0
0 0 0 618 738151 -120089 0
0 0 0 643 738794 -119446 0
0 0 0 661 739455 -118785 0
0 0 0 683 740138 -118102 0
0 0 0 716 740854 -117386 0
0 0 0 724 741578 -116662 0
0 0 0 782 742360 -115880 0
0 0 0 776 743136 -115104 0
0 0 0 797 743933 -114307 0
0 0 0 807 744740 -113500 0
0 0 0 810 745550 -112690 0
0 0 0 794 746344 -111896 0
0 0 0 810 747154 -111086 0
0 0 0 836 747990 -110250 0
0 0 0 818 748808 -109432 0
0 0 0 810 749618 -108622 0
0 0 0 837 750455 -107785 0
0 0 0 823 751278 -106962 0
0 0 0 770 752048 -106192 0
0 0 0 795 752843 -105397 0
0 0 0 795 753638 -104602 0
0 0 0 787 754425 -103815 0
0 0 0 774 755199 -103041 0
0 0 0 795 755994 -102246 0
0 0 0 822 756816 -101424 0
0 0 0 791 757607 -100633 0
0 0 0 817 758424 -99816 0
0 0 0 820 759244 -98996 0
0 0 0 803 760047 -98193 0
0 0 0 767 760814 -97426 0
0 0 0 778 761592 -96648 0
0 0 0 775 762367 -95873 0
0 0 0 730 763097 -95143 0
0 0 0 703 763800 -94440 0
0 0 0 671 764471 -93769 0
0 0 0 667 765138 -93102 0
0 0 0 695 765833 -92407 0
0 0 0 694 766527 -91713 0
0 0 0 676 767203 -91037 0
0 0 0 674 767877 -90363 0
0 0 0 633 768510 -89730 0
0 0 0 705 769215 -89025 0
0 0 0 661 769876 -88364 0
0 0 0 634 770510 -87730 0
0 0 0 634 771144 -87096 0
0 0 0 627 771771 -86469 0
0 0 0 633 772404 -85836 0
0 0 0 730 773134 -85106 0
0 0 0 807 773941 -84299 0
0 0 0 749 774690 -83550 0
0 0 0 713 775403 -82837 0
0 0 0 750 776153 -82087 0
0 0 0 774 776927 -81313 0
0 0 0 810 777737 -80503 0
0 0 0 811 778548 -79692 0
0 0 0 783 779331 -78909 0
0 0 0 813 780144 -78096 0
0 0 0 833 780977 -77263 0
0 0 0 827 781804 -76436 0
0 0 0 808 782612 -75628 0
0 0 0 857 783469 -74771 0
0 0 0 845 784314 -73926 0
0 0 0 834 785148 -73092 0
0 0 0 828 785976 -72264 0
0 0 0 862 786838 -71402 0
0 0 0 856 787694 -70546 0
0 0 0 780 788474 -69766 0
0 0 0 794 789268 -68972 0
0 0 0 798 790066 -68174 0
0 0 0 822 790888 -67352 0
0 0 0 790 791678 -66562 0
0 0 0 865 792543 -65697 0
0 0 0 881 793424 -64816 0
0 0 0 881 794305 -63935 0
0 0 0 831 795136 -63104 0
0 0 0 876 796012 -62228 0
0 0 0 867 796879 -61361 0
0 0 0 818 797697 -60543 0
0 0 0 822 798519 -59721 0
0 0 0 812 799331 -58909 0
0 0 0 816 800147 -58093 0
0 0 0 779 800926 -57314 0
0 0 0 817 801743 -56497 0
0 0 0 868 802611 -55629 0
0 0 0 887 803498 -54742 0
0 0 0 821 804319 -53921 0
0 0 0 871 805190 -53050 0
0 0 0 833 806023 -52217 0
0 0 0 762 806785 -51455 0
0 0 0 744 807529 -50711 0
0 0 0 762 808291 -49949 0
0 0 0 779 809070 -49170 0
0 0 0 766 809836 -48404 0
0 0 0 787 810623 -47617 0
0 0 0 773 811396 -46844 0
0 0 0 713 812109 -46131 0
0 0 0 677 812786 -45454 0
0 0 0 665 813451 -44789 0
0 0 0 668 814119 -44121 0
0 0 0 663 814782 -43458 0
0 0 0 662 815444 -42796 0
0 0 0 691 816135 -42105 0
0 0 0 677 816812 -41428 0
0 0 0 695 817507 -40733 0
0 0 0 713 818220 -40020 0
0 0 0 691 818911 -39329 0
0 0 0 650 819561 -38679 0
0 0 0 650 820211 -38029 0
0 0 0 682 820893 -37347 0
0 0 0 676 821569 -36671 0
0 0 0 679 822248 -35992 0
0 0 0 698 822946 -35294 0
0 0 0 726 823672 -34568 0
0 0 0 738 824410 -33830 0
0 0 0 726 825136 -33104 0
0 0 0 720 825856 -32384 0
0 0 0 743 826599 -31641 0
0 0 0 781 827380 -30860 0
0 0 0 821 828201 -30039 0
0 0 0 785 828986 -29254 0
0 0 0 748 829734 -28506 0
0 0 0 713 830447 -27793 0
0 0 0 732 831179 -27061 0
0 0 0 793 831972 -26268 0
0 0 0 801 832773 -25467 0
0 0 0 795 833568 -24672 0
0 0 0 796 834364 -23876 0
0 0 0 785 835149 -23091 0
0 0 0 755 835904 -22336 0
0 0 0 723 836627 -21613 0
0 0 0 700 837327 -20913 0
0 0 0 683 838010 -20230 0
0 0 0 739 838749 -19491 0
0 0 0 789 839538 -18702 0
0 0 0 798 840336 -17904 0
0 0 0 796 841132 -17108 0
0 0 0 785 841917 -16323 0
0 0 0 766 842683 -15557 0
0 0 0 760 843443 -14797 0
0 0 0 723 844166 -14074 0
0 0 0 715 844881 -13359 0
0 0 0 723 845604 -12636 0
0 0 0 765 846369 -11871 0
0 0 0 830 847199 -11041 0
0 0 0 845 848044 -10196 0
0 0 0 749 848793 -9447 0
0 0 0 742 849535 -8705 0
0 0 0 750 850285 -7955 0
0 0 0 719 851004 -7236 0
0 0 0 723 851727 -6513 0
0 0 0 732 852459 -5781 0
0 0 0 744 853203 -5037 0
0 0 0 734 853937 -4303 0
0 0 0 736 854673 -3567 0
0 0 0 708 855381 -2859 0
0 0 0 688 856069 -2171 0
41 1 S102 655 856724 -1516 0
41 1 S102 660 857384 -856 0
41 1 S102 665 858049 -191 0
41 2 S102 650 858699 459 0
41 2 S102 648 859347 1107 0
41 2 S102 658 860005 1765 0
41 2 S102 710 860715 2475 0
41 2 S102 691 861406 3166 0
41 2 S102 686 862092 3852 0
41 2 S102 717 862809 4569 0
41 2 S102 725 863534 5294 0
41 2 S102 734 864268 6028 0
41 2 S102 737 865005 6765 0
0 0 0 767 865772 -6112 0
0 0 0 790 866562 -5322 0
0 0 0 744 867306 -4578 0
0 0 0 700 868006 -3878 0
0 0 0 721 868727 -3157 0
0 0 0 701 869428 -2456 0
42 1 S112 714 870142 -1742 0
42 1 S112 695 870837 -1047 0
42 1 S112 680 871517 -367 0
42 2 S112 668 872185 301 0
42 2 S112 653 872838 954 0
42 2 S112 639 873477 1593 0
42 2 S112 696 874173 2289 0
42 2 S112 705 874878 2994 0
42 2 S112 705 875583 3699 0
42 2 S112 711 876294 4410 0
42 2 S112 735 877029 5145 0
42 2 S112 712 877741 5857 0
42 2 S112 687 878428 6544 0
0 0 0 649 879077 -9866 0
0 0 0 656 879733 -9210 0
0 0 0 669 880402 -8541 0
0 0 0 746 881148 -7795 0
0 0 0 825 881973 -6970 0
0 0 0 820 882793 -6150 0
0 0 0 767 883560 -5383 0
0 0 0 786 884346 -4597 0
0 0 0 798 885144 -3799 0
0 0 0 793 885937 -3006 0
0 0 0 742 886679 -2264 0
43 1 S116 769 887448 -1495 0
43 1 S116 821 888269 -674 0
43 2 S116 897 889166 223 0
43 2 S116 853 890019 1076 0
43 2 S116 839 890858 1915 0
43 2 S116 878 891736 2793 0
43 2 S116 879 892615 3672 0
43 2 S116 820 893435 4492 0
43 2 S116 841 894276 5333 0
43 2 S116 854 895130 6187 0
0 0 0 854 895984 -7316 0
0 0 0 808 896792 -6508 0
0 0 0 838 897630 -5670 0
0 0 0 806 898436 -4864 0
0 0 0 804 899240 -4060 0
0 0 0 791 900031 -3269 0
0 0 0 819 900850 -2450 0
44 1 S102 854 901704 -1596 0
44 1 S102 784 902488 -812 0
44 1 S102 798 903286 -14 0
44 2 S102 797 904083 783 0
44 2 S102 808 904891 1591 0
44 2 S102 750 905641 2341 0
44 2 S102 759 906400 3100 0
44 2 S102 787 907187 3887 0
44 2 S102 825 908012 4712 0
44 2 S102 776 908788 5488 0
44 2 S102 796 909584 6284 0
0 0 0 805 910389 -8113 0
0 0 0 859 911248 -7254 0
0 0 0 783 912031 -6471 0
0 0 0 772 912803 -5699 0
0 0 0 768 913571 -4931 0
0 0 0 754 914325 -4177 0
0 0 0 704 915029 -3473 0
0 0 0 698 915727 -2775 0
0 0 0 716 916443 -2059 0
45 1 S116 764 917207 -1295 0
45 1 S116 757 917964 -538 0
45 2 S116 767 918731 229 0
45 2 S116 804 919535 1033 0
45 2 S116 831 920366 1864 0
45 2 S116 789 921155 2653 0
45 2 S116 747 921902 3400 0
45 2 S116 759 922661 4159 0
45 2 S116 762 923423 4921 0
45 2 S116 708 924131 5629 0
45 2 S116 671 924802 6300 0
45 2 S116 649 925451 6949 0
0 0 0 641 926092 -10928 0
0 0 0 659 926751 -10269 0
0 0 0 689 927440 -9580 0
0 0 0 682 928122 -8898 0
0 0 0 655 928777 -8243 0
0 0 0 694 929471 -7549 0
0 0 0 758 930229 -6791 0
0 0 0 718 930947 -6073 0
0 0 0 778 931725 -5295 0
0 0 0 793 932518 -4502 0
0 0 0 810 933328 -3692 0
0 0 0 783 934111 -2909 0
0 0 0 786 934897 -2123 0
46 1 S102 751 935648 -1372 0
46 1 S102 733 936381 -639 0
46 2 S102 723 937104 84 0
46 2 S102 719 937823 803 0
46 2 S102 734 938557 1537 0
46 2 S102 777 939334 2314 0
46 2 S102 782 940116 3096 0
46 2 S102 824 940940 3920 0
46 2 S102 833 941773 4753 0
46 2 S102 839 942612 5592 0
46 2 S102 849 943461 6441 0
0 0 0 843 944304 -8449 0
0 0 0 798 945102 -7651 0
0 0 0 779 945881 -6872 0
0 0 0 729 946610 -6143 0
0 0 0 690 947300 -5453 0
0 0 0 701 948001 -4752 0
0 0 0 731 948732 -4021 0
0 0 0 736 949468 -3285 0
0 0 0 740 950208 -2545 0
47 1 S112 730 950938 -1815 0
47 1 S112 743 951681 -1072 0
47 1 S112 744 952425 -328 0
47 2 S112 731 953156 403 0
47 2 S112 720 953876 1123 0
47 2 S112 741 954617 1864 0
47 2 S112 814 955431 2678 0
47 2 S112 797 956228 3475 0
47 2 S112 808 957036 4283 0
47 2 S112 816 957852 5099 0
47 2 S112 806 958658 5905 0
47 2 S112 764 959422 6669 0
0 0 0 765 960187 -10653 0
0 0 0 758 960945 -9895 0
0 0 0 744 961689 -9151 0
0 0 0 725 962414 -8426 0
0 0 0 754 963168 -7672 0
0 0 0 751 963919 -6921 0
0 0 0 779 964698 -6142 0
0 0 0 775 965473 -5367 0
0 0 0 812 966285 -4555 0
0 0 0 832 967117 -3723 0
0 0 0 795 967912 -2928 0
0 0 0 792 968704 -2136 0
48 1 S116 791 969495 -1345 0
48 1 S116 785 970280 -560 0
48 2 S116 746 971026 186 0
48 2 S116 753 971779 939 0
48 2 S116 772 972551 1711 0
48 2 S116 802 973353 2513 0
48 2 S116 769 974122 3282 0
48 2 S116 810 974932 4092 0
48 2 S116 820 975752 4912 0
48 2 S116 831 976583 5743 0
48 2 S116 780 977363 6523 0
0 0 0 823 978186 -6912 0
0 0 0 842 979028 -6070 0
0 0 0 791 979819 -5279 0
0 0 0 785 980604 -4494 0
0 0 0 775 981379 -3719 0
0 0 0 782 982161 -2937 0
0 0 0 761 982922 -2176 0
49 1 S112 810 983732 -1366 0
49 1 S112 852 984584 -514 0
49 2 S112 849 985433 335 0
49 2 S112 838 986271 1173 0
49 2 S112 877 987148 2050 0
49 2 S112 874 988022 2924 0
49 2 S112 801 988823 3725 0
49 2 S112 819 989642 4544 0
49 2 S112 804 990446 5348 0
49 2 S112 779 991225 6127 0
49 2 S112 781 992006 6908 0
0 0 0 836 992842 -10144 0
0 0 0 837 993679 -9307 0
0 0 0 790 994469 -8517 0
0 0 0 781 995250 -7736 0
0 0 0 748 995998 -6988 0
0 0 0 764 996762 -6224 0
0 0 0 752 997514 -5472 0
0 0 0 785 998299 -4687 0
0 0 0 808 999107 -3879 0
0 0 0 808 999915 -3071 0
0 0 0 769 1000684 -2302 0
50 1 S106 801 1001485 -1501 0
50 1 S106 799 1002284 -702 0
50 2 S106 779 1003063 77 0
50 2 S106 775 1003838 852 0
50 2 S106 795 1004633 1647 0
50 2 S106 831 1005464 2478 0
50 2 S106 791 1006255 3269 0
50 2 S106 789 1007044 4058 0
50 2 S106 801 1007845 4859 0
50 2 S106 830 1008675 5689 0
50 2 S106 788 1009463 6477 0
0 0 0 795 1010258 -6422 0
0 0 0 806 1011064 -5616 0
0 0 0 829 1011893 -4787 0
0 0 0 779 1012672 -4008 0
0 0 0 789 1013461 -3219 0
0 0 0 803 1014264 -2416 0
51 1 S112 809 1015073 -1607 0
51 1 S112 772 1015845 -835 0
51 1 S112 788 1016633 -47 0
51 2 S112 797 1017430 750 0
51 2 S112 809 1018239 1559 0
51 2 S112 770 1019009 2329 0
51 2 S112 790 1019799 3119 0
51 2 S112 796 1020595 3915 0
51 2 S112 814 1021409 4729 0
51 2 S112 749 1022158 5478 0
51 2 S112 767 1022925 6245 0
51 2 S112 777 1023702 7022 0
0 0 0 775 1024477 -6444 0
0 0 0 744 1025221 -5700 0
0 0 0 760 1025981 -4940 0
0 0 0 756 1026737 -4184 0
0 0 0 745 1027482 -3439 0
0 0 0 743 1028225 -2696 0
52 1 S116 780 1029005 -1916 0
52 1 S116 805 1029810 -1111 0
52 1 S116 780 1030590 -331 0
52 2 S116 772 1031362 441 0
52 2 S116 798 1032160 1239 0
52 2 S116 828 1032988 2067 0
52 2 S116 786 1033774 2853 0
52 2 S116 798 1034572 3651 0
52 2 S116 786 1035358 4437 0
52 2 S116 782 1036140 5219 0
52 2 S116 755 1036895 5974 0
52 2 S116 771 1037666 6745 0
0 0 0 800 1038466 -7906 0
0 0 0 773 1039239 -7133 0
0 0 0 745 1039984 -6388 0
0 0 0 765 1040749 -5623 0
0 0 0 800 1041549 -4823 0
0 0 0 782 1042331 -4041 0
0 0 0 797 1043128 -3244 0
0 0 0 816 1043944 -2428 0
53 1 S106 818 1044762 -1610 0
53 1 S106 768 1045530 -842 0
53 1 S106 764 1046294 -78 0
53 2 S106 765 1047059 687 0
53 2 S106 789 1047848 1476 0
53 2 S106 765 1048613 2241 0
53 2 S106 785 1049398 3026 0
53 2 S106 802 1050200 3828 0
53 2 S106 817 1051017 4645 0
53 2 S106 777 1051794 5422 0
53 2 S106 796 1052590 6218 0
53 2 S106 805 1053395 7023 0
0 0 0 785 1054180 -5604 0
0 0 0 779 1054959 -4825 0
0 0 0 767 1055726 -4058 0
0 0 0 779 1056505 -3279 0
0 0 0 749 1057254 -2530 0
54 1 S102 765 1058019 -1765 0
54 1 S102 780 1058799 -985 0
54 1 S102 786 1059585 -199 0
54 2 S102 758 1060343 559 0
54 2 S102 799 1061142 1358 0
54 2 S102 798 1061940 2156 0
54 2 S102 798 1062738 2954 0
54 2 S102 797 1063535 3751 0
54 2 S102 798 1064333 4549 0
54 2 S102 783 1065116 5332 0
54 2 S102 737 1065853 6069 0
54 2 S102 739 1066592 6808 0
0 0 0 738 1067330 -9430 0
0 0 0 770 1068100 -8660 0
0 0 0 751 1068851 -7909 0
0 0 0 800 1069651 -7109 0
0 0 0 805 1070456 -6304 0
0 0 0 788 1071244 -5516 0
0 0 0 759 1072003 -4757 0
0 0 0 785 1072788 -3972 0
0 0 0 795 1073583 -3177 0
0 0 0 766 1074349 -2411 0
55 1 S106 758 1075107 -1653 0
55 1 S106 770 1075877 -883 0
55 1 S106 798 1076675 -85 0
55 2 S106 784 1077459 699 0
55 2 S106 809 1078268 1508 0
55 2 S106 830 1079098 2338 0
55 2 S106 834 1079932 3172 0
55 2 S106 770 1080702 3942 0
55 2 S106 793 1081495 4735 0
55 2 S106 778 1082273 5513 0
55 2 S106 750 1083023 6263 0
55 2 S106 741 1083764 7004 0
0 0 0 758 1084522 -5981 0
0 0 0 765 1085287 -5216 0
0 0 0 751 1086038 -4465 0
0 0 0 753 1086791 -3712 0
0 0 0 757 1087548 -2955 0
0 0 0 762 1088310 -2193 0
56 1 S116 727 1089037 -1466 0
56 1 S116 732 1089769 -734 0
56 1 S116 715 1090484 -19 0
56 2 S116 713 1091197 694 0
56 2 S116 701 1091898 1395 0
56 2 S116 710 1092608 2105 0
56 2 S116 727 1093335 2832 0
56 2 S116 699 1094034 3531 0
56 2 S116 687 1094721 4218 0
56 2 S116 691 1095412 4909 0
56 2 S116 699 1096111 5608 0
56 2 S116 691 1096802 6299 0
56 2 S116 675 1097477 6974 0
0 0 0 690 1098167 -6229 0
0 0 0 705 1098872 -5524 0
0 0 0 719 1099591 -4805 0
0 0 0 702 1100293 -4103 0
0 0 0 716 1101009 -3387 0
0 0 0 752 1101761 -2635 0
57 1 S106 804 1102565 -1831 0
57 1 S106 782 1103347 -1049 0
57 1 S106 778 1104125 -271 0
57 2 S106 798 1104923 527 0
57 2 S106 804 1105727 1331 0
57 2 S106 768 1106495 2099 0
57 2 S106 781 1107276 2880 0
57 2 S106 809 1108085 3689 0
57 2 S106 810 1108895 4499 0
57 2 S106 766 1109661 5265 0
57 2 S106 790 1110451 6055 0
57 2 S106 804 1111255 6859 0
0 0 0 820 1112075 -8551 0
0 0 0 779 1112854 -7772 0
0 0 0 817 1113671 -6955 0
0 0 0 796 1114467 -6159 0
0 0 0 783 1115250 -5376 0
0 0 0 777 1116027 -4599 0
0 0 0 803 1116830 -3796 0
0 0 0 819 1117649 -2977 0
0 0 0 776 1118425 -2201 0
58 1 S102 808 1119233 -1393 0
58 1 S102 832 1120065 -561 0
58 2 S102 816 1120881 255 0
58 2 S102 771 1121652 1026 0
58 2 S102 793 1122445 1819 0
58 2 S102 801 1123246 2620 0
58 2 S102 781 1124027 3401 0
58 2 S102 794 1124821 4195 0
58 2 S102 817 1125638 5012 0
58 2 S102 841 1126479 5853 0
58 2 S102 807 1127286 6660 0
0 0 0 839 1128125 -6510 0
0 0 0 851 1128976 -5659 0
0 0 0 779 1129755 -4880 0
0 0 0 769 1130524 -4111 0
0 0 0 764 1131288 -3347 0
0 0 0 774 1132062 -2573 0
59 1 S112 768 1132830 -1805 0
59 1 S112 783 1133613 -1022 0
59 1 S112 805 1134418 -217 0
59 2 S112 775 1135193 558 0
59 2 S112 789 1135982 1347 0
59 2 S112 815 1136797 2162 0
59 2 S112 798 1137595 2960 0
59 2 S112 763 1138358 3723 0
59 2 S112 770 1139128 4493 0
59 2 S112 756 1139884 5249 0
59 2 S112 754 1140638 6003 0
59 2 S112 724 1141362 6727 0
0 0 0 746 1142108 -8956 0
0 0 0 724 1142832 -8232 0
0 0 0 702 1143534 -7530 0
0 0 0 703 1144237 -6827 0
0 0 0 707 1144944 -6120 0
0 0 0 740 1145684 -5380 0
0 0 0 731 1146415 -4649 0
0 0 0 701 1147116 -3948 0
0 0 0 669 1147785 -3279 0
0 0 0 661 1148446 -2618 0
60 1 S102 662 1149108 -1956 0
60 1 S102 669 1149777 -1287 0
60 1 S102 658 1150435 -629 0
60 2 S102 665 1151100 36 0
60 2 S102 690 1151790 726 0
60 2 S102 730 1152520 1456 0
60 2 S102 749 1153269 2205 0
60 2 S102 734 1154003 2939 0
60 2 S102 787 1154790 3726 0
60 2 S102 828 1155618 4554 0
60 2 S102 792 1156410 5346 0
60 2 S102 792 1157202 6138 0
60 2 S102 806 1158008 6944 0
0 0 0 809 1158817 -10301 0
0 0 0 753 1159570 -9548 0
0 0 0 758 1160328 -8790 0
0 0 0 758 1161086 -8032 0
0 0 0 765 1161851 -7267 0
0 0 0 770 1162621 -6497 0
0 0 0 839 1163460 -5658 0
0 0 0 898 1164358 -4760 0
0 0 0 859 1165217 -3901 0
0 0 0 866 1166083 -3035 0
0 0 0 886 1166969 -2149 0
61 1 S106 870 1167839 -1279 0
61 1 S106 830 1168669 -449 0
61 2 S106 846 1169515 397 0
61 2 S106 827 1170342 1224 0
61 2 S106 780 1171122 2004 0
61 2 S106 820 1171942 2824 0
61 2 S106 850 1172792 3674 0
61 2 S106 855 1173647 4529 0
61 2 S106 835 1174482 5364 0
61 2 S106 877 1175359 6241 0
0 0 0 871 1176230 -6499 0
0 0 0 800 1177030 -5699 0
0 0 0 827 1177857 -4872 0
0 0 0 776 1178633 -4096 0
0 0 0 756 1179389 -3340 0
0 0 0 743 1180132 -2597 0
62 1 S112 751 1180883 -1846 0
62 1 S112 783 1181666 -1063 0
62 1 S112 757 1182423 -306 0
62 2 S112 754 1183177 448 0
62 2 S112 747 1183924 1195 0
62 2 S112 804 1184728 1999 0
62 2 S112 848 1185576 2847 0
62 2 S112 821 1186397 3668 0
62 2 S112 749 1187146 4417 0
62 2 S112 730 1187876 5147 0
62 2 S112 718 1188594 5865 0
62 2 S112 694 1189288 6559 0
0 0 0 663 1189951 -10567 0
0 0 0 685 1190636 -9882 0
0 0 0 685 1191321 -9197 0
0 0 0 673 1191994 -8524 0
0 0 0 667 1192661 -7857 0
0 0 0 666 1193327 -7191 0
0 0 0 676 1194003 -6515 0
0 0 0 658 1194661 -5857 0
0 0 0 652 1195313 -5205 0
0 0 0 624 1195937 -4581 0
0 0 0 637 1196574 -3944 0
0 0 0 693 1197267 -3251 0
0 0 0 744 1198011 -2507 0
63 1 S102 750 1198761 -1757 0
63 1 S102 762 1199523 -995 0
63 1 S102 750 1200273 -245 0
63 2 S102 724 1200997 479 0
63 2 S102 734 1201731 1213 0
63 2 S102 730 1202461 1943 0
63 2 S102 737 1203198 2680 0
63 2 S102 719 1203917 3399 0
63 2 S102 737 1204654 4136 0
63 2 S102 779 1205433 4915 0
63 2 S102 806 1206239 5721 0
63 2 S102 773 1207012 6494 0
0 0 0 805 1207817 -9080 0
0 0 0 819 1208636 -8261 0
0 0 0 834 1209470 -7427 0
0 0 0 771 1210241 -6656 0
0 0 0 787 1211028 -5869 0
0 0 0 794 1211822 -5075 0
0 0 0 745 1212567 -4330 0
0 0 0 762 1213329 -3568 0
0 0 0 793 1214122 -2775 0
64 1 S112 836 1214958 -1939 0
64 1 S112 796 1215754 -1143 0
64 1 S112 829 1216583 -314 0
64 2 S112 820 1217403 506 0
64 2 S112 805 1218208 1311 0
64 2 S112 767 1218975 2078 0
64 2 S112 796 1219771 2874 0
64 2 S112 761 1220532 3635 0
64 2 S112 746 1221278 4381 0
64 2 S112 744 1222022 5125 0
64 2 S112 812 1222834 5937 0
64 2 S112 829 1223663 6766 0
0 0 0 781 1224444 -6362 0
0 0 0 824 1225268 -5538 0
0 0 0 822 1226090 -4716 0
0 0 0 787 1226877 -3929 0
0 0 0 786 1227663 -3143 0
0 0 0 780 1228443 -2363 0
65 1 S106 788 1229231 -1575 0
65 1 S106 743 1229974 -832 0
65 1 S106 770 1230744 -62 0
65 2 S106 757 1231501 695 0
65 2 S106 800 1232301 1495 0
65 2 S106 779 1233080 2274 0
65 2 S106 807 1233887 3081 0
65 2 S106 851 1234738 3932 0
65 2 S106 891 1235629 4823 0
65 2 S106 824 1236453 5647 0
65 2 S106 861 1237314 6508 0
0 0 0 855 1238169 -6679 0
0 0 0 798 1238967 -5881 0
0 0 0 810 1239777 -5071 0
0 0 0 798 1240575 -4273 0
0 0 0 776 1241351 -3497 0
0 0 0 775 1242126 -2722 0
66 1 S116 802 1242928 -1920 0
66 1 S116 823 1243751 -1097 0
66 1 S116 820 1244571 -277 0
66 2 S116 840 1245411 563 0
66 2 S116 869 1246280 1432 0
66 2 S116 888 1247168 2320 0
66 2 S116 814 1247982 3134 0
66 2 S116 867 1248849 4001 0
66 2 S116 880 1249729 4881 0
66 2 S116 824 1250553 5705 0
66 2 S116 816 1251369 6521 0
0 0 0 808 1252177 -10559 0
0 0 0 810 1252987 -9749 0
0 0 0 765 1253752 -8984 0
0 0 0 772 1254524 -8212 0
0 0 0 791 1255315 -7421 0
0 0 0 818 1256133 -6603 0
0 0 0 856 1256989 -5747 0
0 0 0 899 1257888 -4848 0
0 0 0 863 1258751 -3985 0
0 0 0 827 1259578 -3158 0
0 0 0 853 1260431 -2305 0
67 1 S102 871 1261302 -1434 0
67 1 S102 818 1262120 -616 0
67 2 S102 827 1262947 211 0
67 2 S102 838 1263785 1049 0
67 2 S102 849 1264634 1898 0
67 2 S102 793 1265427 2691 0
67 2 S102 818 1266245 3509 0
67 2 S102 851 1267096 4360 0
67 2 S102 874 1267970 5234 0
67 2 S102 812 1268782 6046 0
67 2 S102 865 1269647 6911 0
0 0 0 879 1270526 -5738 0
0 0 0 807 1271333 -4931 0
0 0 0 781 1272114 -4150 0
0 0 0 743 1272857 -3407 0
0 0 0 747 1273604 -2660 0
68 1 S106 723 1274327 -1937 0
68 1 S106 721 1275048 -1216 0
68 1 S106 770 1275818 -446 0
68 2 S106 855 1276673 409 0
68 2 S106 807 1277480 1216 0
68 2 S106 809 1278289 2025 0
68 2 S106 829 1279118 2854 0
68 2 S106 798 1279916 3652 0
68 2 S106 735 1280651 4387 0
68 2 S106 671 1281322 5058 0
68 2 S106 635 1281957 5693 0
68 2 S106 694 1282651 6387 0
0 0 0 680 1283331 -10589 0
0 0 0 741 1284072 -9848 0
0 0 0 714 1284786 -9134 0
0 0 0 710 1285496 -8424 0
0 0 0 722 1286218 -7702 0
0 0 0 741 1286959 -6961 0
0 0 0 749 1287708 -6212 0
0 0 0 737 1288445 -5475 0
0 0 0 750 1289195 -4725 0
0 0 0 760 1289955 -3965 0
0 0 0 794 1290749 -3171 0
0 0 0 831 1291580 -2340 0
69 1 S102 807 1292387 -1533 0
69 1 S102 792 1293179 -741 0
69 2 S102 821 1294000 80 0
69 2 S102 833 1294833 913 0
69 2 S102 787 1295620 1700 0
69 2 S102 791 1296411 2491 0
69 2 S102 797 1297208 3288 0
69 2 S102 783 1297991 4071 0
69 2 S102 779 1298770 4850 0
69 2 S102 753 1299523 5603 0
69 2 S102 792 1300315 6395 0
0 0 0 805 1301120 -8351 0
0 0 0 793 1301913 -7558 0
0 0 0 752 1302665 -6806 0
0 0 0 715 1303380 -6091 0
0 0 0 689 1304069 -5402 0
0 0 0 677 1304746 -4725 0
0 0 0 653 1305399 -4072 0
0 0 0 657 1306056 -3415 0
0 0 0 671 1306727 -2744 0
0 0 0 707 1307434 -2037 0
70 1 S112 782 1308216 -1255 0
70 1 S112 765 1308981 -490 0
70 2 S112 789 1309770 299 0
70 2 S112 792 1310562 1091 0
70 2 S112 816 1311378 1907 0
70 2 S112 774 1312152 2681 0
70 2 S112 767 1312919 3448 0
70 2 S112 774 1313693 4222 0
70 2 S112 777 1314470 4999 0
70 2 S112 751 1315221 5750 0
70 2 S112 766 1315987 6516 0
0 0 0 778 1316765 -10826 0
0 0 0 802 1317567 -10024 0
0 0 0 758 1318325 -9266 0
0 0 0 757 1319082 -8509 0
0 0 0 756 1319838 -7753 0
0 0 0 774 1320612 -6979 0
0 0 0 786 1321398 -6193 0
0 0 0 820 1322218 -5373 0
0 0 0 825 1323043 -4548 0
0 0 0 795 1323838 -3753 0
0 0 0 799 1324637 -2954 0
0 0 0 793 1325430 -2161 0
71 1 S116 801 1326231 -1360 0
71 1 S116 766 1326997 -594 0
71 2 S116 786 1327783 192 0
71 2 S116 794 1328577 986 0
71 2 S116 838 1329415 1824 0
71 2 S116 796 1330211 2620 0
71 2 S116 784 1330995 3404 0
71 2 S116 805 1331800 4209 0
71 2 S116 827 1332627 5036 0
71 2 S116 782 1333409 5818 0
71 2 S116 797 1334206 6615 0
0 0 0 800 1335006 -8484 0
0 0 0 784 1335790 -7700 0
0 0 0 753 1336543 -6947 0
0 0 0 765 1337308 -6182 0
0 0 0 792 1338100 -5390 0
0 0 0 790 1338890 -4600 0
0 0 0 775 1339665 -3825 0
0 0 0 806 1340471 -3019 0
0 0 0 825 1341296 -2194 0
72 1 S102 795 1342091 -1399 0
72 1 S102 797 1342888 -602 0
72 2 S102 804 1343692 202 0
72 2 S102 822 1344514 1024 0
72 2 S102 774 1345288 1798 0
72 2 S102 794 1346082 2592 0
72 2 S102 783 1346865 3375 0
72 2 S102 804 1347669 4179 0
72 2 S102 757 1348426 4936 0
72 2 S102 802 1349228 5738 0
72 2 S102 851 1350079 6589 0
0 0 0 855 1350934 -6366 0
0 0 0 796 1351730 -5570 0
0 0 0 792 1352522 -4778 0
0 0 0 786 1353308 -3992 0
0 0 0 766 1354074 -3226 0
0 0 0 775 1354849 -2451 0
73 1 S116 778 1355627 -1673 0
73 1 S116 819 1356446 -854 0
73 1 S116 796 1357242 -58 0
73 2 S116 845 1358087 787 0
73 2 S116 868 1358955 1655 0
73 2 S116 876 1359831 2531 0
73 2 S116 825 1360656 3356 0
73 2 S116 837 1361493 4193 0
73 2 S116 841 1362334 5034 0
73 2 S116 797 1363131 5831 0
73 2 S116 788 1363919 6619 0
0 0 0 802 1364721 -8394 0
0 0 0 798 1365519 -7596 0
0 0 0 744 1366263 -6852 0
0 0 0 745 1367008 -6107 0
0 0 0 739 1367747 -5368 0
0 0 0 752 1368499 -4616 0
0 0 0 755 1369254 -3861 0
0 0 0 805 1370059 -3056 0
0 0 0 816 1370875 -2240 0
74 1 S106 800 1371675 -1440 0
74 1 S106 832 1372507 -608 0
74 2 S106 853 1373360 245 0
74 2 S106 838 1374198 1083 0
74 2 S106 793 1374991 1876 0
74 2 S106 803 1375794 2679 0
74 2 S106 809 1376603 3488 0
74 2 S106 775 1377378 4263 0
74 2 S106 768 1378146 5031 0
74 2 S106 787 1378933 5818 0
74 2 S106 823 1379756 6641 0
0 0 0 811 1380567 -5894 0
0 0 0 812 1381379 -5082 0
0 0 0 792 1382171 -4290 0
0 0 0 756 1382927 -3534 0
0 0 0 725 1383652 -2809 0
0 0 0 750 1384402 -2059 0
75 1 S112 772 1385174 -1287 0
75 1 S112 751 1385925 -536 0
75 2 S112 711 1386636 175 0
75 2 S112 709 1387345 884 0
75 2 S112 744 1388089 1628 0
75 2 S112 790 1388879 2418 0
75 2 S112 770 1389649 3188 0
75 2 S112 770 1390419 3958 0
75 2 S112 759 1391178 4717 0
75 2 S112 732 1391910 5449 0
75 2 S112 715 1392625 6164 0
75 2 S112 731 1393356 6895 0
0 0 0 759 1394115 -6007 0
0 0 0 742 1394857 -5265 0
0 0 0 688 1395545 -4577 0
0 0 0 628 1396173 -3949 0
0 0 0 703 1396876 -3246 0
0 0 0 707 1397583 -2539 0
76 1 S116 768 1398351 -1771 0
76 1 S116 741 1399092 -1030 0
76 1 S116 705 1399797 -325 0
76 2 S116 700 1400497 375 0
76 2 S116 715 1401212 1090 0
76 2 S116 748 1401960 1838 0
76 2 S116 724 1402684 2562 0
76 2 S116 698 1403382 3260 0
76 2 S116 711 1404093 3971 0
76 2 S116 714 1404807 4685 0
76 2 S116 730 1405537 5415 0
76 2 S116 705 1406242 6120 0
76 2 S116 707 1406949 6827 0
0 0 0 725 1407674 -6224 0
0 0 0 749 1408423 -5475 0
0 0 0 725 1409148 -4750 0
0 0 0 722 1409870 -4028 0
0 0 0 703 1410573 -3325 0
0 0 0 708 1411281 -2617 0
77 1 S106 702 1411983 -1915 0
77 1 S106 700 1412683 -1215 0
77 1 S106 728 1413411 -487 0
77 2 S106 697 1414108 210 0
77 2 S106 648 1414756 858 0
77 2 S106 636 1415392 1494 0
77 2 S106 670 1416062 2164 0
77 2 S106 685 1416747 2849 0
77 2 S106 692 1417439 3541 0
77 2 S106 718 1418157 4259 0
77 2 S106 741 1418898 5000 0
77 2 S106 729 1419627 5729 0
77 2 S106 749 1420376 6478 0
0 0 0 759 1421135 -9110 0
0 0 0 773 1421908 -8337 0
0 0 0 756 1422664 -7581 0
0 0 0 747 1423411 -6834 0
0 0 0 740 1424151 -6094 0
0 0 0 749 1424900 -5345 0
0 0 0 745 1425645 -4600 0
0 0 0 786 1426431 -3814 0
0 0 0 798 1427229 -3016 0
0 0 0 801 1428030 -2215 0
78 1 S112 778 1428808 -1437 0
78 1 S112 817 1429625 -620 0
78 2 S112 846 1430471 226 0
78 2 S112 799 1431270 1025 0
78 2 S112 783 1432053 1808 0
78 2 S112 800 1432853 2608 0
78 2 S112 792 1433645 3400 0
78 2 S112 727 1434372 4127 0
78 2 S112 747 1435119 4874 0
78 2 S112 753 1435872 5627 0
78 2 S112 759 1436631 6386 0
0 0 0 750 1437381 -10702 0
0 0 0 785 1438166 -9917 0
0 0 0 770 1438936 -9147 0
0 0 0 741 1439677 -8406 0
0 0 0 738 1440415 -7668 0
0 0 0 718 1441133 -6950 0
0 0 0 722 1441855 -6228 0
0 0 0 713 1442568 -5515 0
0 0 0 693 1443261 -4822 0
0 0 0 671 1443932 -4151 0
0 0 0 635 1444567 -3516 0
0 0 0 594 1445161 -2922 0
0 0 0 600 1445761 -2322 0
79 1 S102 652 1446413 -1670 0
79 1 S102 648 1447061 -1022 0
79 1 S102 641 1447702 -381 0
79 2 S102 671 1448373 290 0
79 2 S102 704 1449077 994 0
79 2 S102 723 1449800 1717 0
79 2 S102 713 1450513 2430 0
79 2 S102 700 1451213 3130 0
79 2 S102 727 1451940 3857 0
79 2 S102 738 1452678 4595 0
79 2 S102 757 1453435 5352 0
79 2 S102 747 1454182 6099 0
79 2 S102 746 1454928 6845 0
0 0 0 754 1455682 -8648 0
0 0 0 763 1456445 -7885 0
0 0 0 753 1457198 -7132 0
0 0 0 766 1457964 -6366 0
0 0 0 782 1458746 -5584 0
0 0 0 795 1459541 -4789 0
0 0 0 719 1460260 -4070 0
0 0 0 682 1460942 -3388 0
0 0 0 661 1461603 -2727 0
0 0 0 638 1462241 -2089 0
80 1 S116 624 1462865 -1465 0
80 1 S116 611 1463476 -854 0
80 1 S116 603 1464079 -251 0
80 2 S116 604 1464683 353 0
80 2 S116 607 1465290 960 0
80 2 S116 613 1465903 1573 0
80 2 S116 608 1466511 2181 0
80 2 S116 601 1467112 2782 0
80 2 S116 598 1467710 3380 0
80 2 S116 592 1468302 3972 0
80 2 S116 597 1468899 4569 0
80 2 S116 601 1469500 5170 0
80 2 S116 600 1470100 5770 0
80 2 S116 593 1470693 6363 0
80 2 S116 597 1471290 6960 0
