T_0066
BeatCount Mean SD BeatCountNoOutliers MeanNoOutliers SDNoOutliers
1773 845,434856175973 92,7117055280694 1759 843,123934053439 89,2478132588539

Trial TrialStatus Trialtype IBI AbsPosition RelPosition Outlier
0 0 0 702 1041 -14809 0
0 0 0 729 1770 -14080 0
0 0 0 758 2528 -13322 0
0 0 0 758 3286 -12564 0
0 0 0 734 4020 -11830 0
0 0 0 833 4853 -10997 0
0 0 0 883 5736 -10114 0
0 0 0 881 6617 -9233 0
0 0 0 771 7388 -8462 0
0 0 0 822 8210 -7640 0
0 0 0 852 9062 -6788 0
0 0 0 893 9955 -5895 0
0 0 0 765 10720 -5130 0
0 0 0 777 11497 -4353 0
0 0 0 862 12359 -3491 0
0 0 0 851 13210 -2640 0
1 1 S112 769 13979 -1871 0
1 1 S112 761 14740 -1110 0
1 1 S112 848 15588 -262 0
1 2 S112 951 16539 689 0
1 2 S112 906 17445 1595 0
1 2 S112 788 18233 2383 0
1 2 S112 732 18965 3115 0
1 2 S112 754 19719 3869 0
1 2 S112 830 20549 4699 0
1 2 S112 903 21452 5602 0
1 2 S112 949 22401 6551 0
0 0 0 883 23284 -10537 0
0 0 0 825 24109 -9712 0
0 0 0 908 25017 -8804 0
0 0 0 870 25887 -7934 0
0 0 0 786 26673 -7148 0
0 0 0 789 27462 -6359 0
0 0 0 809 28271 -5550 0
0 0 0 874 29145 -4676 0
0 0 0 848 29993 -3828 0
0 0 0 813 30806 -3015 0
0 0 0 918 31724 -2097 0
2 1 S102 973 32697 -1124 0
2 1 S102 981 33678 -143 0
2 2 S102 829 34507 686 0
2 2 S102 759 35266 1445 0
2 2 S102 785 36051 2230 0
2 2 S102 881 36932 3111 0
2 2 S102 1005 37937 4116 0
2 2 S102 1041 38978 5157 0
2 2 S102 960 39938 6117 0
2 2 S102 830 40768 6947 0
0 0 0 886 41654 -9923 0
0 0 0 973 42627 -8950 0
0 0 0 983 43610 -7967 0
0 0 0 893 44503 -7074 0
0 0 0 880 45383 -6194 0
0 0 0 887 46270 -5307 0
0 0 0 883 47153 -4424 0
0 0 0 823 47976 -3601 0
0 0 0 823 48799 -2778 0
3 1 S116 850 49649 -1928 0
3 1 S116 878 50527 -1050 0
3 1 S116 879 51406 -171 0
3 2 S116 787 52193 616 0
3 2 S116 839 53032 1455 0
3 2 S116 930 53962 2385 0
3 2 S116 972 54934 3357 0
3 2 S116 961 55895 4318 0
3 2 S116 841 56736 5159 0
3 2 S116 886 57622 6045 0
3 2 S116 904 58526 6949 0
0 0 0 930 59456 -11601 0
0 0 0 842 60298 -10759 0
0 0 0 844 61142 -9915 0
0 0 0 910 62052 -9005 0
0 0 0 894 62946 -8111 0
0 0 0 831 63777 -7280 0
0 0 0 829 64606 -6451 0
0 0 0 851 65457 -5600 0
0 0 0 852 66309 -4748 0
0 0 0 839 67148 -3909 0
0 0 0 778 67926 -3131 0
0 0 0 756 68682 -2375 0
4 1 S106 801 69483 -1574 0
4 1 S106 904 70387 -670 0
4 2 S106 997 71384 327 0
4 2 S106 981 72365 1308 0
4 2 S106 857 73222 2165 0
4 2 S106 924 74146 3089 0
4 2 S106 967 75113 4056 0
4 2 S106 976 76089 5032 0
4 2 S106 951 77040 5983 0
4 2 S106 862 77902 6845 0
0 0 0 779 78681 -7512 0
0 0 0 840 79521 -6672 0
0 0 0 906 80427 -5766 0
0 0 0 913 81340 -4853 0
0 0 0 801 82141 -4052 0
0 0 0 829 82970 -3223 0
0 0 0 846 83816 -2377 0
5 1 S116 871 84687 -1506 0
5 1 S116 818 85505 -688 0
5 2 S116 862 86367 174 0
5 2 S116 887 87254 1061 0
5 2 S116 891 88145 1952 0
5 2 S116 794 88939 2746 0
5 2 S116 740 89679 3486 0
5 2 S116 723 90402 4209 0
5 2 S116 769 91171 4978 0
5 2 S116 896 92067 5874 0
5 2 S116 984 93051 6858 0
0 0 0 974 94025 -9260 0
0 0 0 875 94900 -8385 0
0 0 0 905 95805 -7480 0
0 0 0 913 96718 -6567 0
0 0 0 868 97586 -5699 0
0 0 0 770 98356 -4929 0
0 0 0 800 99156 -4129 0
0 0 0 828 99984 -3301 0
0 0 0 877 100861 -2424 0
6 1 S106 854 101715 -1570 0
6 1 S106 791 102506 -779 0
6 2 S106 810 103316 31 0
6 2 S106 895 104211 926 0
6 2 S106 950 105161 1876 0
6 2 S106 959 106120 2835 0
6 2 S106 912 107032 3747 0
6 2 S106 859 107891 4606 0
6 2 S106 926 108817 5532 0
6 2 S106 959 109776 6491 0
0 0 0 934 110710 -9717 0
0 0 0 837 111547 -8880 0
0 0 0 878 112425 -8002 0
0 0 0 859 113284 -7143 0
0 0 0 883 114167 -6260 0
0 0 0 798 114965 -5462 0
0 0 0 753 115718 -4709 0
0 0 0 733 116451 -3976 0
0 0 0 708 117159 -3268 0
0 0 0 858 118017 -2410 0
7 1 S102 883 118900 -1527 0
7 1 S102 876 119776 -651 0
7 2 S102 783 120559 132 0
7 2 S102 748 121307 880 0
7 2 S102 759 122066 1639 0
7 2 S102 772 122838 2411 0
7 2 S102 779 123617 3190 0
7 2 S102 786 124403 3976 0
7 2 S102 789 125192 4765 0
7 2 S102 792 125984 5557 0
7 2 S102 790 126774 6347 0
0 0 0 780 127554 -8125 0
0 0 0 790 128344 -7335 0
0 0 0 785 129129 -6550 0
0 0 0 727 129856 -5823 0
0 0 0 713 130569 -5110 0
0 0 0 759 131328 -4351 0
0 0 0 806 132134 -3545 0
0 0 0 919 133053 -2626 0
8 1 S112 944 133997 -1682 0
8 1 S112 918 134915 -764 0
8 2 S112 809 135724 45 0
8 2 S112 754 136478 799 0
8 2 S112 765 137243 1564 0
8 2 S112 808 138051 2372 0
8 2 S112 850 138901 3222 0
8 2 S112 846 139747 4068 0
8 2 S112 863 140610 4931 0
8 2 S112 850 141460 5781 0
8 2 S112 758 142218 6539 0
0 0 0 714 142932 -7071 0
0 0 0 703 143635 -6368 0
0 0 0 733 144368 -5635 0
0 0 0 783 145151 -4852 0
0 0 0 798 145949 -4054 0
0 0 0 798 146747 -3256 0
0 0 0 774 147521 -2482 0
9 1 S116 738 148259 -1744 0
9 1 S116 748 149007 -996 0
9 1 S116 750 149757 -246 0
9 2 S116 768 150525 522 0
9 2 S116 801 151326 1323 0
9 2 S116 819 152145 2142 0
9 2 S116 775 152920 2917 0
9 2 S116 715 153635 3632 0
9 2 S116 689 154324 4321 0
9 2 S116 704 155028 5025 0
9 2 S116 780 155808 5805 0
9 2 S116 861 156669 6666 0
0 0 0 902 157571 -10967 0
0 0 0 919 158490 -10048 0
0 0 0 886 159376 -9162 0
0 0 0 824 160200 -8338 0
0 0 0 791 160991 -7547 0
0 0 0 774 161765 -6773 0
0 0 0 739 162504 -6034 0
0 0 0 712 163216 -5322 0
0 0 0 685 163901 -4637 0
0 0 0 693 164594 -3944 0
0 0 0 762 165356 -3182 0
0 0 0 814 166170 -2368 0
10 1 S102 843 167013 -1525 0
10 1 S102 839 167852 -686 0
10 2 S102 768 168620 82 0
10 2 S102 746 169366 828 0
10 2 S102 738 170104 1566 0
10 2 S102 772 170876 2338 0
10 2 S102 828 171704 3166 0
10 2 S102 880 172584 4046 0
10 2 S102 897 173481 4943 0
10 2 S102 775 174256 5718 0
10 2 S102 736 174992 6454 0
0 0 0 755 175747 -11740 0
0 0 0 801 176548 -10939 0
0 0 0 912 177460 -10027 0
0 0 0 901 178361 -9126 0
0 0 0 831 179192 -8295 0
0 0 0 772 179964 -7523 0
0 0 0 786 180750 -6737 0
0 0 0 788 181538 -5949 0
0 0 0 792 182330 -5157 0
0 0 0 739 183069 -4418 0
0 0 0 757 183826 -3661 0
0 0 0 769 184595 -2892 0
0 0 0 784 185379 -2108 0
11 1 S112 791 186170 -1317 0
11 1 S112 760 186930 -557 0
11 2 S112 745 187675 188 0
11 2 S112 796 188471 984 0
11 2 S112 827 189298 1811 0
11 2 S112 814 190112 2625 0
11 2 S112 814 190926 3439 0
11 2 S112 730 191656 4169 0
11 2 S112 697 192353 4866 0
11 2 S112 698 193051 5564 0
11 2 S112 756 193807 6320 0
0 0 0 841 194648 -6930 0
0 0 0 925 195573 -6005 0
0 0 0 896 196469 -5109 0
0 0 0 791 197260 -4318 0
0 0 0 826 198086 -3492 0
0 0 0 804 198890 -2688 0
12 1 S116 802 199692 -1886 0
12 1 S116 738 200430 -1148 0
12 1 S116 736 201166 -412 0
12 2 S116 772 201938 360 0
12 2 S116 858 202796 1218 0
12 2 S116 902 203698 2120 0
12 2 S116 884 204582 3004 0
12 2 S116 776 205358 3780 0
12 2 S116 750 206108 4530 0
12 2 S116 786 206894 5316 0
12 2 S116 823 207717 6139 0
12 2 S116 848 208565 6987 0
0 0 0 909 209474 -10788 0
0 0 0 823 210297 -9965 0
0 0 0 789 211086 -9176 0
0 0 0 824 211910 -8352 0
0 0 0 806 212716 -7546 0
0 0 0 767 213483 -6779 0
0 0 0 748 214231 -6031 0
0 0 0 780 215011 -5251 0
0 0 0 813 215824 -4438 0
0 0 0 842 216666 -3596 0
0 0 0 843 217509 -2753 0
13 1 S112 787 218296 -1966 0
13 1 S112 818 219114 -1148 0
13 1 S112 860 219974 -288 0
13 2 S112 912 220886 624 0
13 2 S112 940 221826 1564 0
13 2 S112 886 222712 2450 0
13 2 S112 782 223494 3232 0
13 2 S112 766 224260 3998 0
13 2 S112 807 225067 4805 0
13 2 S112 902 225969 5707 0
13 2 S112 972 226941 6679 0
0 0 0 994 227935 -11127 0
0 0 0 899 228834 -10228 0
0 0 0 864 229698 -9364 0
0 0 0 887 230585 -8477 0
0 0 0 852 231437 -7625 0
0 0 0 795 232232 -6830 0
0 0 0 794 233026 -6036 0
0 0 0 832 233858 -5204 0
0 0 0 874 234732 -4330 0
0 0 0 879 235611 -3451 0
0 0 0 798 236409 -2653 0
14 1 S106 840 237249 -1813 0
14 1 S106 882 238131 -931 0
14 1 S106 914 239045 -17 0
14 2 S106 863 239908 846 0
14 2 S106 773 240681 1619 0
14 2 S106 805 241486 2424 0
14 2 S106 943 242429 3367 0
14 2 S106 1011 243440 4378 0
14 2 S106 954 244394 5332 0
14 2 S106 813 245207 6145 0
14 2 S106 785 245992 6930 0
0 0 0 728 246720 -11971 0
0 0 0 709 247429 -11262 0
0 0 0 656 248085 -10606 0
0 0 0 638 248723 -9968 0
0 0 0 662 249385 -9306 0
0 0 0 652 250037 -8654 0
0 0 0 667 250704 -7987 0
0 0 0 692 251396 -7295 0
0 0 0 719 252115 -6576 0
0 0 0 721 252836 -5855 0
0 0 0 690 253526 -5165 0
0 0 0 716 254242 -4449 0
0 0 0 719 254961 -3730 0
0 0 0 748 255709 -2982 0
0 0 0 763 256472 -2219 0
15 1 S116 704 257176 -1515 0
15 1 S116 676 257852 -839 0
15 1 S116 669 258521 -170 0
15 2 S116 755 259276 585 0
15 2 S116 913 260189 1498 0
15 2 S116 906 261095 2404 0
15 2 S116 966 262061 3370 0
15 2 S116 974 263035 4344 0
15 2 S116 941 263976 5285 0
15 2 S116 885 264861 6170 0
0 0 0 860 265721 -9930 0
0 0 0 790 266511 -9140 0
0 0 0 829 267340 -8311 0
0 0 0 870 268210 -7441 0
0 0 0 915 269125 -6526 0
0 0 0 876 270001 -5650 0
0 0 0 852 270853 -4798 0
0 0 0 782 271635 -4016 0
0 0 0 781 272416 -3235 0
0 0 0 835 273251 -2400 0
16 1 S116 900 274151 -1500 0
16 1 S116 937 275088 -563 0
16 2 S116 896 275984 333 0
16 2 S116 827 276811 1160 0
16 2 S116 775 277586 1935 0
16 2 S116 734 278320 2669 0
16 2 S116 737 279057 3406 0
16 2 S116 752 279809 4158 0
16 2 S116 766 280575 4924 0
16 2 S116 802 281377 5726 0
16 2 S116 798 282175 6524 0
0 0 0 836 283011 -8389 0
0 0 0 883 283894 -7506 0
0 0 0 882 284776 -6624 0
0 0 0 770 285546 -5854 0
0 0 0 782 286328 -5072 0
0 0 0 796 287124 -4276 0
0 0 0 826 287950 -3450 0
0 0 0 820 288770 -2630 0
17 1 S106 782 289552 -1848 0
17 1 S106 858 290410 -990 0
17 1 S106 893 291303 -97 0
17 2 S106 891 292194 794 0
17 2 S106 788 292982 1582 0
17 2 S106 755 293737 2337 0
17 2 S106 764 294501 3101 0
17 2 S106 844 295345 3945 0
17 2 S106 996 296341 4941 0
17 2 S106 979 297320 5920 0
17 2 S106 932 298252 6852 0
0 0 0 880 299132 -9808 0
0 0 0 925 300057 -8883 0
0 0 0 882 300939 -8001 0
0 0 0 798 301737 -7203 0
0 0 0 808 302545 -6395 0
0 0 0 858 303403 -5537 0
0 0 0 897 304300 -4640 0
0 0 0 886 305186 -3754 0
0 0 0 808 305994 -2946 0
0 0 0 762 306756 -2184 0
18 1 S102 787 307543 -1397 0
18 1 S102 832 308375 -565 0
18 2 S102 900 309275 335 0
18 2 S102 956 310231 1291 0
18 2 S102 906 311137 2197 0
18 2 S102 826 311963 3023 0
18 2 S102 815 312778 3838 0
18 2 S102 851 313629 4689 0
18 2 S102 925 314554 5614 0
18 2 S102 942 315496 6556 0
0 0 0 960 316456 -6493 0
0 0 0 886 317342 -5607 0
0 0 0 837 318179 -4770 0
0 0 0 802 318981 -3968 0
0 0 0 798 319779 -3170 0
0 0 0 787 320566 -2383 0
19 1 S106 741 321307 -1642 0
19 1 S106 778 322085 -864 0
19 1 S106 797 322882 -67 0
19 2 S106 856 323738 789 0
19 2 S106 770 324508 1559 0
19 2 S106 746 325254 2305 0
19 2 S106 764 326018 3069 0
19 2 S106 886 326904 3955 0
19 2 S106 970 327874 4925 0
19 2 S106 996 328870 5921 0
19 2 S106 965 329835 6886 0
0 0 0 913 330748 -12194 0
0 0 0 798 331546 -11396 0
0 0 0 857 332403 -10539 0
0 0 0 895 333298 -9644 0
0 0 0 880 334178 -8764 0
0 0 0 828 335006 -7936 0
0 0 0 768 335774 -7168 0
0 0 0 743 336517 -6425 0
0 0 0 722 337239 -5703 0
0 0 0 694 337933 -5009 0
0 0 0 661 338594 -4348 0
0 0 0 670 339264 -3678 0
0 0 0 700 339964 -2978 0
0 0 0 724 340688 -2254 0
20 1 S112 796 341484 -1458 0
20 1 S112 850 342334 -608 0
20 2 S112 865 343199 257 0
20 2 S112 788 343987 1045 0
20 2 S112 808 344795 1853 0
20 2 S112 825 345620 2678 0
20 2 S112 861 346481 3539 0
20 2 S112 851 347332 4390 0
20 2 S112 754 348086 5144 0
20 2 S112 785 348871 5929 0
20 2 S112 819 349690 6748 0
0 0 0 888 350578 -8263 0
0 0 0 844 351422 -7419 0
0 0 0 819 352241 -6600 0
0 0 0 820 353061 -5780 0
0 0 0 846 353907 -4934 0
0 0 0 774 354681 -4160 0
0 0 0 776 355457 -3384 0
0 0 0 836 356293 -2548 0
21 1 S106 912 357205 -1636 0
21 1 S106 815 358020 -821 0
21 1 S106 753 358773 -68 0
21 2 S106 744 359517 676 0
21 2 S106 798 360315 1474 0
21 2 S106 955 361270 2429 0
21 2 S106 1021 362291 3450 0
21 2 S106 1040 363331 4490 0
21 2 S106 1013 364344 5503 0
21 2 S106 884 365228 6387 0
0 0 0 919 366147 -11345 0
0 0 0 936 367083 -10409 0
0 0 0 972 368055 -9437 0
0 0 0 911 368966 -8526 0
0 0 0 839 369805 -7687 0
0 0 0 905 370710 -6782 0
0 0 0 959 371669 -5823 0
0 0 0 959 372628 -4864 0
0 0 0 829 373457 -4035 0
0 0 0 822 374279 -3213 0
0 0 0 889 375168 -2324 0
22 1 S116 932 376100 -1392 0
22 1 S116 964 377064 -428 0
22 2 S116 865 377929 437 0
22 2 S116 946 378875 1383 0
22 2 S116 995 379870 2378 0
22 2 S116 1013 380883 3391 0
22 2 S116 874 381757 4265 0
22 2 S116 853 382610 5118 0
22 2 S116 930 383540 6048 0
0 0 0 989 384529 -9525 0
0 0 0 1007 385536 -8518 0
0 0 0 856 386392 -7662 0
0 0 0 860 387252 -6802 0
0 0 0 878 388130 -5924 0
0 0 0 890 389020 -5034 0
0 0 0 868 389888 -4166 0
0 0 0 805 390693 -3361 0
0 0 0 878 391571 -2483 0
23 1 S112 880 392451 -1603 0
23 1 S112 912 393363 -691 0
23 2 S112 805 394168 114 0
23 2 S112 865 395033 979 0
23 2 S112 884 395917 1863 0
23 2 S112 884 396801 2747 0
23 2 S112 789 397590 3536 0
23 2 S112 741 398331 4277 0
23 2 S112 727 399058 5004 0
23 2 S112 788 399846 5792 0
23 2 S112 877 400723 6669 0
0 0 0 949 401672 -7965 0
0 0 0 950 402622 -7015 0
0 0 0 806 403428 -6209 0
0 0 0 829 404257 -5380 0
0 0 0 836 405093 -4544 0
0 0 0 865 405958 -3679 0
0 0 0 876 406834 -2803 0
24 1 S106 808 407642 -1995 0
24 1 S106 852 408494 -1143 0
24 1 S106 898 409392 -245 0
24 2 S106 917 410309 672 0
24 2 S106 920 411229 1592 0
24 2 S106 818 412047 2410 0
24 2 S106 806 412853 3216 0
24 2 S106 866 413719 4082 0
24 2 S106 998 414717 5080 0
24 2 S106 1027 415744 6107 0
0 0 0 1010 416754 -8898 0
0 0 0 889 417643 -8009 0
0 0 0 965 418608 -7044 0
0 0 0 918 419526 -6126 0
0 0 0 862 420388 -5264 0
0 0 0 773 421161 -4491 0
0 0 0 713 421874 -3778 0
0 0 0 699 422573 -3079 0
0 0 0 686 423259 -2393 0
25 1 S102 709 423968 -1684 0
25 1 S102 796 424764 -888 0
25 2 S102 892 425656 4 0
25 2 S102 863 426519 867 0
25 2 S102 785 427304 1652 0
25 2 S102 822 428126 2474 0
25 2 S102 882 429008 3356 0
25 2 S102 881 429889 4237 0
25 2 S102 831 430720 5068 0
25 2 S102 771 431491 5839 0
25 2 S102 827 432318 6666 0
0 0 0 846 433164 -6563 0
0 0 0 898 434062 -5665 0
0 0 0 833 434895 -4832 0
0 0 0 786 435681 -4046 0
0 0 0 808 436489 -3238 0
0 0 0 813 437302 -2425 0
26 1 S116 782 438084 -1643 0
26 1 S116 751 438835 -892 0
26 1 S116 792 439627 -100 0
26 2 S116 821 440448 721 0
26 2 S116 849 441297 1570 0
26 2 S116 775 442072 2345 0
26 2 S116 780 442852 3125 0
26 2 S116 832 443684 3957 0
26 2 S116 857 444541 4814 0
26 2 S116 870 445411 5684 0
26 2 S116 826 446237 6510 0
0 0 0 790 447027 -7753 0
0 0 0 845 447872 -6908 0
0 0 0 885 448757 -6023 0
0 0 0 862 449619 -5161 0
0 0 0 789 450408 -4372 0
0 0 0 812 451220 -3560 0
0 0 0 808 452028 -2752 0
27 1 S106 752 452780 -2000 0
27 1 S106 733 453513 -1267 0
27 1 S106 714 454227 -553 0
27 2 S106 662 454889 109 0
27 2 S106 636 455525 745 0
27 2 S106 629 456154 1374 0
27 2 S106 638 456792 2012 0
27 2 S106 638 457430 2650 0
27 2 S106 667 458097 3317 0
27 2 S106 692 458789 4009 0
27 2 S106 731 459520 4740 0
27 2 S106 740 460260 5480 0
27 2 S106 708 460968 6188 0
27 2 S106 691 461659 6879 0
0 0 0 705 462364 -6160 0
0 0 0 729 463093 -5431 0
0 0 0 776 463869 -4655 0
0 0 0 724 464593 -3931 0
0 0 0 683 465276 -3248 0
0 0 0 697 465973 -2551 0
28 1 S102 751 466724 -1800 0
28 1 S102 795 467519 -1005 0
28 1 S102 857 468376 -148 0
28 2 S102 757 469133 609 0
28 2 S102 744 469877 1353 0
28 2 S102 753 470630 2106 0
28 2 S102 845 471475 2951 0
28 2 S102 914 472389 3865 0
28 2 S102 883 473272 4748 0
28 2 S102 796 474068 5544 0
28 2 S102 751 474819 6295 0
0 0 0 785 475604 -10924 0
0 0 0 835 476439 -10089 0
0 0 0 909 477348 -9180 0
0 0 0 808 478156 -8372 0
0 0 0 793 478949 -7579 0
0 0 0 830 479779 -6749 0
0 0 0 864 480643 -5885 0
0 0 0 833 481476 -5052 0
0 0 0 763 482239 -4289 0
0 0 0 797 483036 -3492 0
0 0 0 866 483902 -2626 0
29 1 S112 919 484821 -1707 0
29 1 S112 907 485728 -800 0
29 2 S112 805 486533 5 0
29 2 S112 869 487402 874 0
29 2 S112 947 488349 1821 0
29 2 S112 960 489309 2781 0
29 2 S112 870 490179 3651 0
29 2 S112 891 491070 4542 0
29 2 S112 915 491985 5457 0
29 2 S112 942 492927 6399 0
0 0 0 865 493792 -6827 0
0 0 0 786 494578 -6041 0
0 0 0 856 495434 -5185 0
0 0 0 866 496300 -4319 0
0 0 0 848 497148 -3471 0
0 0 0 802 497950 -2669 0
30 1 S112 913 498863 -1756 0
30 1 S112 954 499817 -802 0
30 2 S112 923 500740 121 0
30 2 S112 805 501545 926 0
30 2 S112 898 502443 1824 0
30 2 S112 934 503377 2758 0
30 2 S112 965 504342 3723 0
30 2 S112 872 505214 4595 0
30 2 S112 893 506107 5488 0
30 2 S112 942 507049 6430 0
0 0 0 951 508000 -8568 0
0 0 0 876 508876 -7692 0
0 0 0 876 509752 -6816 0
0 0 0 898 510650 -5918 0
0 0 0 915 511565 -5003 0
0 0 0 819 512384 -4184 0
0 0 0 899 513283 -3285 0
0 0 0 889 514172 -2396 0
31 1 S106 813 514985 -1583 0
31 1 S106 793 515778 -790 0
31 2 S106 870 516648 80 0
31 2 S106 933 517581 1013 0
31 2 S106 869 518450 1882 0
31 2 S106 786 519236 2668 0
31 2 S106 799 520035 3467 0
31 2 S106 900 520935 4367 0
31 2 S106 951 521886 5318 0
31 2 S106 995 522881 6313 0
0 0 0 970 523851 -10588 0
0 0 0 840 524691 -9748 0
0 0 0 944 525635 -8804 0
0 0 0 981 526616 -7823 0
0 0 0 941 527557 -6882 0
0 0 0 831 528388 -6051 0
0 0 0 863 529251 -5188 0
0 0 0 850 530101 -4338 0
0 0 0 787 530888 -3551 0
0 0 0 768 531656 -2783 0
32 1 S102 816 532472 -1967 0
32 1 S102 877 533349 -1090 0
32 1 S102 922 534271 -168 0
32 2 S102 825 535096 657 0
32 2 S102 884 535980 1541 0
32 2 S102 922 536902 2463 0
32 2 S102 933 537835 3396 0
32 2 S102 895 538730 4291 0
32 2 S102 797 539527 5088 0
32 2 S102 889 540416 5977 0
32 2 S102 934 541350 6911 0
0 0 0 959 542309 -10267 0
0 0 0 864 543173 -9403 0
0 0 0 901 544074 -8502 0
0 0 0 891 544965 -7611 0
0 0 0 854 545819 -6757 0
0 0 0 785 546604 -5972 0
0 0 0 789 547393 -5183 0
0 0 0 749 548142 -4434 0
0 0 0 706 548848 -3728 0
0 0 0 716 549564 -3012 0
0 0 0 732 550296 -2280 0
33 1 S112 757 551053 -1523 0
33 1 S112 889 551942 -634 0
33 2 S112 944 552886 310 0
33 2 S112 905 553791 1215 0
33 2 S112 786 554577 2001 0
33 2 S112 834 555411 2835 0
33 2 S112 878 556289 3713 0
33 2 S112 902 557191 4615 0
33 2 S112 814 558005 5429 0
33 2 S112 776 558781 6205 0
0 0 0 847 559628 -10969 0
0 0 0 898 560526 -10071 0
0 0 0 919 561445 -9152 0
0 0 0 823 562268 -8329 0
0 0 0 882 563150 -7447 0
0 0 0 904 564054 -6543 0
0 0 0 871 564925 -5672 0
0 0 0 793 565718 -4879 0
0 0 0 852 566570 -4027 0
0 0 0 888 567458 -3139 0
0 0 0 917 568375 -2222 0
34 1 S106 823 569198 -1399 0
34 1 S106 844 570042 -555 0
34 2 S106 922 570964 367 0
34 2 S106 985 571949 1352 0
34 2 S106 962 572911 2314 0
34 2 S106 867 573778 3181 0
34 2 S106 932 574710 4113 0
34 2 S106 1025 575735 5138 0
34 2 S106 1063 576798 6201 0
0 0 0 1000 577798 -9195 0
0 0 0 849 578647 -8346 0
0 0 0 881 579528 -7465 0
0 0 0 942 580470 -6523 0
0 0 0 936 581406 -5587 0
0 0 0 840 582246 -4747 0
0 0 0 907 583153 -3840 0
0 0 0 918 584071 -2922 0
0 0 0 906 584977 -2016 0
35 1 S102 846 585823 -1170 0
35 1 S102 931 586754 -239 0
35 2 S102 965 587719 726 0
35 2 S102 854 588573 1580 0
35 2 S102 877 589450 2457 0
35 2 S102 927 590377 3384 0
35 2 S102 923 591300 4307 0
35 2 S102 830 592130 5137 0
35 2 S102 864 592994 6001 0
35 2 S102 895 593889 6896 0
0 0 0 905 594794 -7501 0
0 0 0 822 595616 -6679 0
0 0 0 846 596462 -5833 0
0 0 0 916 597378 -4917 0
0 0 0 892 598270 -4025 0
0 0 0 810 599080 -3215 0
0 0 0 790 599870 -2425 0
36 1 S106 821 600691 -1604 0
36 1 S106 869 601560 -735 0
36 2 S106 816 602376 81 0
36 2 S106 800 603176 881 0
36 2 S106 856 604032 1737 0
36 2 S106 864 604896 2601 0
36 2 S106 830 605726 3431 0
36 2 S106 758 606484 4189 0
36 2 S106 758 607242 4947 0
36 2 S106 832 608074 5779 0
36 2 S106 896 608970 6675 0
0 0 0 963 609933 -9288 0
0 0 0 929 610862 -8359 0
0 0 0 812 611674 -7547 0
0 0 0 870 612544 -6677 0
0 0 0 888 613432 -5789 0
0 0 0 868 614300 -4921 0
0 0 0 777 615077 -4144 0
0 0 0 792 615869 -3352 0
0 0 0 871 616740 -2481 0
37 1 S116 927 617667 -1554 0
37 1 S116 927 618594 -627 0
37 2 S116 860 619454 233 0
37 2 S116 764 620218 997 0
37 2 S116 791 621009 1788 0
37 2 S116 860 621869 2648 0
37 2 S116 965 622834 3613 0
37 2 S116 934 623768 4547 0
37 2 S116 859 624627 5406 0
37 2 S116 931 625558 6337 0
0 0 0 930 626488 -11251 0
0 0 0 931 627419 -10320 0
0 0 0 817 628236 -9503 0
0 0 0 879 629115 -8624 0
0 0 0 877 629992 -7747 0
0 0 0 864 630856 -6883 0
0 0 0 770 631626 -6113 0
0 0 0 795 632421 -5318 0
0 0 0 826 633247 -4492 0
0 0 0 864 634111 -3628 0
0 0 0 795 634906 -2833 0
0 0 0 799 635705 -2034 0
38 1 S102 897 636602 -1137 0
38 1 S102 939 637541 -198 0
38 2 S102 965 638506 767 0
38 2 S102 840 639346 1607 0
38 2 S102 777 640123 2384 0
38 2 S102 728 640851 3112 0
38 2 S102 704 641555 3816 0
38 2 S102 829 642384 4645 0
38 2 S102 1010 643394 5655 0
38 2 S102 971 644365 6626 0
0 0 0 979 645344 -9919 0
0 0 0 997 646341 -8922 0
0 0 0 976 647317 -7946 0
0 0 0 920 648237 -7026 0
0 0 0 859 649096 -6167 0
0 0 0 767 649863 -5400 0
0 0 0 782 650645 -4618 0
0 0 0 765 651410 -3853 0
0 0 0 806 652216 -3047 0
0 0 0 833 653049 -2214 0
39 1 S116 861 653910 -1353 0
39 1 S116 875 654785 -478 0
39 2 S116 831 655616 353 0
39 2 S116 781 656397 1134 0
39 2 S116 811 657208 1945 0
39 2 S116 871 658079 2816 0
39 2 S116 937 659016 3753 0
39 2 S116 938 659954 4691 0
39 2 S116 897 660851 5588 0
39 2 S116 795 661646 6383 0
0 0 0 810 662456 -7197 0
0 0 0 852 663308 -6345 0
0 0 0 856 664164 -5489 0
0 0 0 849 665013 -4640 0
0 0 0 750 665763 -3890 0
0 0 0 775 666538 -3115 0
0 0 0 797 667335 -2318 0
40 1 S112 806 668141 -1512 0
40 1 S112 791 668932 -721 0
40 2 S112 740 669672 19 0
40 2 S112 773 670445 792 0
40 2 S112 790 671235 1582 0
40 2 S112 806 672041 2388 0
40 2 S112 774 672815 3162 0
40 2 S112 786 673601 3948 0
40 2 S112 839 674440 4787 0
40 2 S112 902 675342 5689 0
40 2 S112 819 676161 6508 0
0 0 0 766 676927 -187224 0
0 0 0 823 677750 -186401 0
0 0 0 855 678605 -185546 0
0 0 0 910 679515 -184636 0
0 0 0 792 680307 -183844 0
0 0 0 792 681099 -183052 0
0 0 0 815 681914 -182237 0
0 0 0 842 682756 -181395 0
0 0 0 752 683508 -180643 0
0 0 0 742 684250 -179901 0
0 0 0 704 684954 -179197 0
0 0 0 663 685617 -178534 0
0 0 0 652 686269 -177882 0
0 0 0 656 686925 -177226 0
0 0 0 647 687572 -176579 0
0 0 0 644 688216 -175935 0
0 0 0 636 688852 -175299 0
0 0 0 640 689492 -174659 0
0 0 0 658 690150 -174001 0
0 0 0 662 690812 -173339 0
0 0 0 676 691488 -172663 0
0 0 0 660 692148 -172003 0
0 0 0 655 692803 -171348 0
0 0 0 655 693458 -170693 0
0 0 0 669 694127 -170024 0
0 0 0 692 694819 -169332 0
0 0 0 682 695501 -168650 0
0 0 0 666 696167 -167984 0
0 0 0 681 696848 -167303 0
0 0 0 687 697535 -166616 0
0 0 0 680 698215 -165936 0
0 0 0 679 698894 -165257 0
0 0 0 666 699560 -164591 0
0 0 0 653 700213 -163938 0
0 0 0 659 700872 -163279 0
0 0 0 691 701563 -162588 0
0 0 0 706 702269 -161882 0
0 0 0 725 702994 -161157 0
0 0 0 724 703718 -160433 0
0 0 0 703 704421 -159730 0
0 0 0 728 705149 -159002 0
0 0 0 750 705899 -158252 0
0 0 0 765 706664 -157487 0
0 0 0 775 707439 -156712 0
0 0 0 713 708152 -155999 0
0 0 0 702 708854 -155297 0
0 0 0 723 709577 -154574 0
0 0 0 750 710327 -153824 0
0 0 0 809 711136 -153015 0
0 0 0 882 712018 -152133 0
0 0 0 782 712800 -151351 0
0 0 0 778 713578 -150573 0
0 0 0 805 714383 -149768 0
0 0 0 834 715217 -148934 0
0 0 0 823 716040 -148111 0
0 0 0 770 716810 -147341 0
0 0 0 764 717574 -146577 0
0 0 0 772 718346 -145805 0
0 0 0 787 719133 -145018 0
0 0 0 793 719926 -144225 0
0 0 0 748 720674 -143477 0
0 0 0 752 721426 -142725 0
0 0 0 752 722178 -141973 0
0 0 0 767 722945 -141206 0
0 0 0 728 723673 -140478 0
0 0 0 779 724452 -139699 0
0 0 0 795 725247 -138904 0
0 0 0 806 726053 -138098 0
0 0 0 753 726806 -137345 0
0 0 0 776 727582 -136569 0
0 0 0 768 728350 -135801 0
0 0 0 716 729066 -135085 0
0 0 0 678 729744 -134407 0
0 0 0 1317 731061 -133090 1
0 0 0 726 731787 -132364 0
0 0 0 695 732482 -131669 0
0 0 0 695 733177 -130974 0
0 0 0 724 733901 -130250 0
0 0 0 827 734728 -129423 0
0 0 0 888 735616 -128535 0
0 0 0 905 736521 -127630 0
0 0 0 863 737384 -126767 0
0 0 0 828 738212 -125939 0
0 0 0 776 738988 -125163 0
0 0 0 732 739720 -124431 0
0 0 0 693 740413 -123738 0
0 0 0 684 741097 -123054 0
0 0 0 685 741782 -122369 0
0 0 0 676 742458 -121693 0
0 0 0 682 743140 -121011 0
0 0 0 648 743788 -120363 0
0 0 0 667 744455 -119696 0
0 0 0 641 745096 -119055 0
0 0 0 639 745735 -118416 0
0 0 0 655 746390 -117761 0
0 0 0 658 747048 -117103 0
0 0 0 653 747701 -116450 0
0 0 0 635 748336 -115815 0
0 0 0 640 748976 -115175 0
0 0 0 639 749615 -114536 0
0 0 0 629 750244 -113907 0
0 0 0 640 750884 -113267 0
0 0 0 664 751548 -112603 0
0 0 0 686 752234 -111917 0
0 0 0 736 752970 -111181 0
0 0 0 703 753673 -110478 0
0 0 0 747 754420 -109731 0
0 0 0 760 755180 -108971 0
0 0 0 785 755965 -108186 0
0 0 0 734 756699 -107452 0
0 0 0 719 757418 -106733 0
0 0 0 741 758159 -105992 0
0 0 0 764 758923 -105228 0
0 0 0 790 759713 -104438 0
0 0 0 735 760448 -103703 0
0 0 0 786 761234 -102917 0
0 0 0 808 762042 -102109 0
0 0 0 836 762878 -101273 0
0 0 0 770 763648 -100503 0
0 0 0 794 764442 -99709 0
0 0 0 838 765280 -98871 0
0 0 0 880 766160 -97991 0
0 0 0 793 766953 -97198 0
0 0 0 860 767813 -96338 0
0 0 0 942 768755 -95396 0
0 0 0 984 769739 -94412 0
0 0 0 934 770673 -93478 0
0 0 0 911 771584 -92567 0
0 0 0 953 772537 -91614 0
0 0 0 937 773474 -90677 0
0 0 0 807 774281 -89870 0
0 0 0 836 775117 -89034 0
0 0 0 879 775996 -88155 0
0 0 0 1082 777078 -87073 0
0 0 0 907 777985 -86166 0
0 0 0 889 778874 -85277 0
0 0 0 1014 779888 -84263 0
0 0 0 1029 780917 -83234 0
0 0 0 884 781801 -82350 0
0 0 0 963 782764 -81387 0
0 0 0 1058 783822 -80329 0
0 0 0 932 784754 -79397 0
0 0 0 917 785671 -78480 0
0 0 0 1034 786705 -77446 0
0 0 0 1059 787764 -76387 0
0 0 0 917 788681 -75470 0
0 0 0 1034 789715 -74436 0
0 0 0 1048 790763 -73388 0
0 0 0 979 791742 -72409 0
0 0 0 887 792629 -71522 0
0 0 0 960 793589 -70562 0
0 0 0 982 794571 -69580 0
0 0 0 852 795423 -68728 0
0 0 0 803 796226 -67925 0
0 0 0 850 797076 -67075 0
0 0 0 919 797995 -66156 0
0 0 0 851 798846 -65305 0
0 0 0 840 799686 -64465 0
0 0 0 912 800598 -63553 0
0 0 0 888 801486 -62665 0
0 0 0 831 802317 -61834 0
0 0 0 748 803065 -61086 0
0 0 0 762 803827 -60324 0
0 0 0 748 804575 -59576 0
0 0 0 740 805315 -58836 0
0 0 0 702 806017 -58134 0
0 0 0 697 806714 -57437 0
0 0 0 692 807406 -56745 0
0 0 0 681 808087 -56064 0
0 0 0 789 808876 -55275 0
0 0 0 1098 809974 -54177 1
0 0 0 1038 811012 -53139 0
0 0 0 959 811971 -52180 0
0 0 0 979 812950 -51201 0
0 0 0 900 813850 -50301 0
0 0 0 792 814642 -49509 0
0 0 0 779 815421 -48730 0
0 0 0 780 816201 -47950 0
0 0 0 768 816969 -47182 0
0 0 0 790 817759 -46392 0
0 0 0 794 818553 -45598 0
0 0 0 735 819288 -44863 0
0 0 0 769 820057 -44094 0
0 0 0 787 820844 -43307 0
0 0 0 820 821664 -42487 0
0 0 0 819 822483 -41668 0
0 0 0 781 823264 -40887 0
0 0 0 856 824120 -40031 0
0 0 0 866 824986 -39165 0
0 0 0 947 825933 -38218 0
0 0 0 838 826771 -37380 0
0 0 0 902 827673 -36478 0
0 0 0 949 828622 -35529 0
0 0 0 845 829467 -34684 0
0 0 0 860 830327 -33824 0
0 0 0 941 831268 -32883 0
0 0 0 964 832232 -31919 0
0 0 0 813 833045 -31106 0
0 0 0 857 833902 -30249 0
0 0 0 917 834819 -29332 0
0 0 0 957 835776 -28375 0
0 0 0 832 836608 -27543 0
0 0 0 919 837527 -26624 0
0 0 0 954 838481 -25670 0
0 0 0 854 839335 -24816 0
0 0 0 803 840138 -24013 0
0 0 0 864 841002 -23149 0
0 0 0 867 841869 -22282 0
0 0 0 873 842742 -21409 0
0 0 0 777 843519 -20632 0
0 0 0 857 844376 -19775 0
0 0 0 901 845277 -18874 0
0 0 0 939 846216 -17935 0
0 0 0 784 847000 -17151 0
0 0 0 743 847743 -16408 0
0 0 0 743 848486 -15665 0
0 0 0 811 849297 -14854 0
0 0 0 909 850206 -13945 0
0 0 0 1008 851214 -12937 0
0 0 0 976 852190 -11961 0
0 0 0 857 853047 -11104 0
0 0 0 969 854016 -10135 0
0 0 0 1011 855027 -9124 0
0 0 0 945 855972 -8179 0
0 0 0 826 856798 -7353 0
0 0 0 857 857655 -6496 0
0 0 0 932 858587 -5564 0
0 0 0 1147 859734 -4417 1
0 0 0 918 860652 -3499 0
0 0 0 820 861472 -2679 0
41 1 S102 811 862283 -1868 0
41 1 S102 759 863042 -1109 0
41 1 S102 707 863749 -402 0
41 2 S102 713 864462 311 0
41 2 S102 735 865197 1046 0
41 2 S102 715 865912 1761 0
41 2 S102 807 866719 2568 0
41 2 S102 839 867558 3407 0
41 2 S102 873 868431 4280 0
41 2 S102 790 869221 5070 0
41 2 S102 740 869961 5810 0
41 2 S102 718 870679 6528 0
0 0 0 724 871403 -7685 0
0 0 0 831 872234 -6854 0
0 0 0 908 873142 -5946 0
0 0 0 929 874071 -5017 0
0 0 0 862 874933 -4155 0
0 0 0 762 875695 -3393 0
0 0 0 785 876480 -2608 0
42 1 S112 795 877275 -1813 0
42 1 S112 820 878095 -993 0
42 1 S112 802 878897 -191 0
42 2 S112 741 879638 550 0
42 2 S112 709 880347 1259 0
42 2 S112 712 881059 1971 0
42 2 S112 723 881782 2694 0
42 2 S112 739 882521 3433 0
42 2 S112 698 883219 4131 0
42 2 S112 716 883935 4847 0
42 2 S112 704 884639 5551 0
42 2 S112 759 885398 6310 0
0 0 0 815 886213 -10879 0
0 0 0 788 887001 -10091 0
0 0 0 725 887726 -9366 0
0 0 0 708 888434 -8658 0
0 0 0 762 889196 -7896 0
0 0 0 787 889983 -7109 0
0 0 0 781 890764 -6328 0
0 0 0 775 891539 -5553 0
0 0 0 757 892296 -4796 0
0 0 0 698 892994 -4098 0
0 0 0 672 893666 -3426 0
0 0 0 675 894341 -2751 0
0 0 0 737 895078 -2014 0
43 1 S116 985 896063 -1029 0
43 1 S116 989 897052 -40 0
43 2 S116 1006 898058 966 0
43 2 S116 1001 899059 1967 0
43 2 S116 829 899888 2796 0
43 2 S116 769 900657 3565 0
43 2 S116 764 901421 4329 0
43 2 S116 866 902287 5195 0
43 2 S116 1211 903498 6406 1
0 0 0 1114 904612 -6290 1
0 0 0 1110 905722 -5180 1
0 0 0 1045 906767 -4135 0
0 0 0 855 907622 -3280 0
0 0 0 911 908533 -2369 0
44 1 S102 959 909492 -1410 0
44 1 S102 1001 910493 -409 0
44 2 S102 997 911490 588 0
44 2 S102 954 912444 1542 0
44 2 S102 834 913278 2376 0
44 2 S102 917 914195 3293 0
44 2 S102 1048 915243 4341 0
44 2 S102 1099 916342 5440 1
44 2 S102 1026 917368 6466 0
0 0 0 840 918208 -9007 0
0 0 0 807 919015 -8200 0
0 0 0 982 919997 -7218 0
0 0 0 1056 921053 -6162 0
0 0 0 1005 922058 -5157 0
0 0 0 909 922967 -4248 0
0 0 0 792 923759 -3456 0
0 0 0 798 924557 -2658 0
45 1 S116 883 925440 -1775 0
45 1 S116 995 926435 -780 0
45 2 S116 1008 927443 228 0
45 2 S116 1012 928455 1240 0
45 2 S116 971 929426 2211 0
45 2 S116 835 930261 3046 0
45 2 S116 780 931041 3826 0
45 2 S116 769 931810 4595 0
45 2 S116 834 932644 5429 0
45 2 S116 1034 933678 6463 0
0 0 0 1107 934785 -10235 1
0 0 0 1079 935864 -9156 0
0 0 0 1007 936871 -8149 0
0 0 0 931 937802 -7218 0
0 0 0 816 938618 -6402 0
0 0 0 762 939380 -5640 0
0 0 0 736 940116 -4904 0
0 0 0 768 940884 -4136 0
0 0 0 1007 941891 -3129 0
46 1 S102 1139 943030 -1990 1
46 1 S102 1093 944123 -897 1
46 2 S102 1036 945159 139 0
46 2 S102 1020 946179 1159 0
46 2 S102 982 947161 2141 0
46 2 S102 959 948120 3100 0
46 2 S102 938 949058 4038 0
46 2 S102 940 949998 4978 0
46 2 S102 961 950959 5939 0
46 2 S102 957 951916 6896 0
0 0 0 933 952849 -8418 0
0 0 0 942 953791 -7476 0
0 0 0 875 954666 -6601 0
0 0 0 864 955530 -5737 0
0 0 0 825 956355 -4912 0
0 0 0 858 957213 -4054 0
0 0 0 808 958021 -3246 0
0 0 0 853 958874 -2393 0
47 1 S112 901 959775 -1492 0
47 1 S112 961 960736 -531 0
47 2 S112 923 961659 392 0
47 2 S112 838 962497 1230 0
47 2 S112 926 963423 2156 0
47 2 S112 1064 964487 3220 0
47 2 S112 912 965399 4132 0
47 2 S112 818 966217 4950 0
47 2 S112 839 967056 5789 0
47 2 S112 826 967882 6615 0
0 0 0 757 968639 -10201 0
0 0 0 803 969442 -9398 0
0 0 0 811 970253 -8587 0
0 0 0 771 971024 -7816 0
0 0 0 771 971795 -7045 0
0 0 0 754 972549 -6291 0
0 0 0 760 973309 -5531 0
0 0 0 756 974065 -4775 0
0 0 0 754 974819 -4021 0
0 0 0 757 975576 -3264 0
0 0 0 735 976311 -2529 0
48 1 S116 722 977033 -1807 0
48 1 S116 694 977727 -1113 0
48 1 S116 681 978408 -432 0
48 2 S116 735 979143 303 0
48 2 S116 775 979918 1078 0
48 2 S116 735 980653 1813 0
48 2 S116 710 981363 2523 0
48 2 S116 716 982079 3239 0
48 2 S116 792 982871 4031 0
48 2 S116 897 983768 4928 0
48 2 S116 964 984732 5892 0
48 2 S116 981 985713 6873 0
0 0 0 985 986698 -7742 0
0 0 0 985 987683 -6757 0
0 0 0 889 988572 -5868 0
0 0 0 887 989459 -4981 0
0 0 0 816 990275 -4165 0
0 0 0 798 991073 -3367 0
0 0 0 746 991819 -2621 0
49 1 S112 695 992514 -1926 0
49 1 S112 692 993206 -1234 0
49 1 S112 773 993979 -461 0
49 2 S112 874 994853 413 0
49 2 S112 914 995767 1327 0
49 2 S112 904 996671 2231 0
49 2 S112 782 997453 3013 0
49 2 S112 787 998240 3800 0
49 2 S112 854 999094 4654 0
49 2 S112 900 999994 5554 0
49 2 S112 929 1000923 6483 0
0 0 0 837 1001760 -10270 0
0 0 0 851 1002611 -9419 0
0 0 0 859 1003470 -8560 0
0 0 0 811 1004281 -7749 0
0 0 0 754 1005035 -6995 0
0 0 0 819 1005854 -6176 0
0 0 0 853 1006707 -5323 0
0 0 0 873 1007580 -4450 0
0 0 0 792 1008372 -3658 0
0 0 0 885 1009257 -2773 0
50 1 S106 893 1010150 -1880 0
50 1 S106 860 1011010 -1020 0
50 1 S106 799 1011809 -221 0
50 2 S106 850 1012659 629 0
50 2 S106 929 1013588 1558 0
50 2 S106 963 1014551 2521 0
50 2 S106 832 1015383 3353 0
50 2 S106 767 1016150 4120 0
50 2 S106 744 1016894 4864 0
50 2 S106 793 1017687 5657 0
50 2 S106 971 1018658 6628 0
0 0 0 1116 1019774 -5999 1
0 0 0 1024 1020798 -4975 0
0 0 0 927 1021725 -4048 0
0 0 0 786 1022511 -3262 0
0 0 0 770 1023281 -2492 0
51 1 S112 787 1024068 -1705 0
51 1 S112 924 1024992 -781 0
51 2 S112 864 1025856 83 0
51 2 S112 809 1026665 892 0
51 2 S112 776 1027441 1668 0
51 2 S112 728 1028169 2396 0
51 2 S112 695 1028864 3091 0
51 2 S112 677 1029541 3768 0
51 2 S112 658 1030199 4426 0
51 2 S112 664 1030863 5090 0
51 2 S112 728 1031591 5818 0
51 2 S112 823 1032414 6641 0
0 0 0 846 1033260 -6937 0
0 0 0 878 1034138 -6059 0
0 0 0 873 1035011 -5186 0
0 0 0 806 1035817 -4380 0
0 0 0 806 1036623 -3574 0
0 0 0 812 1037435 -2762 0
52 1 S116 821 1038256 -1941 0
52 1 S116 782 1039038 -1159 0
52 1 S116 795 1039833 -364 0
52 2 S116 900 1040733 536 0
52 2 S116 965 1041698 1501 0
52 2 S116 1001 1042699 2502 0
52 2 S116 851 1043550 3353 0
52 2 S116 795 1044345 4148 0
52 2 S116 851 1045196 4999 0
52 2 S116 976 1046172 5975 0
52 2 S116 1042 1047214 7017 0
0 0 0 929 1048143 -8350 0
0 0 0 841 1048984 -7509 0
0 0 0 936 1049920 -6573 0
0 0 0 942 1050862 -5631 0
0 0 0 871 1051733 -4760 0
0 0 0 896 1052629 -3864 0
0 0 0 1023 1053652 -2841 0
53 1 S106 1014 1054666 -1827 0
53 1 S106 835 1055501 -992 0
53 1 S106 877 1056378 -115 0
53 2 S106 921 1057299 806 0
53 2 S106 981 1058280 1787 0
53 2 S106 854 1059134 2641 0
53 2 S106 881 1060015 3522 0
53 2 S106 1037 1061052 4559 0
53 2 S106 1073 1062125 5632 0
53 2 S106 859 1062984 6491 0
0 0 0 961 1063945 -7535 0
0 0 0 1047 1064992 -6488 0
0 0 0 1016 1066008 -5472 0
0 0 0 898 1066906 -4574 0
0 0 0 957 1067863 -3617 0
0 0 0 933 1068796 -2684 0
54 1 S102 830 1069626 -1854 0
54 1 S102 943 1070569 -911 0
54 2 S102 967 1071536 56 0
54 2 S102 955 1072491 1011 0
54 2 S102 845 1073336 1856 0
54 2 S102 934 1074270 2790 0
54 2 S102 993 1075263 3783 0
54 2 S102 975 1076238 4758 0
54 2 S102 838 1077076 5596 0
54 2 S102 957 1078033 6553 0
0 0 0 998 1079031 -10155 0
0 0 0 944 1079975 -9211 0
0 0 0 821 1080796 -8390 0
0 0 0 927 1081723 -7463 0
0 0 0 902 1082625 -6561 0
0 0 0 878 1083503 -5683 0
0 0 0 786 1084289 -4897 0
0 0 0 879 1085168 -4018 0
0 0 0 976 1086144 -3042 0
0 0 0 955 1087099 -2087 0
55 1 S106 813 1087912 -1274 0
55 1 S106 892 1088804 -382 0
55 2 S106 941 1089745 559 0
55 2 S106 992 1090737 1551 0
55 2 S106 853 1091590 2404 0
55 2 S106 932 1092522 3336 0
55 2 S106 1028 1093550 4364 0
55 2 S106 985 1094535 5349 0
55 2 S106 803 1095338 6152 0
55 2 S106 765 1096103 6917 0
0 0 0 768 1096871 -5644 0
0 0 0 988 1097859 -4656 0
0 0 0 1008 1098867 -3648 0
0 0 0 1036 1099903 -2612 0
56 1 S116 1059 1100962 -1553 0
56 1 S116 1042 1102004 -511 0
56 2 S116 1076 1103080 565 0
56 2 S116 1019 1104099 1584 0
56 2 S116 970 1105069 2554 0
56 2 S116 903 1105972 3457 0
56 2 S116 794 1106766 4251 0
56 2 S116 761 1107527 5012 0
56 2 S116 814 1108341 5826 0
56 2 S116 989 1109330 6815 0
0 0 0 1121 1110451 -5691 1
0 0 0 1141 1111592 -4550 1
0 0 0 956 1112548 -3594 0
0 0 0 922 1113470 -2672 0
57 1 S106 810 1114280 -1862 0
57 1 S106 823 1115103 -1039 0
57 1 S106 882 1115985 -157 0
57 2 S106 982 1116967 825 0
57 2 S106 1016 1117983 1841 0
57 2 S106 1010 1118993 2851 0
57 2 S106 849 1119842 3700 0
57 2 S106 845 1120687 4545 0
57 2 S106 886 1121573 5431 0
57 2 S106 970 1122543 6401 0
0 0 0 1008 1123551 -8258 0
0 0 0 989 1124540 -7269 0
0 0 0 911 1125451 -6358 0
0 0 0 915 1126366 -5443 0
0 0 0 925 1127291 -4518 0
0 0 0 907 1128198 -3611 0
0 0 0 833 1129031 -2778 0
58 1 S102 939 1129970 -1839 0
58 1 S102 991 1130961 -848 0
58 2 S102 875 1131836 27 0
58 2 S102 780 1132616 807 0
58 2 S102 828 1133444 1635 0
58 2 S102 848 1134292 2483 0
58 2 S102 910 1135202 3393 0
58 2 S102 813 1136015 4206 0
58 2 S102 804 1136819 5010 0
58 2 S102 920 1137739 5930 0
58 2 S102 991 1138730 6921 0
0 0 0 911 1139641 -6558 0
0 0 0 829 1140470 -5729 0
0 0 0 901 1141371 -4828 0
0 0 0 859 1142230 -3969 0
0 0 0 793 1143023 -3176 0
0 0 0 803 1143826 -2373 0
59 1 S112 852 1144678 -1521 0
59 1 S112 890 1145568 -631 0
59 2 S112 853 1146421 222 0
59 2 S112 803 1147224 1025 0
59 2 S112 780 1148004 1805 0
59 2 S112 755 1148759 2560 0
59 2 S112 782 1149541 3342 0
59 2 S112 981 1150522 4323 0
59 2 S112 1052 1151574 5375 0
59 2 S112 1025 1152599 6400 0
0 0 0 954 1153553 -8213 0
0 0 0 899 1154452 -7314 0
0 0 0 784 1155236 -6530 0
0 0 0 756 1155992 -5774 0
0 0 0 711 1156703 -5063 0
0 0 0 663 1157366 -4400 0
0 0 0 649 1158015 -3751 0
0 0 0 673 1158688 -3078 0
0 0 0 702 1159390 -2376 0
60 1 S102 702 1160092 -1674 0
60 1 S102 707 1160799 -967 0
60 1 S102 760 1161559 -207 0
60 2 S102 796 1162355 589 0
60 2 S102 808 1163163 1397 0
60 2 S102 751 1163914 2148 0
60 2 S102 788 1164702 2936 0
60 2 S102 808 1165510 3744 0
60 2 S102 837 1166347 4581 0
60 2 S102 774 1167121 5355 0
60 2 S102 771 1167892 6126 0
60 2 S102 850 1168742 6976 0
0 0 0 938 1169680 -9974 0
0 0 0 885 1170565 -9089 0
0 0 0 851 1171416 -8238 0
0 0 0 859 1172275 -7379 0
0 0 0 877 1173152 -6502 0
0 0 0 770 1173922 -5732 0
0 0 0 773 1174695 -4959 0
0 0 0 838 1175533 -4121 0
0 0 0 900 1176433 -3221 0
0 0 0 851 1177284 -2370 0
61 1 S106 828 1178112 -1542 0
61 1 S106 925 1179037 -617 0
61 2 S106 966 1180003 349 0
61 2 S106 896 1180899 1245 0
61 2 S106 783 1181682 2028 0
61 2 S106 759 1182441 2787 0
61 2 S106 787 1183228 3574 0
61 2 S106 875 1184103 4449 0
61 2 S106 964 1185067 5413 0
61 2 S106 885 1185952 6298 0
0 0 0 987 1186939 -7370 0
0 0 0 1010 1187949 -6360 0
0 0 0 975 1188924 -5385 0
0 0 0 916 1189840 -4469 0
0 0 0 872 1190712 -3597 0
0 0 0 855 1191567 -2742 0
62 1 S112 785 1192352 -1957 0
62 1 S112 851 1193203 -1106 0
62 1 S112 902 1194105 -204 0
62 2 S112 929 1195034 725 0
62 2 S112 832 1195866 1557 0
62 2 S112 901 1196767 2458 0
62 2 S112 930 1197697 3388 0
62 2 S112 887 1198584 4275 0
62 2 S112 880 1199464 5155 0
62 2 S112 1005 1200469 6160 0
0 0 0 1005 1201474 -11718 0
0 0 0 888 1202362 -10830 0
0 0 0 981 1203343 -9849 0
0 0 0 966 1204309 -8883 0
0 0 0 801 1205110 -8082 0
0 0 0 850 1205960 -7232 0
0 0 0 862 1206822 -6370 0
0 0 0 875 1207697 -5495 0
0 0 0 805 1208502 -4690 0
0 0 0 931 1209433 -3759 0
0 0 0 931 1210364 -2828 0
63 1 S102 846 1211210 -1982 0
63 1 S102 871 1212081 -1111 0
63 1 S102 916 1212997 -195 0
63 2 S102 900 1213897 705 0
63 2 S102 854 1214751 1559 0
63 2 S102 963 1215714 2522 0
63 2 S102 1007 1216721 3529 0
63 2 S102 889 1217610 4418 0
63 2 S102 804 1218414 5222 0
63 2 S102 873 1219287 6095 0
63 2 S102 929 1220216 7024 0
0 0 0 989 1221205 -8251 0
0 0 0 842 1222047 -7409 0
0 0 0 909 1222956 -6500 0
0 0 0 842 1223798 -5658 0
0 0 0 812 1224610 -4846 0
0 0 0 763 1225373 -4083 0
0 0 0 813 1226186 -3270 0
0 0 0 854 1227040 -2416 0
64 1 S112 887 1227927 -1529 0
64 1 S112 773 1228700 -756 0
64 1 S112 741 1229441 -15 0
64 2 S112 732 1230173 717 0
64 2 S112 862 1231035 1579 0
64 2 S112 946 1231981 2525 0
64 2 S112 937 1232918 3462 0
64 2 S112 912 1233830 4374 0
64 2 S112 891 1234721 5265 0
64 2 S112 848 1235569 6113 0
64 2 S112 816 1236385 6929 0
0 0 0 788 1237173 -6159 0
0 0 0 780 1237953 -5379 0
0 0 0 766 1238719 -4613 0
0 0 0 723 1239442 -3890 0
0 0 0 703 1240145 -3187 0
0 0 0 763 1240908 -2424 0
65 1 S106 799 1241707 -1625 0
65 1 S106 883 1242590 -742 0
65 2 S106 900 1243490 158 0
65 2 S106 896 1244386 1054 0
65 2 S106 822 1245208 1876 0
65 2 S106 861 1246069 2737 0
65 2 S106 861 1246930 3598 0
65 2 S106 852 1247782 4450 0
65 2 S106 813 1248595 5263 0
65 2 S106 748 1249343 6011 0
65 2 S106 712 1250055 6723 0
0 0 0 711 1250766 -7039 0
0 0 0 784 1251550 -6255 0
0 0 0 943 1252493 -5312 0
0 0 0 949 1253442 -4363 0
0 0 0 897 1254339 -3466 0
0 0 0 789 1255128 -2677 0
66 1 S116 814 1255942 -1863 0
66 1 S116 786 1256728 -1077 0
66 1 S116 792 1257520 -285 0
66 2 S116 783 1258303 498 0
66 2 S116 732 1259035 1230 0
66 2 S116 788 1259823 2018 0
66 2 S116 809 1260632 2827 0
66 2 S116 846 1261478 3673 0
66 2 S116 832 1262310 4505 0
66 2 S116 826 1263136 5331 0
66 2 S116 886 1264022 6217 0
0 0 0 890 1264912 -10698 0
0 0 0 833 1265745 -9865 0
0 0 0 771 1266516 -9094 0
0 0 0 794 1267310 -8300 0
0 0 0 767 1268077 -7533 0
0 0 0 759 1268836 -6774 0
0 0 0 706 1269542 -6068 0
0 0 0 721 1270263 -5347 0
0 0 0 741 1271004 -4606 0
0 0 0 767 1271771 -3839 0
0 0 0 753 1272524 -3086 0
0 0 0 730 1273254 -2356 0
67 1 S102 792 1274046 -1564 0
67 1 S102 817 1274863 -747 0
67 2 S102 781 1275644 34 0
67 2 S102 755 1276399 789 0
67 2 S102 816 1277215 1605 0
67 2 S102 822 1278037 2427 0
67 2 S102 832 1278869 3259 0
67 2 S102 764 1279633 4023 0
67 2 S102 753 1280386 4776 0
67 2 S102 820 1281206 5596 0
67 2 S102 883 1282089 6479 0
0 0 0 879 1282968 -7048 0
0 0 0 801 1283769 -6247 0
0 0 0 891 1284660 -5356 0
0 0 0 857 1285517 -4499 0
0 0 0 773 1286290 -3726 0
0 0 0 792 1287082 -2934 0
0 0 0 804 1287886 -2130 0
68 1 S106 852 1288738 -1278 0
68 1 S106 790 1289528 -488 0
68 2 S106 819 1290347 331 0
68 2 S106 873 1291220 1204 0
68 2 S106 924 1292144 2128 0
68 2 S106 840 1292984 2968 0
68 2 S106 900 1293884 3868 0
68 2 S106 970 1294854 4838 0
68 2 S106 978 1295832 5816 0
68 2 S106 900 1296732 6716 0
0 0 0 811 1297543 -11439 0
0 0 0 853 1298396 -10586 0
0 0 0 916 1299312 -9670 0
0 0 0 891 1300203 -8779 0
0 0 0 792 1300995 -7987 0
0 0 0 862 1301857 -7125 0
0 0 0 863 1302720 -6262 0
0 0 0 874 1303594 -5388 0
0 0 0 795 1304389 -4593 0
0 0 0 853 1305242 -3740 0
0 0 0 882 1306124 -2858 0
69 1 S102 876 1307000 -1982 0
69 1 S102 788 1307788 -1194 0
69 1 S102 778 1308566 -416 0
69 2 S102 855 1309421 439 0
69 2 S102 898 1310319 1337 0
69 2 S102 915 1311234 2252 0
69 2 S102 869 1312103 3121 0
69 2 S102 801 1312904 3922 0
69 2 S102 869 1313773 4791 0
69 2 S102 882 1314655 5673 0
69 2 S102 891 1315546 6564 0
0 0 0 794 1316340 -8723 0
0 0 0 872 1317212 -7851 0
0 0 0 940 1318152 -6911 0
0 0 0 874 1319026 -6037 0
0 0 0 791 1319817 -5246 0
0 0 0 817 1320634 -4429 0
0 0 0 829 1321463 -3600 0
0 0 0 862 1322325 -2738 0
70 1 S112 795 1323120 -1943 0
70 1 S112 889 1324009 -1054 0
70 1 S112 924 1324933 -130 0
70 2 S112 900 1325833 770 0
70 2 S112 810 1326643 1580 0
70 2 S112 774 1327417 2354 0
70 2 S112 751 1328168 3105 0
70 2 S112 756 1328924 3861 0
70 2 S112 898 1329822 4759 0
70 2 S112 1049 1330871 5808 0
70 2 S112 1058 1331929 6866 0
0 0 0 1004 1332933 -10201 0
0 0 0 919 1333852 -9282 0
0 0 0 835 1334687 -8447 0
0 0 0 742 1335429 -7705 0
0 0 0 732 1336161 -6973 0
0 0 0 694 1336855 -6279 0
0 0 0 655 1337510 -5624 0
0 0 0 638 1338148 -4986 0
0 0 0 660 1338808 -4326 0
0 0 0 745 1339553 -3581 0
0 0 0 818 1340371 -2763 0
71 1 S116 806 1341177 -1957 0
71 1 S116 922 1342099 -1035 0
71 1 S116 963 1343062 -72 0
71 2 S116 965 1344027 893 0
71 2 S116 954 1344981 1847 0
71 2 S116 827 1345808 2674 0
71 2 S116 824 1346632 3498 0
71 2 S116 904 1347536 4402 0
71 2 S116 980 1348516 5382 0
71 2 S116 986 1349502 6368 0
0 0 0 839 1350341 -9636 0
0 0 0 884 1351225 -8752 0
0 0 0 979 1352204 -7773 0
0 0 0 968 1353172 -6805 0
0 0 0 862 1354034 -5943 0
0 0 0 802 1354836 -5141 0
0 0 0 861 1355697 -4280 0
0 0 0 909 1356606 -3371 0
0 0 0 867 1357473 -2504 0
72 1 S102 776 1358249 -1728 0
72 1 S102 844 1359093 -884 0
72 2 S102 896 1359989 12 0
72 2 S102 922 1360911 934 0
72 2 S102 811 1361722 1745 0
72 2 S102 774 1362496 2519 0
72 2 S102 757 1363253 3276 0
72 2 S102 829 1364082 4105 0
72 2 S102 939 1365021 5044 0
72 2 S102 1013 1366034 6057 0
72 2 S102 956 1366990 7013 0
0 0 0 835 1367825 -5581 0
0 0 0 880 1368705 -4701 0
0 0 0 842 1369547 -3859 0
0 0 0 837 1370384 -3022 0
0 0 0 780 1371164 -2242 0
73 1 S116 770 1371934 -1472 0
73 1 S116 832 1372766 -640 0
73 2 S116 855 1373621 215 0
73 2 S116 896 1374517 1111 0
73 2 S116 815 1375332 1926 0
73 2 S116 779 1376111 2705 0
73 2 S116 821 1376932 3526 0
73 2 S116 951 1377883 4477 0
73 2 S116 1039 1378922 5516 0
73 2 S116 1035 1379957 6551 0
0 0 0 921 1380878 -8791 0
0 0 0 821 1381699 -7970 0
0 0 0 839 1382538 -7131 0
0 0 0 850 1383388 -6281 0
0 0 0 844 1384232 -5437 0
0 0 0 842 1385074 -4595 0
0 0 0 866 1385940 -3729 0
0 0 0 963 1386903 -2766 0
74 1 S106 918 1387821 -1848 0
74 1 S106 847 1388668 -1001 0
74 1 S106 800 1389468 -201 0
74 2 S106 835 1390303 634 0
74 2 S106 865 1391168 1499 0
74 2 S106 865 1392033 2364 0
74 2 S106 800 1392833 3164 0
74 2 S106 878 1393711 4042 0
74 2 S106 920 1394631 4962 0
74 2 S106 960 1395591 5922 0
74 2 S106 863 1396454 6785 0
0 0 0 901 1397355 -6704 0
0 0 0 958 1398313 -5746 0
0 0 0 1006 1399319 -4740 0
0 0 0 902 1400221 -3838 0
0 0 0 819 1401040 -3019 0
0 0 0 876 1401916 -2143 0
75 1 S112 902 1402818 -1241 0
75 1 S112 897 1403715 -344 0
75 2 S112 831 1404546 487 0
75 2 S112 916 1405462 1403 0
75 2 S112 970 1406432 2373 0
75 2 S112 899 1407331 3272 0
75 2 S112 820 1408151 4092 0
75 2 S112 919 1409070 5011 0
75 2 S112 1003 1410073 6014 0
75 2 S112 966 1411039 6980 0
0 0 0 851 1411890 -7206 0
0 0 0 923 1412813 -6283 0
0 0 0 968 1413781 -5315 0
0 0 0 937 1414718 -4378 0
0 0 0 796 1415514 -3582 0
0 0 0 834 1416348 -2748 0
76 1 S116 837 1417185 -1911 0
76 1 S116 861 1418046 -1050 0
76 1 S116 789 1418835 -261 0
76 2 S116 856 1419691 595 0
76 2 S116 917 1420608 1512 0
76 2 S116 955 1421563 2467 0
76 2 S116 820 1422383 3287 0
76 2 S116 883 1423266 4170 0
76 2 S116 936 1424202 5106 0
76 2 S116 995 1425197 6101 0
76 2 S116 884 1426081 6985 0
0 0 0 824 1426905 -5586 0
0 0 0 903 1427808 -4683 0
0 0 0 856 1428664 -3827 0
0 0 0 844 1429508 -2983 0
0 0 0 784 1430292 -2199 0
77 1 S106 865 1431157 -1334 0
77 1 S106 922 1432079 -412 0
77 2 S106 965 1433044 553 0
77 2 S106 921 1433965 1474 0
77 2 S106 817 1434782 2291 0
77 2 S106 888 1435670 3179 0
77 2 S106 967 1436637 4146 0
77 2 S106 1004 1437641 5150 0
77 2 S106 804 1438445 5954 0
77 2 S106 776 1439221 6730 0
0 0 0 846 1440067 -8969 0
0 0 0 917 1440984 -8052 0
0 0 0 1005 1441989 -7047 0
0 0 0 842 1442831 -6205 0
0 0 0 897 1443728 -5308 0
0 0 0 914 1444642 -4394 0
0 0 0 917 1445559 -3477 0
0 0 0 847 1446406 -2630 0
78 1 S112 837 1447243 -1793 0
78 1 S112 888 1448131 -905 0
78 2 S112 927 1449058 22 0
78 2 S112 895 1449953 917 0
78 2 S112 803 1450756 1720 0
78 2 S112 766 1451522 2486 0
78 2 S112 753 1452275 3239 0
78 2 S112 847 1453122 4086 0
78 2 S112 1004 1454126 5090 0
78 2 S112 1088 1455214 6178 1
0 0 0 1033 1456247 -11191 0
0 0 0 976 1457223 -10215 0
0 0 0 884 1458107 -9331 0
0 0 0 876 1458983 -8455 0
0 0 0 829 1459812 -7626 0
0 0 0 834 1460646 -6792 0
0 0 0 845 1461491 -5947 0
0 0 0 851 1462342 -5096 0
0 0 0 861 1463203 -4235 0
0 0 0 931 1464134 -3304 0
0 0 0 970 1465104 -2334 0
79 1 S102 838 1465942 -1496 0
79 1 S102 768 1466710 -728 0
79 1 S102 723 1467433 -5 0
79 2 S102 715 1468148 710 0
79 2 S102 769 1468917 1479 0
79 2 S102 746 1469663 2225 0
79 2 S102 732 1470395 2957 0
79 2 S102 733 1471128 3690 0
79 2 S102 934 1472062 4624 0
79 2 S102 1018 1473080 5642 0
79 2 S102 991 1474071 6633 0
0 0 0 940 1475011 -9371 0
0 0 0 800 1475811 -8571 0
0 0 0 836 1476647 -7735 0
0 0 0 833 1477480 -6902 0
0 0 0 818 1478298 -6084 0
0 0 0 783 1479081 -5301 0
0 0 0 761 1479842 -4540 0
0 0 0 813 1480655 -3727 0
0 0 0 853 1481508 -2874 0
0 0 0 871 1482379 -2003 0
80 1 S116 806 1483185 -1197 0
80 1 S116 834 1484019 -363 0
80 2 S116 874 1484893 511 0
80 2 S116 928 1485821 1439 0
80 2 S116 832 1486653 2271 0
80 2 S116 834 1487487 3105 0
80 2 S116 907 1488394 4012 0
80 2 S116 968 1489362 4980 0
80 2 S116 969 1490331 5949 0
80 2 S116 809 1491140 6758 0
