T_0008
BeatCount Mean SD BeatCountNoOutliers MeanNoOutliers SDNoOutliers
1782 886,157687991021 81,5695783976752 1753 883,963491158015 74,2892174672477

Trial TrialStatus Trialtype IBI AbsPosition RelPosition Outlier
0 0 0 907 1433 -15508 0
0 0 0 886 2319 -14622 0
0 0 0 893 3212 -13729 0
0 0 0 889 4101 -12840 0
0 0 0 858 4959 -11982 0
0 0 0 810 5769 -11172 0
0 0 0 814 6583 -10358 0
0 0 0 875 7458 -9483 0
0 0 0 1141 8599 -8342 1
0 0 0 1065 9664 -7277 0
0 0 0 1006 10670 -6271 0
0 0 0 1002 11672 -5269 0
0 0 0 1013 12685 -4256 0
0 0 0 969 13654 -3287 0
0 0 0 932 14586 -2355 0
1 1 S112 920 15506 -1435 0
1 1 S112 935 16441 -500 0
1 2 S112 1044 17485 544 0
1 2 S112 986 18471 1530 0
1 2 S112 998 19469 2528 0
1 2 S112 969 20438 3497 0
1 2 S112 972 21410 4469 0
1 2 S112 1005 22415 5474 0
1 2 S112 973 23388 6447 0
0 0 0 923 24311 -12060 0
0 0 0 879 25190 -11181 0
0 0 0 859 26049 -10322 0
0 0 0 880 26929 -9442 0
0 0 0 906 27835 -8536 0
0 0 0 869 28704 -7667 0
0 0 0 907 29611 -6760 0
0 0 0 949 30560 -5811 0
0 0 0 948 31508 -4863 0
0 0 0 897 32405 -3966 0
0 0 0 886 33291 -3080 0
0 0 0 889 34180 -2191 0
2 1 S102 913 35093 -1278 0
2 1 S102 941 36034 -337 0
2 2 S102 938 36972 601 0
2 2 S102 915 37887 1516 0
2 2 S102 912 38799 2428 0
2 2 S102 938 39737 3366 0
2 2 S102 1032 40769 4398 0
2 2 S102 1029 41798 5427 0
2 2 S102 983 42781 6410 0
0 0 0 941 43722 -11250 0
0 0 0 891 44613 -10359 0
0 0 0 861 45474 -9498 0
0 0 0 867 46341 -8631 0
0 0 0 915 47256 -7716 0
0 0 0 968 48224 -6748 0
0 0 0 959 49183 -5789 0
0 0 0 914 50097 -4875 0
0 0 0 849 50946 -4026 0
0 0 0 786 51732 -3240 0
0 0 0 765 52497 -2475 0
3 1 S116 769 53266 -1706 0
3 1 S116 756 54022 -950 0
3 1 S116 727 54749 -223 0
3 2 S116 716 55465 493 0
3 2 S116 733 56198 1226 0
3 2 S116 770 56968 1996 0
3 2 S116 937 57905 2933 0
3 2 S116 970 58875 3903 0
3 2 S116 942 59817 4845 0
3 2 S116 921 60738 5766 0
3 2 S116 901 61639 6667 0
0 0 0 861 62500 -11935 0
0 0 0 855 63355 -11080 0
0 0 0 867 64222 -10213 0
0 0 0 952 65174 -9261 0
0 0 0 966 66140 -8295 0
0 0 0 944 67084 -7351 0
0 0 0 975 68059 -6376 0
0 0 0 1010 69069 -5366 0
0 0 0 979 70048 -4387 0
0 0 0 942 70990 -3445 0
0 0 0 900 71890 -2545 0
4 1 S106 862 72752 -1683 0
4 1 S106 862 73614 -821 0
4 2 S106 938 74552 117 0
4 2 S106 1005 75557 1122 0
4 2 S106 979 76536 2101 0
4 2 S106 950 77486 3051 0
4 2 S106 904 78390 3955 0
4 2 S106 910 79300 4865 0
4 2 S106 956 80256 5821 0
4 2 S106 1000 81256 6821 0
0 0 0 1013 82269 -7236 0
0 0 0 940 83209 -6296 0
0 0 0 925 84134 -5371 0
0 0 0 907 85041 -4464 0
0 0 0 894 85935 -3570 0
0 0 0 881 86816 -2689 0
5 1 S116 822 87638 -1867 0
5 1 S116 826 88464 -1041 0
5 1 S116 862 89326 -179 0
5 2 S116 935 90261 756 0
5 2 S116 941 91202 1697 0
5 2 S116 902 92104 2599 0
5 2 S116 858 92962 3457 0
5 2 S116 811 93773 4268 0
5 2 S116 810 94583 5078 0
5 2 S116 826 95409 5904 0
5 2 S116 917 96326 6821 0
0 0 0 936 97262 -9517 0
0 0 0 905 98167 -8612 0
0 0 0 888 99055 -7724 0
0 0 0 887 99942 -6837 0
0 0 0 859 100801 -5978 0
0 0 0 838 101639 -5140 0
0 0 0 795 102434 -4345 0
0 0 0 799 103233 -3546 0
0 0 0 817 104050 -2729 0
6 1 S106 845 104895 -1884 0
6 1 S106 865 105760 -1019 0
6 1 S106 871 106631 -148 0
6 2 S106 843 107474 695 0
6 2 S106 852 108326 1547 0
6 2 S106 887 109213 2434 0
6 2 S106 986 110199 3420 0
6 2 S106 996 111195 4416 0
6 2 S106 976 112171 5392 0
6 2 S106 935 113106 6327 0
0 0 0 902 114008 -11323 0
0 0 0 879 114887 -10444 0
0 0 0 842 115729 -9602 0
0 0 0 829 116558 -8773 0
0 0 0 798 117356 -7975 0
0 0 0 761 118117 -7214 0
0 0 0 762 118879 -6452 0
0 0 0 763 119642 -5689 0
0 0 0 792 120434 -4897 0
0 0 0 867 121301 -4030 0
0 0 0 886 122187 -3144 0
0 0 0 849 123036 -2295 0
7 1 S102 810 123846 -1485 0
7 1 S102 820 124666 -665 0
7 2 S102 834 125500 169 0
7 2 S102 880 126380 1049 0
7 2 S102 917 127297 1966 0
7 2 S102 905 128202 2871 0
7 2 S102 860 129062 3731 0
7 2 S102 812 129874 4543 0
7 2 S102 787 130661 5330 0
7 2 S102 807 131468 6137 0
7 2 S102 850 132318 6987 0
0 0 0 995 133313 -8347 0
0 0 0 1001 134314 -7346 0
0 0 0 954 135268 -6392 0
0 0 0 905 136173 -5487 0
0 0 0 898 137071 -4589 0
0 0 0 871 137942 -3718 0
0 0 0 842 138784 -2876 0
0 0 0 799 139583 -2077 0
8 1 S112 793 140376 -1284 0
8 1 S112 799 141175 -485 0
8 2 S112 841 142016 356 0
8 2 S112 940 142956 1296 0
8 2 S112 950 143906 2246 0
8 2 S112 940 144846 3186 0
8 2 S112 937 145783 4123 0
8 2 S112 909 146692 5032 0
8 2 S112 880 147572 5912 0
8 2 S112 863 148435 6775 0
0 0 0 847 149282 -7813 0
0 0 0 859 150141 -6954 0
0 0 0 919 151060 -6035 0
0 0 0 1040 152100 -4995 0
0 0 0 986 153086 -4009 0
0 0 0 949 154035 -3060 0
0 0 0 949 154984 -2111 0
9 1 S116 959 155943 -1152 0
9 1 S116 942 156885 -210 0
9 2 S116 899 157784 689 0
9 2 S116 856 158640 1545 0
9 2 S116 836 159476 2381 0
9 2 S116 831 160307 3212 0
9 2 S116 824 161131 4036 0
9 2 S116 824 161955 4860 0
9 2 S116 823 162778 5683 0
9 2 S116 791 163569 6474 0
0 0 0 812 164381 -12442 0
0 0 0 882 165263 -11560 0
0 0 0 1055 166318 -10505 0
0 0 0 1023 167341 -9482 0
0 0 0 974 168315 -8508 0
0 0 0 940 169255 -7568 0
0 0 0 895 170150 -6673 0
0 0 0 822 170972 -5851 0
0 0 0 765 171737 -5086 0
0 0 0 743 172480 -4343 0
0 0 0 749 173229 -3594 0
0 0 0 740 173969 -2854 0
0 0 0 714 174683 -2140 0
10 1 S102 710 175393 -1430 0
10 1 S102 737 176130 -693 0
10 2 S102 800 176930 107 0
10 2 S102 1005 177935 1112 0
10 2 S102 1033 178968 2145 0
10 2 S102 989 179957 3134 0
10 2 S102 945 180902 4079 0
10 2 S102 925 181827 5004 0
10 2 S102 879 182706 5883 0
10 2 S102 869 183575 6752 0
0 0 0 895 184470 -11020 0
0 0 0 946 185416 -10074 0
0 0 0 947 186363 -9127 0
0 0 0 917 187280 -8210 0
0 0 0 878 188158 -7332 0
0 0 0 827 188985 -6505 0
0 0 0 808 189793 -5697 0
0 0 0 796 190589 -4901 0
0 0 0 800 191389 -4101 0
0 0 0 833 192222 -3268 0
0 0 0 849 193071 -2419 0
11 1 S112 822 193893 -1597 0
11 1 S112 786 194679 -811 0
11 1 S112 804 195483 -7 0
11 2 S112 823 196306 816 0
11 2 S112 950 197256 1766 0
11 2 S112 1002 198258 2768 0
11 2 S112 948 199206 3716 0
11 2 S112 919 200125 4635 0
11 2 S112 871 200996 5506 0
11 2 S112 853 201849 6359 0
0 0 0 828 202677 -7983 0
0 0 0 827 203504 -7156 0
0 0 0 848 204352 -6308 0
0 0 0 866 205218 -5442 0
0 0 0 876 206094 -4566 0
0 0 0 884 206978 -3682 0
0 0 0 917 207895 -2765 0
12 1 S116 901 208796 -1864 0
12 1 S116 880 209676 -984 0
12 1 S116 874 210550 -110 0
12 2 S116 873 211423 763 0
12 2 S116 885 212308 1648 0
12 2 S116 855 213163 2503 0
12 2 S116 804 213967 3307 0
12 2 S116 763 214730 4070 0
12 2 S116 724 215454 4794 0
12 2 S116 707 216161 5501 0
12 2 S116 708 216869 6209 0
12 2 S116 744 217613 6953 0
0 0 0 917 218530 -10946 0
0 0 0 1046 219576 -9900 0
0 0 0 984 220560 -8916 0
0 0 0 938 221498 -7978 0
0 0 0 930 222428 -7048 0
0 0 0 910 223338 -6138 0
0 0 0 879 224217 -5259 0
0 0 0 857 225074 -4402 0
0 0 0 852 225926 -3550 0
0 0 0 861 226787 -2689 0
13 1 S112 842 227629 -1847 0
13 1 S112 788 228417 -1059 0
13 1 S112 826 229243 -233 0
13 2 S112 903 230146 670 0
13 2 S112 1039 231185 1709 0
13 2 S112 1000 232185 2709 0
13 2 S112 935 233120 3644 0
13 2 S112 894 234014 4538 0
13 2 S112 854 234868 5392 0
13 2 S112 834 235702 6226 0
0 0 0 825 236527 -11915 0
0 0 0 827 237354 -11088 0
0 0 0 834 238188 -10254 0
0 0 0 856 239044 -9398 0
0 0 0 868 239912 -8530 0
0 0 0 894 240806 -7636 0
0 0 0 919 241725 -6717 0
0 0 0 950 242675 -5767 0
0 0 0 939 243614 -4828 0
0 0 0 912 244526 -3916 0
0 0 0 867 245393 -3049 0
0 0 0 783 246176 -2266 0
14 1 S106 789 246965 -1477 0
14 1 S106 797 247762 -680 0
14 2 S106 885 248647 205 0
14 2 S106 930 249577 1135 0
14 2 S106 895 250472 2030 0
14 2 S106 864 251336 2894 0
14 2 S106 836 252172 3730 0
14 2 S106 818 252990 4548 0
14 2 S106 805 253795 5353 0
14 2 S106 796 254591 6149 0
14 2 S106 790 255381 6939 0
0 0 0 788 256169 -11703 0
0 0 0 812 256981 -10891 0
0 0 0 852 257833 -10039 0
0 0 0 920 258753 -9119 0
0 0 0 909 259662 -8210 0
0 0 0 886 260548 -7324 0
0 0 0 905 261453 -6419 0
0 0 0 872 262325 -5547 0
0 0 0 843 263168 -4704 0
0 0 0 808 263976 -3896 0
0 0 0 760 264736 -3136 0
0 0 0 737 265473 -2399 0
15 1 S116 771 266244 -1628 0
15 1 S116 804 267048 -824 0
15 2 S116 979 268027 155 0
15 2 S116 985 269012 1140 0
15 2 S116 947 269959 2087 0
15 2 S116 909 270868 2996 0
15 2 S116 876 271744 3872 0
15 2 S116 863 272607 4735 0
15 2 S116 840 273447 5575 0
15 2 S116 835 274282 6410 0
0 0 0 826 275108 -10237 0
0 0 0 814 275922 -9423 0
0 0 0 828 276750 -8595 0
0 0 0 863 277613 -7732 0
0 0 0 892 278505 -6840 0
0 0 0 920 279425 -5920 0
0 0 0 906 280331 -5014 0
0 0 0 922 281253 -4092 0
0 0 0 948 282201 -3144 0
0 0 0 924 283125 -2220 0
16 1 S116 923 284048 -1297 0
16 1 S116 911 284959 -386 0
16 2 S116 895 285854 509 0
16 2 S116 869 286723 1378 0
16 2 S116 828 287551 2206 0
16 2 S116 817 288368 3023 0
16 2 S116 824 289192 3847 0
16 2 S116 890 290082 4737 0
16 2 S116 959 291041 5696 0
16 2 S116 951 291992 6647 0
0 0 0 979 292971 -9500 0
0 0 0 1008 293979 -8492 0
0 0 0 1004 294983 -7488 0
0 0 0 961 295944 -6527 0
0 0 0 941 296885 -5586 0
0 0 0 946 297831 -4640 0
0 0 0 905 298736 -3735 0
0 0 0 885 299621 -2850 0
0 0 0 833 300454 -2017 0
17 1 S106 857 301311 -1160 0
17 1 S106 914 302225 -246 0
17 2 S106 981 303206 735 0
17 2 S106 994 304200 1729 0
17 2 S106 944 305144 2673 0
17 2 S106 920 306064 3593 0
17 2 S106 900 306964 4493 0
17 2 S106 885 307849 5378 0
17 2 S106 862 308711 6240 0
0 0 0 819 309530 -12503 0
0 0 0 844 310374 -11659 0
0 0 0 879 311253 -10780 0
0 0 0 968 312221 -9812 0
0 0 0 989 313210 -8823 0
0 0 0 954 314164 -7869 0
0 0 0 928 315092 -6941 0
0 0 0 898 315990 -6043 0
0 0 0 828 316818 -5215 0
0 0 0 819 317637 -4396 0
0 0 0 815 318452 -3581 0
0 0 0 879 319331 -2702 0
18 1 S102 956 320287 -1746 0
18 1 S102 952 321239 -794 0
18 2 S102 917 322156 123 0
18 2 S102 872 323028 995 0
18 2 S102 878 323906 1873 0
18 2 S102 892 324798 2765 0
18 2 S102 976 325774 3741 0
18 2 S102 977 326751 4718 0
18 2 S102 953 327704 5671 0
18 2 S102 944 328648 6615 0
0 0 0 935 329583 -7023 0
0 0 0 900 330483 -6123 0
0 0 0 861 331344 -5262 0
0 0 0 840 332184 -4422 0
0 0 0 835 333019 -3587 0
0 0 0 833 333852 -2754 0
19 1 S106 804 334656 -1950 0
19 1 S106 797 335453 -1153 0
19 1 S106 831 336284 -322 0
19 2 S106 903 337187 581 0
19 2 S106 1017 338204 1598 0
19 2 S106 977 339181 2575 0
19 2 S106 937 340118 3512 0
19 2 S106 906 341024 4418 0
19 2 S106 878 341902 5296 0
19 2 S106 845 342747 6141 0
19 2 S106 819 343566 6960 0
0 0 0 795 344361 -11144 0
0 0 0 815 345176 -10329 0
0 0 0 846 346022 -9483 0
0 0 0 920 346942 -8563 0
0 0 0 925 347867 -7638 0
0 0 0 959 348826 -6679 0
0 0 0 972 349798 -5707 0
0 0 0 982 350780 -4725 0
0 0 0 972 351752 -3753 0
0 0 0 939 352691 -2814 0
20 1 S112 896 353587 -1918 0
20 1 S112 824 354411 -1094 0
20 1 S112 781 355192 -313 0
20 2 S112 785 355977 472 0
20 2 S112 813 356790 1285 0
20 2 S112 941 357731 2226 0
20 2 S112 978 358709 3204 0
20 2 S112 973 359682 4177 0
20 2 S112 938 360620 5115 0
20 2 S112 922 361542 6037 0
20 2 S112 910 362452 6947 0
0 0 0 897 363349 -8635 0
0 0 0 885 364234 -7750 0
0 0 0 886 365120 -6864 0
0 0 0 866 365986 -5998 0
0 0 0 876 366862 -5122 0
0 0 0 869 367731 -4253 0
0 0 0 827 368558 -3426 0
0 0 0 855 369413 -2571 0
21 1 S106 888 370301 -1683 0
21 1 S106 965 371266 -718 0
21 2 S106 939 372205 221 0
21 2 S106 904 373109 1125 0
21 2 S106 884 373993 2009 0
21 2 S106 843 374836 2852 0
21 2 S106 824 375660 3676 0
21 2 S106 823 376483 4499 0
21 2 S106 864 377347 5363 0
21 2 S106 874 378221 6237 0
0 0 0 869 379090 -11495 0
0 0 0 864 379954 -10631 0
0 0 0 857 380811 -9774 0
0 0 0 872 381683 -8902 0
0 0 0 852 382535 -8050 0
0 0 0 854 383389 -7196 0
0 0 0 821 384210 -6375 0
0 0 0 759 384969 -5616 0
0 0 0 768 385737 -4848 0
0 0 0 746 386483 -4102 0
0 0 0 746 387229 -3356 0
0 0 0 785 388014 -2571 0
22 1 S116 786 388800 -1785 0
22 1 S116 783 389583 -1002 0
22 1 S116 790 390373 -212 0
22 2 S116 811 391184 599 0
22 2 S116 809 391993 1408 0
22 2 S116 811 392804 2219 0
22 2 S116 828 393632 3047 0
22 2 S116 843 394475 3890 0
22 2 S116 871 395346 4761 0
22 2 S116 921 396267 5682 0
22 2 S116 1019 397286 6701 0
0 0 0 1108 398394 -9482 1
0 0 0 1038 399432 -8444 0
0 0 0 974 400406 -7470 0
0 0 0 940 401346 -6530 0
0 0 0 895 402241 -5635 0
0 0 0 874 403115 -4761 0
0 0 0 855 403970 -3906 0
0 0 0 836 404806 -3070 0
0 0 0 900 405706 -2170 0
23 1 S112 1001 406707 -1169 0
23 1 S112 1040 407747 -129 0
23 2 S112 981 408728 852 0
23 2 S112 957 409685 1809 0
23 2 S112 929 410614 2738 0
23 2 S112 905 411519 3643 0
23 2 S112 879 412398 4522 0
23 2 S112 827 413225 5349 0
23 2 S112 846 414071 6195 0
0 0 0 948 415019 -9204 0
0 0 0 1181 416200 -8023 1
0 0 0 995 417195 -7028 0
0 0 0 984 418179 -6044 0
0 0 0 952 419131 -5092 0
0 0 0 924 420055 -4168 0
0 0 0 864 420919 -3304 0
0 0 0 819 421738 -2485 0
24 1 S106 833 422571 -1652 0
24 1 S106 918 423489 -734 0
24 2 S106 980 424469 246 0
24 2 S106 968 425437 1214 0
24 2 S106 941 426378 2155 0
24 2 S106 902 427280 3057 0
24 2 S106 887 428167 3944 0
24 2 S106 889 429056 4833 0
24 2 S106 916 429972 5749 0
24 2 S106 902 430874 6651 0
0 0 0 890 431764 -9253 0
0 0 0 880 432644 -8373 0
0 0 0 877 433521 -7496 0
0 0 0 867 434388 -6629 0
0 0 0 846 435234 -5783 0
0 0 0 797 436031 -4986 0
0 0 0 767 436798 -4219 0
0 0 0 816 437614 -3403 0
0 0 0 854 438468 -2549 0
25 1 S102 1004 439472 -1545 0
25 1 S102 1011 440483 -534 0
25 2 S102 916 441399 382 0
25 2 S102 880 442279 1262 0
25 2 S102 854 443133 2116 0
25 2 S102 826 443959 2942 0
25 2 S102 806 444765 3748 0
25 2 S102 808 445573 4556 0
25 2 S102 821 446394 5377 0
25 2 S102 854 447248 6231 0
0 0 0 897 448145 -6897 0
0 0 0 912 449057 -5985 0
0 0 0 922 449979 -5063 0
0 0 0 920 450899 -4143 0
0 0 0 870 451769 -3273 0
0 0 0 821 452590 -2452 0
26 1 S116 783 453373 -1669 0
26 1 S116 767 454140 -902 0
26 1 S116 777 454917 -125 0
26 2 S116 790 455707 665 0
26 2 S116 804 456511 1469 0
26 2 S116 846 457357 2315 0
26 2 S116 883 458240 3198 0
26 2 S116 959 459199 4157 0
26 2 S116 978 460177 5135 0
26 2 S116 951 461128 6086 0
26 2 S116 925 462053 7011 0
0 0 0 925 462978 -7382 0
0 0 0 935 463913 -6447 0
0 0 0 972 464885 -5475 0
0 0 0 960 465845 -4515 0
0 0 0 915 466760 -3600 0
0 0 0 907 467667 -2693 0
27 1 S106 916 468583 -1777 0
27 1 S106 896 469479 -881 0
27 2 S106 884 470363 3 0
27 2 S106 829 471192 832 0
27 2 S106 788 471980 1620 0
27 2 S106 786 472766 2406 0
27 2 S106 806 473572 3212 0
27 2 S106 876 474448 4088 0
27 2 S106 908 475356 4996 0
27 2 S106 912 476268 5908 0
27 2 S106 903 477171 6811 0
0 0 0 912 478083 -7082 0
0 0 0 909 478992 -6173 0
0 0 0 887 479879 -5286 0
0 0 0 868 480747 -4418 0
0 0 0 843 481590 -3575 0
0 0 0 847 482437 -2728 0
28 1 S102 843 483280 -1885 0
28 1 S102 841 484121 -1044 0
28 1 S102 837 484958 -207 0
28 2 S102 802 485760 595 0
28 2 S102 773 486533 1368 0
28 2 S102 825 487358 2193 0
28 2 S102 890 488248 3083 0
28 2 S102 1017 489265 4100 0
28 2 S102 981 490246 5081 0
28 2 S102 918 491164 5999 0
28 2 S102 880 492044 6879 0
0 0 0 845 492889 -11092 0
0 0 0 808 493697 -10284 0
0 0 0 780 494477 -9504 0
0 0 0 754 495231 -8750 0
0 0 0 722 495953 -8028 0
0 0 0 700 496653 -7328 0
0 0 0 691 497344 -6637 0
0 0 0 741 498085 -5896 0
0 0 0 975 499060 -4921 0
0 0 0 1249 500309 -3672 1
0 0 0 996 501305 -2676 0
29 1 S112 1111 502416 -1565 1
29 1 S112 1125 503541 -440 1
29 2 S112 1055 504596 615 0
29 2 S112 1005 505601 1620 0
29 2 S112 953 506554 2573 0
29 2 S112 905 507459 3478 0
29 2 S112 819 508278 4297 0
29 2 S112 748 509026 5045 0
29 2 S112 746 509772 5791 0
29 2 S112 748 510520 6539 0
0 0 0 887 511407 -8191 0
0 0 0 1070 512477 -7121 0
0 0 0 997 513474 -6124 0
0 0 0 1003 514477 -5121 0
0 0 0 1016 515493 -4105 0
0 0 0 980 516473 -3125 0
0 0 0 951 517424 -2174 0
30 1 S112 891 518315 -1283 0
30 1 S112 862 519177 -421 0
30 2 S112 836 520013 415 0
30 2 S112 882 520895 1297 0
30 2 S112 981 521876 2278 0
30 2 S112 965 522841 3243 0
30 2 S112 981 523822 4224 0
30 2 S112 996 524818 5220 0
30 2 S112 987 525805 6207 0
0 0 0 964 526769 -10966 0
0 0 0 933 527702 -10033 0
0 0 0 911 528613 -9122 0
0 0 0 889 529502 -8233 0
0 0 0 873 530375 -7360 0
0 0 0 864 531239 -6496 0
0 0 0 860 532099 -5636 0
0 0 0 869 532968 -4767 0
0 0 0 837 533805 -3930 0
0 0 0 803 534608 -3127 0
0 0 0 788 535396 -2339 0
31 1 S106 853 536249 -1486 0
31 1 S106 1025 537274 -461 0
31 2 S106 1092 538366 631 0
31 2 S106 1067 539433 1698 0
31 2 S106 978 540411 2676 0
31 2 S106 910 541321 3586 0
31 2 S106 869 542190 4455 0
31 2 S106 833 543023 5288 0
31 2 S106 812 543835 6100 0
31 2 S106 801 544636 6901 0
0 0 0 784 545420 -10004 0
0 0 0 802 546222 -9202 0
0 0 0 820 547042 -8382 0
0 0 0 889 547931 -7493 0
0 0 0 950 548881 -6543 0
0 0 0 956 549837 -5587 0
0 0 0 933 550770 -4654 0
0 0 0 941 551711 -3713 0
0 0 0 931 552642 -2782 0
32 1 S102 897 553539 -1885 0
32 1 S102 848 554387 -1037 0
32 1 S102 856 555243 -181 0
32 2 S102 857 556100 676 0
32 2 S102 905 557005 1581 0
32 2 S102 942 557947 2523 0
32 2 S102 934 558881 3457 0
32 2 S102 927 559808 4384 0
32 2 S102 911 560719 5295 0
32 2 S102 865 561584 6160 0
32 2 S102 855 562439 7015 0
0 0 0 871 563310 -11594 0
0 0 0 958 564268 -10636 0
0 0 0 1033 565301 -9603 0
0 0 0 1000 566301 -8603 0
0 0 0 967 567268 -7636 0
0 0 0 957 568225 -6679 0
0 0 0 895 569120 -5784 0
0 0 0 833 569953 -4951 0
0 0 0 807 570760 -4144 0
0 0 0 809 571569 -3335 0
0 0 0 853 572422 -2482 0
33 1 S112 909 573331 -1573 0
33 1 S112 872 574203 -701 0
33 2 S112 851 575054 150 0
33 2 S112 810 575864 960 0
33 2 S112 811 576675 1771 0
33 2 S112 809 577484 2580 0
33 2 S112 845 578329 3425 0
33 2 S112 927 579256 4352 0
33 2 S112 930 580186 5282 0
33 2 S112 937 581123 6219 0
0 0 0 948 582071 -12594 0
0 0 0 926 582997 -11668 0
0 0 0 890 583887 -10778 0
0 0 0 872 584759 -9906 0
0 0 0 852 585611 -9054 0
0 0 0 828 586439 -8226 0
0 0 0 798 587237 -7428 0
0 0 0 762 587999 -6666 0
0 0 0 742 588741 -5924 0
0 0 0 804 589545 -5120 0
0 0 0 859 590404 -4261 0
0 0 0 890 591294 -3371 0
0 0 0 1032 592326 -2339 0
34 1 S106 1022 593348 -1317 0
34 1 S106 976 594324 -341 0
34 2 S106 937 595261 596 0
34 2 S106 894 596155 1490 0
34 2 S106 837 596992 2327 0
34 2 S106 809 597801 3136 0
34 2 S106 796 598597 3932 0
34 2 S106 788 599385 4720 0
34 2 S106 775 600160 5495 0
34 2 S106 810 600970 6305 0
0 0 0 864 601834 -10487 0
0 0 0 1030 602864 -9457 0
0 0 0 1009 603873 -8448 0
0 0 0 971 604844 -7477 0
0 0 0 972 605816 -6505 0
0 0 0 957 606773 -5548 0
0 0 0 921 607694 -4627 0
0 0 0 906 608600 -3721 0
0 0 0 892 609492 -2829 0
35 1 S102 876 610368 -1953 0
35 1 S102 865 611233 -1088 0
35 1 S102 857 612090 -231 0
35 2 S102 864 612954 633 0
35 2 S102 883 613837 1516 0
35 2 S102 917 614754 2433 0
35 2 S102 923 615677 3356 0
35 2 S102 914 616591 4270 0
35 2 S102 882 617473 5152 0
35 2 S102 879 618352 6031 0
35 2 S102 921 619273 6952 0
0 0 0 975 620248 -7160 0
0 0 0 955 621203 -6205 0
0 0 0 938 622141 -5267 0
0 0 0 919 623060 -4348 0
0 0 0 882 623942 -3466 0
0 0 0 854 624796 -2612 0
36 1 S106 797 625593 -1815 0
36 1 S106 795 626388 -1020 0
36 1 S106 818 627206 -202 0
36 2 S106 951 628157 749 0
36 2 S106 1025 629182 1774 0
36 2 S106 973 630155 2747 0
36 2 S106 945 631100 3692 0
36 2 S106 924 632024 4616 0
36 2 S106 914 632938 5530 0
36 2 S106 888 633826 6418 0
0 0 0 862 634688 -10127 0
0 0 0 835 635523 -9292 0
0 0 0 809 636332 -8483 0
0 0 0 802 637134 -7681 0
0 0 0 824 637958 -6857 0
0 0 0 855 638813 -6002 0
0 0 0 912 639725 -5090 0
0 0 0 969 640694 -4121 0
0 0 0 978 641672 -3143 0
0 0 0 976 642648 -2167 0
37 1 S116 973 643621 -1194 0
37 1 S116 947 644568 -247 0
37 2 S116 907 645475 660 0
37 2 S116 861 646336 1521 0
37 2 S116 816 647152 2337 0
37 2 S116 777 647929 3114 0
37 2 S116 777 648706 3891 0
37 2 S116 799 649505 4690 0
37 2 S116 875 650380 5565 0
37 2 S116 922 651302 6487 0
0 0 0 920 652222 -13200 0
0 0 0 914 653136 -12286 0
0 0 0 916 654052 -11370 0
0 0 0 917 654969 -10453 0
0 0 0 914 655883 -9539 0
0 0 0 907 656790 -8632 0
0 0 0 871 657661 -7761 0
0 0 0 856 658517 -6905 0
0 0 0 835 659352 -6070 0
0 0 0 821 660173 -5249 0
0 0 0 828 661001 -4421 0
0 0 0 845 661846 -3576 0
0 0 0 855 662701 -2721 0
38 1 S102 836 663537 -1885 0
38 1 S102 851 664388 -1034 0
38 1 S102 873 665261 -161 0
38 2 S102 948 666209 787 0
38 2 S102 944 667153 1731 0
38 2 S102 902 668055 2633 0
38 2 S102 866 668921 3499 0
38 2 S102 809 669730 4308 0
38 2 S102 806 670536 5114 0
38 2 S102 823 671359 5937 0
38 2 S102 867 672226 6804 0
0 0 0 885 673111 -9453 0
0 0 0 884 673995 -8569 0
0 0 0 887 674882 -7682 0
0 0 0 891 675773 -6791 0
0 0 0 884 676657 -5907 0
0 0 0 892 677549 -5015 0
0 0 0 863 678412 -4152 0
0 0 0 878 679290 -3274 0
0 0 0 895 680185 -2379 0
39 1 S116 951 681136 -1428 0
39 1 S116 952 682088 -476 0
39 2 S116 961 683049 485 0
39 2 S116 928 683977 1413 0
39 2 S116 923 684900 2336 0
39 2 S116 947 685847 3283 0
39 2 S116 986 686833 4269 0
39 2 S116 976 687809 5245 0
39 2 S116 976 688785 6221 0
0 0 0 948 689733 -8183 0
0 0 0 931 690664 -7252 0
0 0 0 900 691564 -6352 0
0 0 0 899 692463 -5453 0
0 0 0 905 693368 -4548 0
0 0 0 893 694261 -3655 0
0 0 0 862 695123 -2793 0
40 1 S112 868 695991 -1925 0
40 1 S112 864 696855 -1061 0
40 1 S112 902 697757 -159 0
40 2 S112 890 698647 731 0
40 2 S112 889 699536 1620 0
40 2 S112 878 700414 2498 0
40 2 S112 860 701274 3358 0
40 2 S112 836 702110 4194 0
40 2 S112 803 702913 4997 0
40 2 S112 751 703664 5748 0
40 2 S112 740 704404 6488 0
0 0 0 722 705126 -187967 0
0 0 0 744 705870 -187223 0
0 0 0 805 706675 -186418 0
0 0 0 829 707504 -185589 0
0 0 0 876 708380 -184713 0
0 0 0 882 709262 -183831 0
0 0 0 873 710135 -182958 0
0 0 0 838 710973 -182120 0
0 0 0 830 711803 -181290 0
0 0 0 821 712624 -180469 0
0 0 0 814 713438 -179655 0
0 0 0 800 714238 -178855 0
0 0 0 785 715023 -178070 0
0 0 0 773 715796 -177297 0
0 0 0 787 716583 -176510 0
0 0 0 800 717383 -175710 0
0 0 0 815 718198 -174895 0
0 0 0 823 719021 -174072 0
0 0 0 802 719823 -173270 0
0 0 0 835 720658 -172435 0
0 0 0 908 721566 -171527 0
0 0 0 962 722528 -170565 0
0 0 0 899 723427 -169666 0
0 0 0 869 724296 -168797 0
0 0 0 869 725165 -167928 0
0 0 0 836 726001 -167092 0
0 0 0 798 726799 -166294 0
0 0 0 794 727593 -165500 0
0 0 0 788 728381 -164712 0
0 0 0 799 729180 -163913 0
0 0 0 817 729997 -163096 0
0 0 0 868 730865 -162228 0
0 0 0 917 731782 -161311 0
0 0 0 941 732723 -160370 0
0 0 0 966 733689 -159404 0
0 0 0 961 734650 -158443 0
0 0 0 933 735583 -157510 0
0 0 0 855 736438 -156655 0
0 0 0 826 737264 -155829 0
0 0 0 785 738049 -155044 0
0 0 0 768 738817 -154276 0
0 0 0 807 739624 -153469 0
0 0 0 825 740449 -152644 0
0 0 0 769 741218 -151875 0
0 0 0 772 741990 -151103 0
0 0 0 730 742720 -150373 0
0 0 0 705 743425 -149668 0
0 0 0 693 744118 -148975 0
0 0 0 676 744794 -148299 0
0 0 0 667 745461 -147632 1
0 0 0 669 746130 -146963 1
0 0 0 688 746818 -146275 0
0 0 0 776 747594 -145499 0
0 0 0 1138 748732 -144361 1
0 0 0 1040 749772 -143321 0
0 0 0 913 750685 -142408 0
0 0 0 895 751580 -141513 0
0 0 0 937 752517 -140576 0
0 0 0 869 753386 -139707 0
0 0 0 842 754228 -138865 0
0 0 0 849 755077 -138016 0
0 0 0 854 755931 -137162 0
0 0 0 830 756761 -136332 0
0 0 0 802 757563 -135530 0
0 0 0 787 758350 -134743 0
0 0 0 778 759128 -133965 0
0 0 0 812 759940 -133153 0
0 0 0 828 760768 -132325 0
0 0 0 779 761547 -131546 0
0 0 0 762 762309 -130784 0
0 0 0 741 763050 -130043 0
0 0 0 740 763790 -129303 0
0 0 0 752 764542 -128551 0
0 0 0 789 765331 -127762 0
0 0 0 830 766161 -126932 0
0 0 0 896 767057 -126036 0
0 0 0 868 767925 -125168 0
0 0 0 842 768767 -124326 0
0 0 0 872 769639 -123454 0
0 0 0 845 770484 -122609 0
0 0 0 787 771271 -121822 0
0 0 0 786 772057 -121036 0
0 0 0 781 772838 -120255 0
0 0 0 787 773625 -119468 0
0 0 0 782 774407 -118686 0
0 0 0 852 775259 -117834 0
0 0 0 917 776176 -116917 0
0 0 0 1006 777182 -115911 0
0 0 0 962 778144 -114949 0
0 0 0 924 779068 -114025 0
0 0 0 891 779959 -113134 0
0 0 0 837 780796 -112297 0
0 0 0 784 781580 -111513 0
0 0 0 749 782329 -110764 0
0 0 0 716 783045 -110048 0
0 0 0 687 783732 -109361 0
0 0 0 678 784410 -108683 0
0 0 0 729 785139 -107954 0
0 0 0 923 786062 -107031 0
0 0 0 903 786965 -106128 0
0 0 0 878 787843 -105250 0
0 0 0 868 788711 -104382 0
0 0 0 846 789557 -103536 0
0 0 0 842 790399 -102694 0
0 0 0 811 791210 -101883 0
0 0 0 756 791966 -101127 0
0 0 0 716 792682 -100411 0
0 0 0 698 793380 -99713 0
0 0 0 686 794066 -99027 0
0 0 0 676 794742 -98351 0
0 0 0 667 795409 -97684 1
0 0 0 656 796065 -97028 1
0 0 0 648 796713 -96380 1
0 0 0 622 797335 -95758 1
0 0 0 616 797951 -95142 1
0 0 0 648 798599 -94494 1
0 0 0 699 799298 -93795 0
0 0 0 1289 800587 -92506 1
0 0 0 1115 801702 -91391 1
0 0 0 1142 802844 -90249 1
0 0 0 1082 803926 -89167 0
0 0 0 1072 804998 -88095 0
0 0 0 1045 806043 -87050 0
0 0 0 995 807038 -86055 0
0 0 0 991 808029 -85064 0
0 0 0 977 809006 -84087 0
0 0 0 983 809989 -83104 0
0 0 0 957 810946 -82147 0
0 0 0 968 811914 -81179 0
0 0 0 975 812889 -80204 0
0 0 0 962 813851 -79242 0
0 0 0 974 814825 -78268 0
0 0 0 945 815770 -77323 0
0 0 0 913 816683 -76410 0
0 0 0 942 817625 -75468 0
0 0 0 971 818596 -74497 0
0 0 0 929 819525 -73568 0
0 0 0 929 820454 -72639 0
0 0 0 895 821349 -71744 0
0 0 0 880 822229 -70864 0
0 0 0 900 823129 -69964 0
0 0 0 891 824020 -69073 0
0 0 0 878 824898 -68195 0
0 0 0 899 825797 -67296 0
0 0 0 876 826673 -66420 0
0 0 0 872 827545 -65548 0
0 0 0 900 828445 -64648 0
0 0 0 942 829387 -63706 0
0 0 0 974 830361 -62732 0
0 0 0 979 831340 -61753 0
0 0 0 1005 832345 -60748 0
0 0 0 998 833343 -59750 0
0 0 0 982 834325 -58768 0
0 0 0 978 835303 -57790 0
0 0 0 958 836261 -56832 0
0 0 0 920 837181 -55912 0
0 0 0 904 838085 -55008 0
0 0 0 887 838972 -54121 0
0 0 0 870 839842 -53251 0
0 0 0 859 840701 -52392 0
0 0 0 849 841550 -51543 0
0 0 0 844 842394 -50699 0
0 0 0 821 843215 -49878 0
0 0 0 829 844044 -49049 0
0 0 0 838 844882 -48211 0
0 0 0 800 845682 -47411 0
0 0 0 781 846463 -46630 0
0 0 0 778 847241 -45852 0
0 0 0 759 848000 -45093 0
0 0 0 740 848740 -44353 0
0 0 0 757 849497 -43596 0
0 0 0 792 850289 -42804 0
0 0 0 794 851083 -42010 0
0 0 0 774 851857 -41236 0
0 0 0 771 852628 -40465 0
0 0 0 756 853384 -39709 0
0 0 0 755 854139 -38954 0
0 0 0 746 854885 -38208 0
0 0 0 746 855631 -37462 0
0 0 0 752 856383 -36710 0
0 0 0 760 857143 -35950 0
0 0 0 772 857915 -35178 0
0 0 0 814 858729 -34364 0
0 0 0 893 859622 -33471 0
0 0 0 919 860541 -32552 0
0 0 0 923 861464 -31629 0
0 0 0 918 862382 -30711 0
0 0 0 922 863304 -29789 0
0 0 0 924 864228 -28865 0
0 0 0 939 865167 -27926 0
0 0 0 962 866129 -26964 0
0 0 0 940 867069 -26024 0
0 0 0 945 868014 -25079 0
0 0 0 923 868937 -24156 0
0 0 0 920 869857 -23236 0
0 0 0 910 870767 -22326 0
0 0 0 939 871706 -21387 0
0 0 0 922 872628 -20465 0
0 0 0 890 873518 -19575 0
0 0 0 874 874392 -18701 0
0 0 0 871 875263 -17830 0
0 0 0 822 876085 -17008 0
0 0 0 820 876905 -16188 0
0 0 0 794 877699 -15394 0
0 0 0 745 878444 -14649 0
0 0 0 784 879228 -13865 0
0 0 0 795 880023 -13070 0
0 0 0 895 880918 -12175 0
0 0 0 874 881792 -11301 0
0 0 0 875 882667 -10426 0
0 0 0 882 883549 -9544 0
0 0 0 857 884406 -8687 0
0 0 0 809 885215 -7878 0
0 0 0 786 886001 -7092 0
0 0 0 762 886763 -6330 0
0 0 0 741 887504 -5589 0
0 0 0 716 888220 -4873 0
0 0 0 723 888943 -4150 0
0 0 0 731 889674 -3419 0
0 0 0 744 890418 -2675 0
41 1 S102 786 891204 -1889 0
41 1 S102 1029 892233 -860 0
41 2 S102 1078 893311 218 0
41 2 S102 1072 894383 1290 0
41 2 S102 1114 895497 2404 1
41 2 S102 1071 896568 3475 0
41 2 S102 1038 897606 4513 0
41 2 S102 1028 898634 5541 0
41 2 S102 985 899619 6526 0
0 0 0 952 900571 -7045 0
0 0 0 912 901483 -6133 0
0 0 0 902 902385 -5231 0
0 0 0 922 903307 -4309 0
0 0 0 920 904227 -3389 0
0 0 0 965 905192 -2424 0
42 1 S112 956 906148 -1468 0
42 1 S112 958 907106 -510 0
42 2 S112 936 908042 426 0
42 2 S112 947 908989 1373 0
42 2 S112 1014 910003 2387 0
42 2 S112 1135 911138 3522 1
42 2 S112 1066 912204 4588 0
42 2 S112 1025 913229 5613 0
42 2 S112 1033 914262 6646 0
0 0 0 1049 915311 -9082 0
0 0 0 1005 916316 -8077 0
0 0 0 952 917268 -7125 0
0 0 0 937 918205 -6188 0
0 0 0 942 919147 -5246 0
0 0 0 939 920086 -4307 0
0 0 0 941 921027 -3366 0
0 0 0 947 921974 -2419 0
43 1 S116 930 922904 -1489 0
43 1 S116 923 923827 -566 0
43 2 S116 907 924734 341 0
43 2 S116 901 925635 1242 0
43 2 S116 892 926527 2134 0
43 2 S116 881 927408 3015 0
43 2 S116 855 928263 3870 0
43 2 S116 863 929126 4733 0
43 2 S116 885 930011 5618 0
43 2 S116 949 930960 6567 0
0 0 0 937 931897 -7781 0
0 0 0 961 932858 -6820 0
0 0 0 1045 933903 -5775 0
0 0 0 977 934880 -4798 0
0 0 0 911 935791 -3887 0
0 0 0 917 936708 -2970 0
0 0 0 912 937620 -2058 0
44 1 S102 883 938503 -1175 0
44 1 S102 839 939342 -336 0
44 2 S102 813 940155 477 0
44 2 S102 800 940955 1277 0
44 2 S102 788 941743 2065 0
44 2 S102 768 942511 2833 0
44 2 S102 739 943250 3572 0
44 2 S102 753 944003 4325 0
44 2 S102 788 944791 5113 0
44 2 S102 993 945784 6106 0
0 0 0 1042 946826 -8950 0
0 0 0 1012 947838 -7938 0
0 0 0 1052 948890 -6886 0
0 0 0 993 949883 -5893 0
0 0 0 932 950815 -4961 0
0 0 0 890 951705 -4071 0
0 0 0 846 952551 -3225 0
0 0 0 809 953360 -2416 0
45 1 S116 815 954175 -1601 0
45 1 S116 829 955004 -772 0
45 2 S116 846 955850 74 0
45 2 S116 785 956635 859 0
45 2 S116 812 957447 1671 0
45 2 S116 828 958275 2499 0
45 2 S116 904 959179 3403 0
45 2 S116 940 960119 4343 0
45 2 S116 939 961058 5282 0
45 2 S116 896 961954 6178 0
0 0 0 896 962850 -11444 0
0 0 0 897 963747 -10547 0
0 0 0 878 964625 -9669 0
0 0 0 864 965489 -8805 0
0 0 0 843 966332 -7962 0
0 0 0 836 967168 -7126 0
0 0 0 826 967994 -6300 0
0 0 0 799 968793 -5501 0
0 0 0 812 969605 -4689 0
0 0 0 836 970441 -3853 0
0 0 0 894 971335 -2959 0
0 0 0 893 972228 -2066 0
46 1 S102 876 973104 -1190 0
46 1 S102 867 973971 -323 0
46 2 S102 850 974821 527 0
46 2 S102 846 975667 1373 0
46 2 S102 847 976514 2220 0
46 2 S102 862 977376 3082 0
46 2 S102 885 978261 3967 0
46 2 S102 874 979135 4841 0
46 2 S102 879 980014 5720 0
46 2 S102 882 980896 6602 0
0 0 0 894 981790 -9596 0
0 0 0 898 982688 -8698 0
0 0 0 903 983591 -7795 0
0 0 0 918 984509 -6877 0
0 0 0 895 985404 -5982 0
0 0 0 871 986275 -5111 0
0 0 0 862 987137 -4249 0
0 0 0 859 987996 -3390 0
0 0 0 848 988844 -2542 0
47 1 S112 820 989664 -1722 0
47 1 S112 827 990491 -895 0
47 1 S112 827 991318 -68 0
47 2 S112 846 992164 778 0
47 2 S112 893 993057 1671 0
47 2 S112 914 993971 2585 0
47 2 S112 919 994890 3504 0
47 2 S112 908 995798 4412 0
47 2 S112 888 996686 5300 0
47 2 S112 886 997572 6186 0
0 0 0 907 998479 -12304 0
0 0 0 918 999397 -11386 0
0 0 0 893 1000290 -10493 0
0 0 0 899 1001189 -9594 0
0 0 0 876 1002065 -8718 0
0 0 0 859 1002924 -7859 0
0 0 0 865 1003789 -6994 0
0 0 0 862 1004651 -6132 0
0 0 0 877 1005528 -5255 0
0 0 0 891 1006419 -4364 0
0 0 0 886 1007305 -3478 0
0 0 0 868 1008173 -2610 0
48 1 S116 867 1009040 -1743 0
48 1 S116 847 1009887 -896 0
48 1 S116 825 1010712 -71 0
48 2 S116 788 1011500 717 0
48 2 S116 793 1012293 1510 0
48 2 S116 808 1013101 2318 0
48 2 S116 845 1013946 3163 0
48 2 S116 894 1014840 4057 0
48 2 S116 880 1015720 4937 0
48 2 S116 837 1016557 5774 0
48 2 S116 861 1017418 6635 0
0 0 0 888 1018306 -8194 0
0 0 0 943 1019249 -7251 0
0 0 0 913 1020162 -6338 0
0 0 0 868 1021030 -5470 0
0 0 0 851 1021881 -4619 0
0 0 0 805 1022686 -3814 0
0 0 0 759 1023445 -3055 0
0 0 0 720 1024165 -2335 0
49 1 S112 700 1024865 -1635 0
49 1 S112 704 1025569 -931 0
49 1 S112 701 1026270 -230 0
49 2 S112 726 1026996 496 0
49 2 S112 731 1027727 1227 0
49 2 S112 779 1028506 2006 0
49 2 S112 805 1029311 2811 0
49 2 S112 787 1030098 3598 0
49 2 S112 774 1030872 4372 0
49 2 S112 785 1031657 5157 0
49 2 S112 817 1032474 5974 0
49 2 S112 887 1033361 6861 0
0 0 0 957 1034318 -10915 0
0 0 0 931 1035249 -9984 0
0 0 0 921 1036170 -9063 0
0 0 0 900 1037070 -8163 0
0 0 0 882 1037952 -7281 0
0 0 0 838 1038790 -6443 0
0 0 0 775 1039565 -5668 0
0 0 0 781 1040346 -4887 0
0 0 0 806 1041152 -4081 0
0 0 0 936 1042088 -3145 0
0 0 0 971 1043059 -2174 0
50 1 S106 925 1043984 -1249 0
50 1 S106 881 1044865 -368 0
50 2 S106 846 1045711 478 0
50 2 S106 798 1046509 1276 0
50 2 S106 782 1047291 2058 0
50 2 S106 779 1048070 2837 0
50 2 S106 798 1048868 3635 0
50 2 S106 805 1049673 4440 0
50 2 S106 811 1050484 5251 0
50 2 S106 806 1051290 6057 0
50 2 S106 814 1052104 6871 0
0 0 0 865 1052969 -7135 0
0 0 0 955 1053924 -6180 0
0 0 0 1054 1054978 -5126 0
0 0 0 980 1055958 -4146 0
0 0 0 913 1056871 -3233 0
0 0 0 894 1057765 -2339 0
51 1 S112 872 1058637 -1467 0
51 1 S112 878 1059515 -589 0
51 2 S112 875 1060390 286 0
51 2 S112 852 1061242 1138 0
51 2 S112 823 1062065 1961 0
51 2 S112 806 1062871 2767 0
51 2 S112 811 1063682 3578 0
51 2 S112 845 1064527 4423 0
51 2 S112 854 1065381 5277 0
51 2 S112 851 1066232 6128 0
51 2 S112 899 1067131 7027 0
0 0 0 924 1068055 -7318 0
0 0 0 935 1068990 -6383 0
0 0 0 925 1069915 -5458 0
0 0 0 890 1070805 -4568 0
0 0 0 853 1071658 -3715 0
0 0 0 822 1072480 -2893 0
0 0 0 785 1073265 -2108 0
52 1 S116 748 1074013 -1360 0
52 1 S116 760 1074773 -600 0
52 2 S116 784 1075557 184 0
52 2 S116 909 1076466 1093 0
52 2 S116 1082 1077548 2175 0
52 2 S116 1036 1078584 3211 0
52 2 S116 985 1079569 4196 0
52 2 S116 954 1080523 5150 0
52 2 S116 925 1081448 6075 0
52 2 S116 925 1082373 7000 0
0 0 0 966 1083339 -9424 0
0 0 0 962 1084301 -8462 0
0 0 0 945 1085246 -7517 0
0 0 0 899 1086145 -6618 0
0 0 0 892 1087037 -5726 0
0 0 0 885 1087922 -4841 0
0 0 0 919 1088841 -3922 0
0 0 0 902 1089743 -3020 0
0 0 0 906 1090649 -2114 0
53 1 S106 952 1091601 -1162 0
53 1 S106 1068 1092669 -94 0
53 2 S106 1021 1093690 927 0
53 2 S106 992 1094682 1919 0
53 2 S106 918 1095600 2837 0
53 2 S106 884 1096484 3721 0
53 2 S106 885 1097369 4606 0
53 2 S106 906 1098275 5512 0
53 2 S106 995 1099270 6507 0
0 0 0 1000 1100270 -7298 0
0 0 0 944 1101214 -6354 0
0 0 0 954 1102168 -5400 0
0 0 0 963 1103131 -4437 0
0 0 0 912 1104043 -3525 0
0 0 0 883 1104926 -2642 0
54 1 S102 854 1105780 -1788 0
54 1 S102 804 1106584 -984 0
54 1 S102 787 1107371 -197 0
54 2 S102 772 1108143 575 0
54 2 S102 763 1108906 1338 0
54 2 S102 776 1109682 2114 0
54 2 S102 865 1110547 2979 0
54 2 S102 936 1111483 3915 0
54 2 S102 952 1112435 4867 0
54 2 S102 918 1113353 5785 0
54 2 S102 872 1114225 6657 0
0 0 0 853 1115078 -10942 0
0 0 0 847 1115925 -10095 0
0 0 0 858 1116783 -9237 0
0 0 0 878 1117661 -8359 0
0 0 0 836 1118497 -7523 0
0 0 0 853 1119350 -6670 0
0 0 0 811 1120161 -5859 0
0 0 0 800 1120961 -5059 0
0 0 0 874 1121835 -4185 0
0 0 0 977 1122812 -3208 0
0 0 0 948 1123760 -2260 0
55 1 S106 915 1124675 -1345 0
55 1 S106 891 1125566 -454 0
55 2 S106 902 1126468 448 0
55 2 S106 920 1127388 1368 0
55 2 S106 933 1128321 2301 0
55 2 S106 928 1129249 3229 0
55 2 S106 902 1130151 4131 0
55 2 S106 866 1131017 4997 0
55 2 S106 878 1131895 5875 0
55 2 S106 943 1132838 6818 0
0 0 0 1081 1133919 -6341 0
0 0 0 1019 1134938 -5322 0
0 0 0 959 1135897 -4363 0
0 0 0 907 1136804 -3456 0
0 0 0 897 1137701 -2559 0
56 1 S116 937 1138638 -1622 0
56 1 S116 994 1139632 -628 0
56 2 S116 1007 1140639 379 0
56 2 S116 966 1141605 1345 0
56 2 S116 933 1142538 2278 0
56 2 S116 900 1143438 3178 0
56 2 S116 901 1144339 4079 0
56 2 S116 912 1145251 4991 0
56 2 S116 925 1146176 5916 0
56 2 S116 934 1147110 6850 0
0 0 0 926 1148036 -7195 0
0 0 0 920 1148956 -6275 0
0 0 0 928 1149884 -5347 0
0 0 0 938 1150822 -4409 0
0 0 0 940 1151762 -3469 0
0 0 0 913 1152675 -2556 0
57 1 S106 895 1153570 -1661 0
57 1 S106 924 1154494 -737 0
57 2 S106 943 1155437 206 0
57 2 S106 965 1156402 1171 0
57 2 S106 953 1157355 2124 0
57 2 S106 914 1158269 3038 0
57 2 S106 898 1159167 3936 0
57 2 S106 887 1160054 4823 0
57 2 S106 872 1160926 5695 0
57 2 S106 877 1161803 6572 0
0 0 0 860 1162663 -8732 0
0 0 0 856 1163519 -7876 0
0 0 0 843 1164362 -7033 0
0 0 0 859 1165221 -6174 0
0 0 0 866 1166087 -5308 0
0 0 0 866 1166953 -4442 0
0 0 0 890 1167843 -3552 0
0 0 0 941 1168784 -2611 0
58 1 S102 939 1169723 -1672 0
58 1 S102 906 1170629 -766 0
58 2 S102 873 1171502 107 0
58 2 S102 827 1172329 934 0
58 2 S102 792 1173121 1726 0
58 2 S102 817 1173938 2543 0
58 2 S102 906 1174844 3449 0
58 2 S102 1096 1175940 4545 0
58 2 S102 1026 1176966 5571 0
58 2 S102 1016 1177982 6587 0
0 0 0 966 1178948 -7301 0
0 0 0 919 1179867 -6382 0
0 0 0 907 1180774 -5475 0
0 0 0 912 1181686 -4563 0
0 0 0 879 1182565 -3684 0
0 0 0 861 1183426 -2823 0
0 0 0 822 1184248 -2001 0
59 1 S112 802 1185050 -1199 0
59 1 S112 827 1185877 -372 0
59 2 S112 880 1186757 508 0
59 2 S112 1015 1187772 1523 0
59 2 S112 985 1188757 2508 0
59 2 S112 941 1189698 3449 0
59 2 S112 887 1190585 4336 0
59 2 S112 858 1191443 5194 0
59 2 S112 837 1192280 6031 0
59 2 S112 852 1193132 6883 0
0 0 0 903 1194035 -9389 0
0 0 0 940 1194975 -8449 0
0 0 0 919 1195894 -7530 0
0 0 0 918 1196812 -6612 0
0 0 0 889 1197701 -5723 0
0 0 0 877 1198578 -4846 0
0 0 0 855 1199433 -3991 0
0 0 0 870 1200303 -3121 0
0 0 0 883 1201186 -2238 0
60 1 S102 962 1202148 -1276 0
60 1 S102 965 1203113 -311 0
60 2 S102 954 1204067 643 0
60 2 S102 951 1205018 1594 0
60 2 S102 929 1205947 2523 0
60 2 S102 946 1206893 3469 0
60 2 S102 975 1207868 4444 0
60 2 S102 1030 1208898 5474 0
60 2 S102 1030 1209928 6504 0
0 0 0 1002 1210930 -10963 0
0 0 0 945 1211875 -10018 0
0 0 0 913 1212788 -9105 0
0 0 0 880 1213668 -8225 0
0 0 0 872 1214540 -7353 0
0 0 0 888 1215428 -6465 0
0 0 0 899 1216327 -5566 0
0 0 0 878 1217205 -4688 0
0 0 0 883 1218088 -3805 0
0 0 0 920 1219008 -2885 0
61 1 S106 957 1219965 -1928 0
61 1 S106 973 1220938 -955 0
61 1 S106 946 1221884 -9 0
61 2 S106 925 1222809 916 0
61 2 S106 945 1223754 1861 0
61 2 S106 975 1224729 2836 0
61 2 S106 999 1225728 3835 0
61 2 S106 948 1226676 4783 0
61 2 S106 902 1227578 5685 0
61 2 S106 853 1228431 6538 0
0 0 0 822 1229253 -7676 0
0 0 0 802 1230055 -6874 0
0 0 0 721 1230776 -6153 0
0 0 0 746 1231522 -5407 0
0 0 0 722 1232244 -4685 0
0 0 0 730 1232974 -3955 0
0 0 0 763 1233737 -3192 0
0 0 0 789 1234526 -2403 0
62 1 S112 769 1235295 -1634 0
62 1 S112 805 1236100 -829 0
62 2 S112 871 1236971 42 0
62 2 S112 962 1237933 1004 0
62 2 S112 981 1238914 1985 0
62 2 S112 949 1239863 2934 0
62 2 S112 890 1240753 3824 0
62 2 S112 864 1241617 4688 0
62 2 S112 845 1242462 5533 0
62 2 S112 848 1243310 6381 0
0 0 0 855 1244165 -12277 0
0 0 0 900 1245065 -11377 0
0 0 0 880 1245945 -10497 0
0 0 0 871 1246816 -9626 0
0 0 0 894 1247710 -8732 0
0 0 0 908 1248618 -7824 0
0 0 0 930 1249548 -6894 0
0 0 0 904 1250452 -5990 0
0 0 0 893 1251345 -5097 0
0 0 0 934 1252279 -4163 0
0 0 0 992 1253271 -3171 0
0 0 0 997 1254268 -2174 0
63 1 S102 971 1255239 -1203 0
63 1 S102 928 1256167 -275 0
63 2 S102 939 1257106 664 0
63 2 S102 1005 1258111 1669 0
63 2 S102 976 1259087 2645 0
63 2 S102 947 1260034 3592 0
63 2 S102 899 1260933 4491 0
63 2 S102 854 1261787 5345 0
63 2 S102 857 1262644 6202 0
0 0 0 881 1263525 -9064 0
0 0 0 950 1264475 -8114 0
0 0 0 1011 1265486 -7103 0
0 0 0 943 1266429 -6160 0
0 0 0 878 1267307 -5282 0
0 0 0 820 1268127 -4462 0
0 0 0 782 1268909 -3680 0
0 0 0 786 1269695 -2894 0
0 0 0 760 1270455 -2134 0
64 1 S112 760 1271215 -1374 0
64 1 S112 789 1272004 -585 0
64 2 S112 863 1272867 278 0
64 2 S112 1101 1273968 1379 1
64 2 S112 1005 1274973 2384 0
64 2 S112 965 1275938 3349 0
64 2 S112 939 1276877 4288 0
64 2 S112 931 1277808 5219 0
64 2 S112 912 1278720 6131 0
64 2 S112 883 1279603 7014 0
0 0 0 875 1280478 -6949 0
0 0 0 860 1281338 -6089 0
0 0 0 868 1282206 -5221 0
0 0 0 882 1283088 -4339 0
0 0 0 891 1283979 -3448 0
0 0 0 859 1284838 -2589 0
65 1 S106 845 1285683 -1744 0
65 1 S106 859 1286542 -885 0
65 2 S106 891 1287433 6 0
65 2 S106 904 1288337 910 0
65 2 S106 892 1289229 1802 0
65 2 S106 860 1290089 2662 0
65 2 S106 842 1290931 3504 0
65 2 S106 822 1291753 4326 0
65 2 S106 811 1292564 5137 0
65 2 S106 810 1293374 5947 0
65 2 S106 812 1294186 6759 0
0 0 0 810 1294996 -6605 0
0 0 0 841 1295837 -5764 0
0 0 0 942 1296779 -4822 0
0 0 0 1052 1297831 -3770 0
0 0 0 1019 1298850 -2751 0
66 1 S116 988 1299838 -1763 0
66 1 S116 973 1300811 -790 0
66 2 S116 933 1301744 143 0
66 2 S116 896 1302640 1039 0
66 2 S116 861 1303501 1900 0
66 2 S116 845 1304346 2745 0
66 2 S116 823 1305169 3568 0
66 2 S116 838 1306007 4406 0
66 2 S116 913 1306920 5319 0
66 2 S116 938 1307858 6257 0
0 0 0 917 1308775 -11991 0
0 0 0 925 1309700 -11066 0
0 0 0 875 1310575 -10191 0
0 0 0 893 1311468 -9298 0
0 0 0 923 1312391 -8375 0
0 0 0 935 1313326 -7440 0
0 0 0 944 1314270 -6496 0
0 0 0 901 1315171 -5595 0
0 0 0 890 1316061 -4705 0
0 0 0 892 1316953 -3813 0
0 0 0 892 1317845 -2921 0
0 0 0 888 1318733 -2033 0
67 1 S102 856 1319589 -1177 0
67 1 S102 789 1320378 -388 0
67 2 S102 766 1321144 378 0
67 2 S102 777 1321921 1155 0
67 2 S102 838 1322759 1993 0
67 2 S102 1134 1323893 3127 1
67 2 S102 1011 1324904 4138 0
67 2 S102 993 1325897 5131 0
67 2 S102 937 1326834 6068 0
67 2 S102 901 1327735 6969 0
0 0 0 895 1328630 -6476 0
0 0 0 904 1329534 -5572 0
0 0 0 928 1330462 -4644 0
0 0 0 881 1331343 -3763 0
0 0 0 865 1332208 -2898 0
0 0 0 852 1333060 -2046 0
68 1 S106 830 1333890 -1216 0
68 1 S106 829 1334719 -387 0
68 2 S106 844 1335563 457 0
68 2 S106 853 1336416 1310 0
68 2 S106 851 1337267 2161 0
68 2 S106 877 1338144 3038 0
68 2 S106 915 1339059 3953 0
68 2 S106 955 1340014 4908 0
68 2 S106 956 1340970 5864 0
68 2 S106 950 1341920 6814 0
0 0 0 908 1342828 -10415 0
0 0 0 915 1343743 -9500 0
0 0 0 909 1344652 -8591 0
0 0 0 900 1345552 -7691 0
0 0 0 883 1346435 -6808 0
0 0 0 871 1347306 -5937 0
0 0 0 876 1348182 -5061 0
0 0 0 910 1349092 -4151 0
0 0 0 979 1350071 -3172 0
0 0 0 992 1351063 -2180 0
69 1 S102 978 1352041 -1202 0
69 1 S102 933 1352974 -269 0
69 2 S102 939 1353913 670 0
69 2 S102 948 1354861 1618 0
69 2 S102 968 1355829 2586 0
69 2 S102 966 1356795 3552 0
69 2 S102 975 1357770 4527 0
69 2 S102 943 1358713 5470 0
69 2 S102 911 1359624 6381 0
0 0 0 895 1360519 -9916 0
0 0 0 900 1361419 -9016 0
0 0 0 915 1362334 -8101 0
0 0 0 938 1363272 -7163 0
0 0 0 931 1364203 -6232 0
0 0 0 918 1365121 -5314 0
0 0 0 898 1366019 -4416 0
0 0 0 852 1366871 -3564 0
0 0 0 801 1367672 -2763 0
70 1 S112 814 1368486 -1949 0
70 1 S112 832 1369318 -1117 0
70 1 S112 911 1370229 -206 0
70 2 S112 949 1371178 743 0
70 2 S112 959 1372137 1702 0
70 2 S112 983 1373120 2685 0
70 2 S112 949 1374069 3634 0
70 2 S112 911 1374980 4545 0
70 2 S112 852 1375832 5397 0
70 2 S112 809 1376641 6206 0
70 2 S112 795 1377436 7001 0
0 0 0 816 1378252 -11314 0
0 0 0 898 1379150 -10416 0
0 0 0 972 1380122 -9444 0
0 0 0 942 1381064 -8502 0
0 0 0 915 1381979 -7587 0
0 0 0 889 1382868 -6698 0
0 0 0 868 1383736 -5830 0
0 0 0 804 1384540 -5026 0
0 0 0 792 1385332 -4234 0
0 0 0 802 1386134 -3432 0
0 0 0 895 1387029 -2537 0
71 1 S116 969 1387998 -1568 0
71 1 S116 954 1388952 -614 0
71 2 S116 952 1389904 338 0
71 2 S116 940 1390844 1278 0
71 2 S116 940 1391784 2218 0
71 2 S116 953 1392737 3171 0
71 2 S116 1016 1393753 4187 0
71 2 S116 1024 1394777 5211 0
71 2 S116 995 1395772 6206 0
0 0 0 1005 1396777 -9683 0
0 0 0 1003 1397780 -8680 0
0 0 0 1030 1398810 -7650 0
0 0 0 1006 1399816 -6644 0
0 0 0 935 1400751 -5709 0
0 0 0 956 1401707 -4753 0
0 0 0 986 1402693 -3767 0
0 0 0 954 1403647 -2813 0
72 1 S102 926 1404573 -1887 0
72 1 S102 877 1405450 -1010 0
72 1 S102 850 1406300 -160 0
72 2 S102 827 1407127 667 0
72 2 S102 840 1407967 1507 0
72 2 S102 879 1408846 2386 0
72 2 S102 893 1409739 3279 0
72 2 S102 876 1410615 4155 0
72 2 S102 846 1411461 5001 0
72 2 S102 849 1412310 5850 0
72 2 S102 872 1413182 6722 0
0 0 0 920 1414102 -7129 0
0 0 0 926 1415028 -6203 0
0 0 0 939 1415967 -5264 0
0 0 0 926 1416893 -4338 0
0 0 0 906 1417799 -3432 0
0 0 0 890 1418689 -2542 0
73 1 S116 849 1419538 -1693 0
73 1 S116 772 1420310 -921 0
73 1 S116 736 1421046 -185 0
73 2 S116 758 1421804 573 0
73 2 S116 883 1422687 1456 0
73 2 S116 1480 1424167 2936 1
73 2 S116 1209 1425376 4145 1
73 2 S116 1109 1426485 5254 1
73 2 S116 1048 1427533 6302 0
0 0 0 983 1428516 -9957 0
0 0 0 939 1429455 -9018 0
0 0 0 898 1430353 -8120 0
0 0 0 889 1431242 -7231 0
0 0 0 870 1432112 -6361 0
0 0 0 856 1432968 -5505 0
0 0 0 861 1433829 -4644 0
0 0 0 839 1434668 -3805 0
0 0 0 849 1435517 -2956 0
0 0 0 877 1436394 -2079 0
74 1 S106 927 1437321 -1152 0
74 1 S106 942 1438263 -210 0
74 2 S106 920 1439183 710 0
74 2 S106 915 1440098 1625 0
74 2 S106 908 1441006 2533 0
74 2 S106 926 1441932 3459 0
74 2 S106 934 1442866 4393 0
74 2 S106 932 1443798 5325 0
74 2 S106 925 1444723 6250 0
0 0 0 905 1445628 -7997 0
0 0 0 885 1446513 -7112 0
0 0 0 865 1447378 -6247 0
0 0 0 883 1448261 -5364 0
0 0 0 904 1449165 -4460 0
0 0 0 844 1450009 -3616 0
0 0 0 834 1450843 -2782 0
75 1 S112 881 1451724 -1901 0
75 1 S112 910 1452634 -991 0
75 1 S112 881 1453515 -110 0
75 2 S112 866 1454381 756 0
75 2 S112 886 1455267 1642 0
75 2 S112 911 1456178 2553 0
75 2 S112 950 1457128 3503 0
75 2 S112 923 1458051 4426 0
75 2 S112 910 1458961 5336 0
75 2 S112 892 1459853 6228 0
0 0 0 922 1460775 -7323 0
0 0 0 1008 1461783 -6315 0
0 0 0 1049 1462832 -5266 0
0 0 0 1000 1463832 -4266 0
0 0 0 963 1464795 -3303 0
0 0 0 967 1465762 -2336 0
76 1 S116 943 1466705 -1393 0
76 1 S116 907 1467612 -486 0
76 2 S116 854 1468466 368 0
76 2 S116 839 1469305 1207 0
76 2 S116 861 1470166 2068 0
76 2 S116 924 1471090 2992 0
76 2 S116 961 1472051 3953 0
76 2 S116 946 1472997 4899 0
76 2 S116 912 1473909 5811 0
76 2 S116 930 1474839 6741 0
0 0 0 924 1475763 -7156 0
0 0 0 967 1476730 -6189 0
0 0 0 994 1477724 -5195 0
0 0 0 961 1478685 -4234 0
0 0 0 961 1479646 -3273 0
0 0 0 984 1480630 -2289 0
77 1 S106 969 1481599 -1320 0
77 1 S106 923 1482522 -397 0
77 2 S106 901 1483423 504 0
77 2 S106 899 1484322 1403 0
77 2 S106 904 1485226 2307 0
77 2 S106 917 1486143 3224 0
77 2 S106 916 1487059 4140 0
77 2 S106 877 1487936 5017 0
77 2 S106 882 1488818 5899 0
77 2 S106 874 1489692 6773 0
0 0 0 831 1490523 -8395 0
0 0 0 805 1491328 -7590 0
0 0 0 848 1492176 -6742 0
0 0 0 845 1493021 -5897 0
0 0 0 821 1493842 -5076 0
0 0 0 822 1494664 -4254 0
0 0 0 813 1495477 -3441 0
0 0 0 827 1496304 -2614 0
78 1 S112 860 1497164 -1754 0
78 1 S112 848 1498012 -906 0
78 1 S112 803 1498815 -103 0
78 2 S112 831 1499646 728 0
78 2 S112 868 1500514 1596 0
78 2 S112 983 1501497 2579 0
78 2 S112 976 1502473 3555 0
78 2 S112 941 1503414 4496 0
78 2 S112 907 1504321 5403 0
78 2 S112 879 1505200 6282 0
0 0 0 861 1506061 -11458 0
0 0 0 859 1506920 -10599 0
0 0 0 860 1507780 -9739 0
0 0 0 838 1508618 -8901 0
0 0 0 814 1509432 -8087 0
0 0 0 798 1510230 -7289 0
0 0 0 772 1511002 -6517 0
0 0 0 790 1511792 -5727 0
0 0 0 818 1512610 -4909 0
0 0 0 898 1513508 -4011 0
0 0 0 958 1514466 -3053 0
0 0 0 928 1515394 -2125 0
79 1 S102 908 1516302 -1217 0
79 1 S102 909 1517211 -308 0
79 2 S102 881 1518092 573 0
79 2 S102 882 1518974 1455 0
79 2 S102 856 1519830 2311 0
79 2 S102 866 1520696 3177 0
79 2 S102 879 1521575 4056 0
79 2 S102 937 1522512 4993 0
79 2 S102 928 1523440 5921 0
79 2 S102 932 1524372 6853 0
0 0 0 976 1525348 -8567 0
0 0 0 979 1526327 -7588 0
0 0 0 959 1527286 -6629 0
0 0 0 930 1528216 -5699 0
0 0 0 907 1529123 -4792 0
0 0 0 837 1529960 -3955 0
0 0 0 789 1530749 -3166 0
0 0 0 770 1531519 -2396 0
80 1 S116 816 1532335 -1580 0
80 1 S116 1114 1533449 -466 1
80 2 S116 1029 1534478 563 0
80 2 S116 1097 1535575 1660 1
80 2 S116 1103 1536678 2763 1
80 2 S116 1052 1537730 3815 0
80 2 S116 975 1538705 4790 0
80 2 S116 930 1539635 5720 0
80 2 S116 895 1540530 6615 0
