T_0067
BeatCount Mean SD BeatCountNoOutliers MeanNoOutliers SDNoOutliers
1741 906,16829408386 99,7713641737932 1710 906,097660818714 89,0531337633853

Trial TrialStatus Trialtype IBI AbsPosition RelPosition Outlier
0 0 0 849 1044 -14858 0
0 0 0 884 1928 -13974 0
0 0 0 900 2828 -13074 0
0 0 0 797 3625 -12277 0
0 0 0 754 4379 -11523 0
0 0 0 792 5171 -10731 0
0 0 0 843 6014 -9888 0
0 0 0 983 6997 -8905 0
0 0 0 994 7991 -7911 0
0 0 0 1023 9014 -6888 0
0 0 0 972 9986 -5916 0
0 0 0 936 10922 -4980 0
0 0 0 930 11852 -4050 0
0 0 0 950 12802 -3100 0
0 0 0 965 13767 -2135 0
1 1 S112 973 14740 -1162 0
1 1 S112 937 15677 -225 0
1 2 S112 877 16554 652 0
1 2 S112 899 17453 1551 0
1 2 S112 1009 18462 2560 0
1 2 S112 1094 19556 3654 0
1 2 S112 1054 20610 4708 0
1 2 S112 977 21587 5685 0
1 2 S112 991 22578 6676 0
0 0 0 995 23573 -12339 0
0 0 0 982 24555 -11357 0
0 0 0 983 25538 -10374 0
0 0 0 953 26491 -9421 0
0 0 0 943 27434 -8478 0
0 0 0 927 28361 -7551 0
0 0 0 893 29254 -6658 0
0 0 0 840 30094 -5818 0
0 0 0 854 30948 -4964 0
0 0 0 888 31836 -4076 0
0 0 0 955 32791 -3121 0
0 0 0 994 33785 -2127 0
2 1 S102 958 34743 -1169 0
2 1 S102 909 35652 -260 0
2 2 S102 956 36608 696 0
2 2 S102 1014 37622 1710 0
2 2 S102 1042 38664 2752 0
2 2 S102 1020 39684 3772 0
2 2 S102 896 40580 4668 0
2 2 S102 912 41492 5580 0
2 2 S102 992 42484 6572 0
0 0 0 1038 43522 -9251 0
0 0 0 1024 44546 -8227 0
0 0 0 999 45545 -7228 0
0 0 0 964 46509 -6264 0
0 0 0 946 47455 -5318 0
0 0 0 901 48356 -4417 0
0 0 0 918 49274 -3499 0
0 0 0 998 50272 -2501 0
3 1 S116 1065 51337 -1436 0
3 1 S116 1077 52414 -359 0
3 2 S116 1086 53500 727 0
3 2 S116 1142 54642 1869 0
3 2 S116 1114 55756 2983 0
3 2 S116 1054 56810 4037 0
3 2 S116 910 57720 4947 0
3 2 S116 912 58632 5859 0
3 2 S116 982 59614 6841 0
0 0 0 1030 60644 -11691 0
0 0 0 1067 61711 -10624 0
0 0 0 1019 62730 -9605 0
0 0 0 1011 63741 -8594 0
0 0 0 981 64722 -7613 0
0 0 0 933 65655 -6680 0
0 0 0 844 66499 -5836 0
0 0 0 843 67342 -4993 0
0 0 0 818 68160 -4175 0
0 0 0 812 68972 -3363 0
0 0 0 914 69886 -2449 0
4 1 S106 976 70862 -1473 0
4 1 S106 942 71804 -531 0
4 2 S106 832 72636 301 0
4 2 S106 843 73479 1144 0
4 2 S106 893 74372 2037 0
4 2 S106 936 75308 2973 0
4 2 S106 934 76242 3907 0
4 2 S106 884 77126 4791 0
4 2 S106 829 77955 5620 0
4 2 S106 843 78798 6463 0
0 0 0 879 79677 -8872 0
0 0 0 962 80639 -7910 0
0 0 0 999 81638 -6911 0
0 0 0 1029 82667 -5882 0
0 0 0 976 83643 -4906 0
0 0 0 936 84579 -3970 0
0 0 0 924 85503 -3046 0
0 0 0 904 86407 -2142 0
5 1 S116 893 87300 -1249 0
5 1 S116 954 88254 -295 0
5 2 S116 960 89214 665 0
5 2 S116 1031 90245 1696 0
5 2 S116 992 91237 2688 0
5 2 S116 878 92115 3566 0
5 2 S116 840 92955 4406 0
5 2 S116 878 93833 5284 0
5 2 S116 922 94755 6206 0
0 0 0 1025 95780 -10259 0
0 0 0 1018 96798 -9241 0
0 0 0 917 97715 -8324 0
0 0 0 946 98661 -7378 0
0 0 0 953 99614 -6425 0
0 0 0 938 100552 -5487 0
0 0 0 920 101472 -4567 0
0 0 0 864 102336 -3703 0
0 0 0 892 103228 -2811 0
6 1 S106 916 104144 -1895 0
6 1 S106 961 105105 -934 0
6 1 S106 915 106020 -19 0
6 2 S106 836 106856 817 0
6 2 S106 885 107741 1702 0
6 2 S106 1007 108748 2709 0
6 2 S106 1040 109788 3749 0
6 2 S106 1040 110828 4789 0
6 2 S106 954 111782 5743 0
6 2 S106 881 112663 6624 0
0 0 0 910 113573 -11863 0
0 0 0 961 114534 -10902 0
0 0 0 987 115521 -9915 0
0 0 0 981 116502 -8934 0
0 0 0 943 117445 -7991 0
0 0 0 908 118353 -7083 0
0 0 0 934 119287 -6149 0
0 0 0 970 120257 -5179 0
0 0 0 1017 121274 -4162 0
0 0 0 1030 122304 -3132 0
0 0 0 1017 123321 -2115 0
7 1 S102 953 124274 -1162 0
7 1 S102 931 125205 -231 0
7 2 S102 929 126134 698 0
7 2 S102 946 127080 1644 0
7 2 S102 919 127999 2563 0
7 2 S102 833 128832 3396 0
7 2 S102 833 129665 4229 0
7 2 S102 897 130562 5126 0
7 2 S102 1013 131575 6139 0
0 0 0 1080 132655 -10089 0
0 0 0 1043 133698 -9046 0
0 0 0 980 134678 -8066 0
0 0 0 968 135646 -7098 0
0 0 0 953 136599 -6145 0
0 0 0 931 137530 -5214 0
0 0 0 893 138423 -4321 0
0 0 0 912 139335 -3409 0
0 0 0 919 140254 -2490 0
8 1 S112 921 141175 -1569 0
8 1 S112 878 142053 -691 0
8 2 S112 809 142862 118 0
8 2 S112 784 143646 902 0
8 2 S112 804 144450 1706 0
8 2 S112 884 145334 2590 0
8 2 S112 977 146311 3567 0
8 2 S112 1043 147354 4610 0
8 2 S112 983 148337 5593 0
8 2 S112 929 149266 6522 0
0 0 0 874 150140 -7574 0
0 0 0 846 150986 -6728 0
0 0 0 858 151844 -5870 0
0 0 0 867 152711 -5003 0
0 0 0 875 153586 -4128 0
0 0 0 818 154404 -3310 0
0 0 0 788 155192 -2522 0
9 1 S116 802 155994 -1720 0
9 1 S116 786 156780 -934 0
9 1 S116 758 157538 -176 0
9 2 S116 813 158351 637 0
9 2 S116 911 159262 1548 0
9 2 S116 970 160232 2518 0
9 2 S116 941 161173 3459 0
9 2 S116 904 162077 4363 0
9 2 S116 876 162953 5239 0
9 2 S116 861 163814 6100 0
9 2 S116 871 164685 6971 0
0 0 0 901 165586 -11773 0
0 0 0 925 166511 -10848 0
0 0 0 965 167476 -9883 0
0 0 0 962 168438 -8921 0
0 0 0 901 169339 -8020 0
0 0 0 903 170242 -7117 0
0 0 0 960 171202 -6157 0
0 0 0 1000 172202 -5157 0
0 0 0 826 173028 -4331 0
0 0 0 763 173791 -3568 0
0 0 0 761 174552 -2807 0
10 1 S102 812 175364 -1995 0
10 1 S102 926 176290 -1069 0
10 2 S102 1166 177456 97 1
10 2 S102 1150 178606 1247 0
10 2 S102 1071 179677 2318 0
10 2 S102 969 180646 3287 0
10 2 S102 886 181532 4173 0
10 2 S102 858 182390 5031 0
10 2 S102 856 183246 5887 0
10 2 S102 868 184114 6755 0
0 0 0 872 184986 -11123 0
0 0 0 905 185891 -10218 0
0 0 0 936 186827 -9282 0
0 0 0 944 187771 -8338 0
0 0 0 886 188657 -7452 0
0 0 0 899 189556 -6553 0
0 0 0 881 190437 -5672 0
0 0 0 782 191219 -4890 0
0 0 0 824 192043 -4066 0
0 0 0 868 192911 -3198 0
0 0 0 839 193750 -2359 0
11 1 S112 839 194589 -1520 0
11 1 S112 876 195465 -644 0
11 2 S112 897 196362 253 0
11 2 S112 905 197267 1158 0
11 2 S112 925 198192 2083 0
11 2 S112 904 199096 2987 0
11 2 S112 886 199982 3873 0
11 2 S112 904 200886 4777 0
11 2 S112 843 201729 5620 0
11 2 S112 798 202527 6418 0
0 0 0 839 203366 -8194 0
0 0 0 894 204260 -7300 0
0 0 0 945 205205 -6355 0
0 0 0 989 206194 -5366 0
0 0 0 995 207189 -4371 0
0 0 0 935 208124 -3436 0
0 0 0 920 209044 -2516 0
12 1 S116 930 209974 -1586 0
12 1 S116 935 210909 -651 0
12 2 S116 948 211857 297 0
12 2 S116 1025 212882 1322 0
12 2 S116 1067 213949 2389 0
12 2 S116 1058 215007 3447 0
12 2 S116 989 215996 4436 0
12 2 S116 923 216919 5359 0
12 2 S116 921 217840 6280 0
0 0 0 974 218814 -12226 0
0 0 0 949 219763 -11277 0
0 0 0 941 220704 -10336 0
0 0 0 907 221611 -9429 0
0 0 0 895 222506 -8534 0
0 0 0 906 223412 -7628 0
0 0 0 914 224326 -6714 0
0 0 0 913 225239 -5801 0
0 0 0 908 226147 -4893 0
0 0 0 837 226984 -4056 0
0 0 0 859 227843 -3197 0
0 0 0 878 228721 -2319 0
13 1 S112 904 229625 -1415 0
13 1 S112 883 230508 -532 0
13 2 S112 830 231338 298 0
13 2 S112 850 232188 1148 0
13 2 S112 917 233105 2065 0
13 2 S112 950 234055 3015 0
13 2 S112 948 235003 3963 0
13 2 S112 917 235920 4880 0
13 2 S112 865 236785 5745 0
13 2 S112 903 237688 6648 0
0 0 0 918 238606 -11648 0
0 0 0 949 239555 -10699 0
0 0 0 944 240499 -9755 0
0 0 0 954 241453 -8801 0
0 0 0 974 242427 -7827 0
0 0 0 953 243380 -6874 0
0 0 0 961 244341 -5913 0
0 0 0 922 245263 -4991 0
0 0 0 913 246176 -4078 0
0 0 0 897 247073 -3181 0
0 0 0 895 247968 -2286 0
14 1 S106 875 248843 -1411 0
14 1 S106 861 249704 -550 0
14 2 S106 884 250588 334 0
14 2 S106 899 251487 1233 0
14 2 S106 973 252460 2206 0
14 2 S106 975 253435 3181 0
14 2 S106 897 254332 4078 0
14 2 S106 901 255233 4979 0
14 2 S106 914 256147 5893 0
14 2 S106 925 257072 6818 0
0 0 0 949 258021 -11647 0
0 0 0 961 258982 -10686 0
0 0 0 952 259934 -9734 0
0 0 0 941 260875 -8793 0
0 0 0 876 261751 -7917 0
0 0 0 875 262626 -7042 0
0 0 0 837 263463 -6205 0
0 0 0 793 264256 -5412 0
0 0 0 823 265079 -4589 0
0 0 0 845 265924 -3744 0
0 0 0 855 266779 -2889 0
0 0 0 873 267652 -2016 0
15 1 S116 882 268534 -1134 0
15 1 S116 916 269450 -218 0
15 2 S116 879 270329 661 0
15 2 S116 848 271177 1509 0
15 2 S116 899 272076 2408 0
15 2 S116 935 273011 3343 0
15 2 S116 917 273928 4260 0
15 2 S116 895 274823 5155 0
15 2 S116 881 275704 6036 0
15 2 S116 845 276549 6881 0
0 0 0 837 277386 -10004 0
0 0 0 895 278281 -9109 0
0 0 0 941 279222 -8168 0
0 0 0 992 280214 -7176 0
0 0 0 959 281173 -6217 0
0 0 0 875 282048 -5342 0
0 0 0 776 282824 -4566 0
0 0 0 848 283672 -3718 0
0 0 0 894 284566 -2824 0
16 1 S116 925 285491 -1899 0
16 1 S116 905 286396 -994 0
16 1 S116 837 287233 -157 0
16 2 S116 894 288127 737 0
16 2 S116 961 289088 1698 0
16 2 S116 966 290054 2664 0
16 2 S116 934 290988 3598 0
16 2 S116 894 291882 4492 0
16 2 S116 841 292723 5333 0
16 2 S116 789 293512 6122 0
16 2 S116 825 294337 6947 0
0 0 0 864 295201 -9862 0
0 0 0 949 296150 -8913 0
0 0 0 989 297139 -7924 0
0 0 0 1002 298141 -6922 0
0 0 0 971 299112 -5951 0
0 0 0 963 300075 -4988 0
0 0 0 938 301013 -4050 0
0 0 0 907 301920 -3143 0
0 0 0 957 302877 -2186 0
17 1 S106 980 303857 -1206 0
17 1 S106 978 304835 -228 0
17 2 S106 986 305821 758 0
17 2 S106 953 306774 1711 0
17 2 S106 994 307768 2705 0
17 2 S106 1061 308829 3766 0
17 2 S106 1018 309847 4784 0
17 2 S106 1028 310875 5812 0
17 2 S106 995 311870 6807 0
0 0 0 951 312821 -11539 0
0 0 0 1006 313827 -10533 0
0 0 0 1062 314889 -9471 0
0 0 0 1044 315933 -8427 0
0 0 0 948 316881 -7479 0
0 0 0 935 317816 -6544 0
0 0 0 975 318791 -5569 0
0 0 0 978 319769 -4591 0
0 0 0 997 320766 -3594 0
0 0 0 991 321757 -2603 0
18 1 S102 1007 322764 -1596 0
18 1 S102 1014 323778 -582 0
18 2 S102 949 324727 367 0
18 2 S102 859 325586 1226 0
18 2 S102 877 326463 2103 0
18 2 S102 931 327394 3034 0
18 2 S102 968 328362 4002 0
18 2 S102 954 329316 4956 0
18 2 S102 951 330267 5907 0
18 2 S102 876 331143 6783 0
0 0 0 891 332034 -8125 0
0 0 0 929 332963 -7196 0
0 0 0 942 333905 -6254 0
0 0 0 993 334898 -5261 0
0 0 0 983 335881 -4278 0
0 0 0 960 336841 -3318 0
0 0 0 958 337799 -2360 0
19 1 S106 968 338767 -1392 0
19 1 S106 935 339702 -457 0
19 2 S106 896 340598 439 0
19 2 S106 926 341524 1365 0
19 2 S106 968 342492 2333 0
19 2 S106 965 343457 3298 0
19 2 S106 938 344395 4236 0
19 2 S106 901 345296 5137 0
19 2 S106 905 346201 6042 0
19 2 S106 942 347143 6984 0
0 0 0 957 348100 -11207 0
0 0 0 977 349077 -10230 0
0 0 0 932 350009 -9298 0
0 0 0 932 350941 -8366 0
0 0 0 887 351828 -7479 0
0 0 0 818 352646 -6661 0
0 0 0 816 353462 -5845 0
0 0 0 792 354254 -5053 0
0 0 0 802 355056 -4251 0
0 0 0 774 355830 -3477 0
0 0 0 769 356599 -2708 0
20 1 S112 793 357392 -1915 0
20 1 S112 796 358188 -1119 0
20 1 S112 819 359007 -300 0
20 2 S112 812 359819 512 0
20 2 S112 779 360598 1291 0
20 2 S112 805 361403 2096 0
20 2 S112 806 362209 2902 0
20 2 S112 828 363037 3730 0
20 2 S112 805 363842 4535 0
20 2 S112 763 364605 5298 0
20 2 S112 721 365326 6019 0
20 2 S112 708 366034 6727 0
0 0 0 730 366764 -10448 0
0 0 0 781 367545 -9667 0
0 0 0 833 368378 -8834 0
0 0 0 889 369267 -7945 0
0 0 0 1008 370275 -6937 0
0 0 0 1003 371278 -5934 0
0 0 0 932 372210 -5002 0
0 0 0 949 373159 -4053 0
0 0 0 973 374132 -3080 0
0 0 0 960 375092 -2120 0
21 1 S106 868 375960 -1252 0
21 1 S106 812 376772 -440 0
21 2 S106 795 377567 355 0
21 2 S106 775 378342 1130 0
21 2 S106 787 379129 1917 0
21 2 S106 853 379982 2770 0
21 2 S106 906 380888 3676 0
21 2 S106 945 381833 4621 0
21 2 S106 949 382782 5570 0
21 2 S106 895 383677 6465 0
0 0 0 894 384571 -11739 0
0 0 0 939 385510 -10800 0
0 0 0 975 386485 -9825 0
0 0 0 991 387476 -8834 0
0 0 0 940 388416 -7894 0
0 0 0 878 389294 -7016 0
0 0 0 872 390166 -6144 0
0 0 0 817 390983 -5327 0
0 0 0 787 391770 -4540 0
0 0 0 771 392541 -3769 0
0 0 0 782 393323 -2987 0
0 0 0 744 394067 -2243 0
22 1 S116 720 394787 -1523 0
22 1 S116 726 395513 -797 0
22 1 S116 760 396273 -37 0
22 2 S116 859 397132 822 0
22 2 S116 963 398095 1785 0
22 2 S116 994 399089 2779 0
22 2 S116 931 400020 3710 0
22 2 S116 860 400880 4570 0
22 2 S116 856 401736 5426 0
22 2 S116 882 402618 6308 0
0 0 0 906 403524 -9878 0
0 0 0 922 404446 -8956 0
0 0 0 924 405370 -8032 0
0 0 0 941 406311 -7091 0
0 0 0 919 407230 -6172 0
0 0 0 910 408140 -5262 0
0 0 0 911 409051 -4351 0
0 0 0 950 410001 -3401 0
0 0 0 949 410950 -2452 0
23 1 S112 924 411874 -1528 0
23 1 S112 918 412792 -610 0
23 2 S112 907 413699 297 0
23 2 S112 897 414596 1194 0
23 2 S112 984 415580 2178 0
23 2 S112 1030 416610 3208 0
23 2 S112 987 417597 4195 0
23 2 S112 885 418482 5080 0
23 2 S112 887 419369 5967 0
23 2 S112 909 420278 6876 0
0 0 0 917 421195 -9482 0
0 0 0 953 422148 -8529 0
0 0 0 987 423135 -7542 0
0 0 0 989 424124 -6553 0
0 0 0 939 425063 -5614 0
0 0 0 887 425950 -4727 0
0 0 0 905 426855 -3822 0
0 0 0 939 427794 -2883 0
24 1 S106 981 428775 -1902 0
24 1 S106 938 429713 -964 0
24 1 S106 834 430547 -130 0
24 2 S106 838 431385 708 0
24 2 S106 864 432249 1572 0
24 2 S106 882 433131 2454 0
24 2 S106 869 434000 3323 0
24 2 S106 840 434840 4163 0
24 2 S106 871 435711 5034 0
24 2 S106 901 436612 5935 0
24 2 S106 911 437523 6846 0
0 0 0 917 438440 -9164 0
0 0 0 889 439329 -8275 0
0 0 0 948 440277 -7327 0
0 0 0 968 441245 -6359 0
0 0 0 987 442232 -5372 0
0 0 0 1036 443268 -4336 0
0 0 0 971 444239 -3365 0
0 0 0 865 445104 -2500 0
25 1 S102 895 445999 -1605 0
25 1 S102 961 446960 -644 0
25 2 S102 1084 448044 440 0
25 2 S102 1215 449259 1655 1
25 2 S102 1163 450422 2818 0
25 2 S102 1034 451456 3852 0
25 2 S102 979 452435 4831 0
25 2 S102 975 453410 5806 0
25 2 S102 992 454402 6798 0
0 0 0 1031 455433 -7340 0
0 0 0 1024 456457 -6316 0
0 0 0 1017 457474 -5299 0
0 0 0 926 458400 -4373 0
0 0 0 930 459330 -3443 0
0 0 0 920 460250 -2523 0
26 1 S116 904 461154 -1619 0
26 1 S116 837 461991 -782 0
26 2 S116 860 462851 78 0
26 2 S116 874 463725 952 0
26 2 S116 931 464656 1883 0
26 2 S116 1010 465666 2893 0
26 2 S116 990 466656 3883 0
26 2 S116 873 467529 4756 0
26 2 S116 851 468380 5607 0
26 2 S116 884 469264 6491 0
0 0 0 915 470179 -8244 0
0 0 0 971 471150 -7273 0
0 0 0 956 472106 -6317 0
0 0 0 983 473089 -5334 0
0 0 0 973 474062 -4361 0
0 0 0 944 475006 -3417 0
0 0 0 907 475913 -2510 0
27 1 S106 857 476770 -1653 0
27 1 S106 888 477658 -765 0
27 2 S106 905 478563 140 0
27 2 S106 929 479492 1069 0
27 2 S106 969 480461 2038 0
27 2 S106 980 481441 3018 0
27 2 S106 990 482431 4008 0
27 2 S106 979 483410 4987 0
27 2 S106 934 484344 5921 0
27 2 S106 886 485230 6807 0
0 0 0 907 486137 -7206 0
0 0 0 943 487080 -6263 0
0 0 0 955 488035 -5308 0
0 0 0 950 488985 -4358 0
0 0 0 902 489887 -3456 0
0 0 0 891 490778 -2565 0
28 1 S102 920 491698 -1645 0
28 1 S102 965 492663 -680 0
28 2 S102 910 493573 230 0
28 2 S102 889 494462 1119 0
28 2 S102 946 495408 2065 0
28 2 S102 996 496404 3061 0
28 2 S102 1013 497417 4074 0
28 2 S102 974 498391 5048 0
28 2 S102 912 499303 5960 0
28 2 S102 906 500209 6866 0
0 0 0 942 501151 -11191 0
0 0 0 1006 502157 -10185 0
0 0 0 1017 503174 -9168 0
0 0 0 974 504148 -8194 0
0 0 0 883 505031 -7311 0
0 0 0 835 505866 -6476 0
0 0 0 870 506736 -5606 0
0 0 0 898 507634 -4708 0
0 0 0 918 508552 -3790 0
0 0 0 897 509449 -2893 0
29 1 S112 930 510379 -1963 0
29 1 S112 932 511311 -1031 0
29 1 S112 945 512256 -86 0
29 2 S112 904 513160 818 0
29 2 S112 856 514016 1674 0
29 2 S112 890 514906 2564 0
29 2 S112 933 515839 3497 0
29 2 S112 964 516803 4461 0
29 2 S112 985 517788 5446 0
29 2 S112 913 518701 6359 0
0 0 0 931 519632 -8642 0
0 0 0 948 520580 -7694 0
0 0 0 905 521485 -6789 0
0 0 0 848 522333 -5941 0
0 0 0 882 523215 -5059 0
0 0 0 919 524134 -4140 0
0 0 0 957 525091 -3183 0
0 0 0 988 526079 -2195 0
30 1 S112 894 526973 -1301 0
30 1 S112 890 527863 -411 0
30 2 S112 945 528808 534 0
30 2 S112 966 529774 1500 0
30 2 S112 919 530693 2419 0
30 2 S112 921 531614 3340 0
30 2 S112 902 532516 4242 0
30 2 S112 901 533417 5143 0
30 2 S112 896 534313 6039 0
30 2 S112 872 535185 6911 0
0 0 0 897 536082 -9185 0
0 0 0 957 537039 -8228 0
0 0 0 977 538016 -7251 0
0 0 0 982 538998 -6269 0
0 0 0 950 539948 -5319 0
0 0 0 919 540867 -4400 0
0 0 0 907 541774 -3493 0
0 0 0 937 542711 -2556 0
31 1 S106 908 543619 -1648 0
31 1 S106 812 544431 -836 0
31 2 S106 868 545299 32 0
31 2 S106 947 546246 979 0
31 2 S106 1127 547373 2106 0
31 2 S106 1042 548415 3148 0
31 2 S106 896 549311 4044 0
31 2 S106 874 550185 4918 0
31 2 S106 894 551079 5812 0
31 2 S106 920 551999 6732 0
0 0 0 923 552922 -8973 0
0 0 0 892 553814 -8081 0
0 0 0 909 554723 -7172 0
0 0 0 935 555658 -6237 0
0 0 0 940 556598 -5297 0
0 0 0 934 557532 -4363 0
0 0 0 903 558435 -3460 0
0 0 0 909 559344 -2551 0
32 1 S102 925 560269 -1626 0
32 1 S102 891 561160 -735 0
32 2 S102 863 562023 128 0
32 2 S102 863 562886 991 0
32 2 S102 855 563741 1846 0
32 2 S102 870 564611 2716 0
32 2 S102 871 565482 3587 0
32 2 S102 861 566343 4448 0
32 2 S102 832 567175 5280 0
32 2 S102 776 567951 6056 0
32 2 S102 757 568708 6813 0
0 0 0 772 569480 -11530 0
0 0 0 818 570298 -10712 0
0 0 0 885 571183 -9827 0
0 0 0 956 572139 -8871 0
0 0 0 939 573078 -7932 0
0 0 0 918 573996 -7014 0
0 0 0 917 574913 -6097 0
0 0 0 926 575839 -5171 0
0 0 0 910 576749 -4261 0
0 0 0 891 577640 -3370 0
0 0 0 900 578540 -2470 0
33 1 S112 964 579504 -1506 0
33 1 S112 955 580459 -551 0
33 2 S112 880 581339 329 0
33 2 S112 815 582154 1144 0
33 2 S112 887 583041 2031 0
33 2 S112 943 583984 2974 0
33 2 S112 957 584941 3931 0
33 2 S112 941 585882 4872 0
33 2 S112 832 586714 5704 0
33 2 S112 799 587513 6503 0
0 0 0 844 588357 -12845 0
0 0 0 862 589219 -11983 0
0 0 0 893 590112 -11090 0
0 0 0 929 591041 -10161 0
0 0 0 966 592007 -9195 0
0 0 0 941 592948 -8254 0
0 0 0 927 593875 -7327 0
0 0 0 908 594783 -6419 0
0 0 0 911 595694 -5508 0
0 0 0 920 596614 -4588 0
0 0 0 903 597517 -3685 0
0 0 0 835 598352 -2850 0
0 0 0 794 599146 -2056 0
34 1 S106 781 599927 -1275 0
34 1 S106 804 600731 -471 0
34 2 S106 791 601522 320 0
34 2 S106 837 602359 1157 0
34 2 S106 919 603278 2076 0
34 2 S106 978 604256 3054 0
34 2 S106 967 605223 4021 0
34 2 S106 889 606112 4910 0
34 2 S106 899 607011 5809 0
34 2 S106 907 607918 6716 0
0 0 0 922 608840 -9173 0
0 0 0 939 609779 -8234 0
0 0 0 923 610702 -7311 0
0 0 0 878 611580 -6433 0
0 0 0 859 612439 -5574 0
0 0 0 894 613333 -4680 0
0 0 0 949 614282 -3731 0
0 0 0 958 615240 -2773 0
35 1 S102 930 616170 -1843 0
35 1 S102 911 617081 -932 0
35 2 S102 958 618039 26 0
35 2 S102 940 618979 966 0
35 2 S102 858 619837 1824 0
35 2 S102 852 620689 2676 0
35 2 S102 899 621588 3575 0
35 2 S102 843 622431 4418 0
35 2 S102 882 623313 5300 0
35 2 S102 928 624241 6228 0
0 0 0 929 625170 -7100 0
0 0 0 894 626064 -6206 0
0 0 0 881 626945 -5325 0
0 0 0 901 627846 -4424 0
0 0 0 887 628733 -3537 0
0 0 0 862 629595 -2675 0
36 1 S106 848 630443 -1827 0
36 1 S106 827 631270 -1000 0
36 1 S106 847 632117 -153 0
36 2 S106 865 632982 712 0
36 2 S106 910 633892 1622 0
36 2 S106 920 634812 2542 0
36 2 S106 917 635729 3459 0
36 2 S106 881 636610 4340 0
36 2 S106 830 637440 5170 0
36 2 S106 831 638271 6001 0
36 2 S106 869 639140 6870 0
0 0 0 927 640067 -8947 0
0 0 0 991 641058 -7956 0
0 0 0 1013 642071 -6943 0
0 0 0 942 643013 -6001 0
0 0 0 900 643913 -5101 0
0 0 0 912 644825 -4189 0
0 0 0 921 645746 -3268 0
0 0 0 944 646690 -2324 0
37 1 S116 907 647597 -1417 0
37 1 S116 906 648503 -511 0
37 2 S116 956 649459 445 0
37 2 S116 1050 650509 1495 0
37 2 S116 1072 651581 2567 0
37 2 S116 1048 652629 3615 0
37 2 S116 929 653558 4544 0
37 2 S116 869 654427 5413 0
37 2 S116 969 655396 6382 0
0 0 0 1046 656442 -12317 0
0 0 0 1082 657524 -11235 0
0 0 0 1085 658609 -10150 0
0 0 0 1080 659689 -9070 0
0 0 0 1025 660714 -8045 0
0 0 0 978 661692 -7067 0
0 0 0 961 662653 -6106 0
0 0 0 881 663534 -5225 0
0 0 0 823 664357 -4402 0
0 0 0 847 665204 -3555 0
0 0 0 880 666084 -2675 0
38 1 S102 952 667036 -1723 0
38 1 S102 1077 668113 -646 0
38 2 S102 1028 669141 382 0
38 2 S102 910 670051 1292 0
38 2 S102 903 670954 2195 0
38 2 S102 945 671899 3140 0
38 2 S102 985 672884 4125 0
38 2 S102 835 673719 4960 0
38 2 S102 795 674514 5755 0
38 2 S102 834 675348 6589 0
0 0 0 882 676230 -9638 0
0 0 0 975 677205 -8663 0
0 0 0 1049 678254 -7614 0
0 0 0 1029 679283 -6585 0
0 0 0 994 680277 -5591 0
0 0 0 950 681227 -4641 0
0 0 0 930 682157 -3711 0
0 0 0 919 683076 -2792 0
39 1 S116 927 684003 -1865 0
39 1 S116 898 684901 -967 0
39 1 S116 846 685747 -121 0
39 2 S116 860 686607 739 0
39 2 S116 912 687519 1651 0
39 2 S116 930 688449 2581 0
39 2 S116 921 689370 3502 0
39 2 S116 911 690281 4413 0
39 2 S116 860 691141 5273 0
39 2 S116 810 691951 6083 0
39 2 S116 783 692734 6866 0
0 0 0 808 693542 -6882 0
0 0 0 894 694436 -5988 0
0 0 0 1091 695527 -4897 0
0 0 0 1006 696533 -3891 0
0 0 0 1032 697565 -2859 0
40 1 S112 1036 698601 -1823 0
40 1 S112 1014 699615 -809 0
40 2 S112 993 700608 184 0
40 2 S112 961 701569 1145 0
40 2 S112 901 702470 2046 0
40 2 S112 853 703323 2899 0
40 2 S112 876 704199 3775 0
40 2 S112 909 705108 4684 0
40 2 S112 903 706011 5587 0
40 2 S112 912 706923 6499 0
0 0 0 902 707825 -187445 0
0 0 0 881 708706 -186564 0
0 0 0 924 709630 -185640 0
0 0 0 946 710576 -184694 0
0 0 0 990 711566 -183704 0
0 0 0 900 712466 -182804 0
0 0 0 822 713288 -181982 0
0 0 0 810 714098 -181172 0
0 0 0 791 714889 -180381 0
0 0 0 767 715656 -179614 0
0 0 0 758 716414 -178856 0
0 0 0 780 717194 -178076 0
0 0 0 751 717945 -177325 0
0 0 0 744 718689 -176581 0
0 0 0 726 719415 -175855 0
0 0 0 736 720151 -175119 0
0 0 0 763 720914 -174356 0
0 0 0 762 721676 -173594 0
0 0 0 778 722454 -172816 0
0 0 0 774 723228 -172042 0
0 0 0 783 724011 -171259 0
0 0 0 794 724805 -170465 0
0 0 0 802 725607 -169663 0
0 0 0 797 726404 -168866 0
0 0 0 799 727203 -168067 0
0 0 0 807 728010 -167260 0
0 0 0 828 728838 -166432 0
0 0 0 826 729664 -165606 0
0 0 0 829 730493 -164777 0
0 0 0 851 731344 -163926 0
0 0 0 917 732261 -163009 0
0 0 0 890 733151 -162119 0
0 0 0 896 734047 -161223 0
0 0 0 906 734953 -160317 0
0 0 0 1056 736009 -159261 0
0 0 0 982 736991 -158279 0
0 0 0 931 737922 -157348 0
0 0 0 892 738814 -156456 0
0 0 0 886 739700 -155570 0
0 0 0 800 740500 -154770 0
0 0 0 826 741326 -153944 0
0 0 0 836 742162 -153108 0
0 0 0 834 742996 -152274 0
0 0 0 773 743769 -151501 0
0 0 0 806 744575 -150695 0
0 0 0 813 745388 -149882 0
0 0 0 827 746215 -149055 0
0 0 0 827 747042 -148228 0
0 0 0 834 747876 -147394 0
0 0 0 826 748702 -146568 0
0 0 0 815 749517 -145753 0
0 0 0 784 750301 -144969 0
0 0 0 770 751071 -144199 0
0 0 0 756 751827 -143443 0
0 0 0 820 752647 -142623 0
0 0 0 857 753504 -141766 0
0 0 0 861 754365 -140905 0
0 0 0 790 755155 -140115 0
0 0 0 792 755947 -139323 0
0 0 0 727 756674 -138596 0
0 0 0 1454 758128 -137142 1
0 0 0 728 758856 -136414 0
0 0 0 702 759558 -135712 0
0 0 0 733 760291 -134979 0
0 0 0 764 761055 -134215 0
0 0 0 810 761865 -133405 0
0 0 0 801 762666 -132604 0
0 0 0 777 763443 -131827 0
0 0 0 762 764205 -131065 0
0 0 0 740 764945 -130325 0
0 0 0 708 765653 -129617 0
0 0 0 712 766365 -128905 0
0 0 0 695 767060 -128210 0
0 0 0 670 767730 -127540 0
0 0 0 633 768363 -126907 1
0 0 0 620 768983 -126287 1
0 0 0 635 769618 -125652 1
0 0 0 646 770264 -125006 1
0 0 0 640 770904 -124366 1
0 0 0 636 771540 -123730 1
0 0 0 642 772182 -123088 1
0 0 0 631 772813 -122457 1
0 0 0 615 773428 -121842 1
0 0 0 624 774052 -121218 1
0 0 0 1858 775910 -119360 1
0 0 0 645 776555 -118715 1
0 0 0 657 777212 -118058 0
0 0 0 676 777888 -117382 0
0 0 0 684 778572 -116698 0
0 0 0 670 779242 -116028 0
0 0 0 673 779915 -115355 0
0 0 0 664 780579 -114691 0
0 0 0 661 781240 -114030 0
0 0 0 680 781920 -113350 0
0 0 0 721 782641 -112629 0
0 0 0 774 783415 -111855 0
0 0 0 846 784261 -111009 0
0 0 0 885 785146 -110124 0
0 0 0 897 786043 -109227 0
0 0 0 945 786988 -108282 0
0 0 0 970 787958 -107312 0
0 0 0 974 788932 -106338 0
0 0 0 981 789913 -105357 0
0 0 0 898 790811 -104459 0
0 0 0 923 791734 -103536 0
0 0 0 1026 792760 -102510 0
0 0 0 878 793638 -101632 0
0 0 0 832 794470 -100800 0
0 0 0 856 795326 -99944 0
0 0 0 820 796146 -99124 0
0 0 0 837 796983 -98287 0
0 0 0 826 797809 -97461 0
0 0 0 848 798657 -96613 0
0 0 0 793 799450 -95820 0
0 0 0 743 800193 -95077 0
0 0 0 717 800910 -94360 0
0 0 0 715 801625 -93645 0
0 0 0 715 802340 -92930 0
0 0 0 696 803036 -92234 0
0 0 0 700 803736 -91534 0
0 0 0 672 804408 -90862 0
0 0 0 683 805091 -90179 0
0 0 0 687 805778 -89492 0
0 0 0 667 806445 -88825 0
0 0 0 676 807121 -88149 0
0 0 0 696 807817 -87453 0
0 0 0 777 808594 -86676 0
0 0 0 773 809367 -85903 0
0 0 0 813 810180 -85090 0
0 0 0 818 810998 -84272 0
0 0 0 867 811865 -83405 0
0 0 0 915 812780 -82490 0
0 0 0 866 813646 -81624 0
0 0 0 939 814585 -80685 0
0 0 0 934 815519 -79751 0
0 0 0 878 816397 -78873 0
0 0 0 871 817268 -78002 0
0 0 0 937 818205 -77065 0
0 0 0 917 819122 -76148 0
0 0 0 951 820073 -75197 0
0 0 0 971 821044 -74226 0
0 0 0 910 821954 -73316 0
0 0 0 883 822837 -72433 0
0 0 0 925 823762 -71508 0
0 0 0 953 824715 -70555 0
0 0 0 1036 825751 -69519 0
0 0 0 954 826705 -68565 0
0 0 0 859 827564 -67706 0
0 0 0 826 828390 -66880 0
0 0 0 852 829242 -66028 0
0 0 0 900 830142 -65128 0
0 0 0 922 831064 -64206 0
0 0 0 911 831975 -63295 0
0 0 0 954 832929 -62341 0
0 0 0 906 833835 -61435 0
0 0 0 920 834755 -60515 0
0 0 0 825 835580 -59690 0
0 0 0 816 836396 -58874 0
0 0 0 818 837214 -58056 0
0 0 0 882 838096 -57174 0
0 0 0 872 838968 -56302 0
0 0 0 825 839793 -55477 0
0 0 0 802 840595 -54675 0
0 0 0 812 841407 -53863 0
0 0 0 839 842246 -53024 0
0 0 0 900 843146 -52124 0
0 0 0 1005 844151 -51119 0
0 0 0 919 845070 -50200 0
0 0 0 915 845985 -49285 0
0 0 0 866 846851 -48419 0
0 0 0 947 847798 -47472 0
0 0 0 971 848769 -46501 0
0 0 0 973 849742 -45528 0
0 0 0 946 850688 -44582 0
0 0 0 990 851678 -43592 0
0 0 0 967 852645 -42625 0
0 0 0 838 853483 -41787 0
0 0 0 803 854286 -40984 0
0 0 0 831 855117 -40153 0
0 0 0 866 855983 -39287 0
0 0 0 822 856805 -38465 0
0 0 0 818 857623 -37647 0
0 0 0 793 858416 -36854 0
0 0 0 765 859181 -36089 0
0 0 0 761 859942 -35328 0
0 0 0 748 860690 -34580 0
0 0 0 739 861429 -33841 0
0 0 0 729 862158 -33112 0
0 0 0 734 862892 -32378 0
0 0 0 728 863620 -31650 0
0 0 0 720 864340 -30930 0
0 0 0 708 865048 -30222 0
0 0 0 705 865753 -29517 0
0 0 0 689 866442 -28828 0
0 0 0 685 867127 -28143 0
0 0 0 693 867820 -27450 0
0 0 0 707 868527 -26743 0
0 0 0 707 869234 -26036 0
0 0 0 711 869945 -25325 0
0 0 0 719 870664 -24606 0
0 0 0 730 871394 -23876 0
0 0 0 780 872174 -23096 0
0 0 0 769 872943 -22327 0
0 0 0 812 873755 -21515 0
0 0 0 876 874631 -20639 0
0 0 0 845 875476 -19794 0
0 0 0 835 876311 -18959 0
0 0 0 802 877113 -18157 0
0 0 0 830 877943 -17327 0
0 0 0 856 878799 -16471 0
0 0 0 913 879712 -15558 0
0 0 0 868 880580 -14690 0
0 0 0 871 881451 -13819 0
0 0 0 949 882400 -12870 0
0 0 0 984 883384 -11886 0
0 0 0 986 884370 -10900 0
0 0 0 956 885326 -9944 0
0 0 0 992 886318 -8952 0
0 0 0 979 887297 -7973 0
0 0 0 971 888268 -7002 0
0 0 0 827 889095 -6175 0
0 0 0 825 889920 -5350 0
0 0 0 940 890860 -4410 0
0 0 0 886 891746 -3524 0
0 0 0 845 892591 -2679 0
41 1 S102 787 893378 -1892 0
41 1 S102 786 894164 -1106 0
41 1 S102 770 894934 -336 0
41 2 S102 761 895695 425 0
41 2 S102 799 896494 1224 0
41 2 S102 815 897309 2039 0
41 2 S102 818 898127 2857 0
41 2 S102 817 898944 3674 0
41 2 S102 765 899709 4439 0
41 2 S102 727 900436 5166 0
41 2 S102 757 901193 5923 0
41 2 S102 800 901993 6723 0
0 0 0 850 902843 -7845 0
0 0 0 931 903774 -6914 0
0 0 0 861 904635 -6053 0
0 0 0 867 905502 -5186 0
0 0 0 956 906458 -4230 0
0 0 0 989 907447 -3241 0
0 0 0 968 908415 -2273 0
42 1 S112 885 909300 -1388 0
42 1 S112 837 910137 -551 0
42 2 S112 826 910963 275 0
42 2 S112 997 911960 1272 0
42 2 S112 1228 913188 2500 1
42 2 S112 1138 914326 3638 0
42 2 S112 1018 915344 4656 0
42 2 S112 960 916304 5616 0
42 2 S112 833 917137 6449 0
0 0 0 814 917951 -10393 0
0 0 0 954 918905 -9439 0
0 0 0 1077 919982 -8362 0
0 0 0 1177 921159 -7185 1
0 0 0 1066 922225 -6119 0
0 0 0 924 923149 -5195 0
0 0 0 926 924075 -4269 0
0 0 0 958 925033 -3311 0
0 0 0 992 926025 -2319 0
43 1 S116 935 926960 -1384 0
43 1 S116 895 927855 -489 0
43 2 S116 997 928852 508 0
43 2 S116 1259 930111 1767 1
43 2 S116 1139 931250 2906 0
43 2 S116 993 932243 3899 0
43 2 S116 865 933108 4764 0
43 2 S116 852 933960 5616 0
43 2 S116 945 934905 6561 0
0 0 0 1053 935958 -7439 0
0 0 0 1126 937084 -6313 0
0 0 0 1128 938212 -5185 0
0 0 0 1003 939215 -4182 0
0 0 0 861 940076 -3321 0
0 0 0 859 940935 -2462 0
44 1 S102 945 941880 -1517 0
44 1 S102 962 942842 -555 0
44 2 S102 1007 943849 452 0
44 2 S102 918 944767 1370 0
44 2 S102 846 945613 2216 0
44 2 S102 905 946518 3121 0
44 2 S102 1095 947613 4216 0
44 2 S102 1151 948764 5367 0
44 2 S102 1106 949870 6473 0
0 0 0 940 950810 -9861 0
0 0 0 858 951668 -9003 0
0 0 0 907 952575 -8096 0
0 0 0 1044 953619 -7052 0
0 0 0 999 954618 -6053 0
0 0 0 933 955551 -5120 0
0 0 0 869 956420 -4251 0
0 0 0 887 957307 -3364 0
0 0 0 1030 958337 -2334 0
45 1 S116 1160 959497 -1174 0
45 1 S116 931 960428 -243 0
45 2 S116 907 961335 664 0
45 2 S116 1047 962382 1711 0
45 2 S116 1119 963501 2830 0
45 2 S116 1182 964683 4012 1
45 2 S116 949 965632 4961 0
45 2 S116 839 966471 5800 0
45 2 S116 847 967318 6647 0
0 0 0 970 968288 -10802 0
0 0 0 1054 969342 -9748 0
0 0 0 1056 970398 -8692 0
0 0 0 1029 971427 -7663 0
0 0 0 993 972420 -6670 0
0 0 0 925 973345 -5745 0
0 0 0 875 974220 -4870 0
0 0 0 938 975158 -3932 0
0 0 0 1014 976172 -2918 0
46 1 S102 988 977160 -1930 0
46 1 S102 901 978061 -1029 0
46 1 S102 933 978994 -96 0
46 2 S102 1008 980002 912 0
46 2 S102 1123 981125 2035 0
46 2 S102 1052 982177 3087 0
46 2 S102 917 983094 4004 0
46 2 S102 847 983941 4851 0
46 2 S102 908 984849 5759 0
46 2 S102 960 985809 6719 0
0 0 0 1036 986845 -9752 0
0 0 0 1101 987946 -8651 0
0 0 0 1066 989012 -7585 0
0 0 0 1049 990061 -6536 0
0 0 0 958 991019 -5578 0
0 0 0 935 991954 -4643 0
0 0 0 934 992888 -3709 0
0 0 0 949 993837 -2760 0
47 1 S112 965 994802 -1795 0
47 1 S112 957 995759 -838 0
47 2 S112 942 996701 104 0
47 2 S112 878 997579 982 0
47 2 S112 815 998394 1797 0
47 2 S112 827 999221 2624 0
47 2 S112 922 1000143 3546 0
47 2 S112 1280 1001423 4826 1
47 2 S112 1207 1002630 6033 1
0 0 0 1012 1003642 -12534 0
0 0 0 936 1004578 -11598 0
0 0 0 957 1005535 -10641 0
0 0 0 999 1006534 -9642 0
0 0 0 1037 1007571 -8605 0
0 0 0 988 1008559 -7617 0
0 0 0 902 1009461 -6715 0
0 0 0 854 1010315 -5861 0
0 0 0 868 1011183 -4993 0
0 0 0 872 1012055 -4121 0
0 0 0 820 1012875 -3301 0
0 0 0 810 1013685 -2491 0
48 1 S116 909 1014594 -1582 0
48 1 S116 1078 1015672 -504 0
48 2 S116 986 1016658 482 0
48 2 S116 840 1017498 1322 0
48 2 S116 830 1018328 2152 0
48 2 S116 880 1019208 3032 0
48 2 S116 909 1020117 3941 0
48 2 S116 947 1021064 4888 0
48 2 S116 958 1022022 5846 0
48 2 S116 909 1022931 6755 0
0 0 0 826 1023757 -7091 0
0 0 0 832 1024589 -6259 0
0 0 0 923 1025512 -5336 0
0 0 0 972 1026484 -4364 0
0 0 0 1038 1027522 -3326 0
0 0 0 1059 1028581 -2267 0
49 1 S112 1017 1029598 -1250 0
49 1 S112 953 1030551 -297 0
49 2 S112 943 1031494 646 0
49 2 S112 1018 1032512 1664 0
49 2 S112 1043 1033555 2707 0
49 2 S112 1009 1034564 3716 0
49 2 S112 921 1035485 4637 0
49 2 S112 853 1036338 5490 0
49 2 S112 922 1037260 6412 0
0 0 0 995 1038255 -12404 0
0 0 0 967 1039222 -11437 0
0 0 0 969 1040191 -10468 0
0 0 0 872 1041063 -9596 0
0 0 0 812 1041875 -8784 0
0 0 0 817 1042692 -7967 0
0 0 0 884 1043576 -7083 0
0 0 0 834 1044410 -6249 0
0 0 0 807 1045217 -5442 0
0 0 0 862 1046079 -4580 0
0 0 0 888 1046967 -3692 0
0 0 0 927 1047894 -2765 0
50 1 S106 933 1048827 -1832 0
50 1 S106 949 1049776 -883 0
50 1 S106 864 1050640 -19 0
50 2 S106 826 1051466 807 0
50 2 S106 863 1052329 1670 0
50 2 S106 948 1053277 2618 0
50 2 S106 1011 1054288 3629 0
50 2 S106 867 1055155 4496 0
50 2 S106 833 1055988 5329 0
50 2 S106 894 1056882 6223 0
0 0 0 959 1057841 -8435 0
0 0 0 1018 1058859 -7417 0
0 0 0 973 1059832 -6444 0
0 0 0 1007 1060839 -5437 0
0 0 0 1010 1061849 -4427 0
0 0 0 995 1062844 -3432 0
0 0 0 987 1063831 -2445 0
51 1 S112 1014 1064845 -1431 0
51 1 S112 950 1065795 -481 0
51 2 S112 854 1066649 373 0
51 2 S112 785 1067434 1158 0
51 2 S112 773 1068207 1931 0
51 2 S112 783 1068990 2714 0
51 2 S112 764 1069754 3478 0
51 2 S112 762 1070516 4240 0
51 2 S112 855 1071371 5095 0
51 2 S112 1093 1072464 6188 0
0 0 0 1041 1073505 -7360 0
0 0 0 1013 1074518 -6347 0
0 0 0 966 1075484 -5381 0
0 0 0 908 1076392 -4473 0
0 0 0 826 1077218 -3647 0
0 0 0 785 1078003 -2862 0
0 0 0 785 1078788 -2077 0
52 1 S116 772 1079560 -1305 0
52 1 S116 752 1080312 -553 0
52 2 S116 810 1081122 257 0
52 2 S116 878 1082000 1135 0
52 2 S116 947 1082947 2082 0
52 2 S116 941 1083888 3023 0
52 2 S116 870 1084758 3893 0
52 2 S116 811 1085569 4704 0
52 2 S116 894 1086463 5598 0
52 2 S116 956 1087419 6554 0
0 0 0 974 1088393 -9730 0
0 0 0 992 1089385 -8738 0
0 0 0 978 1090363 -7760 0
0 0 0 975 1091338 -6785 0
0 0 0 950 1092288 -5835 0
0 0 0 900 1093188 -4935 0
0 0 0 818 1094006 -4117 0
0 0 0 813 1094819 -3304 0
0 0 0 850 1095669 -2454 0
53 1 S106 919 1096588 -1535 0
53 1 S106 1031 1097619 -504 0
53 2 S106 1009 1098628 505 0
53 2 S106 912 1099540 1417 0
53 2 S106 854 1100394 2271 0
53 2 S106 900 1101294 3171 0
53 2 S106 934 1102228 4105 0
53 2 S106 927 1103155 5032 0
53 2 S106 948 1104103 5980 0
53 2 S106 881 1104984 6861 0
0 0 0 817 1105801 -7823 0
0 0 0 851 1106652 -6972 0
0 0 0 903 1107555 -6069 0
0 0 0 959 1108514 -5110 0
0 0 0 978 1109492 -4132 0
0 0 0 955 1110447 -3177 0
0 0 0 923 1111370 -2254 0
54 1 S102 875 1112245 -1379 0
54 1 S102 918 1113163 -461 0
54 2 S102 952 1114115 491 0
54 2 S102 961 1115076 1452 0
54 2 S102 881 1115957 2333 0
54 2 S102 840 1116797 3173 0
54 2 S102 892 1117689 4065 0
54 2 S102 915 1118604 4980 0
54 2 S102 928 1119532 5908 0
54 2 S102 928 1120460 6836 0
0 0 0 865 1121325 -11762 0
0 0 0 860 1122185 -10902 0
0 0 0 891 1123076 -10011 0
0 0 0 956 1124032 -9055 0
0 0 0 935 1124967 -8120 0
0 0 0 853 1125820 -7267 0
0 0 0 848 1126668 -6419 0
0 0 0 845 1127513 -5574 0
0 0 0 836 1128349 -4738 0
0 0 0 844 1129193 -3894 0
0 0 0 836 1130029 -3058 0
0 0 0 810 1130839 -2248 0
55 1 S106 769 1131608 -1479 0
55 1 S106 801 1132409 -678 0
55 2 S106 812 1133221 134 0
55 2 S106 819 1134040 953 0
55 2 S106 873 1134913 1826 0
55 2 S106 836 1135749 2662 0
55 2 S106 762 1136511 3424 0
55 2 S106 736 1137247 4160 0
55 2 S106 740 1137987 4900 0
55 2 S106 717 1138704 5617 0
55 2 S106 699 1139403 6316 0
55 2 S106 687 1140090 7003 0
0 0 0 745 1140835 -6791 0
0 0 0 926 1141761 -5865 0
0 0 0 1011 1142772 -4854 0
0 0 0 921 1143693 -3933 0
0 0 0 787 1144480 -3146 0
0 0 0 752 1145232 -2394 0
56 1 S116 778 1146010 -1616 0
56 1 S116 783 1146793 -833 0
56 1 S116 755 1147548 -78 0
56 2 S116 784 1148332 706 0
56 2 S116 922 1149254 1628 0
56 2 S116 861 1150115 2489 0
56 2 S116 759 1150874 3248 0
56 2 S116 798 1151672 4046 0
56 2 S116 846 1152518 4892 0
56 2 S116 946 1153464 5838 0
56 2 S116 982 1154446 6820 0
0 0 0 964 1155410 -7866 0
0 0 0 933 1156343 -6933 0
0 0 0 941 1157284 -5992 0
0 0 0 1079 1158363 -4913 0
0 0 0 1011 1159374 -3902 0
0 0 0 970 1160344 -2932 0
57 1 S106 955 1161299 -1977 0
57 1 S106 957 1162256 -1020 0
57 1 S106 976 1163232 -44 0
57 2 S106 1001 1164233 957 0
57 2 S106 942 1165175 1899 0
57 2 S106 873 1166048 2772 0
57 2 S106 894 1166942 3666 0
57 2 S106 976 1167918 4642 0
57 2 S106 1020 1168938 5662 0
57 2 S106 1007 1169945 6669 0
0 0 0 926 1170871 -9099 0
0 0 0 894 1171765 -8205 0
0 0 0 938 1172703 -7267 0
0 0 0 949 1173652 -6318 0
0 0 0 954 1174606 -5364 0
0 0 0 944 1175550 -4420 0
0 0 0 915 1176465 -3505 0
0 0 0 847 1177312 -2658 0
58 1 S102 797 1178109 -1861 0
58 1 S102 883 1178992 -978 0
58 1 S102 881 1179873 -97 0
58 2 S102 891 1180764 794 0
58 2 S102 838 1181602 1632 0
58 2 S102 846 1182448 2478 0
58 2 S102 909 1183357 3387 0
58 2 S102 914 1184271 4301 0
58 2 S102 928 1185199 5229 0
58 2 S102 893 1186092 6122 0
58 2 S102 818 1186910 6940 0
0 0 0 815 1187725 -7547 0
0 0 0 837 1188562 -6710 0
0 0 0 850 1189412 -5860 0
0 0 0 948 1190360 -4912 0
0 0 0 936 1191296 -3976 0
0 0 0 904 1192200 -3072 0
0 0 0 896 1193096 -2176 0
59 1 S112 849 1193945 -1327 0
59 1 S112 782 1194727 -545 0
59 2 S112 807 1195534 262 0
59 2 S112 857 1196391 1119 0
59 2 S112 1057 1197448 2176 0
59 2 S112 1108 1198556 3284 0
59 2 S112 1031 1199587 4315 0
59 2 S112 938 1200525 5253 0
59 2 S112 933 1201458 6186 0
0 0 0 932 1202390 -9063 0
0 0 0 953 1203343 -8110 0
0 0 0 957 1204300 -7153 0
0 0 0 950 1205250 -6203 0
0 0 0 942 1206192 -5261 0
0 0 0 885 1207077 -4376 0
0 0 0 813 1207890 -3563 0
0 0 0 861 1208751 -2702 0
60 1 S102 928 1209679 -1774 0
60 1 S102 946 1210625 -828 0
60 2 S102 911 1211536 83 0
60 2 S102 833 1212369 916 0
60 2 S102 858 1213227 1774 0
60 2 S102 921 1214148 2695 0
60 2 S102 1027 1215175 3722 0
60 2 S102 1018 1216193 4740 0
60 2 S102 901 1217094 5641 0
60 2 S102 939 1218033 6580 0
0 0 0 961 1218994 -10330 0
0 0 0 1013 1220007 -9317 0
0 0 0 992 1220999 -8325 0
0 0 0 946 1221945 -7379 0
0 0 0 856 1222801 -6523 0
0 0 0 818 1223619 -5705 0
0 0 0 854 1224473 -4851 0
0 0 0 942 1225415 -3909 0
0 0 0 1094 1226509 -2815 0
61 1 S106 1122 1227631 -1693 0
61 1 S106 1052 1228683 -641 0
61 2 S106 904 1229587 263 0
61 2 S106 946 1230533 1209 0
61 2 S106 1038 1231571 2247 0
61 2 S106 1142 1232713 3389 0
61 2 S106 1045 1233758 4434 0
61 2 S106 968 1234726 5402 0
61 2 S106 1090 1235816 6492 0
0 0 0 1154 1236970 -7391 0
0 0 0 1064 1238034 -6327 0
0 0 0 1005 1239039 -5322 0
0 0 0 983 1240022 -4339 0
0 0 0 982 1241004 -3357 0
0 0 0 956 1241960 -2401 0
62 1 S112 937 1242897 -1464 0
62 1 S112 908 1243805 -556 0
62 2 S112 957 1244762 401 0
62 2 S112 1025 1245787 1426 0
62 2 S112 1065 1246852 2491 0
62 2 S112 1025 1247877 3516 0
62 2 S112 961 1248838 4477 0
62 2 S112 947 1249785 5424 0
62 2 S112 930 1250715 6354 0
0 0 0 959 1251674 -11934 0
0 0 0 970 1252644 -10964 0
0 0 0 984 1253628 -9980 0
0 0 0 1020 1254648 -8960 0
0 0 0 1010 1255658 -7950 0
0 0 0 964 1256622 -6986 0
0 0 0 945 1257567 -6041 0
0 0 0 947 1258514 -5094 0
0 0 0 989 1259503 -4105 0
0 0 0 941 1260444 -3164 0
0 0 0 911 1261355 -2253 0
63 1 S102 855 1262210 -1398 0
63 1 S102 908 1263118 -490 0
63 2 S102 968 1264086 478 0
63 2 S102 1355 1265441 1833 1
63 2 S102 1144 1266585 2977 0
63 2 S102 906 1267491 3883 0
63 2 S102 910 1268401 4793 0
63 2 S102 1000 1269401 5793 0
63 2 S102 975 1270376 6768 0
0 0 0 911 1271287 -9414 0
0 0 0 882 1272169 -8532 0
0 0 0 893 1273062 -7639 0
0 0 0 951 1274013 -6688 0
0 0 0 937 1274950 -5751 0
0 0 0 817 1275767 -4934 0
0 0 0 820 1276587 -4114 0
0 0 0 781 1277368 -3333 0
0 0 0 814 1278182 -2519 0
64 1 S112 795 1278977 -1724 0
64 1 S112 771 1279748 -953 0
64 1 S112 793 1280541 -160 0
64 2 S112 830 1281371 670 0
64 2 S112 786 1282157 1456 0
64 2 S112 796 1282953 2252 0
64 2 S112 836 1283789 3088 0
64 2 S112 865 1284654 3953 0
64 2 S112 847 1285501 4800 0
64 2 S112 800 1286301 5600 0
64 2 S112 840 1287141 6440 0
0 0 0 871 1288012 -6930 0
0 0 0 873 1288885 -6057 0
0 0 0 940 1289825 -5117 0
0 0 0 920 1290745 -4197 0
0 0 0 927 1291672 -3270 0
0 0 0 945 1292617 -2325 0
65 1 S106 985 1293602 -1340 0
65 1 S106 945 1294547 -395 0
65 2 S106 912 1295459 517 0
65 2 S106 1000 1296459 1517 0
65 2 S106 1093 1297552 2610 0
65 2 S106 963 1298515 3573 0
65 2 S106 899 1299414 4472 0
65 2 S106 959 1300373 5431 0
65 2 S106 1001 1301374 6432 0
0 0 0 1008 1302382 -6684 0
0 0 0 1020 1303402 -5664 0
0 0 0 1028 1304430 -4636 0
0 0 0 994 1305424 -3642 0
0 0 0 994 1306418 -2648 0
66 1 S116 984 1307402 -1664 0
66 1 S116 994 1308396 -670 0
66 2 S116 959 1309355 289 0
66 2 S116 899 1310254 1188 0
66 2 S116 1015 1311269 2203 0
66 2 S116 1108 1312377 3311 0
66 2 S116 1056 1313433 4367 0
66 2 S116 929 1314362 5296 0
66 2 S116 849 1315211 6145 0
0 0 0 903 1316114 -12780 0
0 0 0 1010 1317124 -11770 0
0 0 0 1080 1318204 -10690 0
0 0 0 1128 1319332 -9562 0
0 0 0 1066 1320398 -8496 0
0 0 0 927 1321325 -7569 0
0 0 0 864 1322189 -6705 0
0 0 0 885 1323074 -5820 0
0 0 0 916 1323990 -4904 0
0 0 0 869 1324859 -4035 0
0 0 0 823 1325682 -3212 0
0 0 0 800 1326482 -2412 0
67 1 S102 773 1327255 -1639 0
67 1 S102 832 1328087 -807 0
67 2 S102 871 1328958 64 0
67 2 S102 923 1329881 987 0
67 2 S102 940 1330821 1927 0
67 2 S102 836 1331657 2763 0
67 2 S102 846 1332503 3609 0
67 2 S102 875 1333378 4484 0
67 2 S102 938 1334316 5422 0
67 2 S102 979 1335295 6401 0
0 0 0 942 1336237 -7727 0
0 0 0 881 1337118 -6846 0
0 0 0 953 1338071 -5893 0
0 0 0 1043 1339114 -4850 0
0 0 0 1004 1340118 -3846 0
0 0 0 978 1341096 -2868 0
68 1 S106 959 1342055 -1909 0
68 1 S106 872 1342927 -1037 0
68 1 S106 882 1343809 -155 0
68 2 S106 924 1344733 769 0
68 2 S106 1133 1345866 1902 0
68 2 S106 1089 1346955 2991 0
68 2 S106 972 1347927 3963 0
68 2 S106 902 1348829 4865 0
68 2 S106 946 1349775 5811 0
68 2 S106 1007 1350782 6818 0
0 0 0 993 1351775 -11138 0
0 0 0 994 1352769 -10144 0
0 0 0 986 1353755 -9158 0
0 0 0 949 1354704 -8209 0
0 0 0 917 1355621 -7292 0
0 0 0 892 1356513 -6400 0
0 0 0 898 1357411 -5502 0
0 0 0 973 1358384 -4529 0
0 0 0 927 1359311 -3602 0
0 0 0 877 1360188 -2725 0
69 1 S102 909 1361097 -1816 0
69 1 S102 953 1362050 -863 0
69 2 S102 953 1363003 90 0
69 2 S102 872 1363875 962 0
69 2 S102 823 1364698 1785 0
69 2 S102 858 1365556 2643 0
69 2 S102 927 1366483 3570 0
69 2 S102 999 1367482 4569 0
69 2 S102 1038 1368520 5607 0
69 2 S102 924 1369444 6531 0
0 0 0 927 1370371 -9253 0
0 0 0 996 1371367 -8257 0
0 0 0 1115 1372482 -7142 0
0 0 0 1087 1373569 -6055 0
0 0 0 983 1374552 -5072 0
0 0 0 937 1375489 -4135 0
0 0 0 841 1376330 -3294 0
0 0 0 819 1377149 -2475 0
70 1 S112 795 1377944 -1680 0
70 1 S112 810 1378754 -870 0
70 1 S112 788 1379542 -82 0
70 2 S112 827 1380369 745 0
70 2 S112 910 1381279 1655 0
70 2 S112 974 1382253 2629 0
70 2 S112 956 1383209 3585 0
70 2 S112 862 1384071 4447 0
70 2 S112 820 1384891 5267 0
70 2 S112 845 1385736 6112 0
70 2 S112 870 1386606 6982 0
0 0 0 862 1387468 -11801 0
0 0 0 848 1388316 -10953 0
0 0 0 893 1389209 -10060 0
0 0 0 1013 1390222 -9047 0
0 0 0 1028 1391250 -8019 0
0 0 0 1020 1392270 -6999 0
0 0 0 1037 1393307 -5962 0
0 0 0 1060 1394367 -4902 0
0 0 0 1054 1395421 -3848 0
0 0 0 1058 1396479 -2790 0
71 1 S116 1009 1397488 -1781 0
71 1 S116 896 1398384 -885 0
71 2 S116 926 1399310 41 0
71 2 S116 954 1400264 995 0
71 2 S116 1068 1401332 2063 0
71 2 S116 981 1402313 3044 0
71 2 S116 870 1403183 3914 0
71 2 S116 845 1404028 4759 0
71 2 S116 944 1404972 5703 0
71 2 S116 1110 1406082 6813 0
0 0 0 1084 1407166 -9494 0
0 0 0 1065 1408231 -8429 0
0 0 0 1049 1409280 -7380 0
0 0 0 1004 1410284 -6376 0
0 0 0 952 1411236 -5424 0
0 0 0 888 1412124 -4536 0
0 0 0 907 1413031 -3629 0
0 0 0 938 1413969 -2691 0
72 1 S102 966 1414935 -1725 0
72 1 S102 1004 1415939 -721 0
72 2 S102 1022 1416961 301 0
72 2 S102 1060 1418021 1361 0
72 2 S102 948 1418969 2309 0
72 2 S102 864 1419833 3173 0
72 2 S102 931 1420764 4104 0
72 2 S102 1008 1421772 5112 0
72 2 S102 974 1422746 6086 0
72 2 S102 867 1423613 6953 0
0 0 0 925 1424538 -7242 0
0 0 0 1108 1425646 -6134 0
0 0 0 1192 1426838 -4942 1
0 0 0 1077 1427915 -3865 0
0 0 0 1009 1428924 -2856 0
73 1 S116 952 1429876 -1904 0
73 1 S116 924 1430800 -980 0
73 1 S116 916 1431716 -64 0
73 2 S116 961 1432677 897 0
73 2 S116 1107 1433784 2004 0
73 2 S116 1101 1434885 3105 0
73 2 S116 953 1435838 4058 0
73 2 S116 959 1436797 5017 0
73 2 S116 1004 1437801 6021 0
73 2 S116 1001 1438802 7022 0
0 0 0 1018 1439820 -9732 0
0 0 0 968 1440788 -8764 0
0 0 0 1009 1441797 -7755 0
0 0 0 1090 1442887 -6665 0
0 0 0 1036 1443923 -5629 0
0 0 0 966 1444889 -4663 0
0 0 0 875 1445764 -3788 0
0 0 0 838 1446602 -2950 0
0 0 0 779 1447381 -2171 0
74 1 S106 760 1448141 -1411 0
74 1 S106 798 1448939 -613 0
74 2 S106 828 1449767 215 0
74 2 S106 934 1450701 1149 0
74 2 S106 969 1451670 2118 0
74 2 S106 934 1452604 3052 0
74 2 S106 851 1453455 3903 0
74 2 S106 806 1454261 4709 0
74 2 S106 826 1455087 5535 0
74 2 S106 846 1455933 6381 0
0 0 0 851 1456784 -7622 0
0 0 0 862 1457646 -6760 0
0 0 0 863 1458509 -5897 0
0 0 0 906 1459415 -4991 0
0 0 0 916 1460331 -4075 0
0 0 0 939 1461270 -3136 0
0 0 0 996 1462266 -2140 0
75 1 S112 1098 1463364 -1042 0
75 2 S112 1072 1464436 30 0
75 2 S112 1008 1465444 1038 0
75 2 S112 987 1466431 2025 0
75 2 S112 921 1467352 2946 0
75 2 S112 855 1468207 3801 0
75 2 S112 845 1469052 4646 0
75 2 S112 882 1469934 5528 0
75 2 S112 940 1470874 6468 0
0 0 0 991 1471865 -8522 0
0 0 0 997 1472862 -7525 0
0 0 0 883 1473745 -6642 0
0 0 0 834 1474579 -5808 0
0 0 0 831 1475410 -4977 0
0 0 0 839 1476249 -4138 0
0 0 0 804 1477053 -3334 0
0 0 0 793 1477846 -2541 0
76 1 S116 808 1478654 -1733 0
76 1 S116 825 1479479 -908 0
76 1 S116 843 1480322 -65 0
76 2 S116 859 1481181 794 0
76 2 S116 965 1482146 1759 0
76 2 S116 992 1483138 2751 0
76 2 S116 967 1484105 3718 0
76 2 S116 892 1484997 4610 0
76 2 S116 840 1485837 5450 0
76 2 S116 802 1486639 6252 0
0 0 0 843 1487482 -7809 0
0 0 0 906 1488388 -6903 0
0 0 0 999 1489387 -5904 0
0 0 0 1047 1490434 -4857 0
0 0 0 990 1491424 -3867 0
0 0 0 933 1492357 -2934 0
0 0 0 855 1493212 -2079 0
77 1 S106 828 1494040 -1251 0
77 1 S106 855 1494895 -396 0
77 2 S106 934 1495829 538 0
77 2 S106 1032 1496861 1570 0
77 2 S106 1036 1497897 2606 0
77 2 S106 958 1498855 3564 0
77 2 S106 859 1499714 4423 0
77 2 S106 802 1500516 5225 0
77 2 S106 799 1501315 6024 0
77 2 S106 858 1502173 6882 0
0 0 0 940 1503113 -9221 0
0 0 0 995 1504108 -8226 0
0 0 0 984 1505092 -7242 0
0 0 0 941 1506033 -6301 0
0 0 0 932 1506965 -5369 0
0 0 0 924 1507889 -4445 0
0 0 0 943 1508832 -3502 0
0 0 0 915 1509747 -2587 0
78 1 S112 845 1510592 -1742 0
78 1 S112 820 1511412 -922 0
78 1 S112 806 1512218 -116 0
78 2 S112 859 1513077 743 0
78 2 S112 968 1514045 1711 0
78 2 S112 902 1514947 2613 0
78 2 S112 810 1515757 3423 0
78 2 S112 827 1516584 4250 0
78 2 S112 896 1517480 5146 0
78 2 S112 922 1518402 6068 0
78 2 S112 933 1519335 7001 0
0 0 0 956 1520291 -11423 0
0 0 0 954 1521245 -10469 0
0 0 0 958 1522203 -9511 0
0 0 0 943 1523146 -8568 0
0 0 0 941 1524087 -7627 0
0 0 0 996 1525083 -6631 0
0 0 0 968 1526051 -5663 0
0 0 0 933 1526984 -4730 0
0 0 0 949 1527933 -3781 0
0 0 0 971 1528904 -2810 0
79 1 S102 951 1529855 -1859 0
79 1 S102 992 1530847 -867 0
79 2 S102 1020 1531867 153 0
79 2 S102 935 1532802 1088 0
79 2 S102 863 1533665 1951 0
79 2 S102 802 1534467 2753 0
79 2 S102 761 1535228 3514 0
79 2 S102 751 1535979 4265 0
79 2 S102 740 1536719 5005 0
79 2 S102 724 1537443 5729 0
79 2 S102 709 1538152 6438 0
0 0 0 703 1538855 -8327 0
0 0 0 746 1539601 -7581 0
0 0 0 837 1540438 -6744 0
0 0 0 777 1541215 -5967 0
0 0 0 747 1541962 -5220 0
0 0 0 771 1542733 -4449 0
0 0 0 797 1543530 -3652 0
0 0 0 748 1544278 -2904 0
0 0 0 781 1545059 -2123 0
80 1 S116 778 1545837 -1345 0
80 1 S116 759 1546596 -586 0
80 2 S116 764 1547360 178 0
80 2 S116 767 1548127 945 0
80 2 S116 780 1548907 1725 0
80 2 S116 782 1549689 2507 0
80 2 S116 765 1550454 3272 0
80 2 S116 729 1551183 4001 0
80 2 S116 749 1551932 4750 0
80 2 S116 769 1552701 5519 0
80 2 S116 815 1553516 6334 0
