T_0004
BeatCount Mean SD BeatCountNoOutliers MeanNoOutliers SDNoOutliers
2345 686,108315565032 68,4447426905989 2317 683,737160120846 65,3666290395721

Trial TrialStatus Trialtype IBI AbsPosition RelPosition Outlier
0 0 0 585 1095 -15136 0
0 0 0 566 1661 -14570 0
0 0 0 560 2221 -14010 0
0 0 0 547 2768 -13463 0
0 0 0 558 3326 -12905 0
0 0 0 581 3907 -12324 0
0 0 0 597 4504 -11727 0
0 0 0 610 5114 -11117 0
0 0 0 607 5721 -10510 0
0 0 0 599 6320 -9911 0
0 0 0 598 6918 -9313 0
0 0 0 601 7519 -8712 0
0 0 0 605 8124 -8107 0
0 0 0 622 8746 -7485 0
0 0 0 650 9396 -6835 0
0 0 0 657 10053 -6178 0
0 0 0 662 10715 -5516 0
0 0 0 655 11370 -4861 0
0 0 0 632 12002 -4229 0
0 0 0 607 12609 -3622 0
0 0 0 590 13199 -3032 0
0 0 0 574 13773 -2458 0
1 1 S112 569 14342 -1889 0
1 1 S112 568 14910 -1321 0
1 1 S112 576 15486 -745 0
1 1 S112 597 16083 -148 0
1 2 S112 609 16692 461 0
1 2 S112 614 17306 1075 0
1 2 S112 618 17924 1693 0
1 2 S112 598 18522 2291 0
1 2 S112 588 19110 2879 0
1 2 S112 584 19694 3463 0
1 2 S112 590 20284 4053 0
1 2 S112 595 20879 4648 0
1 2 S112 609 21488 5257 0
1 2 S112 609 22097 5866 0
1 2 S112 611 22708 6477 0
0 0 0 599 23307 -12486 0
0 0 0 589 23896 -11897 0
0 0 0 579 24475 -11318 0
0 0 0 577 25052 -10741 0
0 0 0 565 25617 -10176 0
0 0 0 563 26180 -9613 0
0 0 0 561 26741 -9052 0
0 0 0 555 27296 -8497 0
0 0 0 552 27848 -7945 0
0 0 0 540 28388 -7405 0
0 0 0 530 28918 -6875 0
0 0 0 525 29443 -6350 0
0 0 0 527 29970 -5823 0
0 0 0 525 30495 -5298 0
0 0 0 526 31021 -4772 0
0 0 0 528 31549 -4244 0
0 0 0 527 32076 -3717 0
0 0 0 526 32602 -3191 0
0 0 0 525 33127 -2666 0
0 0 0 526 33653 -2140 0
2 1 S102 534 34187 -1606 0
2 1 S102 545 34732 -1061 0
2 1 S102 557 35289 -504 0
2 2 S102 556 35845 52 0
2 2 S102 557 36402 609 0
2 2 S102 567 36969 1176 0
2 2 S102 575 37544 1751 0
2 2 S102 594 38138 2345 0
2 2 S102 610 38748 2955 0
2 2 S102 609 39357 3564 0
2 2 S102 608 39965 4172 0
2 2 S102 613 40578 4785 0
2 2 S102 601 41179 5386 0
2 2 S102 588 41767 5974 0
2 2 S102 574 42341 6548 0
0 0 0 563 42904 -10694 0
0 0 0 565 43469 -10129 0
0 0 0 565 44034 -9564 0
0 0 0 574 44608 -8990 0
0 0 0 590 45198 -8400 0
0 0 0 622 45820 -7778 0
0 0 0 640 46460 -7138 0
0 0 0 622 47082 -6516 0
0 0 0 618 47700 -5898 0
0 0 0 614 48314 -5284 0
0 0 0 618 48932 -4666 0
0 0 0 624 49556 -4042 0
0 0 0 610 50166 -3432 0
0 0 0 598 50764 -2834 0
0 0 0 603 51367 -2231 0
3 1 S116 610 51977 -1621 0
3 1 S116 633 52610 -988 0
3 1 S116 626 53236 -362 0
3 2 S116 607 53843 245 0
3 2 S116 593 54436 838 0
3 2 S116 586 55022 1424 0
3 2 S116 575 55597 1999 0
3 2 S116 584 56181 2583 0
3 2 S116 623 56804 3206 0
3 2 S116 672 57476 3878 0
3 2 S116 694 58170 4572 0
3 2 S116 685 58855 5257 0
3 2 S116 709 59564 5966 0
3 2 S116 728 60292 6694 0
0 0 0 716 61008 -11622 0
0 0 0 685 61693 -10937 0
0 0 0 660 62353 -10277 0
0 0 0 664 63017 -9613 0
0 0 0 659 63676 -8954 0
0 0 0 644 64320 -8310 0
0 0 0 620 64940 -7690 0
0 0 0 594 65534 -7096 0
0 0 0 581 66115 -6515 0
0 0 0 577 66692 -5938 0
0 0 0 577 67269 -5361 0
0 0 0 595 67864 -4766 0
0 0 0 628 68492 -4138 0
0 0 0 640 69132 -3498 0
0 0 0 611 69743 -2887 0
0 0 0 625 70368 -2262 0
4 1 S106 644 71012 -1618 0
4 1 S106 670 71682 -948 0
4 1 S106 640 72322 -308 0
4 2 S106 634 72956 326 0
4 2 S106 643 73599 969 0
4 2 S106 658 74257 1627 0
4 2 S106 653 74910 2280 0
4 2 S106 650 75560 2930 0
4 2 S106 626 76186 3556 0
4 2 S106 603 76789 4159 0
4 2 S106 596 77385 4755 0
4 2 S106 616 78001 5371 0
4 2 S106 639 78640 6010 0
4 2 S106 678 79318 6688 0
0 0 0 704 80022 -8308 0
0 0 0 719 80741 -7589 0
0 0 0 689 81430 -6900 0
0 0 0 701 82131 -6199 0
0 0 0 703 82834 -5496 0
0 0 0 675 83509 -4821 0
0 0 0 644 84153 -4177 0
0 0 0 620 84773 -3557 0
0 0 0 618 85391 -2939 0
0 0 0 624 86015 -2315 0
5 1 S116 633 86648 -1682 0
5 1 S116 652 87300 -1030 0
5 1 S116 664 87964 -366 0
5 2 S116 637 88601 271 0
5 2 S116 619 89220 890 0
5 2 S116 619 89839 1509 0
5 2 S116 614 90453 2123 0
5 2 S116 621 91074 2744 0
5 2 S116 648 91722 3392 0
5 2 S116 694 92416 4086 0
5 2 S116 757 93173 4843 0
5 2 S116 783 93956 5626 0
5 2 S116 796 94752 6422 0
0 0 0 793 95545 -11237 0
0 0 0 772 96317 -10465 0
0 0 0 733 97050 -9732 0
0 0 0 696 97746 -9036 0
0 0 0 648 98394 -8388 0
0 0 0 615 99009 -7773 0
0 0 0 600 99609 -7173 0
0 0 0 599 100208 -6574 0
0 0 0 631 100839 -5943 0
0 0 0 704 101543 -5239 0
0 0 0 832 102375 -4407 0
0 0 0 877 103252 -3530 1
0 0 0 882 104134 -2648 1
6 1 S106 886 105020 -1762 1
6 1 S106 850 105870 -912 0
6 1 S106 805 106675 -107 0
6 2 S106 804 107479 697 0
6 2 S106 796 108275 1493 0
6 2 S106 804 109079 2297 0
6 2 S106 787 109866 3084 0
6 2 S106 798 110664 3882 0
6 2 S106 793 111457 4675 0
6 2 S106 766 112223 5441 0
6 2 S106 749 112972 6190 0
6 2 S106 785 113757 6975 0
0 0 0 793 114550 -12457 0
0 0 0 772 115322 -11685 0
0 0 0 737 116059 -10948 0
0 0 0 755 116814 -10193 0
0 0 0 788 117602 -9405 0
0 0 0 786 118388 -8619 0
0 0 0 743 119131 -7876 0
0 0 0 695 119826 -7181 0
0 0 0 666 120492 -6515 0
0 0 0 663 121155 -5852 0
0 0 0 663 121818 -5189 0
0 0 0 647 122465 -4542 0
0 0 0 616 123081 -3926 0
0 0 0 671 123752 -3255 0
0 0 0 731 124483 -2524 0
7 1 S102 737 125220 -1787 0
7 1 S102 744 125964 -1043 0
7 1 S102 775 126739 -268 0
7 2 S102 814 127553 546 0
7 2 S102 803 128356 1349 0
7 2 S102 791 129147 2140 0
7 2 S102 760 129907 2900 0
7 2 S102 729 130636 3629 0
7 2 S102 714 131350 4343 0
7 2 S102 678 132028 5021 0
7 2 S102 656 132684 5677 0
7 2 S102 649 133333 6326 0
7 2 S102 662 133995 6988 0
0 0 0 725 134720 -10905 0
0 0 0 882 135602 -10023 1
0 0 0 897 136499 -9126 1
0 0 0 908 137407 -8218 1
0 0 0 885 138292 -7333 1
0 0 0 853 139145 -6480 0
0 0 0 713 139858 -5767 0
0 0 0 669 140527 -5098 0
0 0 0 638 141165 -4460 0
0 0 0 635 141800 -3825 0
0 0 0 678 142478 -3147 0
0 0 0 722 143200 -2425 0
8 1 S112 717 143917 -1708 0
8 1 S112 697 144614 -1011 0
8 1 S112 738 145352 -273 0
8 2 S112 786 146138 513 0
8 2 S112 817 146955 1330 0
8 2 S112 754 147709 2084 0
8 2 S112 695 148404 2779 0
8 2 S112 663 149067 3442 0
8 2 S112 653 149720 4095 0
8 2 S112 675 150395 4770 0
8 2 S112 702 151097 5472 0
8 2 S112 781 151878 6253 0
0 0 0 831 152709 -8433 0
0 0 0 833 153542 -7600 0
0 0 0 826 154368 -6774 0
0 0 0 793 155161 -5981 0
0 0 0 717 155878 -5264 0
0 0 0 671 156549 -4593 0
0 0 0 654 157203 -3939 0
0 0 0 631 157834 -3308 0
0 0 0 634 158468 -2674 0
0 0 0 631 159099 -2043 0
9 1 S116 628 159727 -1415 0
9 1 S116 728 160455 -687 0
9 2 S116 789 161244 102 0
9 2 S116 835 162079 937 0
9 2 S116 849 162928 1786 0
9 2 S116 860 163788 2646 0
9 2 S116 831 164619 3477 0
9 2 S116 809 165428 4286 0
9 2 S116 752 166180 5038 0
9 2 S116 718 166898 5756 0
9 2 S116 722 167620 6478 0
0 0 0 725 168345 -13421 0
0 0 0 743 169088 -12678 0
0 0 0 786 169874 -11892 0
0 0 0 798 170672 -11094 0
0 0 0 790 171462 -10304 0
0 0 0 748 172210 -9556 0
0 0 0 716 172926 -8840 0
0 0 0 690 173616 -8150 0
0 0 0 701 174317 -7449 0
0 0 0 731 175048 -6718 0
0 0 0 765 175813 -5953 0
0 0 0 754 176567 -5199 0
0 0 0 723 177290 -4476 0
0 0 0 715 178005 -3761 0
0 0 0 722 178727 -3039 0
0 0 0 736 179463 -2303 0
10 1 S102 733 180196 -1570 0
10 1 S102 694 180890 -876 0
10 1 S102 681 181571 -195 0
10 2 S102 662 182233 467 0
10 2 S102 685 182918 1152 0
10 2 S102 713 183631 1865 0
10 2 S102 761 184392 2626 0
10 2 S102 763 185155 3389 0
10 2 S102 715 185870 4104 0
10 2 S102 687 186557 4791 0
10 2 S102 673 187230 5464 0
10 2 S102 680 187910 6144 0
10 2 S102 682 188592 6826 0
0 0 0 717 189309 -11555 0
0 0 0 723 190032 -10832 0
0 0 0 691 190723 -10141 0
0 0 0 687 191410 -9454 0
0 0 0 698 192108 -8756 0
0 0 0 680 192788 -8076 0
0 0 0 654 193442 -7422 0
0 0 0 618 194060 -6804 0
0 0 0 604 194664 -6200 0
0 0 0 616 195280 -5584 0
0 0 0 632 195912 -4952 0
0 0 0 647 196559 -4305 0
0 0 0 639 197198 -3666 0
0 0 0 625 197823 -3041 0
0 0 0 620 198443 -2421 0
11 1 S112 609 199052 -1812 0
11 1 S112 610 199662 -1202 0
11 1 S112 631 200293 -571 0
11 2 S112 669 200962 98 0
11 2 S112 695 201657 793 0
11 2 S112 716 202373 1509 0
11 2 S112 731 203104 2240 0
11 2 S112 714 203818 2954 0
11 2 S112 690 204508 3644 0
11 2 S112 672 205180 4316 0
11 2 S112 663 205843 4979 0
11 2 S112 651 206494 5630 0
11 2 S112 651 207145 6281 0
11 2 S112 658 207803 6939 0
0 0 0 670 208473 -7809 0
0 0 0 698 209171 -7111 0
0 0 0 701 209872 -6410 0
0 0 0 679 210551 -5731 0
0 0 0 658 211209 -5073 0
0 0 0 638 211847 -4435 0
0 0 0 628 212475 -3807 0
0 0 0 641 213116 -3166 0
0 0 0 672 213788 -2494 0
12 1 S116 725 214513 -1769 0
12 1 S116 762 215275 -1007 0
12 1 S116 761 216036 -246 0
12 2 S116 730 216766 484 0
12 2 S116 701 217467 1185 0
12 2 S116 673 218140 1858 0
12 2 S116 632 218772 2490 0
12 2 S116 603 219375 3093 0
12 2 S116 609 219984 3702 0
12 2 S116 647 220631 4349 0
12 2 S116 718 221349 5067 0
12 2 S116 820 222169 5887 0
12 2 S116 828 222997 6715 0
0 0 0 834 223831 -11864 0
0 0 0 801 224632 -11063 0
0 0 0 739 225371 -10324 0
0 0 0 743 226114 -9581 0
0 0 0 729 226843 -8852 0
0 0 0 704 227547 -8148 0
0 0 0 684 228231 -7464 0
0 0 0 660 228891 -6804 0
0 0 0 637 229528 -6167 0
0 0 0 612 230140 -5555 0
0 0 0 593 230733 -4962 0
0 0 0 583 231316 -4379 0
0 0 0 570 231886 -3809 0
0 0 0 599 232485 -3210 0
0 0 0 696 233181 -2514 0
13 1 S112 755 233936 -1759 0
13 1 S112 775 234711 -984 0
13 1 S112 782 235493 -202 0
13 2 S112 741 236234 539 0
13 2 S112 716 236950 1255 0
13 2 S112 732 237682 1987 0
13 2 S112 682 238364 2669 0
13 2 S112 662 239026 3331 0
13 2 S112 655 239681 3986 0
13 2 S112 676 240357 4662 0
13 2 S112 691 241048 5353 0
13 2 S112 706 241754 6059 0
13 2 S112 720 242474 6779 0
0 0 0 730 243204 -12352 0
0 0 0 699 243903 -11653 0
0 0 0 671 244574 -10982 0
0 0 0 641 245215 -10341 0
0 0 0 636 245851 -9705 0
0 0 0 633 246484 -9072 0
0 0 0 643 247127 -8429 0
0 0 0 672 247799 -7757 0
0 0 0 689 248488 -7068 0
0 0 0 676 249164 -6392 0
0 0 0 674 249838 -5718 0
0 0 0 699 250537 -5019 0
0 0 0 732 251269 -4287 0
0 0 0 766 252035 -3521 0
0 0 0 791 252826 -2730 0
14 1 S106 810 253636 -1920 0
14 1 S106 804 254440 -1116 0
14 1 S106 788 255228 -328 0
14 2 S106 757 255985 429 0
14 2 S106 745 256730 1174 0
14 2 S106 715 257445 1889 0
14 2 S106 681 258126 2570 0
14 2 S106 659 258785 3229 0
14 2 S106 687 259472 3916 0
14 2 S106 747 260219 4663 0
14 2 S106 819 261038 5482 0
14 2 S106 817 261855 6299 0
0 0 0 826 262681 -11775 0
0 0 0 796 263477 -10979 0
0 0 0 761 264238 -10218 0
0 0 0 753 264991 -9465 0
0 0 0 758 265749 -8707 0
0 0 0 741 266490 -7966 0
0 0 0 752 267242 -7214 0
0 0 0 720 267962 -6494 0
0 0 0 688 268650 -5806 0
0 0 0 689 269339 -5117 0
0 0 0 718 270057 -4399 0
0 0 0 791 270848 -3608 0
0 0 0 826 271674 -2782 0
15 1 S116 796 272470 -1986 0
15 1 S116 754 273224 -1232 0
15 1 S116 683 273907 -549 0
15 2 S116 651 274558 102 0
15 2 S116 650 275208 752 0
15 2 S116 661 275869 1413 0
15 2 S116 737 276606 2150 0
15 2 S116 776 277382 2926 0
15 2 S116 786 278168 3712 0
15 2 S116 762 278930 4474 0
15 2 S116 726 279656 5200 0
15 2 S116 744 280400 5944 0
15 2 S116 754 281154 6698 0
0 0 0 761 281915 -9484 0
0 0 0 775 282690 -8709 0
0 0 0 751 283441 -7958 0
0 0 0 738 284179 -7220 0
0 0 0 695 284874 -6525 0
0 0 0 644 285518 -5881 0
0 0 0 634 286152 -5247 0
0 0 0 599 286751 -4648 0
0 0 0 578 287329 -4070 0
0 0 0 578 287907 -3492 0
0 0 0 607 288514 -2885 0
0 0 0 647 289161 -2238 0
16 1 S116 674 289835 -1564 0
16 1 S116 702 290537 -862 0
16 1 S116 705 291242 -157 0
16 2 S116 711 291953 554 0
16 2 S116 736 292689 1290 0
16 2 S116 733 293422 2023 0
16 2 S116 729 294151 2752 0
16 2 S116 705 294856 3457 0
16 2 S116 681 295537 4138 0
16 2 S116 668 296205 4806 0
16 2 S116 668 296873 5474 0
16 2 S116 673 297546 6147 0
16 2 S116 696 298242 6843 0
0 0 0 690 298932 -9145 0
0 0 0 674 299606 -8471 0
0 0 0 655 300261 -7816 0
0 0 0 658 300919 -7158 0
0 0 0 672 301591 -6486 0
0 0 0 672 302263 -5814 0
0 0 0 649 302912 -5165 0
0 0 0 629 303541 -4536 0
0 0 0 621 304162 -3915 0
0 0 0 620 304782 -3295 0
0 0 0 626 305408 -2669 0
0 0 0 639 306047 -2030 0
17 1 S106 663 306710 -1367 0
17 1 S106 662 307372 -705 0
17 1 S106 644 308016 -61 0
17 2 S106 641 308657 580 0
17 2 S106 647 309304 1227 0
17 2 S106 670 309974 1897 0
17 2 S106 681 310655 2578 0
17 2 S106 671 311326 3249 0
17 2 S106 665 311991 3914 0
17 2 S106 664 312655 4578 0
17 2 S106 692 313347 5270 0
17 2 S106 718 314065 5988 0
17 2 S106 718 314783 6706 0
0 0 0 707 315490 -11635 0
0 0 0 697 316187 -10938 0
0 0 0 666 316853 -10272 0
0 0 0 657 317510 -9615 0
0 0 0 667 318177 -8948 0
0 0 0 668 318845 -8280 0
0 0 0 699 319544 -7581 0
0 0 0 723 320267 -6858 0
0 0 0 722 320989 -6136 0
0 0 0 697 321686 -5439 0
0 0 0 666 322352 -4773 0
0 0 0 667 323019 -4106 0
0 0 0 671 323690 -3435 0
0 0 0 694 324384 -2741 0
0 0 0 722 325106 -2019 0
18 1 S102 716 325822 -1303 0
18 1 S102 716 326538 -587 0
18 2 S102 683 327221 96 0
18 2 S102 656 327877 752 0
18 2 S102 637 328514 1389 0
18 2 S102 645 329159 2034 0
18 2 S102 664 329823 2698 0
18 2 S102 703 330526 3401 0
18 2 S102 733 331259 4134 0
18 2 S102 733 331992 4867 0
18 2 S102 748 332740 5615 0
18 2 S102 712 333452 6327 0
0 0 0 711 334163 -8911 0
0 0 0 697 334860 -8214 0
0 0 0 671 335531 -7543 0
0 0 0 657 336188 -6886 0
0 0 0 632 336820 -6254 0
0 0 0 609 337429 -5645 0
0 0 0 598 338027 -5047 0
0 0 0 586 338613 -4461 0
0 0 0 592 339205 -3869 0
0 0 0 599 339804 -3270 0
0 0 0 603 340407 -2667 0
0 0 0 596 341003 -2071 0
19 1 S106 629 341632 -1442 0
19 1 S106 642 342274 -800 0
19 1 S106 644 342918 -156 0
19 2 S106 649 343567 493 0
19 2 S106 634 344201 1127 0
19 2 S106 630 344831 1757 0
19 2 S106 626 345457 2383 0
19 2 S106 628 346085 3011 0
19 2 S106 643 346728 3654 0
19 2 S106 651 347379 4305 0
19 2 S106 648 348027 4953 0
19 2 S106 637 348664 5590 0
19 2 S106 632 349296 6222 0
19 2 S106 637 349933 6859 0
0 0 0 666 350599 -12087 0
0 0 0 698 351297 -11389 0
0 0 0 716 352013 -10673 0
0 0 0 727 352740 -9946 0
0 0 0 727 353467 -9219 0
0 0 0 687 354154 -8532 0
0 0 0 670 354824 -7862 0
0 0 0 643 355467 -7219 0
0 0 0 641 356108 -6578 0
0 0 0 645 356753 -5933 0
0 0 0 681 357434 -5252 0
0 0 0 696 358130 -4556 0
0 0 0 681 358811 -3875 0
0 0 0 670 359481 -3205 0
0 0 0 681 360162 -2524 0
20 1 S112 694 360856 -1830 0
20 1 S112 704 361560 -1126 0
20 1 S112 710 362270 -416 0
20 2 S112 699 362969 283 0
20 2 S112 674 363643 957 0
20 2 S112 654 364297 1611 0
20 2 S112 633 364930 2244 0
20 2 S112 610 365540 2854 0
20 2 S112 598 366138 3452 0
20 2 S112 630 366768 4082 0
20 2 S112 676 367444 4758 0
20 2 S112 714 368158 5472 0
20 2 S112 731 368889 6203 0
20 2 S112 734 369623 6937 0
0 0 0 714 370337 -10453 0
0 0 0 716 371053 -9737 0
0 0 0 702 371755 -9035 0
0 0 0 686 372441 -8349 0
0 0 0 672 373113 -7677 0
0 0 0 641 373754 -7036 0
0 0 0 623 374377 -6413 0
0 0 0 608 374985 -5805 0
0 0 0 616 375601 -5189 0
0 0 0 651 376252 -4538 0
0 0 0 719 376971 -3819 0
0 0 0 752 377723 -3067 0
0 0 0 768 378491 -2299 0
21 1 S106 786 379277 -1513 0
21 1 S106 776 380053 -737 0
21 1 S106 737 380790 0 0
21 2 S106 708 381498 708 0
21 2 S106 704 382202 1412 0
21 2 S106 679 382881 2091 0
21 2 S106 672 383553 2763 0
21 2 S106 690 384243 3453 0
21 2 S106 735 384978 4188 0
21 2 S106 801 385779 4989 0
21 2 S106 801 386580 5790 0
21 2 S106 800 387380 6590 0
0 0 0 792 388172 -13258 0
0 0 0 744 388916 -12514 0
0 0 0 695 389611 -11819 0
0 0 0 657 390268 -11162 0
0 0 0 645 390913 -10517 0
0 0 0 641 391554 -9876 0
0 0 0 678 392232 -9198 0
0 0 0 722 392954 -8476 0
0 0 0 681 393635 -7795 0
0 0 0 676 394311 -7119 0
0 0 0 691 395002 -6428 0
0 0 0 721 395723 -5707 0
0 0 0 737 396460 -4970 0
0 0 0 749 397209 -4221 0
0 0 0 740 397949 -3481 0
0 0 0 710 398659 -2771 0
0 0 0 693 399352 -2078 0
22 1 S116 695 400047 -1383 0
22 1 S116 712 400759 -671 0
22 2 S116 718 401477 47 0
22 2 S116 701 402178 748 0
22 2 S116 707 402885 1455 0
22 2 S116 679 403564 2134 0
22 2 S116 661 404225 2795 0
22 2 S116 639 404864 3434 0
22 2 S116 649 405513 4083 0
22 2 S116 694 406207 4777 0
22 2 S116 762 406969 5539 0
22 2 S116 803 407772 6342 0
0 0 0 817 408589 -10066 0
0 0 0 823 409412 -9243 0
0 0 0 789 410201 -8454 0
0 0 0 749 410950 -7705 0
0 0 0 699 411649 -7006 0
0 0 0 651 412300 -6355 0
0 0 0 619 412919 -5736 0
0 0 0 591 413510 -5145 0
0 0 0 576 414086 -4569 0
0 0 0 592 414678 -3977 0
0 0 0 636 415314 -3341 0
0 0 0 678 415992 -2663 0
23 1 S112 698 416690 -1965 0
23 1 S112 741 417431 -1224 0
23 1 S112 782 418213 -442 0
23 2 S112 805 419018 363 0
23 2 S112 780 419798 1143 0
23 2 S112 696 420494 1839 0
23 2 S112 637 421131 2476 0
23 2 S112 608 421739 3084 0
23 2 S112 594 422333 3678 0
23 2 S112 610 422943 4288 0
23 2 S112 656 423599 4944 0
23 2 S112 724 424323 5668 0
23 2 S112 745 425068 6413 0
0 0 0 783 425851 -9780 0
0 0 0 824 426675 -8956 0
0 0 0 775 427450 -8181 0
0 0 0 745 428195 -7436 0
0 0 0 748 428943 -6688 0
0 0 0 729 429672 -5959 0
0 0 0 721 430393 -5238 0
0 0 0 703 431096 -4535 0
0 0 0 694 431790 -3841 0
0 0 0 676 432466 -3165 0
0 0 0 666 433132 -2499 0
24 1 S106 680 433812 -1819 0
24 1 S106 705 434517 -1114 0
24 1 S106 733 435250 -381 0
24 2 S106 746 435996 365 0
24 2 S106 726 436722 1091 0
24 2 S106 744 437466 1835 0
24 2 S106 754 438220 2589 0
24 2 S106 765 438985 3354 0
24 2 S106 796 439781 4150 0
24 2 S106 782 440563 4932 0
24 2 S106 757 441320 5689 0
24 2 S106 740 442060 6429 0
0 0 0 754 442814 -10688 0
0 0 0 739 443553 -9949 0
0 0 0 721 444274 -9228 0
0 0 0 693 444967 -8535 0
0 0 0 673 445640 -7862 0
0 0 0 664 446304 -7198 0
0 0 0 672 446976 -6526 0
0 0 0 705 447681 -5821 0
0 0 0 737 448418 -5084 0
0 0 0 771 449189 -4313 0
0 0 0 771 449960 -3542 0
0 0 0 725 450685 -2817 0
0 0 0 729 451414 -2088 0
25 1 S102 711 452125 -1377 0
25 1 S102 699 452824 -678 0
25 1 S102 677 453501 -1 0
25 2 S102 678 454179 677 0
25 2 S102 659 454838 1336 0
25 2 S102 678 455516 2014 0
25 2 S102 668 456184 2682 0
25 2 S102 692 456876 3374 0
25 2 S102 701 457577 4075 0
25 2 S102 684 458261 4759 0
25 2 S102 687 458948 5446 0
25 2 S102 685 459633 6131 0
25 2 S102 691 460324 6822 0
0 0 0 708 461032 -9082 0
0 0 0 700 461732 -8382 0
0 0 0 673 462405 -7709 0
0 0 0 644 463049 -7065 0
0 0 0 634 463683 -6431 0
0 0 0 642 464325 -5789 0
0 0 0 677 465002 -5112 0
0 0 0 711 465713 -4401 0
0 0 0 698 466411 -3703 0
0 0 0 645 467056 -3058 0
0 0 0 632 467688 -2426 0
26 1 S116 624 468312 -1802 0
26 1 S116 608 468920 -1194 0
26 1 S116 605 469525 -589 0
26 2 S116 619 470144 30 0
26 2 S116 630 470774 660 0
26 2 S116 643 471417 1303 0
26 2 S116 629 472046 1932 0
26 2 S116 641 472687 2573 0
26 2 S116 653 473340 3226 0
26 2 S116 710 474050 3936 0
26 2 S116 731 474781 4667 0
26 2 S116 794 475575 5461 0
26 2 S116 804 476379 6265 0
0 0 0 800 477179 -7905 0
0 0 0 761 477940 -7144 0
0 0 0 720 478660 -6424 0
0 0 0 719 479379 -5705 0
0 0 0 701 480080 -5004 0
0 0 0 673 480753 -4331 0
0 0 0 666 481419 -3665 0
0 0 0 651 482070 -3014 0
0 0 0 646 482716 -2368 0
27 1 S106 636 483352 -1732 0
27 1 S106 660 484012 -1072 0
27 1 S106 729 484741 -343 0
27 2 S106 816 485557 473 0
27 2 S106 822 486379 1295 0
27 2 S106 790 487169 2085 0
27 2 S106 802 487971 2887 0
27 2 S106 779 488750 3666 0
27 2 S106 750 489500 4416 0
27 2 S106 711 490211 5127 0
27 2 S106 673 490884 5800 0
27 2 S106 653 491537 6453 0
0 0 0 672 492209 -8807 0
0 0 0 715 492924 -8092 0
0 0 0 752 493676 -7340 0
0 0 0 819 494495 -6521 0
0 0 0 862 495357 -5659 0
0 0 0 850 496207 -4809 0
0 0 0 814 497021 -3995 0
0 0 0 749 497770 -3246 0
0 0 0 700 498470 -2546 0
28 1 S102 651 499121 -1895 0
28 1 S102 621 499742 -1274 0
28 1 S102 628 500370 -646 0
28 2 S102 667 501037 21 0
28 2 S102 765 501802 786 0
28 2 S102 815 502617 1601 0
28 2 S102 862 503479 2463 0
28 2 S102 863 504342 3326 1
28 2 S102 835 505177 4161 0
28 2 S102 777 505954 4938 0
28 2 S102 746 506700 5684 0
28 2 S102 728 507428 6412 0
0 0 0 735 508163 -12747 0
0 0 0 741 508904 -12006 0
0 0 0 728 509632 -11278 0
0 0 0 754 510386 -10524 0
0 0 0 772 511158 -9752 0
0 0 0 790 511948 -8962 0
0 0 0 792 512740 -8170 0
0 0 0 746 513486 -7424 0
0 0 0 710 514196 -6714 0
0 0 0 710 514906 -6004 0
0 0 0 696 515602 -5308 0
0 0 0 691 516293 -4617 0
0 0 0 708 517001 -3909 0
0 0 0 705 517706 -3204 0
0 0 0 681 518387 -2523 0
29 1 S112 706 519093 -1817 0
29 1 S112 744 519837 -1073 0
29 1 S112 765 520602 -308 0
29 2 S112 780 521382 472 0
29 2 S112 750 522132 1222 0
29 2 S112 716 522848 1938 0
29 2 S112 691 523539 2629 0
29 2 S112 667 524206 3296 0
29 2 S112 672 524878 3968 0
29 2 S112 697 525575 4665 0
29 2 S112 702 526277 5367 0
29 2 S112 728 527005 6095 0
29 2 S112 758 527763 6853 0
0 0 0 768 528531 -7300 0
0 0 0 731 529262 -6569 0
0 0 0 726 529988 -5843 0
0 0 0 729 530717 -5114 0
0 0 0 668 531385 -4446 0
0 0 0 629 532014 -3817 0
0 0 0 616 532630 -3201 0
0 0 0 616 533246 -2585 0
30 1 S112 608 533854 -1977 0
30 1 S112 597 534451 -1380 0
30 1 S112 600 535051 -780 0
30 1 S112 606 535657 -174 0
30 2 S112 633 536290 459 0
30 2 S112 647 536937 1106 0
30 2 S112 674 537611 1780 0
30 2 S112 661 538272 2441 0
30 2 S112 640 538912 3081 0
30 2 S112 644 539556 3725 0
30 2 S112 633 540189 4358 0
30 2 S112 651 540840 5009 0
30 2 S112 661 541501 5670 0
30 2 S112 701 542202 6371 0
0 0 0 733 542935 -10054 0
0 0 0 772 543707 -9282 0
0 0 0 717 544424 -8565 0
0 0 0 715 545139 -7850 0
0 0 0 706 545845 -7144 0
0 0 0 692 546537 -6452 0
0 0 0 669 547206 -5783 0
0 0 0 644 547850 -5139 0
0 0 0 624 548474 -4515 0
0 0 0 618 549092 -3897 0
0 0 0 641 549733 -3256 0
0 0 0 694 550427 -2562 0
31 1 S106 765 551192 -1797 0
31 1 S106 787 551979 -1010 0
31 1 S106 763 552742 -247 0
31 2 S106 736 553478 489 0
31 2 S106 765 554243 1254 0
31 2 S106 767 555010 2021 0
31 2 S106 754 555764 2775 0
31 2 S106 688 556452 3463 0
31 2 S106 665 557117 4128 0
31 2 S106 663 557780 4791 0
31 2 S106 658 558438 5449 0
31 2 S106 707 559145 6156 0
31 2 S106 750 559895 6906 0
0 0 0 762 560657 -10187 0
0 0 0 757 561414 -9430 0
0 0 0 736 562150 -8694 0
0 0 0 740 562890 -7954 0
0 0 0 736 563626 -7218 0
0 0 0 707 564333 -6511 0
0 0 0 669 565002 -5842 0
0 0 0 635 565637 -5207 0
0 0 0 617 566254 -4590 0
0 0 0 592 566846 -3998 0
0 0 0 578 567424 -3420 0
0 0 0 573 567997 -2847 0
0 0 0 584 568581 -2263 0
32 1 S102 623 569204 -1640 0
32 1 S102 629 569833 -1011 0
32 1 S102 629 570462 -382 0
32 2 S102 655 571117 273 0
32 2 S102 661 571778 934 0
32 2 S102 679 572457 1613 0
32 2 S102 698 573155 2311 0
32 2 S102 684 573839 2995 0
32 2 S102 660 574499 3655 0
32 2 S102 654 575153 4309 0
32 2 S102 664 575817 4973 0
32 2 S102 678 576495 5651 0
32 2 S102 683 577178 6334 0
32 2 S102 678 577856 7012 0
0 0 0 654 578510 -11217 0
0 0 0 664 579174 -10553 0
0 0 0 669 579843 -9884 0
0 0 0 674 580517 -9210 0
0 0 0 652 581169 -8558 0
0 0 0 620 581789 -7938 0
0 0 0 602 582391 -7336 0
0 0 0 596 582987 -6740 0
0 0 0 594 583581 -6146 0
0 0 0 622 584203 -5524 0
0 0 0 643 584846 -4881 0
0 0 0 680 585526 -4201 0
0 0 0 680 586206 -3521 0
0 0 0 656 586862 -2865 0
0 0 0 633 587495 -2232 0
33 1 S112 631 588126 -1601 0
33 1 S112 622 588748 -979 0
33 1 S112 627 589375 -352 0
33 2 S112 636 590011 284 0
33 2 S112 626 590637 910 0
33 2 S112 619 591256 1529 0
33 2 S112 606 591862 2135 0
33 2 S112 588 592450 2723 0
33 2 S112 595 593045 3318 0
33 2 S112 633 593678 3951 0
33 2 S112 723 594401 4674 0
33 2 S112 765 595166 5439 0
33 2 S112 740 595906 6179 0
33 2 S112 711 596617 6890 0
0 0 0 679 597296 -10468 0
0 0 0 679 597975 -9789 0
0 0 0 668 598643 -9121 0
0 0 0 656 599299 -8465 0
0 0 0 635 599934 -7830 0
0 0 0 623 600557 -7207 0
0 0 0 595 601152 -6612 0
0 0 0 586 601738 -6026 0
0 0 0 586 602324 -5440 0
0 0 0 583 602907 -4857 0
0 0 0 584 603491 -4273 0
0 0 0 598 604089 -3675 0
0 0 0 622 604711 -3053 0
0 0 0 660 605371 -2393 0
34 1 S106 657 606028 -1736 0
34 1 S106 672 606700 -1064 0
34 1 S106 657 607357 -407 0
34 2 S106 651 608008 244 0
34 2 S106 663 608671 907 0
34 2 S106 677 609348 1584 0
34 2 S106 674 610022 2258 0
34 2 S106 679 610701 2937 0
34 2 S106 671 611372 3608 0
34 2 S106 670 612042 4278 0
34 2 S106 671 612713 4949 0
34 2 S106 666 613379 5615 0
34 2 S106 650 614029 6265 0
34 2 S106 637 614666 6902 0
0 0 0 619 615285 -10102 0
0 0 0 620 615905 -9482 0
0 0 0 615 616520 -8867 0
0 0 0 620 617140 -8247 0
0 0 0 629 617769 -7618 0
0 0 0 619 618388 -6999 0
0 0 0 614 619002 -6385 0
0 0 0 613 619615 -5772 0
0 0 0 615 620230 -5157 0
0 0 0 611 620841 -4546 0
0 0 0 590 621431 -3956 0
0 0 0 574 622005 -3382 0
0 0 0 576 622581 -2806 0
0 0 0 585 623166 -2221 0
35 1 S102 605 623771 -1616 0
35 1 S102 616 624387 -1000 0
35 1 S102 626 625013 -374 0
35 2 S102 625 625638 251 0
35 2 S102 619 626257 870 0
35 2 S102 612 626869 1482 0
35 2 S102 608 627477 2090 0
35 2 S102 605 628082 2695 0
35 2 S102 617 628699 3312 0
35 2 S102 624 629323 3936 0
35 2 S102 615 629938 4551 0
35 2 S102 622 630560 5173 0
35 2 S102 610 631170 5783 0
35 2 S102 609 631779 6392 0
35 2 S102 597 632376 6989 0
0 0 0 597 632973 -8363 0
0 0 0 605 633578 -7758 0
0 0 0 625 634203 -7133 0
0 0 0 669 634872 -6464 0
0 0 0 707 635579 -5757 0
0 0 0 726 636305 -5031 0
0 0 0 685 636990 -4346 0
0 0 0 647 637637 -3699 0
0 0 0 646 638283 -3053 0
0 0 0 634 638917 -2419 0
36 1 S106 635 639552 -1784 0
36 1 S106 617 640169 -1167 0
36 1 S106 596 640765 -571 0
36 2 S106 581 641346 10 0
36 2 S106 578 641924 588 0
36 2 S106 587 642511 1175 0
36 2 S106 620 643131 1795 0
36 2 S106 706 643837 2501 0
36 2 S106 781 644618 3282 0
36 2 S106 820 645438 4102 0
36 2 S106 792 646230 4894 0
36 2 S106 760 646990 5654 0
36 2 S106 764 647754 6418 0
0 0 0 759 648513 -10462 0
0 0 0 754 649267 -9708 0
0 0 0 736 650003 -8972 0
0 0 0 709 650712 -8263 0
0 0 0 677 651389 -7586 0
0 0 0 675 652064 -6911 0
0 0 0 678 652742 -6233 0
0 0 0 696 653438 -5537 0
0 0 0 697 654135 -4840 0
0 0 0 678 654813 -4162 0
0 0 0 654 655467 -3508 0
0 0 0 644 656111 -2864 0
0 0 0 644 656755 -2220 0
37 1 S116 658 657413 -1562 0
37 1 S116 663 658076 -899 0
37 1 S116 667 658743 -232 0
37 2 S116 671 659414 439 0
37 2 S116 655 660069 1094 0
37 2 S116 643 660712 1737 0
37 2 S116 646 661358 2383 0
37 2 S116 668 662026 3051 0
37 2 S116 711 662737 3762 0
37 2 S116 747 663484 4509 0
37 2 S116 783 664267 5292 0
37 2 S116 778 665045 6070 0
37 2 S116 763 665808 6833 0
0 0 0 747 666555 -11104 0
0 0 0 695 667250 -10409 0
0 0 0 658 667908 -9751 0
0 0 0 624 668532 -9127 0
0 0 0 600 669132 -8527 0
0 0 0 608 669740 -7919 0
0 0 0 596 670336 -7323 0
0 0 0 592 670928 -6731 0
0 0 0 581 671509 -6150 0
0 0 0 595 672104 -5555 0
0 0 0 615 672719 -4940 0
0 0 0 629 673348 -4311 0
0 0 0 623 673971 -3688 0
0 0 0 610 674581 -3078 0
0 0 0 617 675198 -2461 0
38 1 S102 632 675830 -1829 0
38 1 S102 658 676488 -1171 0
38 1 S102 668 677156 -503 0
38 2 S102 635 677791 132 0
38 2 S102 619 678410 751 0
38 2 S102 615 679025 1366 0
38 2 S102 616 679641 1982 0
38 2 S102 626 680267 2608 0
38 2 S102 643 680910 3251 0
38 2 S102 661 681571 3912 0
38 2 S102 672 682243 4584 0
38 2 S102 670 682913 5254 0
38 2 S102 679 683592 5933 0
38 2 S102 689 684281 6622 0
0 0 0 716 684997 -10401 0
0 0 0 735 685732 -9666 0
0 0 0 728 686460 -8938 0
0 0 0 726 687186 -8212 0
0 0 0 699 687885 -7513 0
0 0 0 659 688544 -6854 0
0 0 0 632 689176 -6222 0
0 0 0 623 689799 -5599 0
0 0 0 624 690423 -4975 0
0 0 0 647 691070 -4328 0
0 0 0 646 691716 -3682 0
0 0 0 627 692343 -3055 0
0 0 0 617 692960 -2438 0
39 1 S116 626 693586 -1812 0
39 1 S116 652 694238 -1160 0
39 1 S116 695 694933 -465 0
39 2 S116 698 695631 233 0
39 2 S116 685 696316 918 0
39 2 S116 670 696986 1588 0
39 2 S116 694 697680 2282 0
39 2 S116 730 698410 3012 0
39 2 S116 749 699159 3761 0
39 2 S116 733 699892 4494 0
39 2 S116 691 700583 5185 0
39 2 S116 655 701238 5840 0
39 2 S116 659 701897 6499 0
0 0 0 664 702561 -6597 0
0 0 0 700 703261 -5897 0
0 0 0 708 703969 -5189 0
0 0 0 672 704641 -4517 0
0 0 0 671 705312 -3846 0
0 0 0 700 706012 -3146 0
0 0 0 715 706727 -2431 0
40 1 S112 702 707429 -1729 0
40 1 S112 669 708098 -1060 0
40 1 S112 640 708738 -420 0
40 2 S112 630 709368 210 0
40 2 S112 637 710005 847 0
40 2 S112 679 710684 1526 0
40 2 S112 712 711396 2238 0
40 2 S112 716 712112 2954 0
40 2 S112 719 712831 3673 0
40 2 S112 711 713542 4384 0
40 2 S112 706 714248 5090 0
40 2 S112 712 714960 5802 0
40 2 S112 693 715653 6495 0
0 0 0 688 716341 -187049 0
0 0 0 652 716993 -186397 0
0 0 0 659 717652 -185738 0
0 0 0 648 718300 -185090 0
0 0 0 648 718948 -184442 0
0 0 0 674 719622 -183768 0
0 0 0 645 720267 -183123 0
0 0 0 623 720890 -182500 0
0 0 0 608 721498 -181892 0
0 0 0 608 722106 -181284 0
0 0 0 669 722775 -180615 0
0 0 0 788 723563 -179827 0
0 0 0 891 724454 -178936 1
0 0 0 894 725348 -178042 1
0 0 0 908 726256 -177134 1
0 0 0 838 727094 -176296 0
0 0 0 771 727865 -175525 0
0 0 0 720 728585 -174805 0
0 0 0 693 729278 -174112 0
0 0 0 650 729928 -173462 0
0 0 0 625 730553 -172837 0
0 0 0 608 731161 -172229 0
0 0 0 637 731798 -171592 0
0 0 0 678 732476 -170914 0
0 0 0 776 733252 -170138 0
0 0 0 823 734075 -169315 0
0 0 0 829 734904 -168486 0
0 0 0 808 735712 -167678 0
0 0 0 753 736465 -166925 0
0 0 0 678 737143 -166247 0
0 0 0 635 737778 -165612 0
0 0 0 623 738401 -164989 0
0 0 0 631 739032 -164358 0
0 0 0 640 739672 -163718 0
0 0 0 639 740311 -163079 0
0 0 0 647 740958 -162432 0
0 0 0 684 741642 -161748 0
0 0 0 791 742433 -160957 0
0 0 0 860 743293 -160097 0
0 0 0 857 744150 -159240 0
0 0 0 845 744995 -158395 0
0 0 0 817 745812 -157578 0
0 0 0 787 746599 -156791 0
0 0 0 746 747345 -156045 0
0 0 0 745 748090 -155300 0
0 0 0 750 748840 -154550 0
0 0 0 766 749606 -153784 0
0 0 0 792 750398 -152992 0
0 0 0 815 751213 -152177 0
0 0 0 834 752047 -151343 0
0 0 0 818 752865 -150525 0
0 0 0 795 753660 -149730 0
0 0 0 813 754473 -148917 0
0 0 0 768 755241 -148149 0
0 0 0 793 756034 -147356 0
0 0 0 793 756827 -146563 0
0 0 0 805 757632 -145758 0
0 0 0 816 758448 -144942 0
0 0 0 838 759286 -144104 0
0 0 0 834 760120 -143270 0
0 0 0 832 760952 -142438 0
0 0 0 815 761767 -141623 0
0 0 0 763 762530 -140860 0
0 0 0 718 763248 -140142 0
0 0 0 696 763944 -139446 0
0 0 0 716 764660 -138730 0
0 0 0 787 765447 -137943 0
0 0 0 824 766271 -137119 0
0 0 0 801 767072 -136318 0
0 0 0 756 767828 -135562 0
0 0 0 753 768581 -134809 0
0 0 0 789 769370 -134020 0
0 0 0 789 770159 -133231 0
0 0 0 801 770960 -132430 0
0 0 0 781 771741 -131649 0
0 0 0 771 772512 -130878 0
0 0 0 751 773263 -130127 0
0 0 0 716 773979 -129411 0
0 0 0 706 774685 -128705 0
0 0 0 724 775409 -127981 0
0 0 0 753 776162 -127228 0
0 0 0 796 776958 -126432 0
0 0 0 787 777745 -125645 0
0 0 0 759 778504 -124886 0
0 0 0 792 779296 -124094 0
0 0 0 799 780095 -123295 0
0 0 0 810 780905 -122485 0
0 0 0 803 781708 -121682 0
0 0 0 778 782486 -120904 0
0 0 0 769 783255 -120135 0
0 0 0 774 784029 -119361 0
0 0 0 753 784782 -118608 0
0 0 0 720 785502 -117888 0
0 0 0 726 786228 -117162 0
0 0 0 736 786964 -116426 0
0 0 0 752 787716 -115674 0
0 0 0 772 788488 -114902 0
0 0 0 756 789244 -114146 0
0 0 0 758 790002 -113388 0
0 0 0 741 790743 -112647 0
0 0 0 738 791481 -111909 0
0 0 0 715 792196 -111194 0
0 0 0 689 792885 -110505 0
0 0 0 699 793584 -109806 0
0 0 0 698 794282 -109108 0
0 0 0 693 794975 -108415 0
0 0 0 684 795659 -107731 0
0 0 0 676 796335 -107055 0
0 0 0 659 796994 -106396 0
0 0 0 619 797613 -105777 0
0 0 0 601 798214 -105176 0
0 0 0 603 798817 -104573 0
0 0 0 597 799414 -103976 0
0 0 0 596 800010 -103380 0
0 0 0 596 800606 -102784 0
0 0 0 600 801206 -102184 0
0 0 0 589 801795 -101595 0
0 0 0 587 802382 -101008 0
0 0 0 578 802960 -100430 0
0 0 0 565 803525 -99865 0
0 0 0 558 804083 -99307 0
0 0 0 554 804637 -98753 0
0 0 0 552 805189 -98201 0
0 0 0 549 805738 -97652 0
0 0 0 563 806301 -97089 0
0 0 0 595 806896 -96494 0
0 0 0 628 807524 -95866 0
0 0 0 662 808186 -95204 0
0 0 0 675 808861 -94529 0
0 0 0 690 809551 -93839 0
0 0 0 670 810221 -93169 0
0 0 0 677 810898 -92492 0
0 0 0 690 811588 -91802 0
0 0 0 756 812344 -91046 0
0 0 0 799 813143 -90247 0
0 0 0 808 813951 -89439 0
0 0 0 771 814722 -88668 0
0 0 0 747 815469 -87921 0
0 0 0 722 816191 -87199 0
0 0 0 702 816893 -86497 0
0 0 0 680 817573 -85817 0
0 0 0 675 818248 -85142 0
0 0 0 715 818963 -84427 0
0 0 0 769 819732 -83658 0
0 0 0 880 820612 -82778 1
0 0 0 921 821533 -81857 1
0 0 0 908 822441 -80949 1
0 0 0 842 823283 -80107 0
0 0 0 779 824062 -79328 0
0 0 0 768 824830 -78560 0
0 0 0 732 825562 -77828 0
0 0 0 712 826274 -77116 0
0 0 0 699 826973 -76417 0
0 0 0 715 827688 -75702 0
0 0 0 735 828423 -74967 0
0 0 0 735 829158 -74232 0
0 0 0 715 829873 -73517 0
0 0 0 709 830582 -72808 0
0 0 0 680 831262 -72128 0
0 0 0 658 831920 -71470 0
0 0 0 638 832558 -70832 0
0 0 0 625 833183 -70207 0
0 0 0 610 833793 -69597 0
0 0 0 611 834404 -68986 0
0 0 0 609 835013 -68377 0
0 0 0 610 835623 -67767 0
0 0 0 628 836251 -67139 0
0 0 0 656 836907 -66483 0
0 0 0 684 837591 -65799 0
0 0 0 671 838262 -65128 0
0 0 0 663 838925 -64465 0
0 0 0 691 839616 -63774 0
0 0 0 685 840301 -63089 0
0 0 0 697 840998 -62392 0
0 0 0 683 841681 -61709 0
0 0 0 657 842338 -61052 0
0 0 0 649 842987 -60403 0
0 0 0 641 843628 -59762 0
0 0 0 633 844261 -59129 0
0 0 0 642 844903 -58487 0
0 0 0 641 845544 -57846 0
0 0 0 639 846183 -57207 0
0 0 0 623 846806 -56584 0
0 0 0 645 847451 -55939 0
0 0 0 654 848105 -55285 0
0 0 0 676 848781 -54609 0
0 0 0 675 849456 -53934 0
0 0 0 656 850112 -53278 0
0 0 0 645 850757 -52633 0
0 0 0 639 851396 -51994 0
0 0 0 643 852039 -51351 0
0 0 0 636 852675 -50715 0
0 0 0 635 853310 -50080 0
0 0 0 624 853934 -49456 0
0 0 0 629 854563 -48827 0
0 0 0 634 855197 -48193 0
0 0 0 642 855839 -47551 0
0 0 0 665 856504 -46886 0
0 0 0 663 857167 -46223 0
0 0 0 642 857809 -45581 0
0 0 0 644 858453 -44937 0
0 0 0 638 859091 -44299 0
0 0 0 624 859715 -43675 0
0 0 0 612 860327 -43063 0
0 0 0 604 860931 -42459 0
0 0 0 608 861539 -41851 0
0 0 0 604 862143 -41247 0
0 0 0 603 862746 -40644 0
0 0 0 601 863347 -40043 0
0 0 0 594 863941 -39449 0
0 0 0 591 864532 -38858 0
0 0 0 587 865119 -38271 0
0 0 0 574 865693 -37697 0
0 0 0 586 866279 -37111 0
0 0 0 618 866897 -36493 0
0 0 0 633 867530 -35860 0
0 0 0 636 868166 -35224 0
0 0 0 637 868803 -34587 0
0 0 0 615 869418 -33972 0
0 0 0 604 870022 -33368 0
0 0 0 595 870617 -32773 0
0 0 0 585 871202 -32188 0
0 0 0 587 871789 -31601 0
0 0 0 593 872382 -31008 0
0 0 0 611 872993 -30397 0
0 0 0 624 873617 -29773 0
0 0 0 631 874248 -29142 0
0 0 0 633 874881 -28509 0
0 0 0 670 875551 -27839 0
0 0 0 795 876346 -27044 0
0 0 0 865 877211 -26179 1
0 0 0 863 878074 -25316 1
0 0 0 826 878900 -24490 0
0 0 0 774 879674 -23716 0
0 0 0 745 880419 -22971 0
0 0 0 735 881154 -22236 0
0 0 0 718 881872 -21518 0
0 0 0 707 882579 -20811 0
0 0 0 687 883266 -20124 0
0 0 0 693 883959 -19431 0
0 0 0 727 884686 -18704 0
0 0 0 744 885430 -17960 0
0 0 0 781 886211 -17179 0
0 0 0 788 886999 -16391 0
0 0 0 748 887747 -15643 0
0 0 0 723 888470 -14920 0
0 0 0 749 889219 -14171 0
0 0 0 804 890023 -13367 0
0 0 0 830 890853 -12537 0
0 0 0 812 891665 -11725 0
0 0 0 756 892421 -10969 0
0 0 0 765 893186 -10204 0
0 0 0 747 893933 -9457 0
0 0 0 748 894681 -8709 0
0 0 0 796 895477 -7913 0
0 0 0 864 896341 -7049 1
0 0 0 891 897232 -6158 1
0 0 0 893 898125 -5265 1
0 0 0 866 898991 -4399 1
0 0 0 784 899775 -3615 0
0 0 0 695 900470 -2920 0
0 0 0 645 901115 -2275 0
41 1 S102 618 901733 -1657 0
41 1 S102 615 902348 -1042 0
41 1 S102 665 903013 -377 0
41 2 S102 743 903756 366 0
41 2 S102 843 904599 1209 0
41 2 S102 871 905470 2080 1
41 2 S102 844 906314 2924 0
41 2 S102 776 907090 3700 0
41 2 S102 788 907878 4488 0
41 2 S102 765 908643 5253 0
41 2 S102 769 909412 6022 0
41 2 S102 720 910132 6742 0
0 0 0 682 910814 -7712 0
0 0 0 681 911495 -7031 0
0 0 0 674 912169 -6357 0
0 0 0 687 912856 -5670 0
0 0 0 685 913541 -4985 0
0 0 0 672 914213 -4313 0
0 0 0 646 914859 -3667 0
0 0 0 653 915512 -3014 0
0 0 0 656 916168 -2358 0
42 1 S112 683 916851 -1675 0
42 1 S112 694 917545 -981 0
42 1 S112 658 918203 -323 0
42 2 S112 657 918860 334 0
42 2 S112 676 919536 1010 0
42 2 S112 667 920203 1677 0
42 2 S112 660 920863 2337 0
42 2 S112 654 921517 2991 0
42 2 S112 643 922160 3634 0
42 2 S112 646 922806 4280 0
42 2 S112 651 923457 4931 0
42 2 S112 647 924104 5578 0
42 2 S112 633 924737 6211 0
42 2 S112 647 925384 6858 0
0 0 0 646 926030 -10185 0
0 0 0 641 926671 -9544 0
0 0 0 628 927299 -8916 0
0 0 0 637 927936 -8279 0
0 0 0 640 928576 -7639 0
0 0 0 667 929243 -6972 0
0 0 0 654 929897 -6318 0
0 0 0 616 930513 -5702 0
0 0 0 595 931108 -5107 0
0 0 0 599 931707 -4508 0
0 0 0 601 932308 -3907 0
0 0 0 617 932925 -3290 0
0 0 0 631 933556 -2659 0
0 0 0 634 934190 -2025 0
43 1 S116 617 934807 -1408 0
43 1 S116 607 935414 -801 0
43 1 S116 616 936030 -185 0
43 2 S116 626 936656 441 0
43 2 S116 657 937313 1098 0
43 2 S116 662 937975 1760 0
43 2 S116 644 938619 2404 0
43 2 S116 636 939255 3040 0
43 2 S116 643 939898 3683 0
43 2 S116 673 940571 4356 0
43 2 S116 716 941287 5072 0
43 2 S116 762 942049 5834 0
43 2 S116 778 942827 6612 0
0 0 0 748 943575 -8290 0
0 0 0 714 944289 -7576 0
0 0 0 676 944965 -6900 0
0 0 0 639 945604 -6261 0
0 0 0 618 946222 -5643 0
0 0 0 614 946836 -5029 0
0 0 0 623 947459 -4406 0
0 0 0 662 948121 -3744 0
0 0 0 744 948865 -3000 0
0 0 0 784 949649 -2216 0
44 1 S102 807 950456 -1409 0
44 1 S102 788 951244 -621 0
44 2 S102 766 952010 145 0
44 2 S102 777 952787 922 0
44 2 S102 778 953565 1700 0
44 2 S102 771 954336 2471 0
44 2 S102 751 955087 3222 0
44 2 S102 721 955808 3943 0
44 2 S102 690 956498 4633 0
44 2 S102 682 957180 5315 0
44 2 S102 679 957859 5994 0
44 2 S102 673 958532 6667 0
0 0 0 685 959217 -9857 0
0 0 0 708 959925 -9149 0
0 0 0 752 960677 -8397 0
0 0 0 792 961469 -7605 0
0 0 0 815 962284 -6790 0
0 0 0 741 963025 -6049 0
0 0 0 698 963723 -5351 0
0 0 0 679 964402 -4672 0
0 0 0 680 965082 -3992 0
0 0 0 663 965745 -3329 0
0 0 0 652 966397 -2677 0
0 0 0 653 967050 -2024 0
45 1 S116 649 967699 -1375 0
45 1 S116 671 968370 -704 0
45 1 S116 669 969039 -35 0
45 2 S116 661 969700 626 0
45 2 S116 677 970377 1303 0
45 2 S116 664 971041 1967 0
45 2 S116 697 971738 2664 0
45 2 S116 726 972464 3390 0
45 2 S116 771 973235 4161 0
45 2 S116 777 974012 4938 0
45 2 S116 745 974757 5683 0
45 2 S116 735 975492 6418 0
0 0 0 723 976215 -13051 0
0 0 0 713 976928 -12338 0
0 0 0 688 977616 -11650 0
0 0 0 659 978275 -10991 0
0 0 0 662 978937 -10329 0
0 0 0 668 979605 -9661 0
0 0 0 700 980305 -8961 0
0 0 0 735 981040 -8226 0
0 0 0 738 981778 -7488 0
0 0 0 696 982474 -6792 0
0 0 0 706 983180 -6086 0
0 0 0 709 983889 -5377 0
0 0 0 718 984607 -4659 0
0 0 0 712 985319 -3947 0
0 0 0 697 986016 -3250 0
0 0 0 688 986704 -2562 0
46 1 S102 700 987404 -1862 0
46 1 S102 734 988138 -1128 0
46 1 S102 748 988886 -380 0
46 2 S102 716 989602 336 0
46 2 S102 686 990288 1022 0
46 2 S102 657 990945 1679 0
46 2 S102 635 991580 2314 0
46 2 S102 649 992229 2963 0
46 2 S102 726 992955 3689 0
46 2 S102 789 993744 4478 0
46 2 S102 812 994556 5290 0
46 2 S102 794 995350 6084 0
46 2 S102 769 996119 6853 0
0 0 0 782 996901 -10999 0
0 0 0 761 997662 -10238 0
0 0 0 748 998410 -9490 0
0 0 0 722 999132 -8768 0
0 0 0 692 999824 -8076 0
0 0 0 704 1000528 -7372 0
0 0 0 729 1001257 -6643 0
0 0 0 766 1002023 -5877 0
0 0 0 745 1002768 -5132 0
0 0 0 701 1003469 -4431 0
0 0 0 674 1004143 -3757 0
0 0 0 695 1004838 -3062 0
0 0 0 750 1005588 -2312 0
47 1 S112 770 1006358 -1542 0
47 1 S112 793 1007151 -749 0
47 2 S112 764 1007915 15 0
47 2 S112 736 1008651 751 0
47 2 S112 718 1009369 1469 0
47 2 S112 701 1010070 2170 0
47 2 S112 675 1010745 2845 0
47 2 S112 654 1011399 3499 0
47 2 S112 658 1012057 4157 0
47 2 S112 711 1012768 4868 0
47 2 S112 821 1013589 5689 0
47 2 S112 878 1014467 6567 1
0 0 0 880 1015347 -11619 1
0 0 0 864 1016211 -10755 1
0 0 0 792 1017003 -9963 0
0 0 0 762 1017765 -9201 0
0 0 0 715 1018480 -8486 0
0 0 0 675 1019155 -7811 0
0 0 0 665 1019820 -7146 0
0 0 0 649 1020469 -6497 0
0 0 0 637 1021106 -5860 0
0 0 0 651 1021757 -5209 0
0 0 0 682 1022439 -4527 0
0 0 0 748 1023187 -3779 0
0 0 0 742 1023929 -3037 0
0 0 0 733 1024662 -2304 0
48 1 S116 722 1025384 -1582 0
48 1 S116 727 1026111 -855 0
48 1 S116 734 1026845 -121 0
48 2 S116 744 1027589 623 0
48 2 S116 727 1028316 1350 0
48 2 S116 694 1029010 2044 0
48 2 S116 666 1029676 2710 0
48 2 S116 654 1030330 3364 0
48 2 S116 661 1030991 4025 0
48 2 S116 697 1031688 4722 0
48 2 S116 721 1032409 5443 0
48 2 S116 701 1033110 6144 0
48 2 S116 702 1033812 6846 0
0 0 0 727 1034539 -7712 0
0 0 0 736 1035275 -6976 0
0 0 0 696 1035971 -6280 0
0 0 0 721 1036692 -5559 0
0 0 0 711 1037403 -4848 0
0 0 0 687 1038090 -4161 0
0 0 0 651 1038741 -3510 0
0 0 0 617 1039358 -2893 0
0 0 0 602 1039960 -2291 0
49 1 S112 605 1040565 -1686 0
49 1 S112 606 1041171 -1080 0
49 1 S112 627 1041798 -453 0
49 2 S112 644 1042442 191 0
49 2 S112 661 1043103 852 0
49 2 S112 661 1043764 1513 0
49 2 S112 644 1044408 2157 0
49 2 S112 624 1045032 2781 0
49 2 S112 635 1045667 3416 0
49 2 S112 663 1046330 4079 0
49 2 S112 741 1047071 4820 0
49 2 S112 786 1047857 5606 0
49 2 S112 796 1048653 6402 0
0 0 0 774 1049427 -12701 0
0 0 0 754 1050181 -11947 0
0 0 0 726 1050907 -11221 0
0 0 0 711 1051618 -10510 0
0 0 0 690 1052308 -9820 0
0 0 0 686 1052994 -9134 0
0 0 0 674 1053668 -8460 0
0 0 0 657 1054325 -7803 0
0 0 0 639 1054964 -7164 0
0 0 0 645 1055609 -6519 0
0 0 0 688 1056297 -5831 0
0 0 0 740 1057037 -5091 0
0 0 0 791 1057828 -4300 0
0 0 0 740 1058568 -3560 0
0 0 0 743 1059311 -2817 0
0 0 0 758 1060069 -2059 0
50 1 S106 749 1060818 -1310 0
50 1 S106 740 1061558 -570 0
50 2 S106 724 1062282 154 0
50 2 S106 688 1062970 842 0
50 2 S106 664 1063634 1506 0
50 2 S106 657 1064291 2163 0
50 2 S106 682 1064973 2845 0
50 2 S106 727 1065700 3572 0
50 2 S106 776 1066476 4348 0
50 2 S106 816 1067292 5164 0
50 2 S106 824 1068116 5988 0
50 2 S106 809 1068925 6797 0
0 0 0 758 1069683 -7731 0
0 0 0 740 1070423 -6991 0
0 0 0 700 1071123 -6291 0
0 0 0 681 1071804 -5610 0
0 0 0 676 1072480 -4934 0
0 0 0 653 1073133 -4281 0
0 0 0 637 1073770 -3644 0
0 0 0 643 1074413 -3001 0
0 0 0 690 1075103 -2311 0
51 1 S112 789 1075892 -1522 0
51 1 S112 837 1076729 -685 0
51 2 S112 835 1077564 150 0
51 2 S112 808 1078372 958 0
51 2 S112 757 1079129 1715 0
51 2 S112 729 1079858 2444 0
51 2 S112 705 1080563 3149 0
51 2 S112 686 1081249 3835 0
51 2 S112 679 1081928 4514 0
51 2 S112 692 1082620 5206 0
51 2 S112 714 1083334 5920 0
51 2 S112 720 1084054 6640 0
0 0 0 719 1084773 -8705 0
0 0 0 710 1085483 -7995 0
0 0 0 722 1086205 -7273 0
0 0 0 742 1086947 -6531 0
0 0 0 759 1087706 -5772 0
0 0 0 770 1088476 -5002 0
0 0 0 732 1089208 -4270 0
0 0 0 683 1089891 -3587 0
0 0 0 649 1090540 -2938 0
0 0 0 637 1091177 -2301 0
52 1 S116 624 1091801 -1677 0
52 1 S116 612 1092413 -1065 0
52 1 S116 624 1093037 -441 0
52 2 S116 645 1093682 204 0
52 2 S116 678 1094360 882 0
52 2 S116 682 1095042 1564 0
52 2 S116 662 1095704 2226 0
52 2 S116 662 1096366 2888 0
52 2 S116 669 1097035 3557 0
52 2 S116 673 1097708 4230 0
52 2 S116 671 1098379 4901 0
52 2 S116 661 1099040 5562 0
52 2 S116 664 1099704 6226 0
52 2 S116 681 1100385 6907 0
0 0 0 685 1101070 -9683 0
0 0 0 699 1101769 -8984 0
0 0 0 671 1102440 -8313 0
0 0 0 653 1103093 -7660 0
0 0 0 637 1103730 -7023 0
0 0 0 635 1104365 -6388 0
0 0 0 627 1104992 -5761 0
0 0 0 638 1105630 -5123 0
0 0 0 664 1106294 -4459 0
0 0 0 688 1106982 -3771 0
0 0 0 678 1107660 -3093 0
0 0 0 672 1108332 -2421 0
53 1 S106 691 1109023 -1730 0
53 1 S106 694 1109717 -1036 0
53 1 S106 684 1110401 -352 0
53 2 S106 671 1111072 319 0
53 2 S106 657 1111729 976 0
53 2 S106 661 1112390 1637 0
53 2 S106 663 1113053 2300 0
53 2 S106 678 1113731 2978 0
53 2 S106 692 1114423 3670 0
53 2 S106 704 1115127 4374 0
53 2 S106 681 1115808 5055 0
53 2 S106 662 1116470 5717 0
53 2 S106 630 1117100 6347 0
53 2 S106 628 1117728 6975 0
0 0 0 647 1118375 -8442 0
0 0 0 683 1119058 -7759 0
0 0 0 725 1119783 -7034 0
0 0 0 760 1120543 -6274 0
0 0 0 770 1121313 -5504 0
0 0 0 741 1122054 -4763 0
0 0 0 700 1122754 -4063 0
0 0 0 667 1123421 -3396 0
0 0 0 630 1124051 -2766 0
0 0 0 600 1124651 -2166 0
54 1 S102 584 1125235 -1582 0
54 1 S102 590 1125825 -992 0
54 1 S102 608 1126433 -384 0
54 2 S102 620 1127053 236 0
54 2 S102 653 1127706 889 0
54 2 S102 700 1128406 1589 0
54 2 S102 771 1129177 2360 0
54 2 S102 810 1129987 3170 0
54 2 S102 796 1130783 3966 0
54 2 S102 772 1131555 4738 0
54 2 S102 714 1132269 5452 0
54 2 S102 682 1132951 6134 0
54 2 S102 673 1133624 6807 0
0 0 0 672 1134296 -11901 0
0 0 0 675 1134971 -11226 0
0 0 0 691 1135662 -10535 0
0 0 0 688 1136350 -9847 0
0 0 0 687 1137037 -9160 0
0 0 0 684 1137721 -8476 0
0 0 0 700 1138421 -7776 0
0 0 0 736 1139157 -7040 0
0 0 0 782 1139939 -6258 0
0 0 0 814 1140753 -5444 0
0 0 0 807 1141560 -4637 0
0 0 0 756 1142316 -3881 0
0 0 0 752 1143068 -3129 0
0 0 0 730 1143798 -2399 0
55 1 S106 724 1144522 -1675 0
55 1 S106 696 1145218 -979 0
55 1 S106 670 1145888 -309 0
55 2 S106 666 1146554 357 0
55 2 S106 682 1147236 1039 0
55 2 S106 745 1147981 1784 0
55 2 S106 804 1148785 2588 0
55 2 S106 800 1149585 3388 0
55 2 S106 771 1150356 4159 0
55 2 S106 806 1151162 4965 0
55 2 S106 824 1151986 5789 0
55 2 S106 825 1152811 6614 0
0 0 0 766 1153577 -8204 0
0 0 0 738 1154315 -7466 0
0 0 0 691 1155006 -6775 0
0 0 0 688 1155694 -6087 0
0 0 0 671 1156365 -5416 0
0 0 0 683 1157048 -4733 0
0 0 0 680 1157728 -4053 0
0 0 0 677 1158405 -3376 0
0 0 0 651 1159056 -2725 0
0 0 0 646 1159702 -2079 0
56 1 S116 644 1160346 -1435 0
56 1 S116 670 1161016 -765 0
56 1 S116 662 1161678 -103 0
56 2 S116 674 1162352 571 0
56 2 S116 675 1163027 1246 0
56 2 S116 654 1163681 1900 0
56 2 S116 660 1164341 2560 0
56 2 S116 674 1165015 3234 0
56 2 S116 693 1165708 3927 0
56 2 S116 710 1166418 4637 0
56 2 S116 702 1167120 5339 0
56 2 S116 688 1167808 6027 0
56 2 S116 721 1168529 6748 0
0 0 0 731 1169260 -7093 0
0 0 0 716 1169976 -6377 0
0 0 0 709 1170685 -5668 0
0 0 0 682 1171367 -4986 0
0 0 0 645 1172012 -4341 0
0 0 0 628 1172640 -3713 0
0 0 0 625 1173265 -3088 0
0 0 0 613 1173878 -2475 0
57 1 S106 631 1174509 -1844 0
57 1 S106 652 1175161 -1192 0
57 1 S106 656 1175817 -536 0
57 2 S106 660 1176477 124 0
57 2 S106 710 1177187 834 0
57 2 S106 750 1177937 1584 0
57 2 S106 799 1178736 2383 0
57 2 S106 806 1179542 3189 0
57 2 S106 785 1180327 3974 0
57 2 S106 705 1181032 4679 0
57 2 S106 658 1181690 5337 0
57 2 S106 637 1182327 5974 0
57 2 S106 622 1182949 6596 0
0 0 0 655 1183604 -9925 0
0 0 0 693 1184297 -9232 0
0 0 0 729 1185026 -8503 0
0 0 0 733 1185759 -7770 0
0 0 0 709 1186468 -7061 0
0 0 0 690 1187158 -6371 0
0 0 0 697 1187855 -5674 0
0 0 0 713 1188568 -4961 0
0 0 0 754 1189322 -4207 0
0 0 0 774 1190096 -3433 0
0 0 0 784 1190880 -2649 0
58 1 S102 723 1191603 -1926 0
58 1 S102 712 1192315 -1214 0
58 1 S102 677 1192992 -537 0
58 2 S102 653 1193645 116 0
58 2 S102 650 1194295 766 0
58 2 S102 643 1194938 1409 0
58 2 S102 623 1195561 2032 0
58 2 S102 629 1196190 2661 0
58 2 S102 650 1196840 3311 0
58 2 S102 694 1197534 4005 0
58 2 S102 751 1198285 4756 0
58 2 S102 739 1199024 5495 0
58 2 S102 704 1199728 6199 0
58 2 S102 677 1200405 6876 0
0 0 0 686 1201091 -6861 0
0 0 0 690 1201781 -6171 0
0 0 0 667 1202448 -5504 0
0 0 0 654 1203102 -4850 0
0 0 0 650 1203752 -4200 0
0 0 0 631 1204383 -3569 0
0 0 0 602 1204985 -2967 0
0 0 0 597 1205582 -2370 0
59 1 S112 596 1206178 -1774 0
59 1 S112 603 1206781 -1171 0
59 1 S112 602 1207383 -569 0
59 2 S112 593 1207976 24 0
59 2 S112 594 1208570 618 0
59 2 S112 593 1209163 1211 0
59 2 S112 595 1209758 1806 0
59 2 S112 593 1210351 2399 0
59 2 S112 596 1210947 2995 0
59 2 S112 609 1211556 3604 0
59 2 S112 620 1212176 4224 0
59 2 S112 651 1212827 4875 0
59 2 S112 677 1213504 5552 0
59 2 S112 703 1214207 6255 0
59 2 S112 711 1214918 6966 0
0 0 0 695 1215613 -8818 0
0 0 0 661 1216274 -8157 0
0 0 0 637 1216911 -7520 0
0 0 0 621 1217532 -6899 0
0 0 0 620 1218152 -6279 0
0 0 0 627 1218779 -5652 0
0 0 0 649 1219428 -5003 0
0 0 0 669 1220097 -4334 0
0 0 0 677 1220774 -3657 0
0 0 0 658 1221432 -2999 0
0 0 0 644 1222076 -2355 0
60 1 S102 642 1222718 -1713 0
60 1 S102 667 1223385 -1046 0
60 1 S102 702 1224087 -344 0
60 2 S102 724 1224811 380 0
60 2 S102 712 1225523 1092 0
60 2 S102 690 1226213 1782 0
60 2 S102 668 1226881 2450 0
60 2 S102 673 1227554 3123 0
60 2 S102 665 1228219 3788 0
60 2 S102 666 1228885 4454 0
60 2 S102 668 1229553 5122 0
60 2 S102 655 1230208 5777 0
60 2 S102 636 1230844 6413 0
0 0 0 632 1231476 -12302 0
0 0 0 646 1232122 -11656 0
0 0 0 668 1232790 -10988 0
0 0 0 703 1233493 -10285 0
0 0 0 721 1234214 -9564 0
0 0 0 730 1234944 -8834 0
0 0 0 703 1235647 -8131 0
0 0 0 669 1236316 -7462 0
0 0 0 610 1236926 -6852 0
0 0 0 571 1237497 -6281 0
0 0 0 554 1238051 -5727 0
0 0 0 552 1238603 -5175 0
0 0 0 557 1239160 -4618 0
0 0 0 574 1239734 -4044 0
0 0 0 623 1240357 -3421 0
0 0 0 664 1241021 -2757 0
0 0 0 677 1241698 -2080 0
61 1 S106 677 1242375 -1403 0
61 1 S106 677 1243052 -726 0
61 1 S106 678 1243730 -48 0
61 2 S106 677 1244407 629 0
61 2 S106 679 1245086 1308 0
61 2 S106 652 1245738 1960 0
61 2 S106 632 1246370 2592 0
61 2 S106 636 1247006 3228 0
61 2 S106 638 1247644 3866 0
61 2 S106 647 1248291 4513 0
61 2 S106 653 1248944 5166 0
61 2 S106 663 1249607 5829 0
61 2 S106 683 1250290 6512 0
0 0 0 669 1250959 -8817 0
0 0 0 667 1251626 -8150 0
0 0 0 644 1252270 -7506 0
0 0 0 628 1252898 -6878 0
0 0 0 610 1253508 -6268 0
0 0 0 599 1254107 -5669 0
0 0 0 604 1254711 -5065 0
0 0 0 613 1255324 -4452 0
0 0 0 639 1255963 -3813 0
0 0 0 653 1256616 -3160 0
0 0 0 650 1257266 -2510 0
62 1 S112 628 1257894 -1882 0
62 1 S112 628 1258522 -1254 0
62 1 S112 621 1259143 -633 0
62 1 S112 620 1259763 -13 0
62 2 S112 622 1260385 609 0
62 2 S112 616 1261001 1225 0
62 2 S112 597 1261598 1822 0
62 2 S112 578 1262176 2400 0
62 2 S112 564 1262740 2964 0
62 2 S112 564 1263304 3528 0
62 2 S112 571 1263875 4099 0
62 2 S112 585 1264460 4684 0
62 2 S112 602 1265062 5286 0
62 2 S112 606 1265668 5892 0
62 2 S112 604 1266272 6496 0
0 0 0 595 1266867 -12239 0
0 0 0 590 1267457 -11649 0
0 0 0 592 1268049 -11057 0
0 0 0 590 1268639 -10467 0
0 0 0 593 1269232 -9874 0
0 0 0 587 1269819 -9287 0
0 0 0 585 1270404 -8702 0
0 0 0 577 1270981 -8125 0
0 0 0 574 1271555 -7551 0
0 0 0 580 1272135 -6971 0
0 0 0 598 1272733 -6373 0
0 0 0 633 1273366 -5740 0
0 0 0 669 1274035 -5071 0
0 0 0 700 1274735 -4371 0
0 0 0 706 1275441 -3665 0
0 0 0 703 1276144 -2962 0
0 0 0 695 1276839 -2267 0
63 1 S102 667 1277506 -1600 0
63 1 S102 655 1278161 -945 0
63 1 S102 655 1278816 -290 0
63 2 S102 660 1279476 370 0
63 2 S102 674 1280150 1044 0
63 2 S102 713 1280863 1757 0
63 2 S102 729 1281592 2486 0
63 2 S102 756 1282348 3242 0
63 2 S102 757 1283105 3999 0
63 2 S102 748 1283853 4747 0
63 2 S102 740 1284593 5487 0
63 2 S102 703 1285296 6190 0
63 2 S102 659 1285955 6849 0
0 0 0 644 1286599 -9036 0
0 0 0 636 1287235 -8400 0
0 0 0 638 1287873 -7762 0
0 0 0 677 1288550 -7085 0
0 0 0 720 1289270 -6365 0
0 0 0 727 1289997 -5638 0
0 0 0 706 1290703 -4932 0
0 0 0 719 1291422 -4213 0
0 0 0 727 1292149 -3486 0
0 0 0 731 1292880 -2755 0
0 0 0 732 1293612 -2023 0
64 1 S112 721 1294333 -1302 0
64 1 S112 693 1295026 -609 0
64 2 S112 658 1295684 49 0
64 2 S112 634 1296318 683 0
64 2 S112 612 1296930 1295 0
64 2 S112 592 1297522 1887 0
64 2 S112 592 1298114 2479 0
64 2 S112 621 1298735 3100 0
64 2 S112 709 1299444 3809 0
64 2 S112 805 1300249 4614 0
64 2 S112 845 1301094 5459 0
64 2 S112 845 1301939 6304 0
0 0 0 783 1302722 -7253 0
0 0 0 778 1303500 -6475 0
0 0 0 758 1304258 -5717 0
0 0 0 698 1304956 -5019 0
0 0 0 649 1305605 -4370 0
0 0 0 618 1306223 -3752 0
0 0 0 631 1306854 -3121 0
0 0 0 627 1307481 -2494 0
65 1 S106 631 1308112 -1863 0
65 1 S106 668 1308780 -1195 0
65 1 S106 712 1309492 -483 0
65 2 S106 722 1310214 239 0
65 2 S106 696 1310910 935 0
65 2 S106 674 1311584 1609 0
65 2 S106 680 1312264 2289 0
65 2 S106 702 1312966 2991 0
65 2 S106 717 1313683 3708 0
65 2 S106 771 1314454 4479 0
65 2 S106 777 1315231 5256 0
65 2 S106 761 1315992 6017 0
65 2 S106 740 1316732 6757 0
0 0 0 714 1317446 -8378 0
0 0 0 717 1318163 -7661 0
0 0 0 711 1318874 -6950 0
0 0 0 684 1319558 -6266 0
0 0 0 654 1320212 -5612 0
0 0 0 644 1320856 -4968 0
0 0 0 640 1321496 -4328 0
0 0 0 666 1322162 -3662 0
0 0 0 751 1322913 -2911 0
0 0 0 787 1323700 -2124 0
66 1 S116 803 1324503 -1321 0
66 1 S116 806 1325309 -515 0
66 2 S116 766 1326075 251 0
66 2 S116 719 1326794 970 0
66 2 S116 664 1327458 1634 0
66 2 S116 626 1328084 2260 0
66 2 S116 603 1328687 2863 0
66 2 S116 619 1329306 3482 0
66 2 S116 683 1329989 4165 0
66 2 S116 756 1330745 4921 0
66 2 S116 831 1331576 5752 0
66 2 S116 863 1332439 6615 1
0 0 0 861 1333300 -11324 0
0 0 0 839 1334139 -10485 0
0 0 0 847 1334986 -9638 0
0 0 0 857 1335843 -8781 0
0 0 0 802 1336645 -7979 0
0 0 0 752 1337397 -7227 0
0 0 0 702 1338099 -6525 0
0 0 0 668 1338767 -5857 0
0 0 0 636 1339403 -5221 0
0 0 0 623 1340026 -4598 0
0 0 0 628 1340654 -3970 0
0 0 0 663 1341317 -3307 0
0 0 0 787 1342104 -2520 0
67 1 S102 854 1342958 -1666 0
67 1 S102 838 1343796 -828 0
67 2 S102 869 1344665 41 1
67 2 S102 889 1345554 930 1
67 2 S102 867 1346421 1797 1
67 2 S102 853 1347274 2650 0
67 2 S102 835 1348109 3485 0
67 2 S102 800 1348909 4285 0
67 2 S102 771 1349680 5056 0
67 2 S102 744 1350424 5800 0
67 2 S102 718 1351142 6518 0
0 0 0 697 1351839 -7938 0
0 0 0 667 1352506 -7271 0
0 0 0 649 1353155 -6622 0
0 0 0 677 1353832 -5945 0
0 0 0 766 1354598 -5179 0
0 0 0 829 1355427 -4350 0
0 0 0 822 1356249 -3528 0
0 0 0 743 1356992 -2785 0
0 0 0 700 1357692 -2085 0
68 1 S106 683 1358375 -1402 0
68 1 S106 677 1359052 -725 0
68 1 S106 661 1359713 -64 0
68 2 S106 648 1360361 584 0
68 2 S106 658 1361019 1242 0
68 2 S106 680 1361699 1922 0
68 2 S106 702 1362401 2624 0
68 2 S106 704 1363105 3328 0
68 2 S106 715 1363820 4043 0
68 2 S106 742 1364562 4785 0
68 2 S106 765 1365327 5550 0
68 2 S106 760 1366087 6310 0
0 0 0 761 1366848 -13304 0
0 0 0 751 1367599 -12553 0
0 0 0 717 1368316 -11836 0
0 0 0 692 1369008 -11144 0
0 0 0 688 1369696 -10456 0
0 0 0 683 1370379 -9773 0
0 0 0 712 1371091 -9061 0
0 0 0 709 1371800 -8352 0
0 0 0 682 1372482 -7670 0
0 0 0 664 1373146 -7006 0
0 0 0 654 1373800 -6352 0
0 0 0 678 1374478 -5674 0
0 0 0 708 1375186 -4966 0
0 0 0 739 1375925 -4227 0
0 0 0 749 1376674 -3478 0
0 0 0 744 1377418 -2734 0
0 0 0 706 1378124 -2028 0
69 1 S102 686 1378810 -1342 0
69 1 S102 657 1379467 -685 0
69 1 S102 627 1380094 -58 0
69 2 S102 623 1380717 565 0
69 2 S102 613 1381330 1178 0
69 2 S102 633 1381963 1811 0
69 2 S102 621 1382584 2432 0
69 2 S102 630 1383214 3062 0
69 2 S102 632 1383846 3694 0
69 2 S102 650 1384496 4344 0
69 2 S102 667 1385163 5011 0
69 2 S102 675 1385838 5686 0
69 2 S102 688 1386526 6374 0
0 0 0 697 1387223 -10883 0
0 0 0 716 1387939 -10167 0
0 0 0 710 1388649 -9457 0
0 0 0 702 1389351 -8755 0
0 0 0 677 1390028 -8078 0
0 0 0 644 1390672 -7434 0
0 0 0 625 1391297 -6809 0
0 0 0 615 1391912 -6194 0
0 0 0 603 1392515 -5591 0
0 0 0 602 1393117 -4989 0
0 0 0 610 1393727 -4379 0
0 0 0 618 1394345 -3761 0
0 0 0 629 1394974 -3132 0
0 0 0 629 1395603 -2503 0
70 1 S112 629 1396232 -1874 0
70 1 S112 628 1396860 -1246 0
70 1 S112 638 1397498 -608 0
70 2 S112 654 1398152 46 0
70 2 S112 680 1398832 726 0
70 2 S112 697 1399529 1423 0
70 2 S112 665 1400194 2088 0
70 2 S112 631 1400825 2719 0
70 2 S112 602 1401427 3321 0
70 2 S112 593 1402020 3914 0
70 2 S112 594 1402614 4508 0
70 2 S112 613 1403227 5121 0
70 2 S112 655 1403882 5776 0
70 2 S112 696 1404578 6472 0
0 0 0 722 1405300 -12882 0
0 0 0 739 1406039 -12143 0
0 0 0 734 1406773 -11409 0
0 0 0 712 1407485 -10697 0
0 0 0 702 1408187 -9995 0
0 0 0 681 1408868 -9314 0
0 0 0 656 1409524 -8658 0
0 0 0 622 1410146 -8036 0
0 0 0 593 1410739 -7443 0
0 0 0 575 1411314 -6868 0
0 0 0 558 1411872 -6310 0
0 0 0 555 1412427 -5755 0
0 0 0 554 1412981 -5201 0
0 0 0 568 1413549 -4633 0
0 0 0 603 1414152 -4030 0
0 0 0 694 1414846 -3336 0
0 0 0 756 1415602 -2580 0
71 1 S116 773 1416375 -1807 0
71 1 S116 780 1417155 -1027 0
71 1 S116 756 1417911 -271 0
71 2 S116 733 1418644 462 0
71 2 S116 717 1419361 1179 0
71 2 S116 669 1420030 1848 0
71 2 S116 634 1420664 2482 0
71 2 S116 628 1421292 3110 0
71 2 S116 633 1421925 3743 0
71 2 S116 665 1422590 4408 0
71 2 S116 678 1423268 5086 0
71 2 S116 710 1423978 5796 0
71 2 S116 738 1424716 6534 0
0 0 0 758 1425474 -10630 0
0 0 0 763 1426237 -9867 0
0 0 0 733 1426970 -9134 0
0 0 0 683 1427653 -8451 0
0 0 0 663 1428316 -7788 0
0 0 0 646 1428962 -7142 0
0 0 0 631 1429593 -6511 0
0 0 0 615 1430208 -5896 0
0 0 0 610 1430818 -5286 0
0 0 0 605 1431423 -4681 0
0 0 0 605 1432028 -4076 0
0 0 0 600 1432628 -3476 0
0 0 0 603 1433231 -2873 0
0 0 0 625 1433856 -2248 0
72 1 S102 660 1434516 -1588 0
72 1 S102 740 1435256 -848 0
72 1 S102 784 1436040 -64 0
72 2 S102 805 1436845 741 0
72 2 S102 820 1437665 1561 0
72 2 S102 817 1438482 2378 0
72 2 S102 796 1439278 3174 0
72 2 S102 776 1440054 3950 0
72 2 S102 747 1440801 4697 0
72 2 S102 728 1441529 5425 0
72 2 S102 714 1442243 6139 0
72 2 S102 699 1442942 6838 0
0 0 0 694 1443636 -8632 0
0 0 0 676 1444312 -7956 0
0 0 0 656 1444968 -7300 0
0 0 0 635 1445603 -6665 0
0 0 0 634 1446237 -6031 0
0 0 0 639 1446876 -5392 0
0 0 0 648 1447524 -4744 0
0 0 0 648 1448172 -4096 0
0 0 0 689 1448861 -3407 0
0 0 0 748 1449609 -2659 0
73 1 S116 801 1450410 -1858 0
73 1 S116 800 1451210 -1058 0
73 1 S116 744 1451954 -314 0
73 2 S116 704 1452658 390 0
73 2 S116 667 1453325 1057 0
73 2 S116 632 1453957 1689 0
73 2 S116 601 1454558 2290 0
73 2 S116 588 1455146 2878 0
73 2 S116 606 1455752 3484 0
73 2 S116 628 1456380 4112 0
73 2 S116 662 1457042 4774 0
73 2 S116 715 1457757 5489 0
73 2 S116 714 1458471 6203 0
73 2 S116 724 1459195 6927 0
0 0 0 765 1459960 -9102 0
0 0 0 757 1460717 -8345 0
0 0 0 767 1461484 -7578 0
0 0 0 750 1462234 -6828 0
0 0 0 724 1462958 -6104 0
0 0 0 687 1463645 -5417 0
0 0 0 652 1464297 -4765 0
0 0 0 624 1464921 -4141 0
0 0 0 603 1465524 -3538 0
0 0 0 592 1466116 -2946 0
0 0 0 590 1466706 -2356 0
74 1 S106 612 1467318 -1744 0
74 1 S106 674 1467992 -1070 0
74 1 S106 763 1468755 -307 0
74 2 S106 785 1469540 478 0
74 2 S106 787 1470327 1265 0
74 2 S106 803 1471130 2068 0
74 2 S106 820 1471950 2888 0
74 2 S106 826 1472776 3714 0
74 2 S106 797 1473573 4511 0
74 2 S106 773 1474346 5284 0
74 2 S106 734 1475080 6018 0
74 2 S106 699 1475779 6717 0
0 0 0 692 1476471 -7461 0
0 0 0 710 1477181 -6751 0
0 0 0 724 1477905 -6027 0
0 0 0 741 1478646 -5286 0
0 0 0 728 1479374 -4558 0
0 0 0 696 1480070 -3862 0
0 0 0 649 1480719 -3213 0
0 0 0 631 1481350 -2582 0
75 1 S112 618 1481968 -1964 0
75 1 S112 603 1482571 -1361 0
75 1 S112 600 1483171 -761 0
75 1 S112 604 1483775 -157 0
75 2 S112 619 1484394 462 0
75 2 S112 641 1485035 1103 0
75 2 S112 639 1485674 1742 0
75 2 S112 647 1486321 2389 0
75 2 S112 664 1486985 3053 0
75 2 S112 672 1487657 3725 0
75 2 S112 671 1488328 4396 0
75 2 S112 696 1489024 5092 0
75 2 S112 695 1489719 5787 0
75 2 S112 686 1490405 6473 0
0 0 0 663 1491068 -7304 0
0 0 0 645 1491713 -6659 0
0 0 0 649 1492362 -6010 0
0 0 0 638 1493000 -5372 0
0 0 0 638 1493638 -4734 0
0 0 0 630 1494268 -4104 0
0 0 0 629 1494897 -3475 0
0 0 0 626 1495523 -2849 0
0 0 0 624 1496147 -2225 0
76 1 S116 604 1496751 -1621 0
76 1 S116 593 1497344 -1028 0
76 1 S116 595 1497939 -433 0
76 2 S116 608 1498547 175 0
76 2 S116 640 1499187 815 0
76 2 S116 664 1499851 1479 0
76 2 S116 671 1500522 2150 0
76 2 S116 673 1501195 2823 0
76 2 S116 696 1501891 3519 0
76 2 S116 726 1502617 4245 0
76 2 S116 743 1503360 4988 0
76 2 S116 745 1504105 5733 0
76 2 S116 721 1504826 6454 0
0 0 0 711 1505537 -8021 0
0 0 0 698 1506235 -7323 0
0 0 0 680 1506915 -6643 0
0 0 0 654 1507569 -5989 0
0 0 0 652 1508221 -5337 0
0 0 0 647 1508868 -4690 0
0 0 0 627 1509495 -4063 0
0 0 0 610 1510105 -3453 0
0 0 0 605 1510710 -2848 0
0 0 0 608 1511318 -2240 0
77 1 S106 627 1511945 -1613 0
77 1 S106 687 1512632 -926 0
77 1 S106 737 1513369 -189 0
77 2 S106 771 1514140 582 0
77 2 S106 751 1514891 1333 0
77 2 S106 714 1515605 2047 0
77 2 S106 687 1516292 2734 0
77 2 S106 667 1516959 3401 0
77 2 S106 652 1517611 4053 0
77 2 S106 664 1518275 4717 0
77 2 S106 684 1518959 5401 0
77 2 S106 734 1519693 6135 0
77 2 S106 754 1520447 6889 0
0 0 0 756 1521203 -8933 0
0 0 0 745 1521948 -8188 0
0 0 0 732 1522680 -7456 0
0 0 0 706 1523386 -6750 0
0 0 0 660 1524046 -6090 0
0 0 0 626 1524672 -5464 0
0 0 0 593 1525265 -4871 0
0 0 0 575 1525840 -4296 0
0 0 0 573 1526413 -3723 0
0 0 0 579 1526992 -3144 0
0 0 0 599 1527591 -2545 0
78 1 S112 638 1528229 -1907 0
78 1 S112 719 1528948 -1188 0
78 1 S112 769 1529717 -419 0
78 2 S112 774 1530491 355 0
78 2 S112 776 1531267 1131 0
78 2 S112 730 1531997 1861 0
78 2 S112 701 1532698 2562 0
78 2 S112 673 1533371 3235 0
78 2 S112 673 1534044 3908 0
78 2 S112 679 1534723 4587 0
78 2 S112 711 1535434 5298 0
78 2 S112 770 1536204 6068 0
78 2 S112 776 1536980 6844 0
0 0 0 717 1537697 -11073 0
0 0 0 684 1538381 -10389 0
0 0 0 675 1539056 -9714 0
0 0 0 673 1539729 -9041 0
0 0 0 691 1540420 -8350 0
0 0 0 725 1541145 -7625 0
0 0 0 742 1541887 -6883 0
0 0 0 746 1542633 -6137 0
0 0 0 743 1543376 -5394 0
0 0 0 724 1544100 -4670 0
0 0 0 718 1544818 -3952 0
0 0 0 714 1545532 -3238 0
0 0 0 723 1546255 -2515 0
79 1 S102 736 1546991 -1779 0
79 1 S102 716 1547707 -1063 0
79 1 S102 664 1548371 -399 0
79 2 S102 645 1549016 246 0
79 2 S102 640 1549656 886 0
79 2 S102 630 1550286 1516 0
79 2 S102 618 1550904 2134 0
79 2 S102 629 1551533 2763 0
79 2 S102 644 1552177 3407 0
79 2 S102 670 1552847 4077 0
79 2 S102 691 1553538 4768 0
79 2 S102 690 1554228 5458 0
79 2 S102 672 1554900 6130 0
79 2 S102 627 1555527 6757 0
0 0 0 608 1556135 -10540 0
0 0 0 597 1556732 -9943 0
0 0 0 593 1557325 -9350 0
0 0 0 594 1557919 -8756 0
0 0 0 599 1558518 -8157 0
0 0 0 593 1559111 -7564 0
0 0 0 596 1559707 -6968 0
0 0 0 590 1560297 -6378 0
0 0 0 606 1560903 -5772 0
0 0 0 637 1561540 -5135 0
0 0 0 702 1562242 -4433 0
0 0 0 745 1562987 -3688 0
0 0 0 750 1563737 -2938 0
0 0 0 713 1564450 -2225 0
80 1 S116 679 1565129 -1546 0
80 1 S116 641 1565770 -905 0
80 1 S116 616 1566386 -289 0
80 2 S116 596 1566982 307 0
80 2 S116 595 1567577 902 0
80 2 S116 599 1568176 1501 0
80 2 S116 638 1568814 2139 0
80 2 S116 688 1569502 2827 0
80 2 S116 771 1570273 3598 0
80 2 S116 777 1571050 4375 0
80 2 S116 709 1571759 5084 0
80 2 S116 684 1572443 5768 0
80 2 S116 701 1573144 6469 0
