T_0017
BeatCount Mean SD BeatCountNoOutliers MeanNoOutliers SDNoOutliers
2130 755,396713615023 73,3225172407565 2105 757,352494061758 69,9871329728413

Trial TrialStatus Trialtype IBI AbsPosition RelPosition Outlier
0 0 0 780 863 -15506 0
0 0 0 799 1662 -14707 0
0 0 0 808 2470 -13899 0
0 0 0 803 3273 -13096 0
0 0 0 795 4068 -12301 0
0 0 0 798 4866 -11503 0
0 0 0 777 5643 -10726 0
0 0 0 747 6390 -9979 0
0 0 0 726 7116 -9253 0
0 0 0 714 7830 -8539 0
0 0 0 710 8540 -7829 0
0 0 0 706 9246 -7123 0
0 0 0 668 9914 -6455 0
0 0 0 668 10582 -5787 0
0 0 0 688 11270 -5099 0
0 0 0 739 12009 -4360 0
0 0 0 778 12787 -3582 0
0 0 0 796 13583 -2786 0
1 1 S112 790 14373 -1996 0
1 1 S112 772 15145 -1224 0
1 1 S112 744 15889 -480 0
1 2 S112 704 16593 224 0
1 2 S112 705 17298 929 0
1 2 S112 729 18027 1658 0
1 2 S112 732 18759 2390 0
1 2 S112 758 19517 3148 0
1 2 S112 761 20278 3909 0
1 2 S112 756 21034 4665 0
1 2 S112 747 21781 5412 0
1 2 S112 745 22526 6157 0
1 2 S112 740 23266 6897 0
0 0 0 745 24011 -12119 0
0 0 0 685 24696 -11434 0
0 0 0 636 25332 -10798 0
0 0 0 637 25969 -10161 0
0 0 0 669 26638 -9492 0
0 0 0 762 27400 -8730 0
0 0 0 817 28217 -7913 0
0 0 0 823 29040 -7090 0
0 0 0 802 29842 -6288 0
0 0 0 740 30582 -5548 0
0 0 0 721 31303 -4827 0
0 0 0 751 32054 -4076 0
0 0 0 770 32824 -3306 0
0 0 0 710 33534 -2596 0
2 1 S102 659 34193 -1937 0
2 1 S102 658 34851 -1279 0
2 1 S102 667 35518 -612 0
2 2 S102 714 36232 102 0
2 2 S102 764 36996 866 0
2 2 S102 792 37788 1658 0
2 2 S102 800 38588 2458 0
2 2 S102 788 39376 3246 0
2 2 S102 780 40156 4026 0
2 2 S102 758 40914 4784 0
2 2 S102 753 41667 5537 0
2 2 S102 751 42418 6288 0
0 0 0 754 43172 -10896 0
0 0 0 722 43894 -10174 0
0 0 0 688 44582 -9486 0
0 0 0 717 45299 -8769 0
0 0 0 749 46048 -8020 0
0 0 0 768 46816 -7252 0
0 0 0 772 47588 -6480 0
0 0 0 757 48345 -5723 0
0 0 0 753 49098 -4970 0
0 0 0 748 49846 -4222 0
0 0 0 725 50571 -3497 0
0 0 0 673 51244 -2824 0
0 0 0 659 51903 -2165 0
3 1 S116 671 52574 -1494 0
3 1 S116 715 53289 -779 0
3 1 S116 773 54062 -6 0
3 2 S116 813 54875 807 0
3 2 S116 833 55708 1640 0
3 2 S116 829 56537 2469 0
3 2 S116 822 57359 3291 0
3 2 S116 812 58171 4103 0
3 2 S116 800 58971 4903 0
3 2 S116 792 59763 5695 0
3 2 S116 786 60549 6481 0
0 0 0 754 61303 -13372 0
0 0 0 688 61991 -12684 0
0 0 0 655 62646 -12029 0
0 0 0 671 63317 -11358 0
0 0 0 710 64027 -10648 0
0 0 0 804 64831 -9844 0
0 0 0 872 65703 -8972 0
0 0 0 866 66569 -8106 0
0 0 0 855 67424 -7251 0
0 0 0 834 68258 -6417 0
0 0 0 780 69038 -5637 0
0 0 0 796 69834 -4841 0
0 0 0 828 70662 -4013 0
0 0 0 841 71503 -3172 0
0 0 0 832 72335 -2340 0
4 1 S106 825 73160 -1515 0
4 1 S106 796 73956 -719 0
4 2 S106 767 74723 48 0
4 2 S106 711 75434 759 0
4 2 S106 671 76105 1430 0
4 2 S106 671 76776 2101 0
4 2 S106 695 77471 2796 0
4 2 S106 761 78232 3557 0
4 2 S106 807 79039 4364 0
4 2 S106 830 79869 5194 0
4 2 S106 832 80701 6026 0
4 2 S106 829 81530 6855 0
0 0 0 814 82344 -7865 0
0 0 0 725 83069 -7140 0
0 0 0 671 83740 -6469 0
0 0 0 674 84414 -5795 0
0 0 0 698 85112 -5097 0
0 0 0 736 85848 -4361 0
0 0 0 767 86615 -3594 0
0 0 0 787 87402 -2807 0
0 0 0 798 88200 -2009 0
5 1 S116 786 88986 -1223 0
5 1 S116 774 89760 -449 0
5 2 S116 691 90451 242 0
5 2 S116 656 91107 898 0
5 2 S116 667 91774 1565 0
5 2 S116 690 92464 2255 0
5 2 S116 748 93212 3003 0
5 2 S116 786 93998 3789 0
5 2 S116 803 94801 4592 0
5 2 S116 812 95613 5404 0
5 2 S116 797 96410 6201 0
5 2 S116 786 97196 6987 0
0 0 0 775 97971 -10192 0
0 0 0 748 98719 -9444 0
0 0 0 715 99434 -8729 0
0 0 0 684 100118 -8045 0
0 0 0 686 100804 -7359 0
0 0 0 691 101495 -6668 0
0 0 0 708 102203 -5960 0
0 0 0 741 102944 -5219 0
0 0 0 761 103705 -4458 0
0 0 0 778 104483 -3680 0
0 0 0 767 105250 -2913 0
0 0 0 692 105942 -2221 0
6 1 S106 682 106624 -1539 0
6 1 S106 706 107330 -833 0
6 1 S106 744 108074 -89 0
6 2 S106 793 108867 704 0
6 2 S106 815 109682 1519 0
6 2 S106 805 110487 2324 0
6 2 S106 799 111286 3123 0
6 2 S106 787 112073 3910 0
6 2 S106 776 112849 4686 0
6 2 S106 763 113612 5449 0
6 2 S106 743 114355 6192 0
6 2 S106 743 115098 6935 0
0 0 0 739 115837 -11607 0
0 0 0 685 116522 -10922 0
0 0 0 635 117157 -10287 0
0 0 0 621 117778 -9666 0
0 0 0 642 118420 -9024 0
0 0 0 684 119104 -8340 0
0 0 0 788 119892 -7552 0
0 0 0 813 120705 -6739 0
0 0 0 813 121518 -5926 0
0 0 0 812 122330 -5114 0
0 0 0 792 123122 -4322 0
0 0 0 740 123862 -3582 0
0 0 0 683 124545 -2899 0
0 0 0 665 125210 -2234 0
7 1 S102 658 125868 -1576 0
7 1 S102 674 126542 -902 0
7 1 S102 713 127255 -189 0
7 2 S102 768 128023 579 0
7 2 S102 798 128821 1377 0
7 2 S102 809 129630 2186 0
7 2 S102 800 130430 2986 0
7 2 S102 782 131212 3768 0
7 2 S102 761 131973 4529 0
7 2 S102 747 132720 5276 0
7 2 S102 733 133453 6009 0
7 2 S102 726 134179 6735 0
0 0 0 728 134907 -10889 0
0 0 0 724 135631 -10165 0
0 0 0 723 136354 -9442 0
0 0 0 723 137077 -8719 0
0 0 0 733 137810 -7986 0
0 0 0 715 138525 -7271 0
0 0 0 690 139215 -6581 0
0 0 0 659 139874 -5922 0
0 0 0 631 140505 -5291 0
0 0 0 622 141127 -4669 0
0 0 0 629 141756 -4040 0
0 0 0 690 142446 -3350 0
0 0 0 769 143215 -2581 0
8 1 S112 824 144039 -1757 0
8 1 S112 845 144884 -912 0
8 1 S112 847 145731 -65 0
8 2 S112 836 146567 771 0
8 2 S112 831 147398 1602 0
8 2 S112 804 148202 2406 0
8 2 S112 781 148983 3187 0
8 2 S112 758 149741 3945 0
8 2 S112 741 150482 4686 0
8 2 S112 727 151209 5413 0
8 2 S112 718 151927 6131 0
8 2 S112 726 152653 6857 0
0 0 0 734 153387 -8556 0
0 0 0 739 154126 -7817 0
0 0 0 739 154865 -7078 0
0 0 0 745 155610 -6333 0
0 0 0 747 156357 -5586 0
0 0 0 759 157116 -4827 0
0 0 0 737 157853 -4090 0
0 0 0 718 158571 -3372 0
0 0 0 667 159238 -2705 0
0 0 0 640 159878 -2065 0
9 1 S116 636 160514 -1429 0
9 1 S116 650 161164 -779 0
9 1 S116 707 161871 -72 0
9 2 S116 808 162679 736 0
9 2 S116 836 163515 1572 0
9 2 S116 846 164361 2418 0
9 2 S116 841 165202 3259 0
9 2 S116 822 166024 4081 0
9 2 S116 808 166832 4889 0
9 2 S116 781 167613 5670 0
9 2 S116 758 168371 6428 0
0 0 0 745 169116 -11760 0
0 0 0 741 169857 -11019 0
0 0 0 718 170575 -10301 0
0 0 0 686 171261 -9615 0
0 0 0 674 171935 -8941 0
0 0 0 692 172627 -8249 0
0 0 0 715 173342 -7534 0
0 0 0 770 174112 -6764 0
0 0 0 800 174912 -5964 0
0 0 0 816 175728 -5148 0
0 0 0 812 176540 -4336 0
0 0 0 770 177310 -3566 0
0 0 0 681 177991 -2885 0
0 0 0 672 178663 -2213 0
10 1 S102 689 179352 -1524 0
10 1 S102 735 180087 -789 0
10 1 S102 782 180869 -7 0
10 2 S102 813 181682 806 0
10 2 S102 815 182497 1621 0
10 2 S102 807 183304 2428 0
10 2 S102 793 184097 3221 0
10 2 S102 763 184860 3984 0
10 2 S102 728 185588 4712 0
10 2 S102 671 186259 5383 0
10 2 S102 641 186900 6024 0
10 2 S102 644 187544 6668 0
0 0 0 678 188222 -12498 0
0 0 0 744 188966 -11754 0
0 0 0 792 189758 -10962 0
0 0 0 814 190572 -10148 0
0 0 0 840 191412 -9308 0
0 0 0 832 192244 -8476 0
0 0 0 796 193040 -7680 0
0 0 0 712 193752 -6968 0
0 0 0 657 194409 -6311 0
0 0 0 644 195053 -5667 0
0 0 0 664 195717 -5003 0
0 0 0 724 196441 -4279 0
0 0 0 801 197242 -3478 0
0 0 0 819 198061 -2659 0
11 1 S112 826 198887 -1833 0
11 1 S112 833 199720 -1000 0
11 1 S112 820 200540 -180 0
11 2 S112 806 201346 626 0
11 2 S112 794 202140 1420 0
11 2 S112 776 202916 2196 0
11 2 S112 768 203684 2964 0
11 2 S112 755 204439 3719 0
11 2 S112 714 205153 4433 0
11 2 S112 680 205833 5113 0
11 2 S112 674 206507 5787 0
11 2 S112 701 207208 6488 0
0 0 0 759 207967 -9249 0
0 0 0 823 208790 -8426 0
0 0 0 831 209621 -7595 0
0 0 0 847 210468 -6748 0
0 0 0 855 211323 -5893 0
0 0 0 838 212161 -5055 0
0 0 0 759 212920 -4296 0
0 0 0 756 213676 -3540 0
0 0 0 739 214415 -2801 0
0 0 0 738 215153 -2063 0
12 1 S116 742 215895 -1321 0
12 1 S116 754 216649 -567 0
12 2 S116 743 217392 176 0
12 2 S116 699 218091 875 0
12 2 S116 676 218767 1551 0
12 2 S116 699 219466 2250 0
12 2 S116 756 220222 3006 0
12 2 S116 836 221058 3842 0
12 2 S116 862 221920 4704 0
12 2 S116 843 222763 5547 0
12 2 S116 821 223584 6368 0
0 0 0 796 224380 -12680 0
0 0 0 763 225143 -11917 0
0 0 0 692 225835 -11225 0
0 0 0 648 226483 -10577 0
0 0 0 649 227132 -9928 0
0 0 0 674 227806 -9254 0
0 0 0 741 228547 -8513 0
0 0 0 791 229338 -7722 0
0 0 0 818 230156 -6904 0
0 0 0 810 230966 -6094 0
0 0 0 748 231714 -5346 0
0 0 0 766 232480 -4580 0
0 0 0 780 233260 -3800 0
0 0 0 784 234044 -3016 0
0 0 0 757 234801 -2259 0
13 1 S112 670 235471 -1589 0
13 1 S112 652 236123 -937 0
13 1 S112 649 236772 -288 0
13 2 S112 677 237449 389 0
13 2 S112 731 238180 1120 0
13 2 S112 808 238988 1928 0
13 2 S112 839 239827 2767 0
13 2 S112 846 240673 3613 0
13 2 S112 839 241512 4452 0
13 2 S112 822 242334 5274 0
13 2 S112 804 243138 6078 0
13 2 S112 778 243916 6856 0
0 0 0 742 244658 -12611 0
0 0 0 717 245375 -11894 0
0 0 0 670 246045 -11224 0
0 0 0 671 246716 -10553 0
0 0 0 687 247403 -9866 0
0 0 0 744 248147 -9122 0
0 0 0 780 248927 -8342 0
0 0 0 793 249720 -7549 0
0 0 0 809 250529 -6740 0
0 0 0 804 251333 -5936 0
0 0 0 800 252133 -5136 0
0 0 0 781 252914 -4355 0
0 0 0 720 253634 -3635 0
0 0 0 653 254287 -2982 0
0 0 0 637 254924 -2345 0
14 1 S106 651 255575 -1694 0
14 1 S106 688 256263 -1006 0
14 1 S106 786 257049 -220 0
14 2 S106 846 257895 626 0
14 2 S106 877 258772 1503 0
14 2 S106 873 259645 2376 0
14 2 S106 882 260527 3258 0
14 2 S106 865 261392 4123 0
14 2 S106 848 262240 4971 0
14 2 S106 812 263052 5783 0
14 2 S106 769 263821 6552 0
0 0 0 694 264515 -12781 0
0 0 0 662 265177 -12119 0
0 0 0 674 265851 -11445 0
0 0 0 702 266553 -10743 0
0 0 0 772 267325 -9971 0
0 0 0 821 268146 -9150 0
0 0 0 820 268966 -8330 0
0 0 0 800 269766 -7530 0
0 0 0 788 270554 -6742 0
0 0 0 730 271284 -6012 0
0 0 0 665 271949 -5347 0
0 0 0 652 272601 -4695 0
0 0 0 657 273258 -4038 0
0 0 0 685 273943 -3353 0
0 0 0 773 274716 -2580 0
15 1 S116 825 275541 -1755 0
15 1 S116 849 276390 -906 0
15 1 S116 834 277224 -72 0
15 2 S116 831 278055 759 0
15 2 S116 821 278876 1580 0
15 2 S116 807 279683 2387 0
15 2 S116 794 280477 3181 0
15 2 S116 772 281249 3953 0
15 2 S116 762 282011 4715 0
15 2 S116 744 282755 5459 0
15 2 S116 739 283494 6198 0
15 2 S116 733 284227 6931 0
0 0 0 705 284932 -8561 0
0 0 0 669 285601 -7892 0
0 0 0 661 286262 -7231 0
0 0 0 692 286954 -6539 0
0 0 0 752 287706 -5787 0
0 0 0 786 288492 -5001 0
0 0 0 801 289293 -4200 0
0 0 0 805 290098 -3395 0
0 0 0 794 290892 -2601 0
16 1 S116 781 291673 -1820 0
16 1 S116 716 292389 -1104 0
16 1 S116 675 293064 -429 0
16 2 S116 670 293734 241 0
16 2 S116 687 294421 928 0
16 2 S116 729 295150 1657 0
16 2 S116 781 295931 2438 0
16 2 S116 799 296730 3237 0
16 2 S116 811 297541 4048 0
16 2 S116 809 298350 4857 0
16 2 S116 800 299150 5657 0
16 2 S116 787 299937 6444 0
0 0 0 765 300702 -10845 0
0 0 0 744 301446 -10101 0
0 0 0 722 302168 -9379 0
0 0 0 709 302877 -8670 0
0 0 0 682 303559 -7988 0
0 0 0 663 304222 -7325 0
0 0 0 671 304893 -6654 0
0 0 0 673 305566 -5981 0
0 0 0 687 306253 -5294 0
0 0 0 702 306955 -4592 0
0 0 0 719 307674 -3873 0
0 0 0 731 308405 -3142 0
0 0 0 678 309083 -2464 0
17 1 S106 633 309716 -1831 0
17 1 S106 638 310354 -1193 0
17 1 S106 664 311018 -529 0
17 2 S106 721 311739 192 0
17 2 S106 800 312539 992 0
17 2 S106 823 313362 1815 0
17 2 S106 834 314196 2649 0
17 2 S106 821 315017 3470 0
17 2 S106 798 315815 4268 0
17 2 S106 769 316584 5037 0
17 2 S106 747 317331 5784 0
17 2 S106 721 318052 6505 0
0 0 0 676 318728 -13426 0
0 0 0 654 319382 -12772 0
0 0 0 666 320048 -12106 0
0 0 0 685 320733 -11421 0
0 0 0 748 321481 -10673 0
0 0 0 790 322271 -9883 0
0 0 0 810 323081 -9073 0
0 0 0 803 323884 -8270 0
0 0 0 776 324660 -7494 0
0 0 0 701 325361 -6793 0
0 0 0 668 326029 -6125 0
0 0 0 675 326704 -5450 0
0 0 0 697 327401 -4753 0
0 0 0 761 328162 -3992 0
0 0 0 817 328979 -3175 0
0 0 0 820 329799 -2355 0
18 1 S102 814 330613 -1541 0
18 1 S102 815 331428 -726 0
18 2 S102 803 332231 77 0
18 2 S102 789 333020 866 0
18 2 S102 772 333792 1638 0
18 2 S102 745 334537 2383 0
18 2 S102 695 335232 3078 0
18 2 S102 662 335894 3740 0
18 2 S102 668 336562 4408 0
18 2 S102 700 337262 5108 0
18 2 S102 756 338018 5864 0
18 2 S102 798 338816 6662 0
0 0 0 823 339639 -8695 0
0 0 0 824 340463 -7871 0
0 0 0 813 341276 -7058 0
0 0 0 796 342072 -6262 0
0 0 0 776 342848 -5486 0
0 0 0 724 343572 -4762 0
0 0 0 689 344261 -4073 0
0 0 0 685 344946 -3388 0
0 0 0 714 345660 -2674 0
19 1 S106 721 346381 -1953 0
19 1 S106 706 347087 -1247 0
19 1 S106 663 347750 -584 0
19 2 S106 665 348415 81 0
19 2 S106 713 349128 794 0
19 2 S106 741 349869 1535 0
19 2 S106 700 350569 2235 0
19 2 S106 698 351267 2933 0
19 2 S106 726 351993 3659 0
19 2 S106 757 352750 4416 0
19 2 S106 781 353531 5197 0
19 2 S106 801 354332 5998 0
19 2 S106 798 355130 6796 0
0 0 0 776 355906 -11162 0
0 0 0 747 356653 -10415 0
0 0 0 699 357352 -9716 0
0 0 0 650 358002 -9066 0
0 0 0 630 358632 -8436 0
0 0 0 628 359260 -7808 0
0 0 0 651 359911 -7157 0
0 0 0 718 360629 -6439 0
0 0 0 783 361412 -5656 0
0 0 0 815 362227 -4841 0
0 0 0 828 363055 -4013 0
0 0 0 836 363891 -3177 0
0 0 0 795 364686 -2382 0
20 1 S112 707 365393 -1675 0
20 1 S112 663 366056 -1012 0
20 1 S112 675 366731 -337 0
20 2 S112 694 367425 357 0
20 2 S112 746 368171 1103 0
20 2 S112 793 368964 1896 0
20 2 S112 822 369786 2718 0
20 2 S112 829 370615 3547 0
20 2 S112 836 371451 4383 0
20 2 S112 819 372270 5202 0
20 2 S112 805 373075 6007 0
20 2 S112 784 373859 6791 0
0 0 0 766 374625 -10381 0
0 0 0 743 375368 -9638 0
0 0 0 720 376088 -8918 0
0 0 0 661 376749 -8257 0
0 0 0 646 377395 -7611 0
0 0 0 659 378054 -6952 0
0 0 0 690 378744 -6262 0
0 0 0 751 379495 -5511 0
0 0 0 804 380299 -4707 0
0 0 0 832 381131 -3875 0
0 0 0 839 381970 -3036 0
0 0 0 831 382801 -2205 0
21 1 S106 815 383616 -1390 0
21 1 S106 773 384389 -617 0
21 2 S106 688 385077 71 0
21 2 S106 667 385744 738 0
21 2 S106 680 386424 1418 0
21 2 S106 722 387146 2140 0
21 2 S106 772 387918 2912 0
21 2 S106 821 388739 3733 0
21 2 S106 847 389586 4580 0
21 2 S106 864 390450 5444 0
21 2 S106 859 391309 6303 0
0 0 0 852 392161 -13037 0
0 0 0 830 392991 -12207 0
0 0 0 795 393786 -11412 0
0 0 0 756 394542 -10656 0
0 0 0 701 395243 -9955 0
0 0 0 655 395898 -9300 0
0 0 0 659 396557 -8641 0
0 0 0 662 397219 -7979 0
0 0 0 713 397932 -7266 0
0 0 0 754 398686 -6512 0
0 0 0 766 399452 -5746 0
0 0 0 792 400244 -4954 0
0 0 0 803 401047 -4151 0
0 0 0 787 401834 -3364 0
0 0 0 705 402539 -2659 0
22 1 S116 662 403201 -1997 0
22 1 S116 645 403846 -1352 0
22 1 S116 655 404501 -697 0
22 1 S116 687 405188 -10 0
22 2 S116 736 405924 726 0
22 2 S116 792 406716 1518 0
22 2 S116 822 407538 2340 0
22 2 S116 842 408380 3182 0
22 2 S116 839 409219 4021 0
22 2 S116 829 410048 4850 0
22 2 S116 823 410871 5673 0
22 2 S116 802 411673 6475 0
0 0 0 788 412461 -11040 0
0 0 0 769 413230 -10271 0
0 0 0 734 413964 -9537 0
0 0 0 726 414690 -8811 0
0 0 0 740 415430 -8071 0
0 0 0 760 416190 -7311 0
0 0 0 770 416960 -6541 0
0 0 0 767 417727 -5774 0
0 0 0 768 418495 -5006 0
0 0 0 753 419248 -4253 0
0 0 0 694 419942 -3559 0
0 0 0 682 420624 -2877 0
0 0 0 698 421322 -2179 0
23 1 S112 750 422072 -1429 0
23 1 S112 788 422860 -641 0
23 2 S112 770 423630 129 0
23 2 S112 788 424418 917 0
23 2 S112 784 425202 1701 0
23 2 S112 763 425965 2464 0
23 2 S112 699 426664 3163 0
23 2 S112 679 427343 3842 0
23 2 S112 677 428020 4519 0
23 2 S112 701 428721 5220 0
23 2 S112 745 429466 5965 0
23 2 S112 795 430261 6760 0
0 0 0 822 431083 -10405 0
0 0 0 766 431849 -9639 0
0 0 0 702 432551 -8937 0
0 0 0 723 433274 -8214 0
0 0 0 746 434020 -7468 0
0 0 0 761 434781 -6707 0
0 0 0 741 435522 -5966 0
0 0 0 697 436219 -5269 0
0 0 0 664 436883 -4605 0
0 0 0 664 437547 -3941 0
0 0 0 691 438238 -3250 0
0 0 0 742 438980 -2508 0
24 1 S106 796 439776 -1712 0
24 1 S106 819 440595 -893 0
24 1 S106 824 441419 -69 0
24 2 S106 830 442249 761 0
24 2 S106 801 443050 1562 0
24 2 S106 731 443781 2293 0
24 2 S106 721 444502 3014 0
24 2 S106 731 445233 3745 0
24 2 S106 750 445983 4495 0
24 2 S106 779 446762 5274 0
24 2 S106 804 447566 6078 0
24 2 S106 812 448378 6890 0
0 0 0 812 449190 -9308 0
0 0 0 783 449973 -8525 0
0 0 0 751 450724 -7774 0
0 0 0 701 451425 -7073 0
0 0 0 672 452097 -6401 0
0 0 0 665 452762 -5736 0
0 0 0 687 453449 -5049 0
0 0 0 743 454192 -4306 0
0 0 0 786 454978 -3520 0
0 0 0 803 455781 -2717 0
25 1 S102 797 456578 -1920 0
25 1 S102 701 457279 -1219 0
25 1 S102 664 457943 -555 0
25 2 S102 667 458610 112 0
25 2 S102 695 459305 807 0
25 2 S102 760 460065 1567 0
25 2 S102 826 460891 2393 0
25 2 S102 843 461734 3236 0
25 2 S102 837 462571 4073 0
25 2 S102 820 463391 4893 0
25 2 S102 797 464188 5690 0
25 2 S102 774 464962 6464 0
0 0 0 726 465688 -9056 0
0 0 0 676 466364 -8380 0
0 0 0 667 467031 -7713 0
0 0 0 670 467701 -7043 0
0 0 0 705 468406 -6338 0
0 0 0 764 469170 -5574 0
0 0 0 804 469974 -4770 0
0 0 0 800 470774 -3970 0
0 0 0 790 471564 -3180 0
0 0 0 740 472304 -2440 0
26 1 S116 694 472998 -1746 0
26 1 S116 708 473706 -1038 0
26 1 S116 723 474429 -315 0
26 2 S116 773 475202 458 0
26 2 S116 822 476024 1280 0
26 2 S116 843 476867 2123 0
26 2 S116 847 477714 2970 0
26 2 S116 844 478558 3814 0
26 2 S116 824 479382 4638 0
26 2 S116 802 480184 5440 0
26 2 S116 775 480959 6215 0
26 2 S116 763 481722 6978 0
0 0 0 703 482425 -8384 0
0 0 0 663 483088 -7721 0
0 0 0 658 483746 -7063 0
0 0 0 681 484427 -6382 0
0 0 0 740 485167 -5642 0
0 0 0 810 485977 -4832 0
0 0 0 817 486794 -4015 0
0 0 0 827 487621 -3188 0
0 0 0 820 488441 -2368 0
27 1 S106 822 489263 -1546 0
27 1 S106 799 490062 -747 0
27 1 S106 731 490793 -16 0
27 2 S106 667 491460 651 0
27 2 S106 662 492122 1313 0
27 2 S106 663 492785 1976 0
27 2 S106 697 493482 2673 0
27 2 S106 759 494241 3432 0
27 2 S106 822 495063 4254 0
27 2 S106 855 495918 5109 0
27 2 S106 867 496785 5976 0
27 2 S106 859 497644 6835 0
0 0 0 852 498496 -8908 0
0 0 0 838 499334 -8070 0
0 0 0 802 500136 -7268 0
0 0 0 733 500869 -6535 0
0 0 0 694 501563 -5841 0
0 0 0 699 502262 -5142 0
0 0 0 722 502984 -4420 0
0 0 0 750 503734 -3670 0
0 0 0 779 504513 -2891 0
0 0 0 791 505304 -2100 0
28 1 S102 793 506097 -1307 0
28 1 S102 798 506895 -509 0
28 2 S102 780 507675 271 0
28 2 S102 696 508371 967 0
28 2 S102 677 509048 1644 0
28 2 S102 686 509734 2330 0
28 2 S102 711 510445 3041 0
28 2 S102 765 511210 3806 0
28 2 S102 812 512022 4618 0
28 2 S102 825 512847 5443 0
28 2 S102 828 513675 6271 0
0 0 0 824 514499 -12799 0
0 0 0 812 515311 -11987 0
0 0 0 787 516098 -11200 0
0 0 0 765 516863 -10435 0
0 0 0 752 517615 -9683 0
0 0 0 711 518326 -8972 0
0 0 0 694 519020 -8278 0
0 0 0 697 519717 -7581 0
0 0 0 710 520427 -6871 0
0 0 0 748 521175 -6123 0
0 0 0 786 521961 -5337 0
0 0 0 795 522756 -4542 0
0 0 0 735 523491 -3807 0
0 0 0 695 524186 -3112 0
0 0 0 724 524910 -2388 0
29 1 S112 764 525674 -1624 0
29 1 S112 836 526510 -788 0
29 2 S112 876 527386 88 0
29 2 S112 881 528267 969 0
29 2 S112 866 529133 1835 0
29 2 S112 840 529973 2675 0
29 2 S112 816 530789 3491 0
29 2 S112 791 531580 4282 0
29 2 S112 717 532297 4999 0
29 2 S112 689 532986 5688 0
29 2 S112 685 533671 6373 0
0 0 0 712 534383 -8150 0
0 0 0 757 535140 -7393 0
0 0 0 775 535915 -6618 0
0 0 0 791 536706 -5827 0
0 0 0 810 537516 -5017 0
0 0 0 788 538304 -4229 0
0 0 0 729 539033 -3500 0
0 0 0 668 539701 -2832 0
0 0 0 662 540363 -2170 0
30 1 S112 673 541036 -1497 0
30 1 S112 720 541756 -777 0
30 2 S112 799 542555 22 0
30 2 S112 834 543389 856 0
30 2 S112 857 544246 1713 0
30 2 S112 865 545111 2578 0
30 2 S112 841 545952 3419 0
30 2 S112 762 546714 4181 0
30 2 S112 737 547451 4918 0
30 2 S112 738 548189 5656 0
30 2 S112 759 548948 6415 0
0 0 0 789 549737 -10569 0
0 0 0 803 550540 -9766 0
0 0 0 793 551333 -8973 0
0 0 0 786 552119 -8187 0
0 0 0 773 552892 -7414 0
0 0 0 722 553614 -6692 0
0 0 0 719 554333 -5973 0
0 0 0 720 555053 -5253 0
0 0 0 735 555788 -4518 0
0 0 0 750 556538 -3768 0
0 0 0 764 557302 -3004 0
0 0 0 744 558046 -2260 0
31 1 S106 685 558731 -1575 0
31 1 S106 677 559408 -898 0
31 1 S106 698 560106 -200 0
31 2 S106 740 560846 540 0
31 2 S106 814 561660 1354 0
31 2 S106 841 562501 2195 0
31 2 S106 851 563352 3046 0
31 2 S106 849 564201 3895 0
31 2 S106 823 565024 4718 0
31 2 S106 787 565811 5505 0
31 2 S106 703 566514 6208 0
31 2 S106 686 567200 6894 0
0 0 0 687 567887 -10854 0
0 0 0 712 568599 -10142 0
0 0 0 748 569347 -9394 0
0 0 0 770 570117 -8624 0
0 0 0 795 570912 -7829 0
0 0 0 800 571712 -7029 0
0 0 0 779 572491 -6250 0
0 0 0 719 573210 -5531 0
0 0 0 682 573892 -4849 0
0 0 0 679 574571 -4170 0
0 0 0 698 575269 -3472 0
0 0 0 737 576006 -2735 0
32 1 S102 784 576790 -1951 0
32 1 S102 813 577603 -1138 0
32 1 S102 819 578422 -319 0
32 2 S102 807 579229 488 0
32 2 S102 790 580019 1278 0
32 2 S102 777 580796 2055 0
32 2 S102 765 581561 2820 0
32 2 S102 747 582308 3567 0
32 2 S102 688 582996 4255 0
32 2 S102 652 583648 4907 0
32 2 S102 653 584301 5560 0
32 2 S102 678 584979 6238 0
32 2 S102 758 585737 6996 0
0 0 0 829 586566 -12666 0
0 0 0 851 587417 -11815 0
0 0 0 840 588257 -10975 0
0 0 0 785 589042 -10190 0
0 0 0 751 589793 -9439 0
0 0 0 765 590558 -8674 0
0 0 0 755 591313 -7919 0
0 0 0 725 592038 -7194 0
0 0 0 698 592736 -6496 0
0 0 0 672 593408 -5824 0
0 0 0 636 594044 -5188 0
0 0 0 635 594679 -4553 0
0 0 0 649 595328 -3904 0
0 0 0 681 596009 -3223 0
0 0 0 715 596724 -2508 0
33 1 S112 718 597442 -1790 0
33 1 S112 682 598124 -1108 0
33 1 S112 695 598819 -413 0
33 2 S112 742 599561 329 0
33 2 S112 780 600341 1109 0
33 2 S112 806 601147 1915 0
33 2 S112 816 601963 2731 0
33 2 S112 811 602774 3542 0
33 2 S112 792 603566 4334 0
33 2 S112 750 604316 5084 0
33 2 S112 675 604991 5759 0
33 2 S112 657 605648 6416 0
0 0 0 654 606302 -12708 0
0 0 0 685 606987 -12023 0
0 0 0 737 607724 -11286 0
0 0 0 772 608496 -10514 0
0 0 0 790 609286 -9724 0
0 0 0 759 610045 -8965 0
0 0 0 741 610786 -8224 0
0 0 0 760 611546 -7464 0
0 0 0 778 612324 -6686 0
0 0 0 799 613123 -5887 0
0 0 0 805 613928 -5082 0
0 0 0 781 614709 -4301 0
0 0 0 683 615392 -3618 0
0 0 0 665 616057 -2953 0
0 0 0 670 616727 -2283 0
34 1 S106 703 617430 -1580 0
34 1 S106 771 618201 -809 0
34 2 S106 811 619012 2 0
34 2 S106 841 619853 843 0
34 2 S106 855 620708 1698 0
34 2 S106 839 621547 2537 0
34 2 S106 824 622371 3361 0
34 2 S106 797 623168 4158 0
34 2 S106 718 623886 4876 0
34 2 S106 689 624575 5565 0
34 2 S106 694 625269 6259 0
34 2 S106 719 625988 6978 0
0 0 0 750 626738 -10093 0
0 0 0 764 627502 -9329 0
0 0 0 779 628281 -8550 0
0 0 0 792 629073 -7758 0
0 0 0 768 629841 -6990 0
0 0 0 763 630604 -6227 0
0 0 0 758 631362 -5469 0
0 0 0 767 632129 -4702 0
0 0 0 761 632890 -3941 0
0 0 0 702 633592 -3239 0
0 0 0 641 634233 -2598 0
35 1 S102 624 634857 -1974 0
35 1 S102 626 635483 -1348 0
35 1 S102 636 636119 -712 0
35 2 S102 724 636843 12 0
35 2 S102 815 637658 827 0
35 2 S102 851 638509 1678 0
35 2 S102 859 639368 2537 0
35 2 S102 859 640227 3396 0
35 2 S102 845 641072 4241 0
35 2 S102 836 641908 5077 0
35 2 S102 817 642725 5894 0
35 2 S102 796 643521 6690 0
0 0 0 773 644294 -7872 0
0 0 0 763 645057 -7109 0
0 0 0 746 645803 -6363 0
0 0 0 720 646523 -5643 0
0 0 0 716 647239 -4927 0
0 0 0 720 647959 -4207 0
0 0 0 732 648691 -3475 0
0 0 0 758 649449 -2717 0
36 1 S106 782 650231 -1935 0
36 1 S106 794 651025 -1141 0
36 1 S106 804 651829 -337 0
36 2 S106 798 652627 461 0
36 2 S106 778 653405 1239 0
36 2 S106 729 654134 1968 0
36 2 S106 712 654846 2680 0
36 2 S106 730 655576 3410 0
36 2 S106 750 656326 4160 0
36 2 S106 774 657100 4934 0
36 2 S106 792 657892 5726 0
36 2 S106 798 658690 6524 0
0 0 0 799 659489 -10532 0
0 0 0 787 660276 -9745 0
0 0 0 764 661040 -8981 0
0 0 0 708 661748 -8273 0
0 0 0 670 662418 -7603 0
0 0 0 676 663094 -6927 0
0 0 0 680 663774 -6247 0
0 0 0 700 664474 -5547 0
0 0 0 727 665201 -4820 0
0 0 0 736 665937 -4084 0
0 0 0 737 666674 -3347 0
0 0 0 752 667426 -2595 0
37 1 S116 754 668180 -1841 0
37 1 S116 730 668910 -1111 0
37 1 S116 664 669574 -447 0
37 2 S116 653 670227 206 0
37 2 S116 663 670890 869 0
37 2 S116 696 671586 1565 0
37 2 S116 753 672339 2318 0
37 2 S116 794 673133 3112 0
37 2 S116 792 673925 3904 0
37 2 S116 779 674704 4683 0
37 2 S116 766 675470 5449 0
37 2 S116 743 676213 6192 0
37 2 S116 729 676942 6921 0
0 0 0 706 677648 -12334 0
0 0 0 678 678326 -11656 0
0 0 0 633 678959 -11023 0
0 0 0 617 679576 -10406 0
0 0 0 621 680197 -9785 0
0 0 0 655 680852 -9130 0
0 0 0 725 681577 -8405 0
0 0 0 776 682353 -7629 0
0 0 0 811 683164 -6818 0
0 0 0 824 683988 -5994 0
0 0 0 812 684800 -5182 0
0 0 0 802 685602 -4380 0
0 0 0 783 686385 -3597 0
0 0 0 701 687086 -2896 0
0 0 0 659 687745 -2237 0
38 1 S102 650 688395 -1587 0
38 1 S102 664 689059 -923 0
38 1 S102 711 689770 -212 0
38 2 S102 767 690537 555 0
38 2 S102 821 691358 1376 0
38 2 S102 841 692199 2217 0
38 2 S102 842 693041 3059 0
38 2 S102 838 693879 3897 0
38 2 S102 824 694703 4721 0
38 2 S102 803 695506 5524 0
38 2 S102 789 696295 6313 0
0 0 0 762 697057 -10846 0
0 0 0 743 697800 -10103 0
0 0 0 716 698516 -9387 0
0 0 0 657 699173 -8730 0
0 0 0 660 699833 -8070 0
0 0 0 678 700511 -7392 0
0 0 0 734 701245 -6658 0
0 0 0 766 702011 -5892 0
0 0 0 780 702791 -5112 0
0 0 0 788 703579 -4324 0
0 0 0 783 704362 -3541 0
0 0 0 754 705116 -2787 0
0 0 0 688 705804 -2099 0
39 1 S116 662 706466 -1437 0
39 1 S116 655 707121 -782 0
39 1 S116 679 707800 -103 0
39 2 S116 714 708514 611 0
39 2 S116 771 709285 1382 0
39 2 S116 795 710080 2177 0
39 2 S116 800 710880 2977 0
39 2 S116 787 711667 3764 0
39 2 S116 769 712436 4533 0
39 2 S116 747 713183 5280 0
39 2 S116 728 713911 6008 0
39 2 S116 694 714605 6702 0
0 0 0 651 715256 -8280 0
0 0 0 648 715904 -7632 0
0 0 0 658 716562 -6974 0
0 0 0 726 717288 -6248 0
0 0 0 791 718079 -5457 0
0 0 0 822 718901 -4635 0
0 0 0 812 719713 -3823 0
0 0 0 809 720522 -3014 0
0 0 0 810 721332 -2204 0
40 1 S112 786 722118 -1418 0
40 1 S112 703 722821 -715 0
40 1 S112 672 723493 -43 0
40 2 S112 678 724171 635 0
40 2 S112 714 724885 1349 0
40 2 S112 772 725657 2121 0
40 2 S112 815 726472 2936 0
40 2 S112 832 727304 3768 0
40 2 S112 840 728144 4608 0
40 2 S112 837 728981 5445 0
40 2 S112 832 729813 6277 0
0 0 0 823 730636 -189023 0
0 0 0 801 731437 -188222 0
0 0 0 769 732206 -187453 0
0 0 0 731 732937 -186722 0
0 0 0 677 733614 -186045 0
0 0 0 682 734296 -185363 0
0 0 0 691 734987 -184672 0
0 0 0 729 735716 -183943 0
0 0 0 764 736480 -183179 0
0 0 0 778 737258 -182401 0
0 0 0 784 738042 -181617 0
0 0 0 726 738768 -180891 0
0 0 0 697 739465 -180194 0
0 0 0 669 740134 -179525 0
0 0 0 672 740806 -178853 0
0 0 0 687 741493 -178166 0
0 0 0 678 742171 -177488 0
0 0 0 663 742834 -176825 0
0 0 0 648 743482 -176177 0
0 0 0 633 744115 -175544 0
0 0 0 607 744722 -174937 0
0 0 0 606 745328 -174331 0
0 0 0 609 745937 -173722 0
0 0 0 615 746552 -173107 0
0 0 0 628 747180 -172479 0
0 0 0 664 747844 -171815 0
0 0 0 715 748559 -171100 0
0 0 0 725 749284 -170375 0
0 0 0 723 750007 -169652 0
0 0 0 705 750712 -168947 0
0 0 0 670 751382 -168277 0
0 0 0 646 752028 -167631 0
0 0 0 629 752657 -167002 0
0 0 0 613 753270 -166389 0
0 0 0 593 753863 -165796 0
0 0 0 584 754447 -165212 0
0 0 0 567 755014 -164645 0
0 0 0 560 755574 -164085 1
0 0 0 552 756126 -163533 1
0 0 0 544 756670 -162989 1
0 0 0 538 757208 -162451 1
0 0 0 527 757735 -161924 1
0 0 0 519 758254 -161405 1
0 0 0 523 758777 -160882 1
0 0 0 513 759290 -160369 1
0 0 0 514 759804 -159855 1
0 0 0 535 760339 -159320 1
0 0 0 552 760891 -158768 1
0 0 0 563 761454 -158205 1
0 0 0 571 762025 -157634 0
0 0 0 597 762622 -157037 0
0 0 0 569 763191 -156468 0
0 0 0 578 763769 -155890 0
0 0 0 604 764373 -155286 0
0 0 0 629 765002 -154657 0
0 0 0 642 765644 -154015 0
0 0 0 659 766303 -153356 0
0 0 0 672 766975 -152684 0
0 0 0 637 767612 -152047 0
0 0 0 606 768218 -151441 0
0 0 0 599 768817 -150842 0
0 0 0 625 769442 -150217 0
0 0 0 698 770140 -149519 0
0 0 0 814 770954 -148705 0
0 0 0 882 771836 -147823 0
0 0 0 912 772748 -146911 0
0 0 0 922 773670 -145989 0
0 0 0 921 774591 -145068 0
0 0 0 923 775514 -144145 0
0 0 0 909 776423 -143236 0
0 0 0 831 777254 -142405 0
0 0 0 757 778011 -141648 0
0 0 0 774 778785 -140874 0
0 0 0 798 779583 -140076 0
0 0 0 848 780431 -139228 0
0 0 0 907 781338 -138321 0
0 0 0 939 782277 -137382 0
0 0 0 939 783216 -136443 0
0 0 0 931 784147 -135512 0
0 0 0 899 785046 -134613 0
0 0 0 854 785900 -133759 0
0 0 0 867 786767 -132892 0
0 0 0 807 787574 -132085 0
0 0 0 792 788366 -131293 0
0 0 0 783 789149 -130510 0
0 0 0 796 789945 -129714 0
0 0 0 795 790740 -128919 0
0 0 0 739 791479 -128180 0
0 0 0 697 792176 -127483 0
0 0 0 700 792876 -126783 0
0 0 0 747 793623 -126036 0
0 0 0 846 794469 -125190 0
0 0 0 951 795420 -124239 1
0 0 0 965 796385 -123274 1
0 0 0 955 797340 -122319 1
0 0 0 910 798250 -121409 0
0 0 0 885 799135 -120524 0
0 0 0 844 799979 -119680 0
0 0 0 823 800802 -118857 0
0 0 0 815 801617 -118042 0
0 0 0 798 802415 -117244 0
0 0 0 808 803223 -116436 0
0 0 0 817 804040 -115619 0
0 0 0 809 804849 -114810 0
0 0 0 795 805644 -114015 0
0 0 0 787 806431 -113228 0
0 0 0 768 807199 -112460 0
0 0 0 762 807961 -111698 0
0 0 0 758 808719 -110940 0
0 0 0 760 809479 -110180 0
0 0 0 761 810240 -109419 0
0 0 0 759 810999 -108660 0
0 0 0 764 811763 -107896 0
0 0 0 761 812524 -107135 0
0 0 0 766 813290 -106369 0
0 0 0 771 814061 -105598 0
0 0 0 783 814844 -104815 0
0 0 0 769 815613 -104046 0
0 0 0 683 816296 -103363 0
0 0 0 650 816946 -102713 0
0 0 0 643 817589 -102070 0
0 0 0 660 818249 -101410 0
0 0 0 718 818967 -100692 0
0 0 0 795 819762 -99897 0
0 0 0 841 820603 -99056 0
0 0 0 854 821457 -98202 0
0 0 0 852 822309 -97350 0
0 0 0 831 823140 -96519 0
0 0 0 811 823951 -95708 0
0 0 0 794 824745 -94914 0
0 0 0 785 825530 -94129 0
0 0 0 775 826305 -93354 0
0 0 0 769 827074 -92585 0
0 0 0 776 827850 -91809 0
0 0 0 783 828633 -91026 0
0 0 0 787 829420 -90239 0
0 0 0 787 830207 -89452 0
0 0 0 747 830954 -88705 0
0 0 0 680 831634 -88025 0
0 0 0 697 832331 -87328 0
0 0 0 731 833062 -86597 0
0 0 0 810 833872 -85787 0
0 0 0 839 834711 -84948 0
0 0 0 841 835552 -84107 0
0 0 0 824 836376 -83283 0
0 0 0 786 837162 -82497 0
0 0 0 704 837866 -81793 0
0 0 0 673 838539 -81120 0
0 0 0 635 839174 -80485 0
0 0 0 646 839820 -79839 0
0 0 0 699 840519 -79140 0
0 0 0 753 841272 -78387 0
0 0 0 787 842059 -77600 0
0 0 0 781 842840 -76819 0
0 0 0 797 843637 -76022 0
0 0 0 803 844440 -75219 0
0 0 0 818 845258 -74401 0
0 0 0 829 846087 -73572 0
0 0 0 818 846905 -72754 0
0 0 0 770 847675 -71984 0
0 0 0 720 848395 -71264 0
0 0 0 723 849118 -70541 0
0 0 0 749 849867 -69792 0
0 0 0 778 850645 -69014 0
0 0 0 791 851436 -68223 0
0 0 0 803 852239 -67420 0
0 0 0 785 853024 -66635 0
0 0 0 694 853718 -65941 0
0 0 0 676 854394 -65265 0
0 0 0 682 855076 -64583 0
0 0 0 716 855792 -63867 0
0 0 0 772 856564 -63095 0
0 0 0 801 857365 -62294 0
0 0 0 833 858198 -61461 0
0 0 0 832 859030 -60629 0
0 0 0 799 859829 -59830 0
0 0 0 702 860531 -59128 0
0 0 0 694 861225 -58434 0
0 0 0 715 861940 -57719 0
0 0 0 766 862706 -56953 0
0 0 0 811 863517 -56142 0
0 0 0 823 864340 -55319 0
0 0 0 817 865157 -54502 0
0 0 0 818 865975 -53684 0
0 0 0 794 866769 -52890 0
0 0 0 722 867491 -52168 0
0 0 0 665 868156 -51503 0
0 0 0 676 868832 -50827 0
0 0 0 710 869542 -50117 0
0 0 0 773 870315 -49344 0
0 0 0 808 871123 -48536 0
0 0 0 841 871964 -47695 0
0 0 0 855 872819 -46840 0
0 0 0 839 873658 -46001 0
0 0 0 808 874466 -45193 0
0 0 0 706 875172 -44487 0
0 0 0 668 875840 -43819 0
0 0 0 664 876504 -43155 0
0 0 0 685 877189 -42470 0
0 0 0 747 877936 -41723 0
0 0 0 795 878731 -40928 0
0 0 0 795 879526 -40133 0
0 0 0 816 880342 -39317 0
0 0 0 820 881162 -38497 0
0 0 0 807 881969 -37690 0
0 0 0 798 882767 -36892 0
0 0 0 776 883543 -36116 0
0 0 0 684 884227 -35432 0
0 0 0 656 884883 -34776 0
0 0 0 630 885513 -34146 0
0 0 0 630 886143 -33516 0
0 0 0 624 886767 -32892 0
0 0 0 620 887387 -32272 0
0 0 0 689 888076 -31583 0
0 0 0 804 888880 -30779 0
0 0 0 855 889735 -29924 0
0 0 0 817 890552 -29107 0
0 0 0 846 891398 -28261 0
0 0 0 897 892295 -27364 0
0 0 0 926 893221 -26438 0
0 0 0 944 894165 -25494 0
0 0 0 925 895090 -24569 0
0 0 0 898 895988 -23671 0
0 0 0 887 896875 -22784 0
0 0 0 861 897736 -21923 0
0 0 0 812 898548 -21111 0
0 0 0 797 899345 -20314 0
0 0 0 805 900150 -19509 0
0 0 0 849 900999 -18660 0
0 0 0 853 901852 -17807 0
0 0 0 852 902704 -16955 0
0 0 0 849 903553 -16106 0
0 0 0 849 904402 -15257 0
0 0 0 819 905221 -14438 0
0 0 0 798 906019 -13640 0
0 0 0 811 906830 -12829 0
0 0 0 840 907670 -11989 0
0 0 0 871 908541 -11118 0
0 0 0 890 909431 -10228 0
0 0 0 888 910319 -9340 0
0 0 0 862 911181 -8478 0
0 0 0 764 911945 -7714 0
0 0 0 734 912679 -6980 0
0 0 0 754 913433 -6226 0
0 0 0 796 914229 -5430 0
0 0 0 837 915066 -4593 0
0 0 0 861 915927 -3732 0
0 0 0 781 916708 -2951 0
0 0 0 694 917402 -2257 0
41 1 S102 654 918056 -1603 0
41 1 S102 635 918691 -968 0
41 1 S102 653 919344 -315 0
41 2 S102 654 919998 339 0
41 2 S102 717 920715 1056 0
41 2 S102 808 921523 1864 0
41 2 S102 844 922367 2708 0
41 2 S102 878 923245 3586 0
41 2 S102 889 924134 4475 0
41 2 S102 881 925015 5356 0
41 2 S102 867 925882 6223 0
0 0 0 845 926727 -8532 0
0 0 0 830 927557 -7702 0
0 0 0 796 928353 -6906 0
0 0 0 731 929084 -6175 0
0 0 0 739 929823 -5436 0
0 0 0 755 930578 -4681 0
0 0 0 766 931344 -3915 0
0 0 0 775 932119 -3140 0
0 0 0 790 932909 -2350 0
42 1 S112 801 933710 -1549 0
42 1 S112 810 934520 -739 0
42 2 S112 816 935336 77 0
42 2 S112 811 936147 888 0
42 2 S112 814 936961 1702 0
42 2 S112 823 937784 2525 0
42 2 S112 785 938569 3310 0
42 2 S112 719 939288 4029 0
42 2 S112 697 939985 4726 0
42 2 S112 722 940707 5448 0
42 2 S112 777 941484 6225 0
0 0 0 860 942344 -11300 0
0 0 0 891 943235 -10409 0
0 0 0 904 944139 -9505 0
0 0 0 905 945044 -8600 0
0 0 0 890 945934 -7710 0
0 0 0 850 946784 -6860 0
0 0 0 830 947614 -6030 0
0 0 0 816 948430 -5214 0
0 0 0 814 949244 -4400 0
0 0 0 807 950051 -3593 0
0 0 0 796 950847 -2797 0
0 0 0 735 951582 -2062 0
43 1 S116 673 952255 -1389 0
43 1 S116 673 952928 -716 0
43 1 S116 694 953622 -22 0
43 2 S116 776 954398 754 0
43 2 S116 876 955274 1630 0
43 2 S116 895 956169 2525 0
43 2 S116 915 957084 3440 0
43 2 S116 917 958001 4357 0
43 2 S116 900 958901 5257 0
43 2 S116 894 959795 6151 0
43 2 S116 875 960670 7026 0
0 0 0 851 961521 -7806 0
0 0 0 788 962309 -7018 0
0 0 0 689 962998 -6329 0
0 0 0 682 963680 -5647 0
0 0 0 703 964383 -4944 0
0 0 0 739 965122 -4205 0
0 0 0 787 965909 -3418 0
0 0 0 819 966728 -2599 0
44 1 S102 851 967579 -1748 0
44 1 S102 853 968432 -895 0
44 1 S102 830 969262 -65 0
44 2 S102 717 969979 652 0
44 2 S102 706 970685 1358 0
44 2 S102 733 971418 2091 0
44 2 S102 777 972195 2868 0
44 2 S102 827 973022 3695 0
44 2 S102 839 973861 4534 0
44 2 S102 847 974708 5381 0
44 2 S102 842 975550 6223 0
0 0 0 826 976376 -10657 0
0 0 0 807 977183 -9850 0
0 0 0 777 977960 -9073 0
0 0 0 752 978712 -8321 0
0 0 0 722 979434 -7599 0
0 0 0 748 980182 -6851 0
0 0 0 754 980936 -6097 0
0 0 0 763 981699 -5334 0
0 0 0 778 982477 -4556 0
0 0 0 791 983268 -3765 0
0 0 0 801 984069 -2964 0
0 0 0 752 984821 -2212 0
45 1 S116 695 985516 -1517 0
45 1 S116 702 986218 -815 0
45 1 S116 739 986957 -76 0
45 2 S116 797 987754 721 0
45 2 S116 834 988588 1555 0
45 2 S116 857 989445 2412 0
45 2 S116 848 990293 3260 0
45 2 S116 832 991125 4092 0
45 2 S116 805 991930 4897 0
45 2 S116 778 992708 5675 0
45 2 S116 768 993476 6443 0
0 0 0 759 994235 -12095 0
0 0 0 748 994983 -11347 0
0 0 0 694 995677 -10653 0
0 0 0 665 996342 -9988 0
0 0 0 679 997021 -9309 0
0 0 0 720 997741 -8589 0
0 0 0 804 998545 -7785 0
0 0 0 841 999386 -6944 0
0 0 0 848 1000234 -6096 0
0 0 0 856 1001090 -5240 0
0 0 0 860 1001950 -4380 0
0 0 0 848 1002798 -3532 0
0 0 0 829 1003627 -2703 0
46 1 S102 821 1004448 -1882 0
46 1 S102 766 1005214 -1116 0
46 1 S102 680 1005894 -436 0
46 2 S102 665 1006559 229 0
46 2 S102 664 1007223 893 0
46 2 S102 694 1007917 1587 0
46 2 S102 777 1008694 2364 0
46 2 S102 848 1009542 3212 0
46 2 S102 878 1010420 4090 0
46 2 S102 894 1011314 4984 0
46 2 S102 894 1012208 5878 0
46 2 S102 881 1013089 6759 0
0 0 0 862 1013951 -9886 0
0 0 0 834 1014785 -9052 0
0 0 0 806 1015591 -8246 0
0 0 0 784 1016375 -7462 0
0 0 0 726 1017101 -6736 0
0 0 0 680 1017781 -6056 0
0 0 0 651 1018432 -5405 0
0 0 0 652 1019084 -4753 0
0 0 0 700 1019784 -4053 0
0 0 0 797 1020581 -3256 0
0 0 0 914 1021495 -2342 0
47 1 S112 929 1022424 -1413 0
47 1 S112 929 1023353 -484 0
47 2 S112 920 1024273 436 0
47 2 S112 896 1025169 1332 0
47 2 S112 871 1026040 2203 0
47 2 S112 838 1026878 3041 0
47 2 S112 776 1027654 3817 0
47 2 S112 754 1028408 4571 0
47 2 S112 764 1029172 5335 0
47 2 S112 793 1029965 6128 0
47 2 S112 823 1030788 6951 0
0 0 0 839 1031627 -11027 0
0 0 0 844 1032471 -10183 0
0 0 0 829 1033300 -9354 0
0 0 0 801 1034101 -8553 0
0 0 0 720 1034821 -7833 0
0 0 0 679 1035500 -7154 0
0 0 0 678 1036178 -6476 0
0 0 0 699 1036877 -5777 0
0 0 0 752 1037629 -5025 0
0 0 0 811 1038440 -4214 0
0 0 0 847 1039287 -3367 0
0 0 0 850 1040137 -2517 0
48 1 S116 847 1040984 -1670 0
48 1 S116 846 1041830 -824 0
48 1 S116 797 1042627 -27 0
48 2 S116 709 1043336 682 0
48 2 S116 708 1044044 1390 0
48 2 S116 722 1044766 2112 0
48 2 S116 759 1045525 2871 0
48 2 S116 800 1046325 3671 0
48 2 S116 816 1047141 4487 0
48 2 S116 813 1047954 5300 0
48 2 S116 807 1048761 6107 0
48 2 S116 793 1049554 6900 0
0 0 0 778 1050332 -8917 0
0 0 0 744 1051076 -8173 0
0 0 0 684 1051760 -7489 0
0 0 0 663 1052423 -6826 0
0 0 0 684 1053107 -6142 0
0 0 0 716 1053823 -5426 0
0 0 0 800 1054623 -4626 0
0 0 0 811 1055434 -3815 0
0 0 0 815 1056249 -3000 0
0 0 0 824 1057073 -2176 0
49 1 S112 816 1057889 -1360 0
49 1 S112 776 1058665 -584 0
49 2 S112 697 1059362 113 0
49 2 S112 684 1060046 797 0
49 2 S112 693 1060739 1490 0
49 2 S112 731 1061470 2221 0
49 2 S112 793 1062263 3014 0
49 2 S112 832 1063095 3846 0
49 2 S112 849 1063944 4695 0
49 2 S112 858 1064802 5553 0
49 2 S112 863 1065665 6416 0
0 0 0 854 1066519 -12126 0
0 0 0 829 1067348 -11297 0
0 0 0 791 1068139 -10506 0
0 0 0 762 1068901 -9744 0
0 0 0 710 1069611 -9034 0
0 0 0 671 1070282 -8363 0
0 0 0 664 1070946 -7699 0
0 0 0 681 1071627 -7018 0
0 0 0 729 1072356 -6289 0
0 0 0 782 1073138 -5507 0
0 0 0 805 1073943 -4702 0
0 0 0 812 1074755 -3890 0
0 0 0 823 1075578 -3067 0
0 0 0 811 1076389 -2256 0
50 1 S106 742 1077131 -1514 0
50 1 S106 672 1077803 -842 0
50 1 S106 679 1078482 -163 0
50 2 S106 692 1079174 529 0
50 2 S106 743 1079917 1272 0
50 2 S106 811 1080728 2083 0
50 2 S106 836 1081564 2919 0
50 2 S106 849 1082413 3768 0
50 2 S106 841 1083254 4609 0
50 2 S106 824 1084078 5433 0
50 2 S106 802 1084880 6235 0
50 2 S106 777 1085657 7012 0
0 0 0 759 1086416 -6122 0
0 0 0 740 1087156 -5382 0
0 0 0 710 1087866 -4672 0
0 0 0 650 1088516 -4022 0
0 0 0 623 1089139 -3399 0
0 0 0 608 1089747 -2791 0
0 0 0 605 1090352 -2186 0
51 1 S112 638 1090990 -1548 0
51 1 S112 745 1091735 -803 0
51 2 S112 823 1092558 20 0
51 2 S112 886 1093444 906 0
51 2 S112 915 1094359 1821 0
51 2 S112 914 1095273 2735 0
51 2 S112 903 1096176 3638 0
51 2 S112 899 1097075 4537 0
51 2 S112 866 1097941 5403 0
51 2 S112 836 1098777 6239 0
0 0 0 807 1099584 -9051 0
0 0 0 784 1100368 -8267 0
0 0 0 765 1101133 -7502 0
0 0 0 763 1101896 -6739 0
0 0 0 771 1102667 -5968 0
0 0 0 769 1103436 -5199 0
0 0 0 772 1104208 -4427 0
0 0 0 763 1104971 -3664 0
0 0 0 767 1105738 -2897 0
0 0 0 779 1106517 -2118 0
52 1 S116 786 1107303 -1332 0
52 1 S116 784 1108087 -548 0
52 2 S116 776 1108863 228 0
52 2 S116 781 1109644 1009 0
52 2 S116 790 1110434 1799 0
52 2 S116 788 1111222 2587 0
52 2 S116 737 1111959 3324 0
52 2 S116 693 1112652 4017 0
52 2 S116 701 1113353 4718 0
52 2 S116 719 1114072 5437 0
52 2 S116 776 1114848 6213 0
0 0 0 818 1115666 -11570 0
0 0 0 836 1116502 -10734 0
0 0 0 841 1117343 -9893 0
0 0 0 838 1118181 -9055 0
0 0 0 838 1119019 -8217 0
0 0 0 827 1119846 -7390 0
0 0 0 778 1120624 -6612 0
0 0 0 760 1121384 -5852 0
0 0 0 697 1122081 -5155 0
0 0 0 657 1122738 -4498 0
0 0 0 679 1123417 -3819 0
0 0 0 710 1124127 -3109 0
0 0 0 746 1124873 -2363 0
53 1 S106 748 1125621 -1615 0
53 1 S106 700 1126321 -915 0
53 1 S106 682 1127003 -233 0
53 2 S106 689 1127692 456 0
53 2 S106 745 1128437 1201 0
53 2 S106 810 1129247 2011 0
53 2 S106 836 1130083 2847 0
53 2 S106 842 1130925 3689 0
53 2 S106 829 1131754 4518 0
53 2 S106 807 1132561 5325 0
53 2 S106 786 1133347 6111 0
53 2 S106 773 1134120 6884 0
0 0 0 755 1134875 -7249 0
0 0 0 692 1135567 -6557 0
0 0 0 647 1136214 -5910 0
0 0 0 652 1136866 -5258 0
0 0 0 669 1137535 -4589 0
0 0 0 706 1138241 -3883 0
0 0 0 779 1139020 -3104 0
0 0 0 798 1139818 -2306 0
54 1 S102 822 1140640 -1484 0
54 1 S102 836 1141476 -648 0
54 2 S102 850 1142326 202 0
54 2 S102 831 1143157 1033 0
54 2 S102 747 1143904 1780 0
54 2 S102 697 1144601 2477 0
54 2 S102 706 1145307 3183 0
54 2 S102 727 1146034 3910 0
54 2 S102 775 1146809 4685 0
54 2 S102 811 1147620 5496 0
54 2 S102 824 1148444 6320 0
0 0 0 823 1149267 -11309 0
0 0 0 809 1150076 -10500 0
0 0 0 784 1150860 -9716 0
0 0 0 765 1151625 -8951 0
0 0 0 738 1152363 -8213 0
0 0 0 701 1153064 -7512 0
0 0 0 656 1153720 -6856 0
0 0 0 628 1154348 -6228 0
0 0 0 621 1154969 -5607 0
0 0 0 644 1155613 -4963 0
0 0 0 703 1156316 -4260 0
0 0 0 822 1157138 -3438 0
0 0 0 856 1157994 -2582 0
55 1 S106 867 1158861 -1715 0
55 1 S106 874 1159735 -841 0
55 2 S106 877 1160612 36 0
55 2 S106 861 1161473 897 0
55 2 S106 843 1162316 1740 0
55 2 S106 816 1163132 2556 0
55 2 S106 783 1163915 3339 0
55 2 S106 716 1164631 4055 0
55 2 S106 685 1165316 4740 0
55 2 S106 687 1166003 5427 0
55 2 S106 717 1166720 6144 0
55 2 S106 777 1167497 6921 0
0 0 0 809 1168306 -6046 0
0 0 0 841 1169147 -5205 0
0 0 0 836 1169983 -4369 0
0 0 0 750 1170733 -3619 0
0 0 0 715 1171448 -2904 0
0 0 0 704 1172152 -2200 0
56 1 S116 707 1172859 -1493 0
56 1 S116 670 1173529 -823 0
56 1 S116 638 1174167 -185 0
56 2 S116 632 1174799 447 0
56 2 S116 640 1175439 1087 0
56 2 S116 681 1176120 1768 0
56 2 S116 768 1176888 2536 0
56 2 S116 826 1177714 3362 0
56 2 S116 846 1178560 4208 0
56 2 S116 861 1179421 5069 0
56 2 S116 863 1180284 5932 0
56 2 S116 846 1181130 6778 0
0 0 0 831 1181961 -7925 0
0 0 0 801 1182762 -7124 0
0 0 0 771 1183533 -6353 0
0 0 0 750 1184283 -5603 0
0 0 0 733 1185016 -4870 0
0 0 0 688 1185704 -4182 0
0 0 0 684 1186388 -3498 0
0 0 0 686 1187074 -2812 0
0 0 0 705 1187779 -2107 0
57 1 S106 731 1188510 -1376 0
57 1 S106 746 1189256 -630 0
57 2 S106 754 1190010 124 0
57 2 S106 724 1190734 848 0
57 2 S106 683 1191417 1531 0
57 2 S106 672 1192089 2203 0
57 2 S106 681 1192770 2884 0
57 2 S106 726 1193496 3610 0
57 2 S106 799 1194295 4409 0
57 2 S106 823 1195118 5232 0
57 2 S106 833 1195951 6065 0
57 2 S106 836 1196787 6901 0
0 0 0 812 1197599 -8252 0
0 0 0 790 1198389 -7462 0
0 0 0 769 1199158 -6693 0
0 0 0 727 1199885 -5966 0
0 0 0 676 1200561 -5290 0
0 0 0 654 1201215 -4636 0
0 0 0 646 1201861 -3990 0
0 0 0 680 1202541 -3310 0
0 0 0 783 1203324 -2527 0
58 1 S102 858 1204182 -1669 0
58 1 S102 892 1205074 -777 0
58 2 S102 892 1205966 115 0
58 2 S102 896 1206862 1011 0
58 2 S102 875 1207737 1886 0
58 2 S102 861 1208598 2747 0
58 2 S102 811 1209409 3558 0
58 2 S102 730 1210139 4288 0
58 2 S102 708 1210847 4996 0
58 2 S102 720 1211567 5716 0
58 2 S102 752 1212319 6468 0
0 0 0 793 1213112 -8323 0
0 0 0 814 1213926 -7509 0
0 0 0 812 1214738 -6697 0
0 0 0 807 1215545 -5890 0
0 0 0 800 1216345 -5090 0
0 0 0 741 1217086 -4349 0
0 0 0 668 1217754 -3681 0
0 0 0 649 1218403 -3032 0
0 0 0 642 1219045 -2390 0
59 1 S112 669 1219714 -1721 0
59 1 S112 737 1220451 -984 0
59 1 S112 799 1221250 -185 0
59 2 S112 829 1222079 644 0
59 2 S112 847 1222926 1491 0
59 2 S112 860 1223786 2351 0
59 2 S112 848 1224634 3199 0
59 2 S112 827 1225461 4026 0
59 2 S112 811 1226272 4837 0
59 2 S112 798 1227070 5635 0
59 2 S112 774 1227844 6409 0
0 0 0 726 1228570 -9841 0
0 0 0 699 1229269 -9142 0
0 0 0 701 1229970 -8441 0
0 0 0 728 1230698 -7713 0
0 0 0 780 1231478 -6933 0
0 0 0 782 1232260 -6151 0
0 0 0 765 1233025 -5386 0
0 0 0 743 1233768 -4643 0
0 0 0 676 1234444 -3967 0
0 0 0 643 1235087 -3324 0
0 0 0 633 1235720 -2691 0
0 0 0 643 1236363 -2048 0
60 1 S102 708 1237071 -1340 0
60 1 S102 814 1237885 -526 0
60 2 S102 875 1238760 349 0
60 2 S102 904 1239664 1253 0
60 2 S102 909 1240573 2162 0
60 2 S102 895 1241468 3057 0
60 2 S102 872 1242340 3929 0
60 2 S102 846 1243186 4775 0
60 2 S102 820 1244006 5595 0
60 2 S102 796 1244802 6391 0
0 0 0 758 1245560 -11236 0
0 0 0 689 1246249 -10547 0
0 0 0 649 1246898 -9898 0
0 0 0 650 1247548 -9248 0
0 0 0 677 1248225 -8571 0
0 0 0 721 1248946 -7850 0
0 0 0 767 1249713 -7083 0
0 0 0 794 1250507 -6289 0
0 0 0 820 1251327 -5469 0
0 0 0 822 1252149 -4647 0
0 0 0 820 1252969 -3827 0
0 0 0 815 1253784 -3012 0
0 0 0 805 1254589 -2207 0
61 1 S106 730 1255319 -1477 0
61 1 S106 670 1255989 -807 0
61 1 S106 657 1256646 -150 0
61 2 S106 662 1257308 512 0
61 2 S106 711 1258019 1223 0
61 2 S106 786 1258805 2009 0
61 2 S106 838 1259643 2847 0
61 2 S106 881 1260524 3728 0
61 2 S106 896 1261420 4624 0
61 2 S106 896 1262316 5520 0
61 2 S106 889 1263205 6409 0
0 0 0 867 1264072 -7960 0
0 0 0 789 1264861 -7171 0
0 0 0 717 1265578 -6454 0
0 0 0 729 1266307 -5725 0
0 0 0 756 1267063 -4969 0
0 0 0 766 1267829 -4203 0
0 0 0 754 1268583 -3449 0
0 0 0 755 1269338 -2694 0
62 1 S112 694 1270032 -2000 0
62 1 S112 692 1270724 -1308 0
62 1 S112 718 1271442 -590 0
62 2 S112 762 1272204 172 0
62 2 S112 776 1272980 948 0
62 2 S112 732 1273712 1680 0
62 2 S112 693 1274405 2373 0
62 2 S112 697 1275102 3070 0
62 2 S112 730 1275832 3800 0
62 2 S112 773 1276605 4573 0
62 2 S112 806 1277411 5379 0
62 2 S112 823 1278234 6202 0
0 0 0 829 1279063 -12797 0
0 0 0 816 1279879 -11981 0
0 0 0 785 1280664 -11196 0
0 0 0 687 1281351 -10509 0
0 0 0 649 1282000 -9860 0
0 0 0 656 1282656 -9204 0
0 0 0 672 1283328 -8532 0
0 0 0 729 1284057 -7803 0
0 0 0 802 1284859 -7001 0
0 0 0 814 1285673 -6187 0
0 0 0 834 1286507 -5353 0
0 0 0 847 1287354 -4506 0
0 0 0 834 1288188 -3672 0
0 0 0 831 1289019 -2841 0
0 0 0 809 1289828 -2032 0
63 1 S102 793 1290621 -1239 0
63 1 S102 771 1291392 -468 0
63 2 S102 760 1292152 292 0
63 2 S102 756 1292908 1048 0
63 2 S102 734 1293642 1782 0
63 2 S102 673 1294315 2455 0
63 2 S102 661 1294976 3116 0
63 2 S102 668 1295644 3784 0
63 2 S102 715 1296359 4499 0
63 2 S102 784 1297143 5283 0
63 2 S102 831 1297974 6114 0
63 2 S102 867 1298841 6981 0
0 0 0 888 1299729 -9124 0
0 0 0 875 1300604 -8249 0
0 0 0 854 1301458 -7395 0
0 0 0 828 1302286 -6567 0
0 0 0 791 1303077 -5776 0
0 0 0 749 1303826 -5027 0
0 0 0 694 1304520 -4333 0
0 0 0 639 1305159 -3694 0
0 0 0 623 1305782 -3071 0
0 0 0 622 1306404 -2449 0
64 1 S112 652 1307056 -1797 0
64 1 S112 771 1307827 -1026 0
64 1 S112 860 1308687 -166 0
64 2 S112 908 1309595 742 0
64 2 S112 927 1310522 1669 0
64 2 S112 925 1311447 2594 0
64 2 S112 916 1312363 3510 0
64 2 S112 894 1313257 4404 0
64 2 S112 870 1314127 5274 0
64 2 S112 831 1314958 6105 0
64 2 S112 741 1315699 6846 0
0 0 0 713 1316412 -6864 0
0 0 0 722 1317134 -6142 0
0 0 0 770 1317904 -5372 0
0 0 0 810 1318714 -4562 0
0 0 0 826 1319540 -3736 0
0 0 0 831 1320371 -2905 0
0 0 0 822 1321193 -2083 0
65 1 S106 772 1321965 -1311 0
65 1 S106 705 1322670 -606 0
65 2 S106 706 1323376 100 0
65 2 S106 747 1324123 847 0
65 2 S106 817 1324940 1664 0
65 2 S106 856 1325796 2520 0
65 2 S106 872 1326668 3392 0
65 2 S106 862 1327530 4254 0
65 2 S106 851 1328381 5105 0
65 2 S106 828 1329209 5933 0
65 2 S106 810 1330019 6743 0
0 0 0 773 1330792 -7305 0
0 0 0 686 1331478 -6619 0
0 0 0 672 1332150 -5947 0
0 0 0 703 1332853 -5244 0
0 0 0 742 1333595 -4502 0
0 0 0 799 1334394 -3703 0
0 0 0 833 1335227 -2870 0
0 0 0 839 1336066 -2031 0
66 1 S116 835 1336901 -1196 0
66 1 S116 827 1337728 -369 0
66 2 S116 815 1338543 446 0
66 2 S116 714 1339257 1160 0
66 2 S116 691 1339948 1851 0
66 2 S116 693 1340641 2544 0
66 2 S116 725 1341366 3269 0
66 2 S116 787 1342153 4056 0
66 2 S116 830 1342983 4886 0
66 2 S116 862 1343845 5748 0
66 2 S116 866 1344711 6614 0
0 0 0 862 1345573 -12418 0
0 0 0 832 1346405 -11586 0
0 0 0 800 1347205 -10786 0
0 0 0 765 1347970 -10021 0
0 0 0 706 1348676 -9315 0
0 0 0 669 1349345 -8646 0
0 0 0 659 1350004 -7987 0
0 0 0 668 1350672 -7319 0
0 0 0 710 1351382 -6609 0
0 0 0 749 1352131 -5860 0
0 0 0 749 1352880 -5111 0
0 0 0 765 1353645 -4346 0
0 0 0 787 1354432 -3559 0
0 0 0 826 1355258 -2733 0
67 1 S102 842 1356100 -1891 0
67 1 S102 842 1356942 -1049 0
67 1 S102 774 1357716 -275 0
67 2 S102 713 1358429 438 0
67 2 S102 725 1359154 1163 0
67 2 S102 754 1359908 1917 0
67 2 S102 815 1360723 2732 0
67 2 S102 839 1361562 3571 0
67 2 S102 850 1362412 4421 0
67 2 S102 845 1363257 5266 0
67 2 S102 833 1364090 6099 0
67 2 S102 808 1364898 6907 0
0 0 0 779 1365677 -7284 0
0 0 0 686 1366363 -6598 0
0 0 0 636 1366999 -5962 0
0 0 0 615 1367614 -5347 0
0 0 0 626 1368240 -4721 0
0 0 0 641 1368881 -4080 0
0 0 0 727 1369608 -3353 0
0 0 0 813 1370421 -2540 0
68 1 S106 861 1371282 -1679 0
68 1 S106 871 1372153 -808 0
68 2 S106 873 1373026 65 0
68 2 S106 886 1373912 951 0
68 2 S106 889 1374801 1840 0
68 2 S106 871 1375672 2711 0
68 2 S106 844 1376516 3555 0
68 2 S106 821 1377337 4376 0
68 2 S106 812 1378149 5188 0
68 2 S106 796 1378945 5984 0
68 2 S106 795 1379740 6779 0
0 0 0 802 1380542 -11219 0
0 0 0 802 1381344 -10417 0
0 0 0 794 1382138 -9623 0
0 0 0 793 1382931 -8830 0
0 0 0 776 1383707 -8054 0
0 0 0 743 1384450 -7311 0
0 0 0 695 1385145 -6616 0
0 0 0 663 1385808 -5953 0
0 0 0 660 1386468 -5293 0
0 0 0 663 1387131 -4630 0
0 0 0 717 1387848 -3913 0
0 0 0 802 1388650 -3111 0
0 0 0 858 1389508 -2253 0
69 1 S102 865 1390373 -1388 0
69 1 S102 867 1391240 -521 0
69 2 S102 853 1392093 332 0
69 2 S102 834 1392927 1166 0
69 2 S102 808 1393735 1974 0
69 2 S102 784 1394519 2758 0
69 2 S102 759 1395278 3517 0
69 2 S102 746 1396024 4263 0
69 2 S102 740 1396764 5003 0
69 2 S102 728 1397492 5731 0
69 2 S102 729 1398221 6460 0
0 0 0 724 1398945 -10373 0
0 0 0 684 1399629 -9689 0
0 0 0 654 1400283 -9035 0
0 0 0 663 1400946 -8372 0
0 0 0 686 1401632 -7686 0
0 0 0 759 1402391 -6927 0
0 0 0 771 1403162 -6156 0
0 0 0 774 1403936 -5382 0
0 0 0 772 1404708 -4610 0
0 0 0 756 1405464 -3854 0
0 0 0 703 1406167 -3151 0
0 0 0 675 1406842 -2476 0
70 1 S112 668 1407510 -1808 0
70 1 S112 685 1408195 -1123 0
70 1 S112 734 1408929 -389 0
70 2 S112 788 1409717 399 0
70 2 S112 812 1410529 1211 0
70 2 S112 823 1411352 2034 0
70 2 S112 812 1412164 2846 0
70 2 S112 793 1412957 3639 0
70 2 S112 773 1413730 4412 0
70 2 S112 753 1414483 5165 0
70 2 S112 709 1415192 5874 0
70 2 S112 674 1415866 6548 0
0 0 0 664 1416530 -12184 0
0 0 0 681 1417211 -11503 0
0 0 0 726 1417937 -10777 0
0 0 0 804 1418741 -9973 0
0 0 0 847 1419588 -9126 0
0 0 0 833 1420421 -8293 0
0 0 0 814 1421235 -7479 0
0 0 0 774 1422009 -6705 0
0 0 0 683 1422692 -6022 0
0 0 0 666 1423358 -5356 0
0 0 0 662 1424020 -4694 0
0 0 0 688 1424708 -4006 0
0 0 0 750 1425458 -3256 0
0 0 0 792 1426250 -2464 0
71 1 S116 803 1427053 -1661 0
71 1 S116 798 1427851 -863 0
71 1 S116 799 1428650 -64 0
71 2 S116 791 1429441 727 0
71 2 S116 787 1430228 1514 0
71 2 S116 774 1431002 2288 0
71 2 S116 757 1431759 3045 0
71 2 S116 753 1432512 3798 0
71 2 S116 754 1433266 4552 0
71 2 S116 726 1433992 5278 0
71 2 S116 710 1434702 5988 0
71 2 S116 721 1435423 6709 0
0 0 0 751 1436174 -9649 0
0 0 0 784 1436958 -8865 0
0 0 0 814 1437772 -8051 0
0 0 0 838 1438610 -7213 0
0 0 0 825 1439435 -6388 0
0 0 0 762 1440197 -5626 0
0 0 0 679 1440876 -4947 0
0 0 0 671 1441547 -4276 0
0 0 0 674 1442221 -3602 0
0 0 0 695 1442916 -2907 0
0 0 0 751 1443667 -2156 0
72 1 S102 763 1444430 -1393 0
72 1 S102 746 1445176 -647 0
72 2 S102 735 1445911 88 0
72 2 S102 741 1446652 829 0
72 2 S102 760 1447412 1589 0
72 2 S102 745 1448157 2334 0
72 2 S102 699 1448856 3033 0
72 2 S102 697 1449553 3730 0
72 2 S102 703 1450256 4433 0
72 2 S102 734 1450990 5167 0
72 2 S102 763 1451753 5930 0
72 2 S102 783 1452536 6713 0
0 0 0 800 1453336 -7474 0
0 0 0 785 1454121 -6689 0
0 0 0 767 1454888 -5922 0
0 0 0 701 1455589 -5221 0
0 0 0 699 1456288 -4522 0
0 0 0 682 1456970 -3840 0
0 0 0 689 1457659 -3151 0
0 0 0 713 1458372 -2438 0
73 1 S116 754 1459126 -1684 0
73 1 S116 754 1459880 -930 0
73 1 S116 700 1460580 -230 0
73 2 S116 702 1461282 472 0
73 2 S116 731 1462013 1203 0
73 2 S116 818 1462831 2021 0
73 2 S116 894 1463725 2915 0
73 2 S116 911 1464636 3826 0
73 2 S116 899 1465535 4725 0
73 2 S116 873 1466408 5598 0
73 2 S116 833 1467241 6431 0
0 0 0 737 1467978 -10687 0
0 0 0 706 1468684 -9981 0
0 0 0 697 1469381 -9284 0
0 0 0 717 1470098 -8567 0
0 0 0 785 1470883 -7782 0
0 0 0 826 1471709 -6956 0
0 0 0 819 1472528 -6137 0
0 0 0 808 1473336 -5329 0
0 0 0 787 1474123 -4542 0
0 0 0 713 1474836 -3829 0
0 0 0 682 1475518 -3147 0
0 0 0 683 1476201 -2464 0
74 1 S106 699 1476900 -1765 0
74 1 S106 753 1477653 -1012 0
74 1 S106 801 1478454 -211 0
74 2 S106 817 1479271 606 0
74 2 S106 815 1480086 1421 0
74 2 S106 814 1480900 2235 0
74 2 S106 797 1481697 3032 0
74 2 S106 781 1482478 3813 0
74 2 S106 755 1483233 4568 0
74 2 S106 704 1483937 5272 0
74 2 S106 655 1484592 5927 0
74 2 S106 645 1485237 6572 0
0 0 0 655 1485892 -7793 0
0 0 0 694 1486586 -7099 0
0 0 0 767 1487353 -6332 0
0 0 0 818 1488171 -5514 0
0 0 0 838 1489009 -4676 0
0 0 0 823 1489832 -3853 0
0 0 0 794 1490626 -3059 0
0 0 0 756 1491382 -2303 0
75 1 S112 690 1492072 -1613 0
75 1 S112 651 1492723 -962 0
75 1 S112 638 1493361 -324 0
75 2 S112 635 1493996 311 0
75 2 S112 675 1494671 986 0
75 2 S112 763 1495434 1749 0
75 2 S112 815 1496249 2564 0
75 2 S112 843 1497092 3407 0
75 2 S112 839 1497931 4246 0
75 2 S112 836 1498767 5082 0
75 2 S112 823 1499590 5905 0
75 2 S112 802 1500392 6707 0
0 0 0 783 1501175 -7497 0
0 0 0 754 1501929 -6743 0
0 0 0 698 1502627 -6045 0
0 0 0 650 1503277 -5395 0
0 0 0 657 1503934 -4738 0
0 0 0 656 1504590 -4082 0
0 0 0 706 1505296 -3376 0
0 0 0 768 1506064 -2608 0
76 1 S116 813 1506877 -1795 0
76 1 S116 827 1507704 -968 0
76 1 S116 836 1508540 -132 0
76 2 S116 832 1509372 700 0
76 2 S116 821 1510193 1521 0
76 2 S116 743 1510936 2264 0
76 2 S116 719 1511655 2983 0
76 2 S116 717 1512372 3700 0
76 2 S116 748 1513120 4448 0
76 2 S116 778 1513898 5226 0
76 2 S116 799 1514697 6025 0
76 2 S116 813 1515510 6838 0
0 0 0 827 1516337 -6360 0
0 0 0 821 1517158 -5539 0
0 0 0 791 1517949 -4748 0
0 0 0 712 1518661 -4036 0
0 0 0 654 1519315 -3382 0
0 0 0 646 1519961 -2736 0
0 0 0 654 1520615 -2082 0
77 1 S106 706 1521321 -1376 0
77 1 S106 764 1522085 -612 0
77 2 S106 796 1522881 184 0
77 2 S106 813 1523694 997 0
77 2 S106 827 1524521 1824 0
77 2 S106 834 1525355 2658 0
77 2 S106 824 1526179 3482 0
77 2 S106 796 1526975 4278 0
77 2 S106 778 1527753 5056 0
77 2 S106 750 1528503 5806 0
77 2 S106 686 1529189 6492 0
0 0 0 659 1529848 -10439 0
0 0 0 668 1530516 -9771 0
0 0 0 698 1531214 -9073 0
0 0 0 736 1531950 -8337 0
0 0 0 793 1532743 -7544 0
0 0 0 806 1533549 -6738 0
0 0 0 800 1534349 -5938 0
0 0 0 774 1535123 -5164 0
0 0 0 731 1535854 -4433 0
0 0 0 661 1536515 -3772 0
0 0 0 632 1537147 -3140 0
0 0 0 626 1537773 -2514 0
78 1 S112 614 1538387 -1900 0
78 1 S112 667 1539054 -1233 0
78 1 S112 755 1539809 -478 0
78 2 S112 797 1540606 319 0
78 2 S112 844 1541450 1163 0
78 2 S112 861 1542311 2024 0
78 2 S112 876 1543187 2900 0
78 2 S112 876 1544063 3776 0
78 2 S112 856 1544919 4632 0
78 2 S112 819 1545738 5451 0
78 2 S112 723 1546461 6174 0
78 2 S112 693 1547154 6867 0
0 0 0 682 1547836 -10571 0
0 0 0 710 1548546 -9861 0
0 0 0 747 1549293 -9114 0
0 0 0 777 1550070 -8337 0
0 0 0 769 1550839 -7568 0
0 0 0 763 1551602 -6805 0
0 0 0 755 1552357 -6050 0
0 0 0 675 1553032 -5375 0
0 0 0 636 1553668 -4739 0
0 0 0 623 1554291 -4116 0
0 0 0 628 1554919 -3488 0
0 0 0 640 1555559 -2848 0
0 0 0 690 1556249 -2158 0
79 1 S102 756 1557005 -1402 0
79 1 S102 782 1557787 -620 0
79 2 S102 795 1558582 175 0
79 2 S102 790 1559372 965 0
79 2 S102 786 1560158 1751 0
79 2 S102 780 1560938 2531 0
79 2 S102 763 1561701 3294 0
79 2 S102 735 1562436 4029 0
79 2 S102 718 1563154 4747 0
79 2 S102 708 1563862 5455 0
79 2 S102 703 1564565 6158 0
79 2 S102 699 1565264 6857 0
0 0 0 685 1565949 -8423 0
0 0 0 662 1566611 -7761 0
0 0 0 667 1567278 -7094 0
0 0 0 685 1567963 -6409 0
0 0 0 703 1568666 -5706 0
0 0 0 746 1569412 -4960 0
0 0 0 721 1570133 -4239 0
0 0 0 665 1570798 -3574 0
0 0 0 656 1571454 -2918 0
0 0 0 664 1572118 -2254 0
80 1 S116 669 1572787 -1585 0
80 1 S116 696 1573483 -889 0
80 1 S116 717 1574200 -172 0
80 2 S116 746 1574946 574 0
80 2 S116 754 1575700 1328 0
80 2 S116 762 1576462 2090 0
80 2 S116 757 1577219 2847 0
80 2 S116 731 1577950 3578 0
80 2 S116 675 1578625 4253 0
80 2 S116 668 1579293 4921 0
80 2 S116 664 1579957 5585 0
80 2 S116 685 1580642 6270 0
80 2 S116 720 1581362 6990 0
