T_0022
BeatCount Mean SD BeatCountNoOutliers MeanNoOutliers SDNoOutliers
1923 794,681747269891 102,681344440015 1902 791,34174553102 98,1580273692987

Trial TrialStatus Trialtype IBI AbsPosition RelPosition Outlier
0 0 0 822 837 -14597 0
0 0 0 781 1618 -13816 0
0 0 0 764 2382 -13052 0
0 0 0 851 3233 -12201 0
0 0 0 996 4229 -11205 0
0 0 0 978 5207 -10227 0
0 0 0 904 6111 -9323 0
0 0 0 827 6938 -8496 0
0 0 0 750 7688 -7746 0
0 0 0 747 8435 -6999 0
0 0 0 838 9273 -6161 0
0 0 0 941 10214 -5220 0
0 0 0 992 11206 -4228 0
0 0 0 959 12165 -3269 0
0 0 0 866 13031 -2403 0
1 1 S112 810 13841 -1593 0
1 1 S112 780 14621 -813 0
1 1 S112 790 15411 -23 0
1 2 S112 925 16336 902 0
1 2 S112 937 17273 1839 0
1 2 S112 929 18202 2768 0
1 2 S112 839 19041 3607 0
1 2 S112 756 19797 4363 0
1 2 S112 727 20524 5090 0
1 2 S112 801 21325 5891 0
1 2 S112 858 22183 6749 0
0 0 0 913 23096 -10459 0
0 0 0 881 23977 -9578 0
0 0 0 794 24771 -8784 0
0 0 0 727 25498 -8057 0
0 0 0 693 26191 -7364 0
0 0 0 713 26904 -6651 0
0 0 0 807 27711 -5844 0
0 0 0 961 28672 -4883 0
0 0 0 923 29595 -3960 0
0 0 0 875 30470 -3085 0
0 0 0 790 31260 -2295 0
2 1 S102 706 31966 -1589 0
2 1 S102 684 32650 -905 0
2 1 S102 694 33344 -211 0
2 2 S102 725 34069 514 0
2 2 S102 889 34958 1403 0
2 2 S102 862 35820 2265 0
2 2 S102 852 36672 3117 0
2 2 S102 790 37462 3907 0
2 2 S102 770 38232 4677 0
2 2 S102 678 38910 5355 0
2 2 S102 670 39580 6025 0
2 2 S102 665 40245 6690 0
0 0 0 674 40919 -8766 0
0 0 0 765 41684 -8001 0
0 0 0 977 42661 -7024 0
0 0 0 900 43561 -6124 0
0 0 0 784 44345 -5340 0
0 0 0 686 45031 -4654 0
0 0 0 661 45692 -3993 0
0 0 0 624 46316 -3369 0
0 0 0 595 46911 -2774 0
0 0 0 585 47496 -2189 0
3 1 S116 877 48373 -1312 0
3 1 S116 966 49339 -346 0
3 2 S116 931 50270 585 0
3 2 S116 855 51125 1440 0
3 2 S116 830 51955 2270 0
3 2 S116 807 52762 3077 0
3 2 S116 924 53686 4001 0
3 2 S116 989 54675 4990 0
3 2 S116 947 55622 5937 0
3 2 S116 922 56544 6859 0
0 0 0 845 57389 -11030 0
0 0 0 808 58197 -10222 0
0 0 0 820 59017 -9402 0
0 0 0 832 59849 -8570 0
0 0 0 674 60523 -7896 0
0 0 0 705 61228 -7191 0
0 0 0 732 61960 -6459 0
0 0 0 1055 63015 -5404 0
0 0 0 1072 64087 -4332 1
0 0 0 993 65080 -3339 0
0 0 0 957 66037 -2382 0
4 1 S106 906 66943 -1476 0
4 1 S106 863 67806 -613 0
4 2 S106 743 68549 130 0
4 2 S106 686 69235 816 0
4 2 S106 685 69920 1501 0
4 2 S106 805 70725 2306 0
4 2 S106 1023 71748 3329 0
4 2 S106 997 72745 4326 0
4 2 S106 976 73721 5302 0
4 2 S106 890 74611 6192 0
4 2 S106 813 75424 7005 0
0 0 0 825 76249 -6709 0
0 0 0 869 77118 -5840 0
0 0 0 926 78044 -4914 0
0 0 0 912 78956 -4002 0
0 0 0 818 79774 -3184 0
0 0 0 738 80512 -2446 0
5 1 S116 700 81212 -1746 0
5 1 S116 709 81921 -1037 0
5 1 S116 791 82712 -246 0
5 2 S116 1031 83743 785 0
5 2 S116 986 84729 1771 0
5 2 S116 935 85664 2706 0
5 2 S116 875 86539 3581 0
5 2 S116 785 87324 4366 0
5 2 S116 713 88037 5079 0
5 2 S116 691 88728 5770 0
5 2 S116 710 89438 6480 0
0 0 0 815 90253 -9018 0
0 0 0 991 91244 -8027 0
0 0 0 949 92193 -7078 0
0 0 0 871 93064 -6207 0
0 0 0 755 93819 -5452 0
0 0 0 706 94525 -4746 0
0 0 0 720 95245 -4026 0
0 0 0 828 96073 -3198 0
0 0 0 1024 97097 -2174 0
6 1 S106 997 98094 -1177 0
6 1 S106 935 99029 -242 0
6 2 S106 843 99872 601 0
6 2 S106 754 100626 1355 0
6 2 S106 724 101350 2079 0
6 2 S106 758 102108 2837 0
6 2 S106 821 102929 3658 0
6 2 S106 910 103839 4568 0
6 2 S106 931 104770 5499 0
6 2 S106 950 105720 6449 0
0 0 0 883 106603 -11153 0
0 0 0 811 107414 -10342 0
0 0 0 836 108250 -9506 0
0 0 0 851 109101 -8655 0
0 0 0 778 109879 -7877 0
0 0 0 695 110574 -7182 0
0 0 0 695 111269 -6487 0
0 0 0 675 111944 -5812 0
0 0 0 667 112611 -5145 0
0 0 0 682 113293 -4463 0
0 0 0 1115 114408 -3348 1
0 0 0 1005 115413 -2343 0
7 1 S102 873 116286 -1470 0
7 1 S102 804 117090 -666 0
7 2 S102 805 117895 139 0
7 2 S102 945 118840 1084 0
7 2 S102 988 119828 2072 0
7 2 S102 967 120795 3039 0
7 2 S102 908 121703 3947 0
7 2 S102 767 122470 4714 0
7 2 S102 692 123162 5406 0
7 2 S102 701 123863 6107 0
7 2 S102 749 124612 6856 0
0 0 0 1095 125707 -8611 1
0 0 0 1007 126714 -7604 0
0 0 0 990 127704 -6614 0
0 0 0 943 128647 -5671 0
0 0 0 876 129523 -4795 0
0 0 0 782 130305 -4013 0
0 0 0 769 131074 -3244 0
0 0 0 825 131899 -2419 0
8 1 S112 928 132827 -1491 0
8 1 S112 945 133772 -546 0
8 2 S112 892 134664 346 0
8 2 S112 826 135490 1172 0
8 2 S112 793 136283 1965 0
8 2 S112 772 137055 2737 0
8 2 S112 860 137915 3597 0
8 2 S112 1011 138926 4608 0
8 2 S112 1036 139962 5644 0
8 2 S112 1027 140989 6671 0
0 0 0 947 141936 -7303 0
0 0 0 909 142845 -6394 0
0 0 0 953 143798 -5441 0
0 0 0 946 144744 -4495 0
0 0 0 928 145672 -3567 0
0 0 0 883 146555 -2684 0
9 1 S116 783 147338 -1901 0
9 1 S116 777 148115 -1124 0
9 1 S116 1020 149135 -104 0
9 2 S116 1053 150188 949 0
9 2 S116 1020 151208 1969 0
9 2 S116 979 152187 2948 0
9 2 S116 918 153105 3866 0
9 2 S116 835 153940 4701 0
9 2 S116 787 154727 5488 0
9 2 S116 829 155556 6317 0
0 0 0 913 156469 -11686 0
0 0 0 930 157399 -10756 0
0 0 0 911 158310 -9845 0
0 0 0 836 159146 -9009 0
0 0 0 809 159955 -8200 0
0 0 0 725 160680 -7475 0
0 0 0 727 161407 -6748 0
0 0 0 806 162213 -5942 0
0 0 0 1059 163272 -4883 0
0 0 0 990 164262 -3893 0
0 0 0 942 165204 -2951 0
0 0 0 829 166033 -2122 0
10 1 S102 792 166825 -1330 0
10 1 S102 787 167612 -543 0
10 2 S102 850 168462 307 0
10 2 S102 959 169421 1266 0
10 2 S102 959 170380 2225 0
10 2 S102 855 171235 3080 0
10 2 S102 775 172010 3855 0
10 2 S102 787 172797 4642 0
10 2 S102 831 173628 5473 0
10 2 S102 901 174529 6374 0
0 0 0 864 175393 -10815 0
0 0 0 858 176251 -9957 0
0 0 0 753 177004 -9204 0
0 0 0 702 177706 -8502 0
0 0 0 668 178374 -7834 0
0 0 0 647 179021 -7187 0
0 0 0 640 179661 -6547 0
0 0 0 640 180301 -5907 0
0 0 0 1084 181385 -4823 1
0 0 0 1021 182406 -3802 0
0 0 0 992 183398 -2810 0
11 1 S112 960 184358 -1850 0
11 1 S112 885 185243 -965 0
11 1 S112 795 186038 -170 0
11 2 S112 745 186783 575 0
11 2 S112 726 187509 1301 0
11 2 S112 787 188296 2088 0
11 2 S112 916 189212 3004 0
11 2 S112 900 190112 3904 0
11 2 S112 877 190989 4781 0
11 2 S112 842 191831 5623 0
11 2 S112 824 192655 6447 0
0 0 0 775 193430 -7716 0
0 0 0 737 194167 -6979 0
0 0 0 737 194904 -6242 0
0 0 0 788 195692 -5454 0
0 0 0 926 196618 -4528 0
0 0 0 881 197499 -3647 0
0 0 0 857 198356 -2790 0
12 1 S116 810 199166 -1980 0
12 1 S116 784 199950 -1196 0
12 1 S116 827 200777 -369 0
12 2 S116 1039 201816 670 0
12 2 S116 996 202812 1666 0
12 2 S116 941 203753 2607 0
12 2 S116 910 204663 3517 0
12 2 S116 813 205476 4330 0
12 2 S116 754 206230 5084 0
12 2 S116 751 206981 5835 0
12 2 S116 829 207810 6664 0
0 0 0 974 208784 -11609 0
0 0 0 955 209739 -10654 0
0 0 0 943 210682 -9711 0
0 0 0 866 211548 -8845 0
0 0 0 801 212349 -8044 0
0 0 0 800 213149 -7244 0
0 0 0 783 213932 -6461 0
0 0 0 741 214673 -5720 0
0 0 0 701 215374 -5019 0
0 0 0 669 216043 -4350 0
0 0 0 659 216702 -3691 0
0 0 0 660 217362 -3031 0
0 0 0 648 218010 -2383 0
13 1 S112 651 218661 -1732 0
13 1 S112 782 219443 -950 0
13 1 S112 829 220272 -121 0
13 2 S112 773 221045 652 0
13 2 S112 709 221754 1361 0
13 2 S112 695 222449 2056 0
13 2 S112 712 223161 2768 0
13 2 S112 806 223967 3574 0
13 2 S112 831 224798 4405 0
13 2 S112 877 225675 5282 0
13 2 S112 861 226536 6143 0
13 2 S112 833 227369 6976 0
0 0 0 786 228155 -10823 0
0 0 0 708 228863 -10115 0
0 0 0 732 229595 -9383 0
0 0 0 736 230331 -8647 0
0 0 0 743 231074 -7904 0
0 0 0 756 231830 -7148 0
0 0 0 688 232518 -6460 0
0 0 0 689 233207 -5771 0
0 0 0 753 233960 -5018 0
0 0 0 813 234773 -4205 0
0 0 0 1064 235837 -3141 1
0 0 0 965 236802 -2176 0
14 1 S106 851 237653 -1325 0
14 1 S106 732 238385 -593 0
14 2 S106 710 239095 117 0
14 2 S106 758 239853 875 0
14 2 S106 946 240799 1821 0
14 2 S106 970 241769 2791 0
14 2 S106 943 242712 3734 0
14 2 S106 881 243593 4615 0
14 2 S106 767 244360 5382 0
14 2 S106 718 245078 6100 0
14 2 S106 745 245823 6845 0
0 0 0 779 246602 -10927 0
0 0 0 898 247500 -10029 0
0 0 0 893 248393 -9136 0
0 0 0 797 249190 -8339 0
0 0 0 783 249973 -7556 0
0 0 0 819 250792 -6737 0
0 0 0 850 251642 -5887 0
0 0 0 802 252444 -5085 0
0 0 0 749 253193 -4336 0
0 0 0 720 253913 -3616 0
0 0 0 705 254618 -2911 0
0 0 0 737 255355 -2174 0
15 1 S116 824 256179 -1350 0
15 1 S116 906 257085 -444 0
15 2 S116 902 257987 458 0
15 2 S116 783 258770 1241 0
15 2 S116 729 259499 1970 0
15 2 S116 707 260206 2677 0
15 2 S116 742 260948 3419 0
15 2 S116 789 261737 4208 0
15 2 S116 876 262613 5084 0
15 2 S116 899 263512 5983 0
15 2 S116 861 264373 6844 0
0 0 0 795 265168 -9519 0
0 0 0 769 265937 -8750 0
0 0 0 779 266716 -7971 0
0 0 0 837 267553 -7134 0
0 0 0 859 268412 -6275 0
0 0 0 812 269224 -5463 0
0 0 0 749 269973 -4714 0
0 0 0 703 270676 -4011 0
0 0 0 697 271373 -3314 0
0 0 0 718 272091 -2596 0
16 1 S116 950 273041 -1646 0
16 1 S116 975 274016 -671 0
16 2 S116 938 274954 267 0
16 2 S116 908 275862 1175 0
16 2 S116 845 276707 2020 0
16 2 S116 735 277442 2755 0
16 2 S116 713 278155 3468 0
16 2 S116 737 278892 4205 0
16 2 S116 841 279733 5046 0
16 2 S116 910 280643 5956 0
16 2 S116 930 281573 6886 0
0 0 0 895 282468 -8599 0
0 0 0 824 283292 -7775 0
0 0 0 745 284037 -7030 0
0 0 0 742 284779 -6288 0
0 0 0 734 285513 -5554 0
0 0 0 736 286249 -4818 0
0 0 0 728 286977 -4090 0
0 0 0 697 287674 -3393 0
0 0 0 725 288399 -2668 0
17 1 S106 820 289219 -1848 0
17 1 S106 867 290086 -981 0
17 1 S106 821 290907 -160 0
17 2 S106 774 291681 614 0
17 2 S106 728 292409 1342 0
17 2 S106 728 293137 2070 0
17 2 S106 757 293894 2827 0
17 2 S106 820 294714 3647 0
17 2 S106 883 295597 4530 0
17 2 S106 857 296454 5387 0
17 2 S106 787 297241 6174 0
17 2 S106 720 297961 6894 0
0 0 0 713 298674 -10016 0
0 0 0 744 299418 -9272 0
0 0 0 829 300247 -8443 0
0 0 0 862 301109 -7581 0
0 0 0 853 301962 -6728 0
0 0 0 783 302745 -5945 0
0 0 0 717 303462 -5228 0
0 0 0 698 304160 -4530 0
0 0 0 706 304866 -3824 0
0 0 0 778 305644 -3046 0
0 0 0 815 306459 -2231 0
18 1 S102 887 307346 -1344 0
18 1 S102 847 308193 -497 0
18 2 S102 768 308961 271 0
18 2 S102 709 309670 980 0
18 2 S102 674 310344 1654 0
18 2 S102 667 311011 2321 0
18 2 S102 676 311687 2997 0
18 2 S102 768 312455 3765 0
18 2 S102 984 313439 4749 0
18 2 S102 975 314414 5724 0
18 2 S102 895 315309 6619 0
0 0 0 781 316090 -7172 0
0 0 0 731 316821 -6441 0
0 0 0 739 317560 -5702 0
0 0 0 786 318346 -4916 0
0 0 0 761 319107 -4155 0
0 0 0 689 319796 -3466 0
0 0 0 674 320470 -2792 0
0 0 0 672 321142 -2120 0
19 1 S106 719 321861 -1401 0
19 1 S106 766 322627 -635 0
19 2 S106 716 323343 81 0
19 2 S106 677 324020 758 0
19 2 S106 640 324660 1398 0
19 2 S106 627 325287 2025 0
19 2 S106 629 325916 2654 0
19 2 S106 642 326558 3296 0
19 2 S106 760 327318 4056 0
19 2 S106 847 328165 4903 0
19 2 S106 877 329042 5780 0
19 2 S106 880 329922 6660 0
0 0 0 799 330721 -10562 0
0 0 0 715 331436 -9847 0
0 0 0 723 332159 -9124 0
0 0 0 707 332866 -8417 0
0 0 0 705 333571 -7712 0
0 0 0 733 334304 -6979 0
0 0 0 711 335015 -6268 0
0 0 0 700 335715 -5568 0
0 0 0 666 336381 -4902 0
0 0 0 748 337129 -4154 0
0 0 0 887 338016 -3267 0
0 0 0 1034 339050 -2233 0
20 1 S112 949 339999 -1284 0
20 1 S112 891 340890 -393 0
20 2 S112 789 341679 396 0
20 2 S112 767 342446 1163 0
20 2 S112 808 343254 1971 0
20 2 S112 887 344141 2858 0
20 2 S112 973 345114 3831 0
20 2 S112 937 346051 4768 0
20 2 S112 874 346925 5642 0
20 2 S112 774 347699 6416 0
0 0 0 725 348424 -10001 0
0 0 0 758 349182 -9243 0
0 0 0 809 349991 -8434 0
0 0 0 948 350939 -7486 0
0 0 0 881 351820 -6605 0
0 0 0 804 352624 -5801 0
0 0 0 826 353450 -4975 0
0 0 0 914 354364 -4061 0
0 0 0 916 355280 -3145 0
0 0 0 865 356145 -2280 0
21 1 S106 774 356919 -1506 0
21 1 S106 734 357653 -772 0
21 1 S106 722 358375 -50 0
21 2 S106 750 359125 700 0
21 2 S106 881 360006 1581 0
21 2 S106 917 360923 2498 0
21 2 S106 889 361812 3387 0
21 2 S106 803 362615 4190 0
21 2 S106 742 363357 4932 0
21 2 S106 754 364111 5686 0
21 2 S106 818 364929 6504 0
0 0 0 939 365868 -10760 0
0 0 0 914 366782 -9846 0
0 0 0 869 367651 -8977 0
0 0 0 763 368414 -8214 0
0 0 0 769 369183 -7445 0
0 0 0 761 369944 -6684 0
0 0 0 734 370678 -5950 0
0 0 0 693 371371 -5257 0
0 0 0 669 372040 -4588 0
0 0 0 671 372711 -3917 0
0 0 0 734 373445 -3183 0
0 0 0 940 374385 -2243 0
22 1 S116 911 375296 -1332 0
22 1 S116 899 376195 -433 0
22 2 S116 849 377044 416 0
22 2 S116 770 377814 1186 0
22 2 S116 760 378574 1946 0
22 2 S116 762 379336 2708 0
22 2 S116 834 380170 3542 0
22 2 S116 892 381062 4434 0
22 2 S116 927 381989 5361 0
22 2 S116 886 382875 6247 0
0 0 0 813 383688 -9833 0
0 0 0 798 384486 -9035 0
0 0 0 811 385297 -8224 0
0 0 0 840 386137 -7384 0
0 0 0 877 387014 -6507 0
0 0 0 809 387823 -5698 0
0 0 0 739 388562 -4959 0
0 0 0 706 389268 -4253 0
0 0 0 709 389977 -3544 0
0 0 0 702 390679 -2842 0
0 0 0 716 391395 -2126 0
23 1 S112 674 392069 -1452 0
23 1 S112 758 392827 -694 0
23 2 S112 829 393656 135 0
23 2 S112 831 394487 966 0
23 2 S112 785 395272 1751 0
23 2 S112 689 395961 2440 0
23 2 S112 681 396642 3121 0
23 2 S112 676 397318 3797 0
23 2 S112 719 398037 4516 0
23 2 S112 826 398863 5342 0
23 2 S112 849 399712 6191 0
0 0 0 864 400576 -9375 0
0 0 0 778 401354 -8597 0
0 0 0 727 402081 -7870 0
0 0 0 771 402852 -7099 0
0 0 0 768 403620 -6331 0
0 0 0 774 404394 -5557 0
0 0 0 739 405133 -4818 0
0 0 0 655 405788 -4163 0
0 0 0 669 406457 -3494 0
0 0 0 692 407149 -2802 0
0 0 0 752 407901 -2050 0
24 1 S106 988 408889 -1062 0
24 1 S106 961 409850 -101 0
24 2 S106 916 410766 815 0
24 2 S106 880 411646 1695 0
24 2 S106 759 412405 2454 0
24 2 S106 694 413099 3148 0
24 2 S106 685 413784 3833 0
24 2 S106 711 414495 4544 0
24 2 S106 858 415353 5402 0
24 2 S106 960 416313 6362 0
0 0 0 946 417259 -8972 0
0 0 0 895 418154 -8077 0
0 0 0 794 418948 -7283 0
0 0 0 796 419744 -6487 0
0 0 0 806 420550 -5681 0
0 0 0 788 421338 -4893 0
0 0 0 776 422114 -4117 0
0 0 0 738 422852 -3379 0
0 0 0 715 423567 -2664 0
25 1 S102 679 424246 -1985 0
25 1 S102 729 424975 -1256 0
25 1 S102 818 425793 -438 0
25 2 S102 927 426720 489 0
25 2 S102 943 427663 1432 0
25 2 S102 903 428566 2335 0
25 2 S102 761 429327 3096 0
25 2 S102 694 430021 3790 0
25 2 S102 664 430685 4454 0
25 2 S102 664 431349 5118 0
25 2 S102 725 432074 5843 0
25 2 S102 1061 433135 6904 1
0 0 0 963 434098 -6290 0
0 0 0 938 435036 -5352 0
0 0 0 865 435901 -4487 0
0 0 0 774 436675 -3713 0
0 0 0 737 437412 -2976 0
0 0 0 708 438120 -2268 0
26 1 S116 707 438827 -1561 0
26 1 S116 710 439537 -851 0
26 1 S116 688 440225 -163 0
26 2 S116 674 440899 511 0
26 2 S116 643 441542 1154 0
26 2 S116 615 442157 1769 0
26 2 S116 621 442778 2390 0
26 2 S116 685 443463 3075 0
26 2 S116 721 444184 3796 0
26 2 S116 639 444823 4435 0
26 2 S116 644 445467 5079 0
26 2 S116 745 446212 5824 0
26 2 S116 891 447103 6715 0
0 0 0 962 448065 -6896 0
0 0 0 964 449029 -5932 0
0 0 0 881 449910 -5051 0
0 0 0 796 450706 -4255 0
0 0 0 799 451505 -3456 0
0 0 0 817 452322 -2639 0
27 1 S106 792 453114 -1847 0
27 1 S106 719 453833 -1128 0
27 1 S106 690 454523 -438 0
27 2 S106 692 455215 254 0
27 2 S106 705 455920 959 0
27 2 S106 869 456789 1828 0
27 2 S106 915 457704 2743 0
27 2 S106 926 458630 3669 0
27 2 S106 869 459499 4538 0
27 2 S106 777 460276 5315 0
27 2 S106 717 460993 6032 0
27 2 S106 730 461723 6762 0
0 0 0 777 462500 -7050 0
0 0 0 895 463395 -6155 0
0 0 0 960 464355 -5195 0
0 0 0 843 465198 -4352 0
0 0 0 733 465931 -3619 0
0 0 0 699 466630 -2920 0
0 0 0 696 467326 -2224 0
28 1 S102 727 468053 -1497 0
28 1 S102 870 468923 -627 0
28 2 S102 959 469882 332 0
28 2 S102 944 470826 1276 0
28 2 S102 923 471749 2199 0
28 2 S102 860 472609 3059 0
28 2 S102 766 473375 3825 0
28 2 S102 710 474085 4535 0
28 2 S102 677 474762 5212 0
28 2 S102 685 475447 5897 0
28 2 S102 752 476199 6649 0
0 0 0 996 477195 -10260 0
0 0 0 956 478151 -9304 0
0 0 0 883 479034 -8421 0
0 0 0 751 479785 -7670 0
0 0 0 696 480481 -6974 0
0 0 0 679 481160 -6295 0
0 0 0 701 481861 -5594 0
0 0 0 775 482636 -4819 0
0 0 0 966 483602 -3853 0
0 0 0 954 484556 -2899 0
29 1 S112 917 485473 -1982 0
29 1 S112 817 486290 -1165 0
29 1 S112 728 487018 -437 0
29 2 S112 689 487707 252 0
29 2 S112 682 488389 934 0
29 2 S112 717 489106 1651 0
29 2 S112 962 490068 2613 0
29 2 S112 971 491039 3584 0
29 2 S112 961 492000 4545 0
29 2 S112 927 492927 5472 0
29 2 S112 882 493809 6354 0
0 0 0 826 494635 -7856 0
0 0 0 740 495375 -7116 0
0 0 0 710 496085 -6406 0
0 0 0 717 496802 -5689 0
0 0 0 804 497606 -4885 0
0 0 0 904 498510 -3981 0
0 0 0 898 499408 -3083 0
0 0 0 850 500258 -2233 0
30 1 S112 769 501027 -1464 0
30 1 S112 730 501757 -734 0
30 2 S112 751 502508 17 0
30 2 S112 781 503289 798 0
30 2 S112 862 504151 1660 0
30 2 S112 872 505023 2532 0
30 2 S112 833 505856 3365 0
30 2 S112 762 506618 4127 0
30 2 S112 758 507376 4885 0
30 2 S112 785 508161 5670 0
30 2 S112 869 509030 6539 0
0 0 0 865 509895 -9390 0
0 0 0 831 510726 -8559 0
0 0 0 755 511481 -7804 0
0 0 0 794 512275 -7010 0
0 0 0 802 513077 -6208 0
0 0 0 821 513898 -5387 0
0 0 0 823 514721 -4564 0
0 0 0 748 515469 -3816 0
0 0 0 697 516166 -3119 0
0 0 0 708 516874 -2411 0
31 1 S106 727 517601 -1684 0
31 1 S106 930 518531 -754 0
31 2 S106 1003 519534 249 0
31 2 S106 968 520502 1217 0
31 2 S106 914 521416 2131 0
31 2 S106 829 522245 2960 0
31 2 S106 750 522995 3710 0
31 2 S106 738 523733 4448 0
31 2 S106 750 524483 5198 0
31 2 S106 909 525392 6107 0
0 0 0 928 526320 -9527 0
0 0 0 913 527233 -8614 0
0 0 0 824 528057 -7790 0
0 0 0 771 528828 -7019 0
0 0 0 758 529586 -6261 0
0 0 0 757 530343 -5504 0
0 0 0 751 531094 -4753 0
0 0 0 719 531813 -4034 0
0 0 0 691 532504 -3343 0
0 0 0 669 533173 -2674 0
0 0 0 662 533835 -2012 0
32 1 S102 680 534515 -1332 0
32 1 S102 831 535346 -501 0
32 2 S102 908 536254 407 0
32 2 S102 932 537186 1339 0
32 2 S102 806 537992 2145 0
32 2 S102 725 538717 2870 0
32 2 S102 670 539387 3540 0
32 2 S102 667 540054 4207 0
32 2 S102 640 540694 4847 0
32 2 S102 631 541325 5478 0
32 2 S102 650 541975 6128 0
32 2 S102 686 542661 6814 0
0 0 0 763 543424 -10361 0
0 0 0 831 544255 -9530 0
0 0 0 803 545058 -8727 0
0 0 0 713 545771 -8014 0
0 0 0 656 546427 -7358 0
0 0 0 658 547085 -6700 0
0 0 0 671 547756 -6029 0
0 0 0 725 548481 -5304 0
0 0 0 871 549352 -4433 0
0 0 0 931 550283 -3502 0
0 0 0 885 551168 -2617 0
33 1 S112 815 551983 -1802 0
33 1 S112 715 552698 -1087 0
33 1 S112 670 553368 -417 0
33 2 S112 661 554029 244 0
33 2 S112 665 554694 909 0
33 2 S112 776 555470 1685 0
33 2 S112 950 556420 2635 0
33 2 S112 893 557313 3528 0
33 2 S112 876 558189 4404 0
33 2 S112 838 559027 5242 0
33 2 S112 765 559792 6007 0
33 2 S112 706 560498 6713 0
0 0 0 680 561178 -11340 0
0 0 0 684 561862 -10656 0
0 0 0 728 562590 -9928 0
0 0 0 971 563561 -8957 0
0 0 0 937 564498 -8020 0
0 0 0 830 565328 -7190 0
0 0 0 764 566092 -6426 0
0 0 0 746 566838 -5680 0
0 0 0 841 567679 -4839 0
0 0 0 991 568670 -3848 0
0 0 0 928 569598 -2920 0
0 0 0 898 570496 -2022 0
34 1 S106 844 571340 -1178 0
34 1 S106 758 572098 -420 0
34 2 S106 712 572810 292 0
34 2 S106 714 573524 1006 0
34 2 S106 743 574267 1749 0
34 2 S106 796 575063 2545 0
34 2 S106 851 575914 3396 0
34 2 S106 853 576767 4249 0
34 2 S106 755 577522 5004 0
34 2 S106 720 578242 5724 0
34 2 S106 724 578966 6448 0
0 0 0 742 579708 -8941 0
0 0 0 849 580557 -8092 0
0 0 0 843 581400 -7249 0
0 0 0 812 582212 -6437 0
0 0 0 731 582943 -5706 0
0 0 0 677 583620 -5029 0
0 0 0 659 584279 -4370 0
0 0 0 658 584937 -3712 0
0 0 0 668 585605 -3044 0
0 0 0 689 586294 -2355 0
35 1 S102 700 586994 -1655 0
35 1 S102 657 587651 -998 0
35 1 S102 659 588310 -339 0
35 2 S102 684 588994 345 0
35 2 S102 687 589681 1032 0
35 2 S102 768 590449 1800 0
35 2 S102 790 591239 2590 0
35 2 S102 812 592051 3402 0
35 2 S102 787 592838 4189 0
35 2 S102 726 593564 4915 0
35 2 S102 667 594231 5582 0
35 2 S102 652 594883 6234 0
35 2 S102 654 595537 6888 0
0 0 0 661 596198 -6709 0
0 0 0 891 597089 -5818 0
0 0 0 944 598033 -4874 0
0 0 0 863 598896 -4011 0
0 0 0 736 599632 -3275 0
0 0 0 673 600305 -2602 0
36 1 S106 681 600986 -1921 0
36 1 S106 686 601672 -1235 0
36 1 S106 745 602417 -490 0
36 2 S106 744 603161 254 0
36 2 S106 779 603940 1033 0
36 2 S106 819 604759 1852 0
36 2 S106 757 605516 2609 0
36 2 S106 725 606241 3334 0
36 2 S106 691 606932 4025 0
36 2 S106 683 607615 4708 0
36 2 S106 702 608317 5410 0
36 2 S106 752 609069 6162 0
36 2 S106 790 609859 6952 0
0 0 0 817 610676 -8494 0
0 0 0 762 611438 -7732 0
0 0 0 722 612160 -7010 0
0 0 0 697 612857 -6313 0
0 0 0 703 613560 -5610 0
0 0 0 720 614280 -4890 0
0 0 0 740 615020 -4150 0
0 0 0 744 615764 -3406 0
0 0 0 648 616412 -2758 0
0 0 0 649 617061 -2109 0
37 1 S116 626 617687 -1483 0
37 1 S116 632 618319 -851 0
37 1 S116 778 619097 -73 0
37 2 S116 1049 620146 976 0
37 2 S116 981 621127 1957 0
37 2 S116 994 622121 2951 0
37 2 S116 904 623025 3855 0
37 2 S116 827 623852 4682 0
37 2 S116 767 624619 5449 0
37 2 S116 752 625371 6201 0
37 2 S116 779 626150 6980 0
0 0 0 878 627028 -10743 0
0 0 0 915 627943 -9828 0
0 0 0 901 628844 -8927 0
0 0 0 843 629687 -8084 0
0 0 0 773 630460 -7311 0
0 0 0 712 631172 -6599 0
0 0 0 672 631844 -5927 0
0 0 0 667 632511 -5260 0
0 0 0 719 633230 -4541 0
0 0 0 876 634106 -3665 0
0 0 0 812 634918 -2853 0
0 0 0 797 635715 -2056 0
38 1 S102 736 636451 -1320 0
38 1 S102 685 637136 -635 0
38 2 S102 672 637808 37 0
38 2 S102 659 638467 696 0
38 2 S102 662 639129 1358 0
38 2 S102 670 639799 2028 0
38 2 S102 700 640499 2728 0
38 2 S102 721 641220 3449 0
38 2 S102 754 641974 4203 0
38 2 S102 820 642794 5023 0
38 2 S102 806 643600 5829 0
38 2 S102 751 644351 6580 0
0 0 0 693 645044 -8394 0
0 0 0 672 645716 -7722 0
0 0 0 676 646392 -7046 0
0 0 0 684 647076 -6362 0
0 0 0 740 647816 -5622 0
0 0 0 846 648662 -4776 0
0 0 0 819 649481 -3957 0
0 0 0 783 650264 -3174 0
0 0 0 744 651008 -2430 0
39 1 S116 710 651718 -1720 0
39 1 S116 703 652421 -1017 0
39 1 S116 748 653169 -269 0
39 2 S116 822 653991 553 0
39 2 S116 928 654919 1481 0
39 2 S116 931 655850 2412 0
39 2 S116 886 656736 3298 0
39 2 S116 809 657545 4107 0
39 2 S116 737 658282 4844 0
39 2 S116 706 658988 5550 0
39 2 S116 716 659704 6266 0
0 0 0 783 660487 -7523 0
0 0 0 896 661383 -6627 0
0 0 0 876 662259 -5751 0
0 0 0 806 663065 -4945 0
0 0 0 682 663747 -4263 0
0 0 0 670 664417 -3593 0
0 0 0 641 665058 -2952 0
0 0 0 631 665689 -2321 0
40 1 S112 679 666368 -1642 0
40 1 S112 1113 667481 -529 1
40 2 S112 1021 668502 492 0
40 2 S112 1002 669504 1494 0
40 2 S112 931 670435 2425 0
40 2 S112 834 671269 3259 0
40 2 S112 748 672017 4007 0
40 2 S112 696 672713 4703 0
40 2 S112 683 673396 5386 0
40 2 S112 717 674113 6103 0
40 2 S112 784 674897 6887 0
0 0 0 816 675713 -186878 0
0 0 0 838 676551 -186040 0
0 0 0 783 677334 -185257 0
0 0 0 724 678058 -184533 0
0 0 0 712 678770 -183821 0
0 0 0 723 679493 -183098 0
0 0 0 708 680201 -182390 0
0 0 0 645 680846 -181745 0
0 0 0 633 681479 -181112 0
0 0 0 629 682108 -180483 0
0 0 0 807 682915 -179676 0
0 0 0 602 683517 -179074 0
0 0 0 812 684329 -178262 0
0 0 0 941 685270 -177321 0
0 0 0 909 686179 -176412 0
0 0 0 775 686954 -175637 0
0 0 0 741 687695 -174896 0
0 0 0 707 688402 -174189 0
0 0 0 677 689079 -173512 0
0 0 0 638 689717 -172874 0
0 0 0 613 690330 -172261 0
0 0 0 591 690921 -171670 0
0 0 0 577 691498 -171093 0
0 0 0 583 692081 -170510 0
0 0 0 610 692691 -169900 0
0 0 0 597 693288 -169303 0
0 0 0 600 693888 -168703 0
0 0 0 643 694531 -168060 0
0 0 0 619 695150 -167441 0
0 0 0 662 695812 -166779 0
0 0 0 663 696475 -166116 0
0 0 0 649 697124 -165467 0
0 0 0 660 697784 -164807 0
0 0 0 625 698409 -164182 0
0 0 0 662 699071 -163520 0
0 0 0 638 699709 -162882 0
0 0 0 623 700332 -162259 0
0 0 0 665 700997 -161594 0
0 0 0 628 701625 -160966 0
0 0 0 689 702314 -160277 0
0 0 0 646 702960 -159631 0
0 0 0 694 703654 -158937 0
0 0 0 772 704426 -158165 0
0 0 0 715 705141 -157450 0
0 0 0 719 705860 -156731 0
0 0 0 743 706603 -155988 0
0 0 0 689 707292 -155299 0
0 0 0 658 707950 -154641 0
0 0 0 652 708602 -153989 0
0 0 0 712 709314 -153277 0
0 0 0 836 710150 -152441 0
0 0 0 796 710946 -151645 0
0 0 0 706 711652 -150939 0
0 0 0 672 712324 -150267 0
0 0 0 682 713006 -149585 0
0 0 0 743 713749 -148842 0
0 0 0 905 714654 -147937 0
0 0 0 788 715442 -147149 0
0 0 0 679 716121 -146470 0
0 0 0 712 716833 -145758 0
0 0 0 653 717486 -145105 0
0 0 0 637 718123 -144468 0
0 0 0 614 718737 -143854 0
0 0 0 613 719350 -143241 0
0 0 0 610 719960 -142631 0
0 0 0 618 720578 -142013 0
0 0 0 596 721174 -141417 0
0 0 0 583 721757 -140834 0
0 0 0 599 722356 -140235 0
0 0 0 603 722959 -139632 0
0 0 0 661 723620 -138971 0
0 0 0 806 724426 -138165 0
0 0 0 805 725231 -137360 0
0 0 0 754 725985 -136606 0
0 0 0 835 726820 -135771 0
0 0 0 930 727750 -134841 0
0 0 0 949 728699 -133892 0
0 0 0 879 729578 -133013 0
0 0 0 752 730330 -132261 0
0 0 0 717 731047 -131544 0
0 0 0 777 731824 -130767 0
0 0 0 1027 732851 -129740 0
0 0 0 946 733797 -128794 0
0 0 0 1001 734798 -127793 0
0 0 0 919 735717 -126874 0
0 0 0 883 736600 -125991 0
0 0 0 855 737455 -125136 0
0 0 0 834 738289 -124302 0
0 0 0 740 739029 -123562 0
0 0 0 701 739730 -122861 0
0 0 0 692 740422 -122169 0
0 0 0 792 741214 -121377 0
0 0 0 890 742104 -120487 0
0 0 0 754 742858 -119733 0
0 0 0 759 743617 -118974 0
0 0 0 810 744427 -118164 0
0 0 0 727 745154 -117437 0
0 0 0 754 745908 -116683 0
0 0 0 800 746708 -115883 0
0 0 0 837 747545 -115046 0
0 0 0 803 748348 -114243 0
0 0 0 727 749075 -113516 0
0 0 0 703 749778 -112813 0
0 0 0 739 750517 -112074 0
0 0 0 883 751400 -111191 0
0 0 0 923 752323 -110268 0
0 0 0 860 753183 -109408 0
0 0 0 725 753908 -108683 0
0 0 0 666 754574 -108017 0
0 0 0 648 755222 -107369 0
0 0 0 647 755869 -106722 0
0 0 0 648 756517 -106074 0
0 0 0 618 757135 -105456 0
0 0 0 691 757826 -104765 0
0 0 0 1072 758898 -103693 1
0 0 0 951 759849 -102742 0
0 0 0 861 760710 -101881 0
0 0 0 810 761520 -101071 0
0 0 0 831 762351 -100240 0
0 0 0 870 763221 -99370 0
0 0 0 892 764113 -98478 0
0 0 0 892 765005 -97586 0
0 0 0 860 765865 -96726 0
0 0 0 794 766659 -95932 0
0 0 0 750 767409 -95182 0
0 0 0 726 768135 -94456 0
0 0 0 766 768901 -93690 0
0 0 0 840 769741 -92850 0
0 0 0 840 770581 -92010 0
0 0 0 868 771449 -91142 0
0 0 0 894 772343 -90248 0
0 0 0 899 773242 -89349 0
0 0 0 879 774121 -88470 0
0 0 0 863 774984 -87607 0
0 0 0 859 775843 -86748 0
0 0 0 862 776705 -85886 0
0 0 0 869 777574 -85017 0
0 0 0 857 778431 -84160 0
0 0 0 871 779302 -83289 0
0 0 0 852 780154 -82437 0
0 0 0 874 781028 -81563 0
0 0 0 893 781921 -80670 0
0 0 0 904 782825 -79766 0
0 0 0 895 783720 -78871 0
0 0 0 868 784588 -78003 0
0 0 0 835 785423 -77168 0
0 0 0 829 786252 -76339 0
0 0 0 775 787027 -75564 0
0 0 0 726 787753 -74838 0
0 0 0 689 788442 -74149 0
0 0 0 738 789180 -73411 0
0 0 0 834 790014 -72577 0
0 0 0 949 790963 -71628 0
0 0 0 901 791864 -70727 0
0 0 0 848 792712 -69879 0
0 0 0 739 793451 -69140 0
0 0 0 685 794136 -68455 0
0 0 0 692 794828 -67763 0
0 0 0 703 795531 -67060 0
0 0 0 837 796368 -66223 0
0 0 0 929 797297 -65294 0
0 0 0 894 798191 -64400 0
0 0 0 881 799072 -63519 0
0 0 0 828 799900 -62691 0
0 0 0 753 800653 -61938 0
0 0 0 724 801377 -61214 0
0 0 0 715 802092 -60499 0
0 0 0 704 802796 -59795 0
0 0 0 706 803502 -59089 0
0 0 0 725 804227 -58364 0
0 0 0 699 804926 -57665 0
0 0 0 653 805579 -57012 0
0 0 0 698 806277 -56314 0
0 0 0 747 807024 -55567 0
0 0 0 1035 808059 -54532 0
0 0 0 1020 809079 -53512 0
0 0 0 940 810019 -52572 0
0 0 0 860 810879 -51712 0
0 0 0 852 811731 -50860 0
0 0 0 879 812610 -49981 0
0 0 0 804 813414 -49177 0
0 0 0 752 814166 -48425 0
0 0 0 700 814866 -47725 0
0 0 0 653 815519 -47072 0
0 0 0 627 816146 -46445 0
0 0 0 623 816769 -45822 0
0 0 0 630 817399 -45192 0
0 0 0 752 818151 -44440 0
0 0 0 752 818903 -43688 0
0 0 0 728 819631 -42960 0
0 0 0 749 820380 -42211 0
0 0 0 1028 821408 -41183 0
0 0 0 944 822352 -40239 0
0 0 0 880 823232 -39359 0
0 0 0 830 824062 -38529 0
0 0 0 773 824835 -37756 0
0 0 0 738 825573 -37018 0
0 0 0 697 826270 -36321 0
0 0 0 688 826958 -35633 0
0 0 0 672 827630 -34961 0
0 0 0 693 828323 -34268 0
0 0 0 744 829067 -33524 0
0 0 0 720 829787 -32804 0
0 0 0 715 830502 -32089 0
0 0 0 679 831181 -31410 0
0 0 0 663 831844 -30747 0
0 0 0 684 832528 -30063 0
0 0 0 694 833222 -29369 0
0 0 0 729 833951 -28640 0
0 0 0 741 834692 -27899 0
0 0 0 747 835439 -27152 0
0 0 0 739 836178 -26413 0
0 0 0 717 836895 -25696 0
0 0 0 671 837566 -25025 0
0 0 0 648 838214 -24377 0
0 0 0 627 838841 -23750 0
0 0 0 622 839463 -23128 0
0 0 0 655 840118 -22473 0
0 0 0 634 840752 -21839 0
0 0 0 783 841535 -21056 0
0 0 0 797 842332 -20259 0
0 0 0 982 843314 -19277 0
0 0 0 935 844249 -18342 0
0 0 0 833 845082 -17509 0
0 0 0 889 845971 -16620 0
0 0 0 850 846821 -15770 0
0 0 0 799 847620 -14971 0
0 0 0 692 848312 -14279 0
0 0 0 667 848979 -13612 0
0 0 0 632 849611 -12980 0
0 0 0 610 850221 -12370 0
0 0 0 626 850847 -11744 0
0 0 0 689 851536 -11055 0
0 0 0 731 852267 -10324 0
0 0 0 689 852956 -9635 0
0 0 0 694 853650 -8941 0
0 0 0 710 854360 -8231 0
0 0 0 712 855072 -7519 0
0 0 0 739 855811 -6780 0
0 0 0 736 856547 -6044 0
0 0 0 686 857233 -5358 0
0 0 0 741 857974 -4617 0
0 0 0 864 858838 -3753 0
0 0 0 794 859632 -2959 0
0 0 0 725 860357 -2234 0
41 1 S102 672 861029 -1562 0
41 1 S102 744 861773 -818 0
41 1 S102 789 862562 -29 0
41 2 S102 1010 863572 981 0
41 2 S102 955 864527 1936 0
41 2 S102 913 865440 2849 0
41 2 S102 869 866309 3718 0
41 2 S102 785 867094 4503 0
41 2 S102 743 867837 5246 0
41 2 S102 756 868593 6002 0
41 2 S102 823 869416 6825 0
0 0 0 847 870263 -6552 0
0 0 0 787 871050 -5765 0
0 0 0 780 871830 -4985 0
0 0 0 785 872615 -4200 0
0 0 0 775 873390 -3425 0
0 0 0 785 874175 -2640 0
42 1 S112 760 874935 -1880 0
42 1 S112 693 875628 -1187 0
42 1 S112 691 876319 -496 0
42 2 S112 721 877040 225 0
42 2 S112 964 878004 1189 0
42 2 S112 1035 879039 2224 0
42 2 S112 976 880015 3200 0
42 2 S112 937 880952 4137 0
42 2 S112 852 881804 4989 0
42 2 S112 835 882639 5824 0
42 2 S112 831 883470 6655 0
0 0 0 852 884322 -9303 0
0 0 0 831 885153 -8472 0
0 0 0 797 885950 -7675 0
0 0 0 786 886736 -6889 0
0 0 0 771 887507 -6118 0
0 0 0 738 888245 -5380 0
0 0 0 736 888981 -4644 0
0 0 0 694 889675 -3950 0
0 0 0 681 890356 -3269 0
0 0 0 685 891041 -2584 0
43 1 S116 719 891760 -1865 0
43 1 S116 853 892613 -1012 0
43 1 S116 812 893425 -200 0
43 2 S116 788 894213 588 0
43 2 S116 749 894962 1337 0
43 2 S116 687 895649 2024 0
43 2 S116 706 896355 2730 0
43 2 S116 754 897109 3484 0
43 2 S116 731 897840 4215 0
43 2 S116 680 898520 4895 0
43 2 S116 673 899193 5568 0
43 2 S116 684 899877 6252 0
43 2 S116 717 900594 6969 0
0 0 0 799 901393 -7103 0
0 0 0 884 902277 -6219 0
0 0 0 829 903106 -5390 0
0 0 0 778 903884 -4612 0
0 0 0 776 904660 -3836 0
0 0 0 803 905463 -3033 0
0 0 0 846 906309 -2187 0
44 1 S102 810 907119 -1377 0
44 1 S102 740 907859 -637 0
44 2 S102 705 908564 68 0
44 2 S102 711 909275 779 0
44 2 S102 788 910063 1567 0
44 2 S102 959 911022 2526 0
44 2 S102 951 911973 3477 0
44 2 S102 890 912863 4367 0
44 2 S102 793 913656 5160 0
44 2 S102 758 914414 5918 0
44 2 S102 757 915171 6675 0
0 0 0 801 915972 -8572 0
0 0 0 847 916819 -7725 0
0 0 0 864 917683 -6861 0
0 0 0 774 918457 -6087 0
0 0 0 726 919183 -5361 0
0 0 0 723 919906 -4638 0
0 0 0 735 920641 -3903 0
0 0 0 789 921430 -3114 0
0 0 0 908 922338 -2206 0
45 1 S116 904 923242 -1302 0
45 1 S116 814 924056 -488 0
45 2 S116 720 924776 232 0
45 2 S116 697 925473 929 0
45 2 S116 694 926167 1623 0
45 2 S116 731 926898 2354 0
45 2 S116 803 927701 3157 0
45 2 S116 886 928587 4043 0
45 2 S116 846 929433 4889 0
45 2 S116 776 930209 5665 0
45 2 S116 732 930941 6397 0
0 0 0 748 931689 -11423 0
0 0 0 832 932521 -10591 0
0 0 0 912 933433 -9679 0
0 0 0 850 934283 -8829 0
0 0 0 744 935027 -8085 0
0 0 0 705 935732 -7380 0
0 0 0 680 936412 -6700 0
0 0 0 650 937062 -6050 0
0 0 0 652 937714 -5398 0
0 0 0 744 938458 -4654 0
0 0 0 779 939237 -3875 0
0 0 0 762 939999 -3113 0
0 0 0 718 940717 -2395 0
46 1 S102 724 941441 -1671 0
46 1 S102 729 942170 -942 0
46 1 S102 752 942922 -190 0
46 2 S102 802 943724 612 0
46 2 S102 837 944561 1449 0
46 2 S102 774 945335 2223 0
46 2 S102 713 946048 2936 0
46 2 S102 665 946713 3601 0
46 2 S102 665 947378 4266 0
46 2 S102 676 948054 4942 0
46 2 S102 784 948838 5726 0
46 2 S102 1042 949880 6768 0
0 0 0 965 950845 -7967 0
0 0 0 903 951748 -7064 0
0 0 0 791 952539 -6273 0
0 0 0 730 953269 -5543 0
0 0 0 749 954018 -4794 0
0 0 0 760 954778 -4034 0
0 0 0 779 955557 -3255 0
0 0 0 731 956288 -2524 0
47 1 S112 694 956982 -1830 0
47 1 S112 672 957654 -1158 0
47 1 S112 675 958329 -483 0
47 2 S112 749 959078 266 0
47 2 S112 803 959881 1069 0
47 2 S112 843 960724 1912 0
47 2 S112 797 961521 2709 0
47 2 S112 842 962363 3551 0
47 2 S112 828 963191 4379 0
47 2 S112 807 963998 5186 0
47 2 S112 773 964771 5959 0
47 2 S112 744 965515 6703 0
0 0 0 726 966241 -10840 0
0 0 0 690 966931 -10150 0
0 0 0 664 967595 -9486 0
0 0 0 697 968292 -8789 0
0 0 0 713 969005 -8076 0
0 0 0 785 969790 -7291 0
0 0 0 740 970530 -6551 0
0 0 0 839 971369 -5712 0
0 0 0 909 972278 -4803 0
0 0 0 946 973224 -3857 0
0 0 0 844 974068 -3013 0
0 0 0 795 974863 -2218 0
48 1 S116 839 975702 -1379 0
48 1 S116 922 976624 -457 0
48 2 S116 907 977531 450 0
48 2 S116 905 978436 1355 0
48 2 S116 842 979278 2197 0
48 2 S116 767 980045 2964 0
48 2 S116 763 980808 3727 0
48 2 S116 770 981578 4497 0
48 2 S116 775 982353 5272 0
48 2 S116 777 983130 6049 0
48 2 S116 739 983869 6788 0
0 0 0 718 984587 -7448 0
0 0 0 740 985327 -6708 0
0 0 0 765 986092 -5943 0
0 0 0 845 986937 -5098 0
0 0 0 783 987720 -4315 0
0 0 0 722 988442 -3593 0
0 0 0 717 989159 -2876 0
0 0 0 709 989868 -2167 0
49 1 S112 738 990606 -1429 0
49 1 S112 796 991402 -633 0
49 2 S112 874 992276 241 0
49 2 S112 854 993130 1095 0
49 2 S112 924 994054 2019 0
49 2 S112 859 994913 2878 0
49 2 S112 751 995664 3629 0
49 2 S112 719 996383 4348 0
49 2 S112 720 997103 5068 0
49 2 S112 731 997834 5799 0
49 2 S112 730 998564 6529 0
0 0 0 743 999307 -11528 0
0 0 0 704 1000011 -10824 0
0 0 0 715 1000726 -10109 0
0 0 0 763 1001489 -9346 0
0 0 0 845 1002334 -8501 0
0 0 0 819 1003153 -7682 0
0 0 0 802 1003955 -6880 0
0 0 0 806 1004761 -6074 0
0 0 0 860 1005621 -5214 0
0 0 0 880 1006501 -4334 0
0 0 0 858 1007359 -3476 0
0 0 0 766 1008125 -2710 0
50 1 S106 714 1008839 -1996 0
50 1 S106 724 1009563 -1272 0
50 1 S106 774 1010337 -498 0
50 2 S106 836 1011173 338 0
50 2 S106 904 1012077 1242 0
50 2 S106 885 1012962 2127 0
50 2 S106 797 1013759 2924 0
50 2 S106 738 1014497 3662 0
50 2 S106 739 1015236 4401 0
50 2 S106 785 1016021 5186 0
50 2 S106 914 1016935 6100 0
0 0 0 964 1017899 -7939 0
0 0 0 948 1018847 -6991 0
0 0 0 865 1019712 -6126 0
0 0 0 798 1020510 -5328 0
0 0 0 817 1021327 -4511 0
0 0 0 823 1022150 -3688 0
0 0 0 845 1022995 -2843 0
0 0 0 754 1023749 -2089 0
51 1 S112 758 1024507 -1331 0
51 1 S112 786 1025293 -545 0
51 2 S112 866 1026159 321 0
51 2 S112 890 1027049 1211 0
51 2 S112 872 1027921 2083 0
51 2 S112 826 1028747 2909 0
51 2 S112 753 1029500 3662 0
51 2 S112 831 1030331 4493 0
51 2 S112 900 1031231 5393 0
51 2 S112 947 1032178 6340 0
0 0 0 873 1033051 -6763 0
0 0 0 785 1033836 -5978 0
0 0 0 824 1034660 -5154 0
0 0 0 805 1035465 -4349 0
0 0 0 747 1036212 -3602 0
0 0 0 701 1036913 -2901 0
0 0 0 680 1037593 -2221 0
52 1 S116 663 1038256 -1558 0
52 1 S116 657 1038913 -901 0
52 1 S116 655 1039568 -246 0
52 2 S116 635 1040203 389 0
52 2 S116 634 1040837 1023 0
52 2 S116 793 1041630 1816 0
52 2 S116 825 1042455 2641 0
52 2 S116 768 1043223 3409 0
52 2 S116 658 1043881 4067 0
52 2 S116 702 1044583 4769 0
52 2 S116 676 1045259 5445 0
52 2 S116 738 1045997 6183 0
52 2 S116 795 1046792 6978 0
0 0 0 858 1047650 -9190 0
0 0 0 874 1048524 -8316 0
0 0 0 813 1049337 -7503 0
0 0 0 761 1050098 -6742 0
0 0 0 771 1050869 -5971 0
0 0 0 762 1051631 -5209 0
0 0 0 798 1052429 -4411 0
0 0 0 775 1053204 -3636 0
0 0 0 732 1053936 -2904 0
0 0 0 705 1054641 -2199 0
53 1 S106 724 1055365 -1475 0
53 1 S106 825 1056190 -650 0
53 2 S106 905 1057095 255 0
53 2 S106 952 1058047 1207 0
53 2 S106 882 1058929 2089 0
53 2 S106 785 1059714 2874 0
53 2 S106 709 1060423 3583 0
53 2 S106 689 1061112 4272 0
53 2 S106 683 1061795 4955 0
53 2 S106 724 1062519 5679 0
53 2 S106 879 1063398 6558 0
0 0 0 944 1064342 -7219 0
0 0 0 886 1065228 -6333 0
0 0 0 820 1066048 -5513 0
0 0 0 751 1066799 -4762 0
0 0 0 752 1067551 -4010 0
0 0 0 760 1068311 -3250 0
0 0 0 766 1069077 -2484 0
54 1 S102 755 1069832 -1729 0
54 1 S102 677 1070509 -1052 0
54 1 S102 645 1071154 -407 0
54 2 S102 637 1071791 230 0
54 2 S102 639 1072430 869 0
54 2 S102 735 1073165 1604 0
54 2 S102 1116 1074281 2720 1
54 2 S102 1012 1075293 3732 0
54 2 S102 966 1076259 4698 0
54 2 S102 848 1077107 5546 0
54 2 S102 788 1077895 6334 0
0 0 0 770 1078665 -10569 0
0 0 0 836 1079501 -9733 0
0 0 0 876 1080377 -8857 0
0 0 0 784 1081161 -8073 0
0 0 0 708 1081869 -7365 0
0 0 0 666 1082535 -6699 0
0 0 0 648 1083183 -6051 0
0 0 0 650 1083833 -5401 0
0 0 0 655 1084488 -4746 0
0 0 0 639 1085127 -4107 0
0 0 0 1067 1086194 -3040 1
55 1 S106 1045 1087239 -1995 0
55 1 S106 965 1088204 -1030 0
55 1 S106 888 1089092 -142 0
55 2 S106 878 1089970 736 0
55 2 S106 833 1090803 1569 0
55 2 S106 821 1091624 2390 0
55 2 S106 913 1092537 3303 0
55 2 S106 898 1093435 4201 0
55 2 S106 888 1094323 5089 0
55 2 S106 841 1095164 5930 0
55 2 S106 824 1095988 6754 0
0 0 0 765 1096753 -7153 0
0 0 0 714 1097467 -6439 0
0 0 0 718 1098185 -5721 0
0 0 0 759 1098944 -4962 0
0 0 0 767 1099711 -4195 0
0 0 0 816 1100527 -3379 0
0 0 0 758 1101285 -2621 0
56 1 S116 705 1101990 -1916 0
56 1 S116 692 1102682 -1224 0
56 1 S116 710 1103392 -514 0
56 2 S116 778 1104170 264 0
56 2 S116 885 1105055 1149 0
56 2 S116 941 1105996 2090 0
56 2 S116 863 1106859 2953 0
56 2 S116 752 1107611 3705 0
56 2 S116 693 1108304 4398 0
56 2 S116 684 1108988 5082 0
56 2 S116 716 1109704 5798 0
56 2 S116 936 1110640 6734 0
0 0 0 916 1111556 -6740 0
0 0 0 914 1112470 -5826 0
0 0 0 827 1113297 -4999 0
0 0 0 776 1114073 -4223 0
0 0 0 757 1114830 -3466 0
0 0 0 785 1115615 -2681 0
57 1 S106 797 1116412 -1884 0
57 1 S106 746 1117158 -1138 0
57 1 S106 728 1117886 -410 0
57 2 S106 694 1118580 284 0
57 2 S106 712 1119292 996 0
57 2 S106 783 1120075 1779 0
57 2 S106 1050 1121125 2829 0
57 2 S106 949 1122074 3778 0
57 2 S106 898 1122972 4676 0
57 2 S106 864 1123836 5540 0
57 2 S106 830 1124666 6370 0
0 0 0 749 1125415 -9409 0
0 0 0 721 1126136 -8688 0
0 0 0 754 1126890 -7934 0
0 0 0 857 1127747 -7077 0
0 0 0 844 1128591 -6233 0
0 0 0 769 1129360 -5464 0
0 0 0 733 1130093 -4731 0
0 0 0 720 1130813 -4011 0
0 0 0 722 1131535 -3289 0
0 0 0 740 1132275 -2549 0
58 1 S102 754 1133029 -1795 0
58 1 S102 723 1133752 -1072 0
58 1 S102 692 1134444 -380 0
58 2 S102 679 1135123 299 0
58 2 S102 655 1135778 954 0
58 2 S102 673 1136451 1627 0
58 2 S102 722 1137173 2349 0
58 2 S102 781 1137954 3130 0
58 2 S102 826 1138780 3956 0
58 2 S102 838 1139618 4794 0
58 2 S102 880 1140498 5674 0
58 2 S102 856 1141354 6530 0
0 0 0 703 1142057 -6229 0
0 0 0 740 1142797 -5489 0
0 0 0 755 1143552 -4734 0
0 0 0 959 1144511 -3775 0
0 0 0 895 1145406 -2880 0
0 0 0 859 1146265 -2021 0
59 1 S112 803 1147068 -1218 0
59 1 S112 725 1147793 -493 0
59 2 S112 696 1148489 203 0
59 2 S112 679 1149168 882 0
59 2 S112 706 1149874 1588 0
59 2 S112 739 1150613 2327 0
59 2 S112 773 1151386 3100 0
59 2 S112 781 1152167 3881 0
59 2 S112 737 1152904 4618 0
59 2 S112 679 1153583 5297 0
59 2 S112 702 1154285 5999 0
59 2 S112 697 1154982 6696 0
0 0 0 810 1155792 -7995 0
0 0 0 1075 1156867 -6920 1
0 0 0 899 1157766 -6021 0
0 0 0 855 1158621 -5166 0
0 0 0 791 1159412 -4375 0
0 0 0 740 1160152 -3635 0
0 0 0 838 1160990 -2797 0
60 1 S102 1030 1162020 -1767 0
60 1 S102 984 1163004 -783 0
60 2 S102 920 1163924 137 0
60 2 S102 846 1164770 983 0
60 2 S102 770 1165540 1753 0
60 2 S102 757 1166297 2510 0
60 2 S102 811 1167108 3321 0
60 2 S102 879 1167987 4200 0
60 2 S102 880 1168867 5080 0
60 2 S102 856 1169723 5936 0
60 2 S102 811 1170534 6747 0
0 0 0 792 1171326 -10084 0
0 0 0 715 1172041 -9369 0
0 0 0 699 1172740 -8670 0
0 0 0 698 1173438 -7972 0
0 0 0 712 1174150 -7260 0
0 0 0 762 1174912 -6498 0
0 0 0 690 1175602 -5808 0
0 0 0 692 1176294 -5116 0
0 0 0 693 1176987 -4423 0
0 0 0 670 1177657 -3753 0
0 0 0 732 1178389 -3021 0
0 0 0 754 1179143 -2267 0
61 1 S106 736 1179879 -1531 0
61 1 S106 745 1180624 -786 0
61 2 S106 1062 1181686 276 1
61 2 S106 986 1182672 1262 0
61 2 S106 876 1183548 2138 0
61 2 S106 771 1184319 2909 0
61 2 S106 732 1185051 3641 0
61 2 S106 749 1185800 4390 0
61 2 S106 779 1186579 5169 0
61 2 S106 828 1187407 5997 0
61 2 S106 852 1188259 6849 0
0 0 0 834 1189093 -7320 0
0 0 0 800 1189893 -6520 0
0 0 0 735 1190628 -5785 0
0 0 0 728 1191356 -5057 0
0 0 0 715 1192071 -4342 0
0 0 0 712 1192783 -3630 0
0 0 0 708 1193491 -2922 0
0 0 0 698 1194189 -2224 0
62 1 S112 667 1194856 -1557 0
62 1 S112 719 1195575 -838 0
62 1 S112 747 1196322 -91 0
62 2 S112 834 1197156 743 0
62 2 S112 1050 1198206 1793 0
62 2 S112 964 1199170 2757 0
62 2 S112 872 1200042 3629 0
62 2 S112 824 1200866 4453 0
62 2 S112 856 1201722 5309 0
62 2 S112 865 1202587 6174 0
62 2 S112 828 1203415 7002 0
0 0 0 742 1204157 -10758 0
0 0 0 728 1204885 -10030 0
0 0 0 784 1205669 -9246 0
0 0 0 819 1206488 -8427 0
0 0 0 812 1207300 -7615 0
0 0 0 749 1208049 -6866 0
0 0 0 797 1208846 -6069 0
0 0 0 822 1209668 -5247 0
0 0 0 860 1210528 -4387 0
0 0 0 829 1211357 -3558 0
0 0 0 765 1212122 -2793 0
0 0 0 745 1212867 -2048 0
63 1 S102 778 1213645 -1270 0
63 1 S102 854 1214499 -416 0
63 2 S102 878 1215377 462 0
63 2 S102 859 1216236 1321 0
63 2 S102 781 1217017 2102 0
63 2 S102 772 1217789 2874 0
63 2 S102 794 1218583 3668 0
63 2 S102 853 1219436 4521 0
63 2 S102 867 1220303 5388 0
63 2 S102 823 1221126 6211 0
63 2 S102 755 1221881 6966 0
0 0 0 791 1222672 -8954 0
0 0 0 828 1223500 -8126 0
0 0 0 853 1224353 -7273 0
0 0 0 779 1225132 -6494 0
0 0 0 703 1225835 -5791 0
0 0 0 682 1226517 -5109 0
0 0 0 678 1227195 -4431 0
0 0 0 719 1227914 -3712 0
0 0 0 846 1228760 -2866 0
64 1 S112 902 1229662 -1964 0
64 1 S112 823 1230485 -1141 0
64 1 S112 742 1231227 -399 0
64 2 S112 686 1231913 287 0
64 2 S112 692 1232605 979 0
64 2 S112 715 1233320 1694 0
64 2 S112 820 1234140 2514 0
64 2 S112 931 1235071 3445 0
64 2 S112 900 1235971 4345 0
64 2 S112 863 1236834 5208 0
64 2 S112 784 1237618 5992 0
64 2 S112 708 1238326 6700 0
0 0 0 693 1239019 -6533 0
0 0 0 706 1239725 -5827 0
0 0 0 754 1240479 -5073 0
0 0 0 762 1241241 -4311 0
0 0 0 769 1242010 -3542 0
0 0 0 726 1242736 -2816 0
0 0 0 735 1243471 -2081 0
65 1 S106 801 1244272 -1280 0
65 1 S106 880 1245152 -400 0
65 2 S106 890 1246042 490 0
65 2 S106 867 1246909 1357 0
65 2 S106 789 1247698 2146 0
65 2 S106 749 1248447 2895 0
65 2 S106 756 1249203 3651 0
65 2 S106 809 1250012 4460 0
65 2 S106 956 1250968 5416 0
65 2 S106 891 1251859 6307 0
0 0 0 889 1252748 -7111 0
0 0 0 835 1253583 -6276 0
0 0 0 817 1254400 -5459 0
0 0 0 745 1255145 -4714 0
0 0 0 680 1255825 -4034 0
0 0 0 655 1256480 -3379 0
0 0 0 626 1257106 -2753 0
0 0 0 615 1257721 -2138 0
66 1 S116 632 1258353 -1506 0
66 1 S116 628 1258981 -878 0
66 2 S116 1064 1260045 186 1
66 2 S116 1015 1261060 1201 0
66 2 S116 970 1262030 2171 0
66 2 S116 890 1262920 3061 0
66 2 S116 879 1263799 3940 0
66 2 S116 886 1264685 4826 0
66 2 S116 935 1265620 5761 0
66 2 S116 942 1266562 6703 0
0 0 0 941 1267503 -10973 0
0 0 0 922 1268425 -10051 0
0 0 0 847 1269272 -9204 0
0 0 0 779 1270051 -8425 0
0 0 0 770 1270821 -7655 0
0 0 0 794 1271615 -6861 0
0 0 0 870 1272485 -5991 0
0 0 0 863 1273348 -5128 0
0 0 0 804 1274152 -4324 0
0 0 0 776 1274928 -3548 0
0 0 0 892 1275820 -2656 0
67 1 S102 973 1276793 -1683 0
67 1 S102 941 1277734 -742 0
67 2 S102 909 1278643 167 0
67 2 S102 845 1279488 1012 0
67 2 S102 753 1280241 1765 0
67 2 S102 726 1280967 2491 0
67 2 S102 753 1281720 3244 0
67 2 S102 884 1282604 4128 0
67 2 S102 868 1283472 4996 0
67 2 S102 832 1284304 5828 0
67 2 S102 792 1285096 6620 0
0 0 0 717 1285813 -6655 0
0 0 0 701 1286514 -5954 0
0 0 0 703 1287217 -5251 0
0 0 0 727 1287944 -4524 0
0 0 0 706 1288650 -3818 0
0 0 0 671 1289321 -3147 0
0 0 0 657 1289978 -2490 0
68 1 S106 682 1290660 -1808 0
68 1 S106 763 1291423 -1045 0
68 1 S106 719 1292142 -326 0
68 2 S106 707 1292849 381 0
68 2 S106 814 1293663 1195 0
68 2 S106 810 1294473 2005 0
68 2 S106 769 1295242 2774 0
68 2 S106 752 1295994 3526 0
68 2 S106 781 1296775 4307 0
68 2 S106 818 1297593 5125 0
68 2 S106 817 1298410 5942 0
68 2 S106 797 1299207 6739 0
0 0 0 787 1299994 -10628 0
0 0 0 757 1300751 -9871 0
0 0 0 711 1301462 -9160 0
0 0 0 675 1302137 -8485 0
0 0 0 644 1302781 -7841 0
0 0 0 639 1303420 -7202 0
0 0 0 741 1304161 -6461 0
0 0 0 1174 1305335 -5287 1
0 0 0 1071 1306406 -4216 1
0 0 0 1059 1307465 -3157 0
0 0 0 983 1308448 -2174 0
69 1 S102 955 1309403 -1219 0
69 1 S102 974 1310377 -245 0
69 2 S102 996 1311373 751 0
69 2 S102 971 1312344 1722 0
69 2 S102 894 1313238 2616 0
69 2 S102 830 1314068 3446 0
69 2 S102 746 1314814 4192 0
69 2 S102 724 1315538 4916 0
69 2 S102 738 1316276 5654 0
69 2 S102 836 1317112 6490 0
0 0 0 1012 1318124 -8314 0
0 0 0 986 1319110 -7328 0
0 0 0 930 1320040 -6398 0
0 0 0 854 1320894 -5544 0
0 0 0 751 1321645 -4793 0
0 0 0 686 1322331 -4107 0
0 0 0 666 1322997 -3441 0
0 0 0 664 1323661 -2777 0
0 0 0 742 1324403 -2035 0
70 1 S112 1161 1325564 -874 1
70 2 S112 1020 1326584 146 0
70 2 S112 974 1327558 1120 0
70 2 S112 892 1328450 2012 0
70 2 S112 842 1329292 2854 0
70 2 S112 831 1330123 3685 0
70 2 S112 861 1330984 4546 0
70 2 S112 879 1331863 5425 0
70 2 S112 910 1332773 6335 0
0 0 0 893 1333666 -11555 0
0 0 0 859 1334525 -10696 0
0 0 0 785 1335310 -9911 0
0 0 0 739 1336049 -9172 0
0 0 0 721 1336770 -8451 0
0 0 0 707 1337477 -7744 0
0 0 0 728 1338205 -7016 0
0 0 0 742 1338947 -6274 0
0 0 0 695 1339642 -5579 0
0 0 0 699 1340341 -4880 0
0 0 0 730 1341071 -4150 0
0 0 0 829 1341900 -3321 0
0 0 0 984 1342884 -2337 0
71 1 S116 898 1343782 -1439 0
71 1 S116 795 1344577 -644 0
71 2 S116 738 1345315 94 0
71 2 S116 772 1346087 866 0
71 2 S116 914 1347001 1780 0
71 2 S116 988 1347989 2768 0
71 2 S116 968 1348957 3736 0
71 2 S116 918 1349875 4654 0
71 2 S116 864 1350739 5518 0
71 2 S116 788 1351527 6306 0
0 0 0 788 1352315 -9584 0
0 0 0 851 1353166 -8733 0
0 0 0 900 1354066 -7833 0
0 0 0 944 1355010 -6889 0
0 0 0 856 1355866 -6033 0
0 0 0 770 1356636 -5263 0
0 0 0 746 1357382 -4517 0
0 0 0 761 1358143 -3756 0
0 0 0 840 1358983 -2916 0
72 1 S102 919 1359902 -1997 0
72 1 S102 906 1360808 -1091 0
72 1 S102 843 1361651 -248 0
72 2 S102 756 1362407 508 0
72 2 S102 731 1363138 1239 0
72 2 S102 708 1363846 1947 0
72 2 S102 725 1364571 2672 0
72 2 S102 804 1365375 3476 0
72 2 S102 850 1366225 4326 0
72 2 S102 828 1367053 5154 0
72 2 S102 803 1367856 5957 0
72 2 S102 720 1368576 6677 0
0 0 0 685 1369261 -7343 0
0 0 0 663 1369924 -6680 0
0 0 0 663 1370587 -6017 0
0 0 0 807 1371394 -5210 0
0 0 0 868 1372262 -4342 0
0 0 0 833 1373095 -3509 0
0 0 0 695 1373790 -2814 0
0 0 0 716 1374506 -2098 0
73 1 S116 681 1375187 -1417 0
73 1 S116 654 1375841 -763 0
73 1 S116 626 1376467 -137 0
73 2 S116 628 1377095 491 0
73 2 S116 713 1377808 1204 0
73 2 S116 852 1378660 2056 0
73 2 S116 880 1379540 2936 0
73 2 S116 841 1380381 3777 0
73 2 S116 796 1381177 4573 0
73 2 S116 858 1382035 5431 0
73 2 S116 955 1382990 6386 0
0 0 0 1035 1384025 -9124 0
0 0 0 987 1385012 -8137 0
0 0 0 916 1385928 -7221 0
0 0 0 812 1386740 -6409 0
0 0 0 778 1387518 -5631 0
0 0 0 783 1388301 -4848 0
0 0 0 812 1389113 -4036 0
0 0 0 783 1389896 -3253 0
0 0 0 750 1390646 -2503 0
74 1 S106 772 1391418 -1731 0
74 1 S106 857 1392275 -874 0
74 2 S106 899 1393174 25 0
74 2 S106 921 1394095 946 0
74 2 S106 832 1394927 1778 0
74 2 S106 727 1395654 2505 0
74 2 S106 705 1396359 3210 0
74 2 S106 698 1397057 3908 0
74 2 S106 741 1397798 4649 0
74 2 S106 815 1398613 5464 0
74 2 S106 862 1399475 6326 0
0 0 0 840 1400315 -7125 0
0 0 0 764 1401079 -6361 0
0 0 0 730 1401809 -5631 0
0 0 0 738 1402547 -4893 0
0 0 0 681 1403228 -4212 0
0 0 0 645 1403873 -3567 0
0 0 0 627 1404500 -2940 0
0 0 0 624 1405124 -2316 0
75 1 S112 673 1405797 -1643 0
75 1 S112 709 1406506 -934 0
75 1 S112 756 1407262 -178 0
75 2 S112 742 1408004 564 0
75 2 S112 879 1408883 1443 0
75 2 S112 902 1409785 2345 0
75 2 S112 944 1410729 3289 0
75 2 S112 1013 1411742 4302 0
75 2 S112 1016 1412758 5318 0
75 2 S112 941 1413699 6259 0
0 0 0 905 1414604 -7325 0
0 0 0 870 1415474 -6455 0
0 0 0 796 1416270 -5659 0
0 0 0 754 1417024 -4905 0
0 0 0 727 1417751 -4178 0
0 0 0 713 1418464 -3465 0
0 0 0 751 1419215 -2714 0
76 1 S116 725 1419940 -1989 0
76 1 S116 714 1420654 -1275 0
76 1 S116 740 1421394 -535 0
76 2 S116 739 1422133 204 0
76 2 S116 1103 1423236 1307 1
76 2 S116 1162 1424398 2469 1
76 2 S116 1147 1425545 3616 1
76 2 S116 1093 1426638 4709 1
76 2 S116 1017 1427655 5726 0
76 2 S116 929 1428584 6655 0
0 0 0 899 1429483 -7018 0
0 0 0 870 1430353 -6148 0
0 0 0 863 1431216 -5285 0
0 0 0 826 1432042 -4459 0
0 0 0 750 1432792 -3709 0
0 0 0 724 1433516 -2985 0
0 0 0 703 1434219 -2282 0
77 1 S106 694 1434913 -1588 0
77 1 S106 718 1435631 -870 0
77 1 S106 837 1436468 -33 0
77 2 S106 950 1437418 917 0
77 2 S106 991 1438409 1908 0
77 2 S106 939 1439348 2847 0
77 2 S106 857 1440205 3704 0
77 2 S106 786 1440991 4490 0
77 2 S106 782 1441773 5272 0
77 2 S106 854 1442627 6126 0
0 0 0 943 1443570 -9560 0
0 0 0 921 1444491 -8639 0
0 0 0 882 1445373 -7757 0
0 0 0 790 1446163 -6967 0
0 0 0 710 1446873 -6257 0
0 0 0 693 1447566 -5564 0
0 0 0 668 1448234 -4896 0
0 0 0 658 1448892 -4238 0
0 0 0 639 1449531 -3599 0
0 0 0 737 1450268 -2862 0
0 0 0 804 1451072 -2058 0
78 1 S112 752 1451824 -1306 0
78 1 S112 678 1452502 -628 0
78 2 S112 675 1453177 47 0
78 2 S112 684 1453861 731 0
78 2 S112 770 1454631 1501 0
78 2 S112 959 1455590 2460 0
78 2 S112 952 1456542 3412 0
78 2 S112 914 1457456 4326 0
78 2 S112 823 1458279 5149 0
78 2 S112 822 1459101 5971 0
78 2 S112 871 1459972 6842 0
0 0 0 880 1460852 -11276 0
0 0 0 865 1461717 -10411 0
0 0 0 774 1462491 -9637 0
0 0 0 794 1463285 -8843 0
0 0 0 810 1464095 -8033 0
0 0 0 774 1464869 -7259 0
0 0 0 797 1465666 -6462 0
0 0 0 715 1466381 -5747 0
0 0 0 682 1467063 -5065 0
0 0 0 672 1467735 -4393 0
0 0 0 654 1468389 -3739 0
0 0 0 637 1469026 -3102 0
0 0 0 668 1469694 -2434 0
79 1 S102 887 1470581 -1547 0
79 1 S102 801 1471382 -746 0
79 2 S102 798 1472180 52 0
79 2 S102 830 1473010 882 0
79 2 S102 925 1473935 1807 0
79 2 S102 956 1474891 2763 0
79 2 S102 904 1475795 3667 0
79 2 S102 834 1476629 4501 0
79 2 S102 753 1477382 5254 0
79 2 S102 700 1478082 5954 0
79 2 S102 709 1478791 6663 0
0 0 0 718 1479509 -8236 0
0 0 0 777 1480286 -7459 0
0 0 0 821 1481107 -6638 0
0 0 0 774 1481881 -5864 0
0 0 0 743 1482624 -5121 0
0 0 0 672 1483296 -4449 0
0 0 0 678 1483974 -3771 0
0 0 0 666 1484640 -3105 0
0 0 0 702 1485342 -2403 0
80 1 S116 851 1486193 -1552 0
80 1 S116 875 1487068 -677 0
80 2 S116 813 1487881 136 0
80 2 S116 766 1488647 902 0
80 2 S116 791 1489438 1693 0
80 2 S116 806 1490244 2499 0
80 2 S116 813 1491057 3312 0
80 2 S116 764 1491821 4076 0
80 2 S116 730 1492551 4806 0
80 2 S116 706 1493257 5512 0
80 2 S116 695 1493952 6207 0
80 2 S116 711 1494663 6918 0
