T_0069
BeatCount Mean SD BeatCountNoOutliers MeanNoOutliers SDNoOutliers
2199 674,165075034106 49,8226567300547 2169 671,628400184417 44,9796355965883

Trial TrialStatus Trialtype IBI AbsPosition RelPosition Outlier
0 2  697 814 814 0
0 2  653 1467 1467 0
0 2  645 2112 2112 0
0 0 0 658 2770 -12054 0
0 0 0 675 3445 -11379 0
0 0 0 708 4153 -10671 0
0 0 0 689 4842 -9982 0
0 0 0 716 5558 -9266 0
0 0 0 729 6287 -8537 0
0 0 0 733 7020 -7804 0
0 0 0 705 7725 -7099 0
0 0 0 662 8387 -6437 0
0 0 0 641 9028 -5796 0
0 0 0 647 9675 -5149 0
0 0 0 666 10341 -4483 0
0 0 0 696 11037 -3787 0
0 0 0 711 11748 -3076 0
0 0 0 686 12434 -2390 0
1 1 S102 667 13101 -1723 0
1 1 S102 664 13765 -1059 0
1 1 S102 666 14431 -393 0
1 2 S102 669 15100 276 0
1 2 S102 691 15791 967 0
1 2 S102 691 16482 1658 0
1 2 S102 673 17155 2331 0
1 2 S102 662 17817 2993 0
1 2 S102 677 18494 3670 0
1 2 S102 670 19164 4340 0
1 2 S102 669 19833 5009 0
1 2 S102 651 20484 5660 0
1 2 S102 637 21121 6297 0
1 2 S102 652 21773 6949 0
0 0 0 671 22444 -8130 0
0 0 0 707 23151 -7423 0
0 0 0 708 23859 -6715 0
0 0 0 649 24508 -6066 0
0 0 0 646 25154 -5420 0
0 0 0 659 25813 -4761 0
0 0 0 669 26482 -4092 0
0 0 0 683 27165 -3409 0
0 0 0 671 27836 -2738 0
0 0 0 640 28476 -2098 0
2 1 S116 646 29122 -1452 0
2 1 S116 659 29781 -793 0
2 1 S116 668 30449 -125 0
2 2 S116 643 31092 518 0
2 2 S116 622 31714 1140 0
2 2 S116 623 32337 1763 0
2 2 S116 639 32976 2402 0
2 2 S116 658 33634 3060 0
2 2 S116 671 34305 3731 0
2 2 S116 668 34973 4399 0
2 2 S116 647 35620 5046 0
2 2 S116 639 36259 5685 0
2 2 S116 646 36905 6331 0
2 2 S116 668 37573 6999 0
0 0 0 690 38263 -10879 0
0 0 0 692 38955 -10187 0
0 0 0 660 39615 -9527 0
0 0 0 662 40277 -8865 0
0 0 0 657 40934 -8208 0
0 0 0 641 41575 -7567 0
0 0 0 632 42207 -6935 0
0 0 0 619 42826 -6316 0
0 0 0 613 43439 -5703 0
0 0 0 626 44065 -5077 0
0 0 0 648 44713 -4429 0
0 0 0 702 45415 -3727 0
0 0 0 719 46134 -3008 0
0 0 0 684 46818 -2324 0
3 1 S106 662 47480 -1662 0
3 1 S106 678 48158 -984 0
3 1 S106 686 48844 -298 0
3 2 S106 690 49534 392 0
3 2 S106 667 50201 1059 0
3 2 S106 644 50845 1703 0
3 2 S106 627 51472 2330 0
3 2 S106 631 52103 2961 0
3 2 S106 632 52735 3593 0
3 2 S106 647 53382 4240 0
3 2 S106 660 54042 4900 0
3 2 S106 647 54689 5547 0
3 2 S106 646 55335 6193 0
3 2 S106 674 56009 6867 0
0 0 0 677 56686 -6398 0
0 0 0 682 57368 -5716 0
0 0 0 678 58046 -5038 0
0 0 0 648 58694 -4390 0
0 0 0 661 59355 -3729 0
0 0 0 650 60005 -3079 0
0 0 0 635 60640 -2444 0
4 1 S116 631 61271 -1813 0
4 1 S116 636 61907 -1177 0
4 1 S116 637 62544 -540 0
4 2 S116 635 63179 95 0
4 2 S116 616 63795 711 0
4 2 S116 606 64401 1317 0
4 2 S116 599 65000 1916 0
4 2 S116 612 65612 2528 0
4 2 S116 625 66237 3153 0
4 2 S116 657 66894 3810 0
4 2 S116 662 67556 4472 0
4 2 S116 655 68211 5127 0
4 2 S116 635 68846 5762 0
4 2 S116 621 69467 6383 0
4 2 S116 606 70073 6989 0
0 0 0 592 70665 -8251 0
0 0 0 583 71248 -7668 0
0 0 0 582 71830 -7086 0
0 0 0 580 72410 -6506 0
0 0 0 573 72983 -5933 0
0 0 0 570 73553 -5363 0
0 0 0 571 74124 -4792 0
0 0 0 581 74705 -4211 0
0 0 0 569 75274 -3642 0
0 0 0 583 75857 -3059 0
0 0 0 604 76461 -2455 0
5 1 S106 640 77101 -1815 0
5 1 S106 675 77776 -1140 0
5 1 S106 666 78442 -474 0
5 2 S106 674 79116 200 0
5 2 S106 655 79771 855 0
5 2 S106 652 80423 1507 0
5 2 S106 638 81061 2145 0
5 2 S106 637 81698 2782 0
5 2 S106 617 82315 3399 0
5 2 S106 606 82921 4005 0
5 2 S106 605 83526 4610 0
5 2 S106 640 84166 5250 0
5 2 S106 726 84892 5976 0
5 2 S106 779 85671 6755 0
0 0 0 686 86357 -11094 0
0 0 0 676 87033 -10418 0
0 0 0 719 87752 -9699 0
0 0 0 754 88506 -8945 0
0 0 0 746 89252 -8199 0
0 0 0 719 89971 -7480 0
0 0 0 657 90628 -6823 0
0 0 0 656 91284 -6167 0
0 0 0 648 91932 -5519 0
0 0 0 651 92583 -4868 0
0 0 0 651 93234 -4217 0
0 0 0 626 93860 -3591 0
0 0 0 613 94473 -2978 0
0 0 0 616 95089 -2362 0
6 1 S102 616 95705 -1746 0
6 1 S102 643 96348 -1103 0
6 1 S102 678 97026 -425 0
6 2 S102 671 97697 246 0
6 2 S102 658 98355 904 0
6 2 S102 695 99050 1599 0
6 2 S102 707 99757 2306 0
6 2 S102 726 100483 3032 0
6 2 S102 705 101188 3737 0
6 2 S102 673 101861 4410 0
6 2 S102 680 102541 5090 0
6 2 S102 669 103210 5759 0
6 2 S102 667 103877 6426 0
0 0 0 652 104529 -9003 0
0 0 0 628 105157 -8375 0
0 0 0 616 105773 -7759 0
0 0 0 628 106401 -7131 0
0 0 0 628 107029 -6503 0
0 0 0 632 107661 -5871 0
0 0 0 619 108280 -5252 0
0 0 0 610 108890 -4642 0
0 0 0 605 109495 -4037 0
0 0 0 633 110128 -3404 0
0 0 0 647 110775 -2757 0
0 0 0 661 111436 -2096 0
7 1 S112 661 112097 -1435 0
7 1 S112 654 112751 -781 0
7 1 S112 646 113397 -135 0
7 2 S112 636 114033 501 0
7 2 S112 628 114661 1129 0
7 2 S112 635 115296 1764 0
7 2 S112 635 115931 2399 0
7 2 S112 632 116563 3031 0
7 2 S112 636 117199 3667 0
7 2 S112 637 117836 4304 0
7 2 S112 627 118463 4931 0
7 2 S112 634 119097 5565 0
7 2 S112 639 119736 6204 0
7 2 S112 663 120399 6867 0
0 0 0 658 121057 -7363 0
0 0 0 667 121724 -6696 0
0 0 0 653 122377 -6043 0
0 0 0 691 123068 -5352 0
0 0 0 706 123774 -4646 0
0 0 0 724 124498 -3922 0
0 0 0 658 125156 -3264 0
0 0 0 643 125799 -2621 0
8 1 S116 649 126448 -1972 0
8 1 S116 651 127099 -1321 0
8 1 S116 684 127783 -637 0
8 2 S116 695 128478 58 0
8 2 S116 680 129158 738 0
8 2 S116 661 129819 1399 0
8 2 S116 655 130474 2054 0
8 2 S116 652 131126 2706 0
8 2 S116 644 131770 3350 0
8 2 S116 628 132398 3978 0
8 2 S116 614 133012 4592 0
8 2 S116 621 133633 5213 0
8 2 S116 633 134266 5846 0
8 2 S116 684 134950 6530 0
0 0 0 718 135668 -10590 0
0 0 0 689 136357 -9901 0
0 0 0 662 137019 -9239 0
0 0 0 682 137701 -8557 0
0 0 0 705 138406 -7852 0
0 0 0 732 139138 -7120 0
0 0 0 715 139853 -6405 0
0 0 0 696 140549 -5709 0
0 0 0 660 141209 -5049 0
0 0 0 672 141881 -4377 0
0 0 0 651 142532 -3726 0
0 0 0 648 143180 -3078 0
0 0 0 642 143822 -2436 0
9 1 S102 629 144451 -1807 0
9 1 S102 622 145073 -1185 0
9 1 S102 641 145714 -544 0
9 2 S102 654 146368 110 0
9 2 S102 720 147088 830 0
9 2 S102 727 147815 1557 0
9 2 S102 680 148495 2237 0
9 2 S102 665 149160 2902 0
9 2 S102 682 149842 3584 0
9 2 S102 672 150514 4256 0
9 2 S102 672 151186 4928 0
9 2 S102 645 151831 5573 0
9 2 S102 635 152466 6208 0
9 2 S102 635 153101 6843 0
0 0 0 656 153757 -10223 0
0 0 0 684 154441 -9539 0
0 0 0 737 155178 -8802 0
0 0 0 675 155853 -8127 0
0 0 0 652 156505 -7475 0
0 0 0 654 157159 -6821 0
0 0 0 659 157818 -6162 0
0 0 0 654 158472 -5508 0
0 0 0 658 159130 -4850 0
0 0 0 652 159782 -4198 0
0 0 0 644 160426 -3554 0
0 0 0 642 161068 -2912 0
0 0 0 624 161692 -2288 0
10 1 S112 618 162310 -1670 0
10 1 S112 614 162924 -1056 0
10 1 S112 607 163531 -449 0
10 2 S112 612 164143 163 0
10 2 S112 630 164773 793 0
10 2 S112 719 165492 1512 0
10 2 S112 980 166472 2492 1
10 2 S112 843 167315 3335 1
10 2 S112 793 168108 4128 0
10 2 S112 769 168877 4897 0
10 2 S112 732 169609 5629 0
10 2 S112 680 170289 6309 0
10 2 S112 650 170939 6959 0
0 0 0 631 171570 -6369 0
0 0 0 611 172181 -5758 0
0 0 0 602 172783 -5156 0
0 0 0 592 173375 -4564 0
0 0 0 586 173961 -3978 0
0 0 0 581 174542 -3397 0
0 0 0 584 175126 -2813 0
0 0 0 568 175694 -2245 0
11 1 S116 568 176262 -1677 0
11 1 S116 573 176835 -1104 0
11 1 S116 579 177414 -525 0
11 2 S116 588 178002 63 0
11 2 S116 602 178604 665 0
11 2 S116 617 179221 1282 0
11 2 S116 673 179894 1955 0
11 2 S116 738 180632 2693 0
11 2 S116 717 181349 3410 0
11 2 S116 686 182035 4096 0
11 2 S116 652 182687 4748 0
11 2 S116 650 183337 5398 0
11 2 S116 645 183982 6043 0
11 2 S116 632 184614 6675 0
0 0 0 623 185237 -11021 0
0 0 0 606 185843 -10415 0
0 0 0 594 186437 -9821 0
0 0 0 598 187035 -9223 0
0 0 0 603 187638 -8620 0
0 0 0 635 188273 -7985 0
0 0 0 734 189007 -7251 0
0 0 0 722 189729 -6529 0
0 0 0 703 190432 -5826 0
0 0 0 680 191112 -5146 0
0 0 0 639 191751 -4507 0
0 0 0 628 192379 -3879 0
0 0 0 637 193016 -3242 0
0 0 0 654 193670 -2588 0
12 1 S112 679 194349 -1909 0
12 1 S112 688 195037 -1221 0
12 1 S112 669 195706 -552 0
12 2 S112 651 196357 99 0
12 2 S112 637 196994 736 0
12 2 S112 633 197627 1369 0
12 2 S112 639 198266 2008 0
12 2 S112 640 198906 2648 0
12 2 S112 650 199556 3298 0
12 2 S112 655 200211 3953 0
12 2 S112 637 200848 4590 0
12 2 S112 621 201469 5211 0
12 2 S112 627 202096 5838 0
12 2 S112 646 202742 6484 0
0 0 0 677 203419 -13131 0
0 0 0 727 204146 -12404 0
0 0 0 684 204830 -11720 0
0 0 0 669 205499 -11051 0
0 0 0 701 206200 -10350 0
0 0 0 708 206908 -9642 0
0 0 0 711 207619 -8931 0
0 0 0 671 208290 -8260 0
0 0 0 634 208924 -7626 0
0 0 0 619 209543 -7007 0
0 0 0 620 210163 -6387 0
0 0 0 612 210775 -5775 0
0 0 0 630 211405 -5145 0
0 0 0 657 212062 -4488 0
0 0 0 672 212734 -3816 0
0 0 0 659 213393 -3157 0
0 0 0 646 214039 -2511 0
13 1 S106 659 214698 -1852 0
13 1 S106 655 215353 -1197 0
13 1 S106 648 216001 -549 0
13 2 S106 639 216640 90 0
13 2 S106 626 217266 716 0
13 2 S106 638 217904 1354 0
13 2 S106 644 218548 1998 0
13 2 S106 658 219206 2656 0
13 2 S106 639 219845 3295 0
13 2 S106 623 220468 3918 0
13 2 S106 621 221089 4539 0
13 2 S106 637 221726 5176 0
13 2 S106 664 222390 5840 0
13 2 S106 739 223129 6579 0
0 0 0 742 223871 -11545 0
0 0 0 706 224577 -10839 0
0 0 0 658 225235 -10181 0
0 0 0 667 225902 -9514 0
0 0 0 651 226553 -8863 0
0 0 0 628 227181 -8235 0
0 0 0 610 227791 -7625 0
0 0 0 599 228390 -7026 0
0 0 0 599 228989 -6427 0
0 0 0 604 229593 -5823 0
0 0 0 639 230232 -5184 0
0 0 0 678 230910 -4506 0
0 0 0 696 231606 -3810 0
0 0 0 775 232381 -3035 0
0 0 0 795 233176 -2240 0
14 1 S116 770 233946 -1470 0
14 1 S116 701 234647 -769 0
14 1 S116 672 235319 -97 0
14 2 S116 648 235967 551 0
14 2 S116 670 236637 1221 0
14 2 S116 663 237300 1884 0
14 2 S116 659 237959 2543 0
14 2 S116 663 238622 3206 0
14 2 S116 656 239278 3862 0
14 2 S116 646 239924 4508 0
14 2 S116 627 240551 5135 0
14 2 S116 607 241158 5742 0
14 2 S116 594 241752 6336 0
14 2 S116 586 242338 6922 0
0 0 0 589 242927 -9947 0
0 0 0 607 243534 -9340 0
0 0 0 616 244150 -8724 0
0 0 0 645 244795 -8079 0
0 0 0 647 245442 -7432 0
0 0 0 641 246083 -6791 0
0 0 0 678 246761 -6113 0
0 0 0 678 247439 -5435 0
0 0 0 681 248120 -4754 0
0 0 0 673 248793 -4081 0
0 0 0 674 249467 -3407 0
0 0 0 658 250125 -2749 0
0 0 0 648 250773 -2101 0
15 1 S116 645 251418 -1456 0
15 1 S116 644 252062 -812 0
15 1 S116 646 252708 -166 0
15 2 S116 651 253359 485 0
15 2 S116 645 254004 1130 0
15 2 S116 624 254628 1754 0
15 2 S116 611 255239 2365 0
15 2 S116 607 255846 2972 0
15 2 S116 631 256477 3603 0
15 2 S116 732 257209 4335 0
15 2 S116 832 258041 5167 1
15 2 S116 780 258821 5947 0
15 2 S116 757 259578 6704 0
0 0 0 725 260303 -10757 0
0 0 0 719 261022 -10038 0
0 0 0 699 261721 -9339 0
0 0 0 693 262414 -8646 0
0 0 0 650 263064 -7996 0
0 0 0 647 263711 -7349 0
0 0 0 643 264354 -6706 0
0 0 0 631 264985 -6075 0
0 0 0 613 265598 -5462 0
0 0 0 607 266205 -4855 0
0 0 0 605 266810 -4250 0
0 0 0 630 267440 -3620 0
0 0 0 756 268196 -2864 0
0 0 0 809 269005 -2055 1
16 1 S106 831 269836 -1224 1
16 1 S106 784 270620 -440 0
16 2 S106 732 271352 292 0
16 2 S106 685 272037 977 0
16 2 S106 674 272711 1651 0
16 2 S106 661 273372 2312 0
16 2 S106 655 274027 2967 0
16 2 S106 647 274674 3614 0
16 2 S106 638 275312 4252 0
16 2 S106 628 275940 4880 0
16 2 S106 637 276577 5517 0
16 2 S106 641 277218 6158 0
16 2 S106 655 277873 6813 0
0 0 0 643 278516 -10963 0
0 0 0 638 279154 -10325 0
0 0 0 652 279806 -9673 0
0 0 0 670 280476 -9003 0
0 0 0 677 281153 -8326 0
0 0 0 677 281830 -7649 0
0 0 0 638 282468 -7011 0
0 0 0 630 283098 -6381 0
0 0 0 629 283727 -5752 0
0 0 0 636 284363 -5116 0
0 0 0 668 285031 -4448 0
0 0 0 707 285738 -3741 0
0 0 0 732 286470 -3009 0
0 0 0 689 287159 -2320 0
17 1 S102 661 287820 -1659 0
17 1 S102 666 288486 -993 0
17 1 S102 653 289139 -340 0
17 2 S102 654 289793 314 0
17 2 S102 653 290446 967 0
17 2 S102 638 291084 1605 0
17 2 S102 635 291719 2240 0
17 2 S102 640 292359 2880 0
17 2 S102 644 293003 3524 0
17 2 S102 658 293661 4182 0
17 2 S102 641 294302 4823 0
17 2 S102 641 294943 5464 0
17 2 S102 652 295595 6116 0
17 2 S102 665 296260 6781 0
0 0 0 680 296940 -7210 0
0 0 0 676 297616 -6534 0
0 0 0 637 298253 -5897 0
0 0 0 634 298887 -5263 0
0 0 0 643 299530 -4620 0
0 0 0 641 300171 -3979 0
0 0 0 647 300818 -3332 0
0 0 0 646 301464 -2686 0
0 0 0 632 302096 -2054 0
18 1 S106 622 302718 -1432 0
18 1 S106 636 303354 -796 0
18 1 S106 642 303996 -154 0
18 2 S106 662 304658 508 0
18 2 S106 652 305310 1160 0
18 2 S106 635 305945 1795 0
18 2 S106 628 306573 2423 0
18 2 S106 632 307205 3055 0
18 2 S106 629 307834 3684 0
18 2 S106 632 308466 4316 0
18 2 S106 622 309088 4938 0
18 2 S106 613 309701 5551 0
18 2 S106 616 310317 6167 0
18 2 S106 626 310943 6793 0
0 0 0 655 311598 -10789 0
0 0 0 675 312273 -10114 0
0 0 0 660 312933 -9454 0
0 0 0 629 313562 -8825 0
0 0 0 633 314195 -8192 0
0 0 0 615 314810 -7577 0
0 0 0 603 315413 -6974 0
0 0 0 594 316007 -6380 0
0 0 0 587 316594 -5793 0
0 0 0 577 317171 -5216 0
0 0 0 567 317738 -4649 0
0 0 0 570 318308 -4079 0
0 0 0 567 318875 -3512 0
0 0 0 568 319443 -2944 0
0 0 0 576 320019 -2368 0
19 1 S112 621 320640 -1747 0
19 1 S112 717 321357 -1030 0
19 1 S112 800 322157 -230 0
19 2 S112 752 322909 522 0
19 2 S112 722 323631 1244 0
19 2 S112 676 324307 1920 0
19 2 S112 663 324970 2583 0
19 2 S112 662 325632 3245 0
19 2 S112 653 326285 3898 0
19 2 S112 639 326924 4537 0
19 2 S112 615 327539 5152 0
19 2 S112 601 328140 5753 0
19 2 S112 601 328741 6354 0
19 2 S112 603 329344 6957 0
0 0 0 613 329957 -10053 0
0 0 0 612 330569 -9441 0
0 0 0 598 331167 -8843 0
0 0 0 602 331769 -8241 0
0 0 0 624 332393 -7617 0
0 0 0 675 333068 -6942 0
0 0 0 707 333775 -6235 0
0 0 0 716 334491 -5519 0
0 0 0 666 335157 -4853 0
0 0 0 653 335810 -4200 0
0 0 0 659 336469 -3541 0
0 0 0 658 337127 -2883 0
0 0 0 647 337774 -2236 0
20 1 S106 652 338426 -1584 0
20 1 S106 632 339058 -952 0
20 1 S106 627 339685 -325 0
20 2 S106 633 340318 308 0
20 2 S106 639 340957 947 0
20 2 S106 666 341623 1613 0
20 2 S106 661 342284 2274 0
20 2 S106 656 342940 2930 0
20 2 S106 656 343596 3586 0
20 2 S106 686 344282 4272 0
20 2 S106 695 344977 4967 0
20 2 S106 708 345685 5675 0
20 2 S106 686 346371 6361 0
20 2 S106 659 347030 7020 0
0 0 0 665 347695 -11214 0
0 0 0 657 348352 -10557 0
0 0 0 659 349011 -9898 0
0 0 0 666 349677 -9232 0
0 0 0 637 350314 -8595 0
0 0 0 642 350956 -7953 0
0 0 0 646 351602 -7307 0
0 0 0 652 352254 -6655 0
0 0 0 645 352899 -6010 0
0 0 0 626 353525 -5384 0
0 0 0 619 354144 -4765 0
0 0 0 623 354767 -4142 0
0 0 0 717 355484 -3425 0
0 0 0 788 356272 -2637 0
21 1 S116 707 356979 -1930 0
21 1 S116 666 357645 -1264 0
21 1 S116 648 358293 -616 0
21 2 S116 630 358923 14 0
21 2 S116 617 359540 631 0
21 2 S116 614 360154 1245 0
21 2 S116 618 360772 1863 0
21 2 S116 614 361386 2477 0
21 2 S116 604 361990 3081 0
21 2 S116 614 362604 3695 0
21 2 S116 640 363244 4335 0
21 2 S116 651 363895 4986 0
21 2 S116 649 364544 5635 0
21 2 S116 656 365200 6291 0
21 2 S116 643 365843 6934 0
0 0 0 618 366461 -11049 0
0 0 0 601 367062 -10448 0
0 0 0 598 367660 -9850 0
0 0 0 604 368264 -9246 0
0 0 0 651 368915 -8595 0
0 0 0 721 369636 -7874 0
0 0 0 711 370347 -7163 0
0 0 0 719 371066 -6444 0
0 0 0 741 371807 -5703 0
0 0 0 749 372556 -4954 0
0 0 0 726 373282 -4228 0
0 0 0 667 373949 -3561 0
0 0 0 647 374596 -2914 0
0 0 0 650 375246 -2264 0
22 1 S112 659 375905 -1605 0
22 1 S112 677 376582 -928 0
22 1 S112 685 377267 -243 0
22 2 S112 668 377935 425 0
22 2 S112 650 378585 1075 0
22 2 S112 642 379227 1717 0
22 2 S112 644 379871 2361 0
22 2 S112 643 380514 3004 0
22 2 S112 645 381159 3649 0
22 2 S112 639 381798 4288 0
22 2 S112 626 382424 4914 0
22 2 S112 619 383043 5533 0
22 2 S112 626 383669 6159 0
22 2 S112 642 384311 6801 0
0 0 0 702 385013 -8711 0
0 0 0 747 385760 -7964 0
0 0 0 696 386456 -7268 0
0 0 0 682 387138 -6586 0
0 0 0 666 387804 -5920 0
0 0 0 661 388465 -5259 0
0 0 0 660 389125 -4599 0
0 0 0 642 389767 -3957 0
0 0 0 633 390400 -3324 0
0 0 0 635 391035 -2689 0
0 0 0 645 391680 -2044 0
23 1 S106 655 392335 -1389 0
23 1 S106 671 393006 -718 0
23 1 S106 675 393681 -43 0
23 2 S106 665 394346 622 0
23 2 S106 652 394998 1274 0
23 2 S106 657 395655 1931 0
23 2 S106 645 396300 2576 0
23 2 S106 639 396939 3215 0
23 2 S106 617 397556 3832 0
23 2 S106 601 398157 4433 0
23 2 S106 590 398747 5023 0
23 2 S106 583 399330 5606 0
23 2 S106 584 399914 6190 0
23 2 S106 591 400505 6781 0
0 0 0 611 401116 -8805 0
0 0 0 667 401783 -8138 0
0 0 0 792 402575 -7346 0
0 0 0 781 403356 -6565 0
0 0 0 721 404077 -5844 0
0 0 0 693 404770 -5151 0
0 0 0 730 405500 -4421 0
0 0 0 718 406218 -3703 0
0 0 0 714 406932 -2989 0
0 0 0 700 407632 -2289 0
24 1 S102 676 408308 -1613 0
24 1 S102 658 408966 -955 0
24 1 S102 643 409609 -312 0
24 2 S102 611 410220 299 0
24 2 S102 594 410814 893 0
24 2 S102 586 411400 1479 0
24 2 S102 580 411980 2059 0
24 2 S102 579 412559 2638 0
24 2 S102 593 413152 3231 0
24 2 S102 610 413762 3841 0
24 2 S102 594 414356 4435 0
24 2 S102 585 414941 5020 0
24 2 S102 586 415527 5606 0
24 2 S102 604 416131 6210 0
24 2 S102 644 416775 6854 0
0 0 0 719 417494 -6319 0
0 0 0 724 418218 -5595 0
0 0 0 747 418965 -4848 0
0 0 0 702 419667 -4146 0
0 0 0 651 420318 -3495 0
0 0 0 641 420959 -2854 0
0 0 0 636 421595 -2218 0
25 1 S116 631 422226 -1587 0
25 1 S116 631 422857 -956 0
25 1 S116 633 423490 -323 0
25 2 S116 629 424119 306 0
25 2 S116 618 424737 924 0
25 2 S116 610 425347 1534 0
25 2 S116 608 425955 2142 0
25 2 S116 611 426566 2753 0
25 2 S116 619 427185 3372 0
25 2 S116 622 427807 3994 0
25 2 S116 634 428441 4628 0
25 2 S116 625 429066 5253 0
25 2 S116 624 429690 5877 0
25 2 S116 624 430314 6501 0
0 0 0 662 430976 -6564 0
0 0 0 697 431673 -5867 0
0 0 0 756 432429 -5111 0
0 0 0 731 433160 -4380 0
0 0 0 691 433851 -3689 0
0 0 0 654 434505 -3035 0
0 0 0 645 435150 -2390 0
26 1 S106 643 435793 -1747 0
26 1 S106 636 436429 -1111 0
26 1 S106 654 437083 -457 0
26 2 S106 646 437729 189 0
26 2 S106 632 438361 821 0
26 2 S106 627 438988 1448 0
26 2 S106 624 439612 2072 0
26 2 S106 653 440265 2725 0
26 2 S106 717 440982 3442 0
26 2 S106 766 441748 4208 0
26 2 S106 771 442519 4979 0
26 2 S106 761 443280 5740 0
26 2 S106 734 444014 6474 0
0 0 0 664 444678 -6921 0
0 0 0 643 445321 -6278 0
0 0 0 642 445963 -5636 0
0 0 0 644 446607 -4992 0
0 0 0 649 447256 -4343 0
0 0 0 651 447907 -3692 0
0 0 0 645 448552 -3047 0
0 0 0 634 449186 -2413 0
27 1 S102 626 449812 -1787 0
27 1 S102 654 450466 -1133 0
27 1 S102 680 451146 -453 0
27 2 S102 723 451869 270 0
27 2 S102 714 452583 984 0
27 2 S102 696 453279 1680 0
27 2 S102 666 453945 2346 0
27 2 S102 690 454635 3036 0
27 2 S102 690 455325 3726 0
27 2 S102 694 456019 4420 0
27 2 S102 681 456700 5101 0
27 2 S102 665 457365 5766 0
27 2 S102 670 458035 6436 0
0 0 0 675 458710 -11274 0
0 0 0 675 459385 -10599 0
0 0 0 682 460067 -9917 0
0 0 0 674 460741 -9243 0
0 0 0 656 461397 -8587 0
0 0 0 676 462073 -7911 0
0 0 0 675 462748 -7236 0
0 0 0 691 463439 -6545 0
0 0 0 672 464111 -5873 0
0 0 0 640 464751 -5233 0
0 0 0 620 465371 -4613 0
0 0 0 624 465995 -3989 0
0 0 0 639 466634 -3350 0
0 0 0 684 467318 -2666 0
28 1 S112 755 468073 -1911 0
28 1 S112 748 468821 -1163 0
28 1 S112 721 469542 -442 0
28 2 S112 685 470227 243 0
28 2 S112 685 470912 928 0
28 2 S112 676 471588 1604 0
28 2 S112 669 472257 2273 0
28 2 S112 663 472920 2936 0
28 2 S112 638 473558 3574 0
28 2 S112 621 474179 4195 0
28 2 S112 627 474806 4822 0
28 2 S112 626 475432 5448 0
28 2 S112 637 476069 6085 0
28 2 S112 640 476709 6725 0
0 0 0 635 477344 -6798 0
0 0 0 634 477978 -6164 0
0 0 0 676 478654 -5488 0
0 0 0 772 479426 -4716 0
0 0 0 751 480177 -3965 0
0 0 0 775 480952 -3190 0
0 0 0 720 481672 -2470 0
29 1 S112 670 482342 -1800 0
29 1 S112 659 483001 -1141 0
29 1 S112 662 483663 -479 0
29 2 S112 658 484321 179 0
29 2 S112 671 484992 850 0
29 2 S112 668 485660 1518 0
29 2 S112 678 486338 2196 0
29 2 S112 678 487016 2874 0
29 2 S112 685 487701 3559 0
29 2 S112 714 488415 4273 0
29 2 S112 694 489109 4967 0
29 2 S112 707 489816 5674 0
29 2 S112 701 490517 6375 0
0 0 0 677 491194 -9013 0
0 0 0 679 491873 -8334 0
0 0 0 681 492554 -7653 0
0 0 0 690 493244 -6963 0
0 0 0 665 493909 -6298 0
0 0 0 645 494554 -5653 0
0 0 0 632 495186 -5021 0
0 0 0 635 495821 -4386 0
0 0 0 696 496517 -3690 0
0 0 0 729 497246 -2961 0
0 0 0 753 497999 -2208 0
30 1 S106 735 498734 -1473 0
30 1 S106 676 499410 -797 0
30 1 S106 684 500094 -113 0
30 2 S106 696 500790 583 0
30 2 S106 693 501483 1276 0
30 2 S106 675 502158 1951 0
30 2 S106 644 502802 2595 0
30 2 S106 635 503437 3230 0
30 2 S106 633 504070 3863 0
30 2 S106 634 504704 4497 0
30 2 S106 636 505340 5133 0
30 2 S106 633 505973 5766 0
30 2 S106 625 506598 6391 0
30 2 S106 619 507217 7010 0
0 0 0 611 507828 -8974 0
0 0 0 608 508436 -8366 0
0 0 0 606 509042 -7760 0
0 0 0 627 509669 -7133 0
0 0 0 656 510325 -6477 0
0 0 0 676 511001 -5801 0
0 0 0 670 511671 -5131 0
0 0 0 652 512323 -4479 0
0 0 0 630 512953 -3849 0
0 0 0 633 513586 -3216 0
0 0 0 640 514226 -2576 0
31 1 S102 665 514891 -1911 0
31 1 S102 666 515557 -1245 0
31 1 S102 652 516209 -593 0
31 2 S102 643 516852 50 0
31 2 S102 660 517512 710 0
31 2 S102 653 518165 1363 0
31 2 S102 641 518806 2004 0
31 2 S102 623 519429 2627 0
31 2 S102 626 520055 3253 0
31 2 S102 633 520688 3886 0
31 2 S102 657 521345 4543 0
31 2 S102 640 521985 5183 0
31 2 S102 636 522621 5819 0
31 2 S102 653 523274 6472 0
0 0 0 660 523934 -10590 0
0 0 0 676 524610 -9914 0
0 0 0 701 525311 -9213 0
0 0 0 678 525989 -8535 0
0 0 0 647 526636 -7888 0
0 0 0 629 527265 -7259 0
0 0 0 615 527880 -6644 0
0 0 0 613 528493 -6031 0
0 0 0 607 529100 -5424 0
0 0 0 619 529719 -4805 0
0 0 0 636 530355 -4169 0
0 0 0 636 530991 -3533 0
0 0 0 650 531641 -2883 0
0 0 0 651 532292 -2232 0
32 1 S112 653 532945 -1579 0
32 1 S112 652 533597 -927 0
32 1 S112 659 534256 -268 0
32 2 S112 659 534915 391 0
32 2 S112 687 535602 1078 0
32 2 S112 706 536308 1784 0
32 2 S112 722 537030 2506 0
32 2 S112 715 537745 3221 0
32 2 S112 704 538449 3925 0
32 2 S112 675 539124 4600 0
32 2 S112 710 539834 5310 0
32 2 S112 751 540585 6061 0
32 2 S112 766 541351 6827 0
0 0 0 750 542101 -11836 0
0 0 0 711 542812 -11125 0
0 0 0 677 543489 -10448 0
0 0 0 698 544187 -9750 0
0 0 0 695 544882 -9055 0
0 0 0 680 545562 -8375 0
0 0 0 648 546210 -7727 0
0 0 0 637 546847 -7090 0
0 0 0 632 547479 -6458 0
0 0 0 643 548122 -5815 0
0 0 0 659 548781 -5156 0
0 0 0 696 549477 -4460 0
0 0 0 691 550168 -3769 0
0 0 0 677 550845 -3092 0
0 0 0 682 551527 -2410 0
33 1 S106 707 552234 -1703 0
33 1 S106 725 552959 -978 0
33 1 S106 705 553664 -273 0
33 2 S106 670 554334 397 0
33 2 S106 655 554989 1052 0
33 2 S106 661 555650 1713 0
33 2 S106 658 556308 2371 0
33 2 S106 663 556971 3034 0
33 2 S106 671 557642 3705 0
33 2 S106 650 558292 4355 0
33 2 S106 642 558934 4997 0
33 2 S106 628 559562 5625 0
33 2 S106 639 560201 6264 0
33 2 S106 650 560851 6914 0
0 0 0 662 561513 -8638 0
0 0 0 667 562180 -7971 0
0 0 0 689 562869 -7282 0
0 0 0 699 563568 -6583 0
0 0 0 672 564240 -5911 0
0 0 0 648 564888 -5263 0
0 0 0 649 565537 -4614 0
0 0 0 649 566186 -3965 0
0 0 0 641 566827 -3324 0
0 0 0 615 567442 -2709 0
0 0 0 602 568044 -2107 0
34 1 S102 601 568645 -1506 0
34 1 S102 610 569255 -896 0
34 1 S102 642 569897 -254 0
34 2 S102 700 570597 446 0
34 2 S102 688 571285 1134 0
34 2 S102 657 571942 1791 0
34 2 S102 637 572579 2428 0
34 2 S102 642 573221 3070 0
34 2 S102 657 573878 3727 0
34 2 S102 707 574585 4434 0
34 2 S102 707 575292 5141 0
34 2 S102 669 575961 5810 0
34 2 S102 650 576611 6460 0
0 0 0 650 577261 -6832 0
0 0 0 658 577919 -6174 0
0 0 0 682 578601 -5492 0
0 0 0 690 579291 -4802 0
0 0 0 654 579945 -4148 0
0 0 0 643 580588 -3505 0
0 0 0 652 581240 -2853 0
0 0 0 662 581902 -2191 0
35 1 S106 673 582575 -1518 0
35 1 S106 677 583252 -841 0
35 1 S106 655 583907 -186 0
35 2 S106 688 584595 502 0
35 2 S106 719 585314 1221 0
35 2 S106 732 586046 1953 0
35 2 S106 739 586785 2692 0
35 2 S106 690 587475 3382 0
35 2 S106 661 588136 4043 0
35 2 S106 655 588791 4698 0
35 2 S106 666 589457 5364 0
35 2 S106 679 590136 6043 0
35 2 S106 679 590815 6722 0
0 0 0 686 591501 -9336 0
0 0 0 663 592164 -8673 0
0 0 0 644 592808 -8029 0
0 0 0 661 593469 -7368 0
0 0 0 660 594129 -6708 0
0 0 0 641 594770 -6067 0
0 0 0 644 595414 -5423 0
0 0 0 667 596081 -4756 0
0 0 0 685 596766 -4071 0
0 0 0 725 597491 -3346 0
0 0 0 698 598189 -2648 0
36 1 S116 651 598840 -1997 0
36 1 S116 634 599474 -1363 0
36 1 S116 633 600107 -730 0
36 1 S116 660 600767 -70 0
36 2 S116 717 601484 647 0
36 2 S116 752 602236 1399 0
36 2 S116 767 603003 2166 0
36 2 S116 761 603764 2927 0
36 2 S116 745 604509 3672 0
36 2 S116 735 605244 4407 0
36 2 S116 700 605944 5107 0
36 2 S116 680 606624 5787 0
36 2 S116 663 607287 6450 0
0 0 0 646 607933 -12467 0
0 0 0 638 608571 -11829 0
0 0 0 641 609212 -11188 0
0 0 0 623 609835 -10565 0
0 0 0 625 610460 -9940 0
0 0 0 644 611104 -9296 0
0 0 0 682 611786 -8614 0
0 0 0 685 612471 -7929 0
0 0 0 688 613159 -7241 0
0 0 0 661 613820 -6580 0
0 0 0 654 614474 -5926 0
0 0 0 674 615148 -5252 0
0 0 0 693 615841 -4559 0
0 0 0 703 616544 -3856 0
0 0 0 698 617242 -3158 0
0 0 0 666 617908 -2492 0
37 1 S102 647 618555 -1845 0
37 1 S102 653 619208 -1192 0
37 1 S102 650 619858 -542 0
37 2 S102 645 620503 103 0
37 2 S102 648 621151 751 0
37 2 S102 637 621788 1388 0
37 2 S102 626 622414 2014 0
37 2 S102 638 623052 2652 0
37 2 S102 642 623694 3294 0
37 2 S102 659 624353 3953 0
37 2 S102 670 625023 4623 0
37 2 S102 651 625674 5274 0
37 2 S102 637 626311 5911 0
37 2 S102 644 626955 6555 0
0 0 0 663 627618 -8747 0
0 0 0 696 628314 -8051 0
0 0 0 712 629026 -7339 0
0 0 0 664 629690 -6675 0
0 0 0 640 630330 -6035 0
0 0 0 630 630960 -5405 0
0 0 0 626 631586 -4779 0
0 0 0 615 632201 -4164 0
0 0 0 602 632803 -3562 0
0 0 0 599 633402 -2963 0
0 0 0 605 634007 -2358 0
38 1 S116 600 634607 -1758 0
38 1 S116 592 635199 -1166 0
38 1 S116 600 635799 -566 0
38 2 S116 612 636411 46 0
38 2 S116 636 637047 682 0
38 2 S116 654 637701 1336 0
38 2 S116 646 638347 1982 0
38 2 S116 624 638971 2606 0
38 2 S116 620 639591 3226 0
38 2 S116 627 640218 3853 0
38 2 S116 640 640858 4493 0
38 2 S116 684 641542 5177 0
38 2 S116 739 642281 5916 0
38 2 S116 695 642976 6611 0
0 0 0 684 643660 -6117 0
0 0 0 729 644389 -5388 0
0 0 0 721 645110 -4667 0
0 0 0 708 645818 -3959 0
0 0 0 666 646484 -3293 0
0 0 0 637 647121 -2656 0
0 0 0 627 647748 -2029 0
39 1 S112 621 648369 -1408 0
39 1 S112 608 648977 -800 0
39 1 S112 606 649583 -194 0
39 2 S112 601 650184 407 0
39 2 S112 590 650774 997 0
39 2 S112 600 651374 1597 0
39 2 S112 613 651987 2210 0
39 2 S112 623 652610 2833 0
39 2 S112 627 653237 3460 0
39 2 S112 616 653853 4076 0
39 2 S112 604 654457 4680 0
39 2 S112 604 655061 5284 0
39 2 S112 608 655669 5892 0
39 2 S112 615 656284 6507 0
0 0 0 637 656921 -186674 0
0 0 0 641 657562 -186033 0
0 0 0 628 658190 -185405 0
0 0 0 617 658807 -184788 0
0 0 0 630 659437 -184158 0
0 0 0 642 660079 -183516 0
0 0 0 673 660752 -182843 0
0 0 0 704 661456 -182139 0
0 0 0 706 662162 -181433 0
0 0 0 666 662828 -180767 0
0 0 0 684 663512 -180083 0
0 0 0 669 664181 -179414 0
0 0 0 669 664850 -178745 0
0 0 0 661 665511 -178084 0
0 0 0 670 666181 -177414 0
0 0 0 682 666863 -176732 0
0 0 0 679 667542 -176053 0
0 0 0 657 668199 -175396 0
0 0 0 650 668849 -174746 0
0 0 0 642 669491 -174104 0
0 0 0 631 670122 -173473 0
0 0 0 633 670755 -172840 0
0 0 0 626 671381 -172214 0
0 0 0 625 672006 -171589 0
0 0 0 625 672631 -170964 0
0 0 0 638 673269 -170326 0
0 0 0 637 673906 -169689 0
0 0 0 623 674529 -169066 0
0 0 0 610 675139 -168456 0
0 0 0 619 675758 -167837 0
0 0 0 616 676374 -167221 0
0 0 0 608 676982 -166613 0
0 0 0 595 677577 -166018 0
0 0 0 609 678186 -165409 0
0 0 0 612 678798 -164797 0
0 0 0 611 679409 -164186 0
0 0 0 609 680018 -163577 0
0 0 0 639 680657 -162938 0
0 0 0 653 681310 -162285 0
0 0 0 684 681994 -161601 0
0 0 0 689 682683 -160912 0
0 0 0 679 683362 -160233 0
0 0 0 661 684023 -159572 0
0 0 0 636 684659 -158936 0
0 0 0 617 685276 -158319 0
0 0 0 606 685882 -157713 0
0 0 0 586 686468 -157127 0
0 0 0 586 687054 -156541 0
0 0 0 575 687629 -155966 0
0 0 0 580 688209 -155386 0
0 0 0 615 688824 -154771 0
0 0 0 774 689598 -153997 0
0 0 0 792 690390 -153205 0
0 0 0 988 691378 -152217 1
0 0 0 738 692116 -151479 0
0 0 0 722 692838 -150757 0
0 0 0 765 693603 -149992 0
0 0 0 743 694346 -149249 0
0 0 0 737 695083 -148512 0
0 0 0 695 695778 -147817 0
0 0 0 653 696431 -147164 0
0 0 0 640 697071 -146524 0
0 0 0 632 697703 -145892 0
0 0 0 626 698329 -145266 0
0 0 0 603 698932 -144663 0
0 0 0 596 699528 -144067 0
0 0 0 600 700128 -143467 0
0 0 0 615 700743 -142852 0
0 0 0 639 701382 -142213 0
0 0 0 638 702020 -141575 0
0 0 0 618 702638 -140957 0
0 0 0 627 703265 -140330 0
0 0 0 634 703899 -139696 0
0 0 0 636 704535 -139060 0
0 0 0 621 705156 -138439 0
0 0 0 626 705782 -137813 0
0 0 0 633 706415 -137180 0
0 0 0 639 707054 -136541 0
0 0 0 638 707692 -135903 0
0 0 0 636 708328 -135267 0
0 0 0 641 708969 -134626 0
0 0 0 661 709630 -133965 0
0 0 0 665 710295 -133300 0
0 0 0 636 710931 -132664 0
0 0 0 635 711566 -132029 0
0 0 0 606 712172 -131423 0
0 0 0 609 712781 -130814 0
0 0 0 605 713386 -130209 0
0 0 0 615 714001 -129594 0
0 0 0 623 714624 -128971 0
0 0 0 629 715253 -128342 0
0 0 0 617 715870 -127725 0
0 0 0 616 716486 -127109 0
0 0 0 631 717117 -126478 0
0 0 0 641 717758 -125837 0
0 0 0 654 718412 -125183 0
0 0 0 649 719061 -124534 0
0 0 0 625 719686 -123909 0
0 0 0 620 720306 -123289 0
0 0 0 614 720920 -122675 0
0 0 0 607 721527 -122068 0
0 0 0 601 722128 -121467 0
0 0 0 606 722734 -120861 0
0 0 0 623 723357 -120238 0
0 0 0 633 723990 -119605 0
0 0 0 649 724639 -118956 0
0 0 0 617 725256 -118339 0
0 0 0 615 725871 -117724 0
0 0 0 621 726492 -117103 0
0 0 0 642 727134 -116461 0
0 0 0 680 727814 -115781 0
0 0 0 683 728497 -115098 0
0 0 0 650 729147 -114448 0
0 0 0 642 729789 -113806 0
0 0 0 656 730445 -113150 0
0 0 0 668 731113 -112482 0
0 0 0 666 731779 -111816 0
0 0 0 636 732415 -111180 0
0 0 0 629 733044 -110551 0
0 0 0 642 733686 -109909 0
0 0 0 752 734438 -109157 0
0 0 0 708 735146 -108449 0
0 0 0 679 735825 -107770 0
0 0 0 655 736480 -107115 0
0 0 0 642 737122 -106473 0
0 0 0 659 737781 -105814 0
0 0 0 690 738471 -105124 0
0 0 0 674 739145 -104450 0
0 0 0 693 739838 -103757 0
0 0 0 759 740597 -102998 0
0 0 0 766 741363 -102232 0
0 0 0 726 742089 -101506 0
0 0 0 705 742794 -100801 0
0 0 0 690 743484 -100111 0
0 0 0 687 744171 -99424 0
0 0 0 688 744859 -98736 0
0 0 0 687 745546 -98049 0
0 0 0 647 746193 -97402 0
0 0 0 623 746816 -96779 0
0 0 0 611 747427 -96168 0
0 0 0 625 748052 -95543 0
0 0 0 692 748744 -94851 0
0 0 0 864 749608 -93987 1
0 0 0 768 750376 -93219 0
0 0 0 719 751095 -92500 0
0 0 0 717 751812 -91783 0
0 0 0 762 752574 -91021 0
0 0 0 769 753343 -90252 0
0 0 0 778 754121 -89474 0
0 0 0 732 754853 -88742 0
0 0 0 674 755527 -88068 0
0 0 0 674 756201 -87394 0
0 0 0 657 756858 -86737 0
0 0 0 651 757509 -86086 0
0 0 0 646 758155 -85440 0
0 0 0 635 758790 -84805 0
0 0 0 640 759430 -84165 0
0 0 0 650 760080 -83515 0
0 0 0 664 760744 -82851 0
0 0 0 677 761421 -82174 0
0 0 0 649 762070 -81525 0
0 0 0 635 762705 -80890 0
0 0 0 649 763354 -80241 0
0 0 0 658 764012 -79583 0
0 0 0 680 764692 -78903 0
0 0 0 681 765373 -78222 0
0 0 0 651 766024 -77571 0
0 0 0 629 766653 -76942 0
0 0 0 627 767280 -76315 0
0 0 0 629 767909 -75686 0
0 0 0 640 768549 -75046 0
0 0 0 651 769200 -74395 0
0 0 0 651 769851 -73744 0
0 0 0 635 770486 -73109 0
0 0 0 630 771116 -72479 0
0 0 0 643 771759 -71836 0
0 0 0 673 772432 -71163 0
0 0 0 687 773119 -70476 0
0 0 0 661 773780 -69815 0
0 0 0 672 774452 -69143 0
0 0 0 672 775124 -68471 0
0 0 0 663 775787 -67808 0
0 0 0 631 776418 -67177 0
0 0 0 624 777042 -66553 0
0 0 0 613 777655 -65940 0
0 0 0 605 778260 -65335 0
0 0 0 612 778872 -64723 0
0 0 0 628 779500 -64095 0
0 0 0 642 780142 -63453 0
0 0 0 639 780781 -62814 0
0 0 0 606 781387 -62208 0
0 0 0 586 781973 -61622 0
0 0 0 578 782551 -61044 0
0 0 0 571 783122 -60473 0
0 0 0 585 783707 -59888 0
0 0 0 721 784428 -59167 0
0 0 0 944 785372 -58223 1
0 0 0 736 786108 -57487 0
0 0 0 862 786970 -56625 1
0 0 0 844 787814 -55781 1
0 0 0 885 788699 -54896 1
0 0 0 822 789521 -54074 1
0 0 0 806 790327 -53268 1
0 0 0 820 791147 -52448 1
0 0 0 818 791965 -51630 1
0 0 0 771 792736 -50859 0
0 0 0 706 793442 -50153 0
0 0 0 685 794127 -49468 0
0 0 0 677 794804 -48791 0
0 0 0 715 795519 -48076 0
0 0 0 734 796253 -47342 0
0 0 0 706 796959 -46636 0
0 0 0 689 797648 -45947 0
0 0 0 700 798348 -45247 0
0 0 0 741 799089 -44506 0
0 0 0 781 799870 -43725 0
0 0 0 763 800633 -42962 0
0 0 0 723 801356 -42239 0
0 0 0 673 802029 -41566 0
0 0 0 676 802705 -40890 0
0 0 0 692 803397 -40198 0
0 0 0 737 804134 -39461 0
0 0 0 769 804903 -38692 0
0 0 0 775 805678 -37917 0
0 0 0 753 806431 -37164 0
0 0 0 771 807202 -36393 0
0 0 0 771 807973 -35622 0
0 0 0 785 808758 -34837 0
0 0 0 796 809554 -34041 0
0 0 0 771 810325 -33270 0
0 0 0 759 811084 -32511 0
0 0 0 751 811835 -31760 0
0 0 0 754 812589 -31006 0
0 0 0 747 813336 -30259 0
0 0 0 710 814046 -29549 0
0 0 0 664 814710 -28885 0
0 0 0 703 815413 -28182 0
0 0 0 751 816164 -27431 0
0 0 0 867 817031 -26564 1
0 0 0 837 817868 -25727 1
0 0 0 740 818608 -24987 0
0 0 0 711 819319 -24276 0
0 0 0 730 820049 -23546 0
0 0 0 758 820807 -22788 0
0 0 0 746 821553 -22042 0
0 0 0 731 822284 -21311 0
0 0 0 697 822981 -20614 0
0 0 0 685 823666 -19929 0
0 0 0 705 824371 -19224 0
0 0 0 708 825079 -18516 0
0 0 0 724 825803 -17792 0
0 0 0 720 826523 -17072 0
0 0 0 674 827197 -16398 0
0 0 0 663 827860 -15735 0
0 0 0 674 828534 -15061 0
0 0 0 687 829221 -14374 0
0 0 0 730 829951 -13644 0
0 0 0 720 830671 -12924 0
0 0 0 670 831341 -12254 0
0 0 0 663 832004 -11591 0
0 0 0 697 832701 -10894 0
0 0 0 736 833437 -10158 0
0 0 0 760 834197 -9398 0
0 0 0 705 834902 -8693 0
0 0 0 653 835555 -8040 0
0 0 0 646 836201 -7394 0
0 0 0 642 836843 -6752 0
0 0 0 673 837516 -6079 0
0 0 0 711 838227 -5368 0
0 0 0 684 838911 -4684 0
0 0 0 663 839574 -4021 0
0 0 0 700 840274 -3321 0
0 0 0 695 840969 -2626 0
40 1 S102 678 841647 -1948 0
40 1 S102 658 842305 -1290 0
40 1 S102 650 842955 -640 0
40 1 S102 625 843580 -15 0
40 2 S102 621 844201 606 0
40 2 S102 635 844836 1241 0
40 2 S102 647 845483 1888 0
40 2 S102 669 846152 2557 0
40 2 S102 672 846824 3229 0
40 2 S102 666 847490 3895 0
40 2 S102 639 848129 4534 0
40 2 S102 623 848752 5157 0
40 2 S102 621 849373 5778 0
40 2 S102 627 850000 6405 0
0 0 0 652 850652 -7896 0
0 0 0 709 851361 -7187 0
0 0 0 700 852061 -6487 0
0 0 0 695 852756 -5792 0
0 0 0 655 853411 -5137 0
0 0 0 658 854069 -4479 0
0 0 0 664 854733 -3815 0
0 0 0 682 855415 -3133 0
0 0 0 697 856112 -2436 0
41 1 S112 648 856760 -1788 0
41 1 S112 637 857397 -1151 0
41 1 S112 640 858037 -511 0
41 2 S112 631 858668 120 0
41 2 S112 632 859300 752 0
41 2 S112 617 859917 1369 0
41 2 S112 639 860556 2008 0
41 2 S112 658 861214 2666 0
41 2 S112 658 861872 3324 0
41 2 S112 629 862501 3953 0
41 2 S112 625 863126 4578 0
41 2 S112 631 863757 5209 0
41 2 S112 644 864401 5853 0
41 2 S112 690 865091 6543 0
0 0 0 754 865845 -9348 0
0 0 0 753 866598 -8595 0
0 0 0 698 867296 -7897 0
0 0 0 709 868005 -7188 0
0 0 0 694 868699 -6494 0
0 0 0 699 869398 -5795 0
0 0 0 698 870096 -5097 0
0 0 0 688 870784 -4409 0
0 0 0 661 871445 -3748 0
0 0 0 674 872119 -3074 0
0 0 0 704 872823 -2370 0
42 1 S116 736 873559 -1634 0
42 1 S116 738 874297 -896 0
42 1 S116 659 874956 -237 0
42 2 S116 650 875606 413 0
42 2 S116 647 876253 1060 0
42 2 S116 664 876917 1724 0
42 2 S116 750 877667 2474 0
42 2 S116 773 878440 3247 0
42 2 S116 779 879219 4026 0
42 2 S116 764 879983 4790 0
42 2 S116 725 880708 5515 0
42 2 S116 742 881450 6257 0
42 2 S116 744 882194 7001 0
0 0 0 735 882929 -7715 0
0 0 0 727 883656 -6988 0
0 0 0 711 884367 -6277 0
0 0 0 680 885047 -5597 0
0 0 0 696 885743 -4901 0
0 0 0 691 886434 -4210 0
0 0 0 705 887139 -3505 0
0 0 0 724 887863 -2781 0
0 0 0 648 888511 -2133 0
43 1 S102 660 889171 -1473 0
43 1 S102 646 889817 -827 0
43 1 S102 645 890462 -182 0
43 2 S102 650 891112 468 0
43 2 S102 631 891743 1099 0
43 2 S102 661 892404 1760 0
43 2 S102 674 893078 2434 0
43 2 S102 664 893742 3098 0
43 2 S102 654 894396 3752 0
43 2 S102 653 895049 4405 0
43 2 S102 643 895692 5048 0
43 2 S102 624 896316 5672 0
43 2 S102 611 896927 6283 0
43 2 S102 606 897533 6889 0
0 0 0 616 898149 -8377 0
0 0 0 650 898799 -7727 0
0 0 0 789 899588 -6938 0
0 0 0 778 900366 -6160 0
0 0 0 769 901135 -5391 0
0 0 0 690 901825 -4701 0
0 0 0 670 902495 -4031 0
0 0 0 677 903172 -3354 0
0 0 0 686 903858 -2668 0
44 1 S116 699 904557 -1969 0
44 1 S116 716 905273 -1253 0
44 1 S116 675 905948 -578 0
44 2 S116 634 906582 56 0
44 2 S116 620 907202 676 0
44 2 S116 609 907811 1285 0
44 2 S116 616 908427 1901 0
44 2 S116 716 909143 2617 0
44 2 S116 745 909888 3362 0
44 2 S116 765 910653 4127 0
44 2 S116 755 911408 4882 0
44 2 S116 738 912146 5620 0
44 2 S116 703 912849 6323 0
44 2 S116 683 913532 7006 0
0 0 0 664 914196 -11644 0
0 0 0 642 914838 -11002 0
0 0 0 671 915509 -10331 0
0 0 0 687 916196 -9644 0
0 0 0 657 916853 -8987 0
0 0 0 664 917517 -8323 0
0 0 0 659 918176 -7664 0
0 0 0 641 918817 -7023 0
0 0 0 634 919451 -6389 0
0 0 0 618 920069 -5771 0
0 0 0 606 920675 -5165 0
0 0 0 612 921287 -4553 0
0 0 0 626 921913 -3927 0
0 0 0 677 922590 -3250 0
0 0 0 719 923309 -2531 0
45 1 S102 724 924033 -1807 0
45 1 S102 739 924772 -1068 0
45 1 S102 744 925516 -324 0
45 2 S102 709 926225 385 0
45 2 S102 658 926883 1043 0
45 2 S102 661 927544 1704 0
45 2 S102 667 928211 2371 0
45 2 S102 693 928904 3064 0
45 2 S102 698 929602 3762 0
45 2 S102 659 930261 4421 0
45 2 S102 657 930918 5078 0
45 2 S102 688 931606 5766 0
45 2 S102 727 932333 6493 0
0 0 0 771 933104 -8287 0
0 0 0 767 933871 -7520 0
0 0 0 757 934628 -6763 0
0 0 0 696 935324 -6067 0
0 0 0 667 935991 -5400 0
0 0 0 647 936638 -4753 0
0 0 0 627 937265 -4126 0
0 0 0 615 937880 -3511 0
0 0 0 630 938510 -2881 0
0 0 0 660 939170 -2221 0
46 1 S112 715 939885 -1506 0
46 1 S112 738 940623 -768 0
46 1 S112 751 941374 -17 0
46 2 S112 752 942126 735 0
46 2 S112 732 942858 1467 0
46 2 S112 730 943588 2197 0
46 2 S112 723 944311 2920 0
46 2 S112 720 945031 3640 0
46 2 S112 732 945763 4372 0
46 2 S112 720 946483 5092 0
46 2 S112 698 947181 5790 0
46 2 S112 705 947886 6495 0
0 0 0 737 948623 -11385 0
0 0 0 785 949408 -10600 0
0 0 0 773 950181 -9827 0
0 0 0 729 950910 -9098 0
0 0 0 696 951606 -8402 0
0 0 0 739 952345 -7663 0
0 0 0 751 953096 -6912 0
0 0 0 772 953868 -6140 0
0 0 0 729 954597 -5411 0
0 0 0 673 955270 -4738 0
0 0 0 654 955924 -4084 0
0 0 0 662 956586 -3422 0
0 0 0 663 957249 -2759 0
0 0 0 694 957943 -2065 0
47 1 S116 735 958678 -1330 0
47 1 S116 735 959413 -595 0
47 2 S116 698 960111 103 0
47 2 S116 686 960797 789 0
47 2 S116 691 961488 1480 0
47 2 S116 681 962169 2161 0
47 2 S116 691 962860 2852 0
47 2 S116 679 963539 3531 0
47 2 S116 669 964208 4200 0
47 2 S116 667 964875 4867 0
47 2 S116 695 965570 5562 0
47 2 S116 713 966283 6275 0
47 2 S116 736 967019 7011 0
0 0 0 718 967737 -6197 0
0 0 0 681 968418 -5516 0
0 0 0 665 969083 -4851 0
0 0 0 672 969755 -4179 0
0 0 0 668 970423 -3511 0
0 0 0 683 971106 -2828 0
0 0 0 665 971771 -2163 0
48 1 S112 648 972419 -1515 0
48 1 S112 637 973056 -878 0
48 1 S112 654 973710 -224 0
48 2 S112 681 974391 457 0
48 2 S112 728 975119 1185 0
48 2 S112 745 975864 1930 0
48 2 S112 730 976594 2660 0
48 2 S112 714 977308 3374 0
48 2 S112 691 977999 4065 0
48 2 S112 683 978682 4748 0
48 2 S112 667 979349 5415 0
48 2 S112 647 979996 6062 0
48 2 S112 634 980630 6696 0
0 0 0 624 981254 -11165 0
0 0 0 618 981872 -10547 0
0 0 0 637 982509 -9910 0
0 0 0 653 983162 -9257 0
0 0 0 712 983874 -8545 0
0 0 0 653 984527 -7892 0
0 0 0 680 985207 -7212 0
0 0 0 740 985947 -6472 0
0 0 0 797 986744 -5675 0
0 0 0 854 987598 -4821 1
0 0 0 789 988387 -4032 0
0 0 0 744 989131 -3288 0
0 0 0 706 989837 -2582 0
49 1 S106 686 990523 -1896 0
49 1 S106 689 991212 -1207 0
49 1 S106 685 991897 -522 0
49 2 S106 677 992574 155 0
49 2 S106 678 993252 833 0
49 2 S106 668 993920 1501 0
49 2 S106 656 994576 2157 0
49 2 S106 640 995216 2797 0
49 2 S106 630 995846 3427 0
49 2 S106 628 996474 4055 0
49 2 S106 624 997098 4679 0
49 2 S106 629 997727 5308 0
49 2 S106 630 998357 5938 0
49 2 S106 687 999044 6625 0
0 0 0 733 999777 -6468 0
0 0 0 815 1000592 -5653 1
0 0 0 739 1001331 -4914 0
0 0 0 691 1002022 -4223 0
0 0 0 693 1002715 -3530 0
0 0 0 702 1003417 -2828 0
0 0 0 720 1004137 -2108 0
50 1 S112 714 1004851 -1394 0
50 1 S112 695 1005546 -699 0
50 1 S112 667 1006213 -32 0
50 2 S112 671 1006884 639 0
50 2 S112 666 1007550 1305 0
50 2 S112 675 1008225 1980 0
50 2 S112 671 1008896 2651 0
50 2 S112 680 1009576 3331 0
50 2 S112 696 1010272 4027 0
50 2 S112 721 1010993 4748 0
50 2 S112 753 1011746 5501 0
50 2 S112 730 1012476 6231 0
50 2 S112 689 1013165 6920 0
0 0 0 686 1013851 -7348 0
0 0 0 696 1014547 -6652 0
0 0 0 681 1015228 -5971 0
0 0 0 675 1015903 -5296 0
0 0 0 646 1016549 -4650 0
0 0 0 634 1017183 -4016 0
0 0 0 649 1017832 -3367 0
0 0 0 669 1018501 -2698 0
51 1 S116 734 1019235 -1964 0
51 1 S116 748 1019983 -1216 0
51 1 S116 735 1020718 -481 0
51 2 S116 693 1021411 212 0
51 2 S116 702 1022113 914 0
51 2 S116 700 1022813 1614 0
51 2 S116 690 1023503 2304 0
51 2 S116 654 1024157 2958 0
51 2 S116 638 1024795 3596 0
51 2 S116 638 1025433 4234 0
51 2 S116 654 1026087 4888 0
51 2 S116 666 1026753 5554 0
51 2 S116 703 1027456 6257 0
51 2 S116 699 1028155 6956 0
0 0 0 676 1028831 -8383 0
0 0 0 678 1029509 -7705 0
0 0 0 724 1030233 -6981 0
0 0 0 707 1030940 -6274 0
0 0 0 717 1031657 -5557 0
0 0 0 688 1032345 -4869 0
0 0 0 663 1033008 -4206 0
0 0 0 654 1033662 -3552 0
0 0 0 666 1034328 -2886 0
0 0 0 670 1034998 -2216 0
52 1 S106 689 1035687 -1527 0
52 1 S106 691 1036378 -836 0
52 1 S106 674 1037052 -162 0
52 2 S106 666 1037718 504 0
52 2 S106 700 1038418 1204 0
52 2 S106 716 1039134 1920 0
52 2 S106 735 1039869 2655 0
52 2 S106 700 1040569 3355 0
52 2 S106 672 1041241 4027 0
52 2 S106 664 1041905 4691 0
52 2 S106 674 1042579 5365 0
52 2 S106 680 1043259 6045 0
52 2 S106 687 1043946 6732 0
0 0 0 676 1044622 -6683 0
0 0 0 657 1045279 -6026 0
0 0 0 664 1045943 -5362 0
0 0 0 653 1046596 -4709 0
0 0 0 635 1047231 -4074 0
0 0 0 617 1047848 -3457 0
0 0 0 612 1048460 -2845 0
0 0 0 606 1049066 -2239 0
53 1 S102 596 1049662 -1643 0
53 1 S102 608 1050270 -1035 0
53 1 S102 673 1050943 -362 0
53 2 S102 677 1051620 315 0
53 2 S102 641 1052261 956 0
53 2 S102 632 1052893 1588 0
53 2 S102 659 1053552 2247 0
53 2 S102 686 1054238 2933 0
53 2 S102 720 1054958 3653 0
53 2 S102 688 1055646 4341 0
53 2 S102 647 1056293 4988 0
53 2 S102 632 1056925 5620 0
53 2 S102 631 1057556 6251 0
53 2 S102 630 1058186 6881 0
0 0 0 658 1058844 -10615 0
0 0 0 707 1059551 -9908 0
0 0 0 685 1060236 -9223 0
0 0 0 654 1060890 -8569 0
0 0 0 668 1061558 -7901 0
0 0 0 667 1062225 -7234 0
0 0 0 670 1062895 -6564 0
0 0 0 657 1063552 -5907 0
0 0 0 635 1064187 -5272 0
0 0 0 619 1064806 -4653 0
0 0 0 610 1065416 -4043 0
0 0 0 620 1066036 -3423 0
0 0 0 715 1066751 -2708 0
0 0 0 704 1067455 -2004 0
54 1 S106 763 1068218 -1241 0
54 1 S106 757 1068975 -484 0
54 2 S106 724 1069699 240 0
54 2 S106 695 1070394 935 0
54 2 S106 675 1071069 1610 0
54 2 S106 672 1071741 2282 0
54 2 S106 677 1072418 2959 0
54 2 S106 706 1073124 3665 0
54 2 S106 700 1073824 4365 0
54 2 S106 661 1074485 5026 0
54 2 S106 640 1075125 5666 0
54 2 S106 620 1075745 6286 0
54 2 S106 600 1076345 6886 0
0 0 0 593 1076938 -6480 0
0 0 0 606 1077544 -5874 0
0 0 0 618 1078162 -5256 0
0 0 0 623 1078785 -4633 0
0 0 0 603 1079388 -4030 0
0 0 0 610 1079998 -3420 0
0 0 0 641 1080639 -2779 0
0 0 0 697 1081336 -2082 0
55 1 S116 752 1082088 -1330 0
55 1 S116 690 1082778 -640 0
55 2 S116 663 1083441 23 0
55 2 S116 699 1084140 722 0
55 2 S116 737 1084877 1459 0
55 2 S116 764 1085641 2223 0
55 2 S116 748 1086389 2971 0
55 2 S116 740 1087129 3711 0
55 2 S116 696 1087825 4407 0
55 2 S116 666 1088491 5073 0
55 2 S116 660 1089151 5733 0
55 2 S116 659 1089810 6392 0
0 0 0 663 1090473 -8064 0
0 0 0 705 1091178 -7359 0
0 0 0 715 1091893 -6644 0
0 0 0 721 1092614 -5923 0
0 0 0 702 1093316 -5221 0
0 0 0 720 1094036 -4501 0
0 0 0 698 1094734 -3803 0
0 0 0 704 1095438 -3099 0
0 0 0 693 1096131 -2406 0
56 1 S106 669 1096800 -1737 0
56 1 S106 670 1097470 -1067 0
56 1 S106 724 1098194 -343 0
56 2 S106 755 1098949 412 0
56 2 S106 790 1099739 1202 0
56 2 S106 778 1100517 1980 0
56 2 S106 734 1101251 2714 0
56 2 S106 685 1101936 3399 0
56 2 S106 663 1102599 4062 0
56 2 S106 662 1103261 4724 0
56 2 S106 662 1103923 5386 0
56 2 S106 689 1104612 6075 0
56 2 S106 704 1105316 6779 0
0 0 0 684 1106000 -8403 0
0 0 0 670 1106670 -7733 0
0 0 0 680 1107350 -7053 0
0 0 0 693 1108043 -6360 0
0 0 0 672 1108715 -5688 0
0 0 0 694 1109409 -4994 0
0 0 0 677 1110086 -4317 0
0 0 0 666 1110752 -3651 0
0 0 0 650 1111402 -3001 0
0 0 0 645 1112047 -2356 0
57 1 S102 668 1112715 -1688 0
57 1 S102 650 1113365 -1038 0
57 1 S102 727 1114092 -311 0
57 2 S102 692 1114784 381 0
57 2 S102 748 1115532 1129 0
57 2 S102 719 1116251 1848 0
57 2 S102 675 1116926 2523 0
57 2 S102 648 1117574 3171 0
57 2 S102 656 1118230 3827 0
57 2 S102 654 1118884 4481 0
57 2 S102 667 1119551 5148 0
57 2 S102 673 1120224 5821 0
57 2 S102 665 1120889 6486 0
0 0 0 653 1121542 -8013 0
0 0 0 676 1122218 -7337 0
0 0 0 675 1122893 -6662 0
0 0 0 709 1123602 -5953 0
0 0 0 715 1124317 -5238 0
0 0 0 664 1124981 -4574 0
0 0 0 664 1125645 -3910 0
0 0 0 672 1126317 -3238 0
0 0 0 676 1126993 -2562 0
58 1 S112 679 1127672 -1883 0
58 1 S112 656 1128328 -1227 0
58 1 S112 637 1128965 -590 0
58 2 S112 629 1129594 39 0
58 2 S112 637 1130231 676 0
58 2 S112 668 1130899 1344 0
58 2 S112 741 1131640 2085 0
58 2 S112 740 1132380 2825 0
58 2 S112 737 1133117 3562 0
58 2 S112 724 1133841 4286 0
58 2 S112 727 1134568 5013 0
58 2 S112 726 1135294 5739 0
58 2 S112 723 1136017 6462 0
0 0 0 705 1136722 -10340 0
0 0 0 671 1137393 -9669 0
0 0 0 652 1138045 -9017 0
0 0 0 678 1138723 -8339 0
0 0 0 692 1139415 -7647 0
0 0 0 747 1140162 -6900 0
0 0 0 688 1140850 -6212 0
0 0 0 719 1141569 -5493 0
0 0 0 755 1142324 -4738 0
0 0 0 751 1143075 -3987 0
0 0 0 720 1143795 -3267 0
0 0 0 684 1144479 -2583 0
59 1 S102 689 1145168 -1894 0
59 1 S102 696 1145864 -1198 0
59 1 S102 678 1146542 -520 0
59 2 S102 657 1147199 137 0
59 2 S102 639 1147838 776 0
59 2 S102 631 1148469 1407 0
59 2 S102 620 1149089 2027 0
59 2 S102 616 1149705 2643 0
59 2 S102 623 1150328 3266 0
59 2 S102 667 1150995 3933 0
59 2 S102 667 1151662 4600 0
59 2 S102 660 1152322 5260 0
59 2 S102 651 1152973 5911 0
59 2 S102 694 1153667 6605 0
0 0 0 713 1154380 -10338 0
0 0 0 686 1155066 -9652 0
0 0 0 647 1155713 -9005 0
0 0 0 632 1156345 -8373 0
0 0 0 635 1156980 -7738 0
0 0 0 627 1157607 -7111 0
0 0 0 658 1158265 -6453 0
0 0 0 676 1158941 -5777 0
0 0 0 650 1159591 -5127 0
0 0 0 626 1160217 -4501 0
0 0 0 619 1160836 -3882 0
0 0 0 644 1161480 -3238 0
0 0 0 697 1162177 -2541 0
60 1 S106 883 1163060 -1658 1
60 1 S106 833 1163893 -825 1
60 1 S106 781 1164674 -44 0
60 2 S106 744 1165418 700 0
60 2 S106 767 1166185 1467 0
60 2 S106 756 1166941 2223 0
60 2 S106 745 1167686 2968 0
60 2 S106 716 1168402 3684 0
60 2 S106 683 1169085 4367 0
60 2 S106 686 1169771 5053 0
60 2 S106 690 1170461 5743 0
60 2 S106 707 1171168 6450 0
0 0 0 712 1171880 -6880 0
0 0 0 673 1172553 -6207 0
0 0 0 655 1173208 -5552 0
0 0 0 676 1173884 -4876 0
0 0 0 666 1174550 -4210 0
0 0 0 678 1175228 -3532 0
0 0 0 655 1175883 -2877 0
0 0 0 637 1176520 -2240 0
61 1 S112 645 1177165 -1595 0
61 1 S112 669 1177834 -926 0
61 1 S112 731 1178565 -195 0
61 2 S112 797 1179362 602 0
61 2 S112 760 1180122 1362 0
61 2 S112 734 1180856 2096 0
61 2 S112 721 1181577 2817 0
61 2 S112 703 1182280 3520 0
61 2 S112 684 1182964 4204 0
61 2 S112 659 1183623 4863 0
61 2 S112 663 1184286 5526 0
61 2 S112 671 1184957 6197 0
61 2 S112 672 1185629 6869 0
0 0 0 691 1186320 -10378 0
0 0 0 676 1186996 -9702 0
0 0 0 659 1187655 -9043 0
0 0 0 684 1188339 -8359 0
0 0 0 687 1189026 -7672 0
0 0 0 741 1189767 -6931 0
0 0 0 720 1190487 -6211 0
0 0 0 703 1191190 -5508 0
0 0 0 689 1191879 -4819 0
0 0 0 725 1192604 -4094 0
0 0 0 745 1193349 -3349 0
0 0 0 768 1194117 -2581 0
62 1 S102 753 1194870 -1828 0
62 1 S102 721 1195591 -1107 0
62 1 S102 700 1196291 -407 0
62 2 S102 715 1197006 308 0
62 2 S102 725 1197731 1033 0
62 2 S102 725 1198456 1758 0
62 2 S102 713 1199169 2471 0
62 2 S102 680 1199849 3151 0
62 2 S102 677 1200526 3828 0
62 2 S102 677 1201203 4505 0
62 2 S102 675 1201878 5180 0
62 2 S102 689 1202567 5869 0
62 2 S102 689 1203256 6558 0
0 0 0 678 1203934 -8547 0
0 0 0 682 1204616 -7865 0
0 0 0 723 1205339 -7142 0
0 0 0 715 1206054 -6427 0
0 0 0 737 1206791 -5690 0
0 0 0 674 1207465 -5016 0
0 0 0 688 1208153 -4328 0
0 0 0 679 1208832 -3649 0
0 0 0 677 1209509 -2972 0
0 0 0 670 1210179 -2302 0
63 1 S112 657 1210836 -1645 0
63 1 S112 627 1211463 -1018 0
63 1 S112 632 1212095 -386 0
63 2 S112 631 1212726 245 0
63 2 S112 636 1213362 881 0
63 2 S112 646 1214008 1527 0
63 2 S112 634 1214642 2161 0
63 2 S112 631 1215273 2792 0
63 2 S112 622 1215895 3414 0
63 2 S112 614 1216509 4028 0
63 2 S112 619 1217128 4647 0
63 2 S112 662 1217790 5309 0
63 2 S112 750 1218540 6059 0
63 2 S112 737 1219277 6796 0
0 0 0 736 1220013 -7935 0
0 0 0 710 1220723 -7225 0
0 0 0 671 1221394 -6554 0
0 0 0 661 1222055 -5893 0
0 0 0 654 1222709 -5239 0
0 0 0 639 1223348 -4600 0
0 0 0 622 1223970 -3978 0
0 0 0 607 1224577 -3371 0
0 0 0 604 1225181 -2767 0
0 0 0 621 1225802 -2146 0
64 1 S106 652 1226454 -1494 0
64 1 S106 684 1227138 -810 0
64 1 S106 704 1227842 -106 0
64 2 S106 693 1228535 587 0
64 2 S106 740 1229275 1327 0
64 2 S106 732 1230007 2059 0
64 2 S106 729 1230736 2788 0
64 2 S106 694 1231430 3482 0
64 2 S106 649 1232079 4131 0
64 2 S106 636 1232715 4767 0
64 2 S106 640 1233355 5407 0
64 2 S106 649 1234004 6056 0
64 2 S106 763 1234767 6819 0
0 0 0 842 1235609 -6099 1
0 0 0 786 1236395 -5313 0
0 0 0 744 1237139 -4569 0
0 0 0 769 1237908 -3800 0
0 0 0 760 1238668 -3040 0
0 0 0 750 1239418 -2290 0
65 1 S116 716 1240134 -1574 0
65 1 S116 667 1240801 -907 0
65 1 S116 646 1241447 -261 0
65 2 S116 642 1242089 381 0
65 2 S116 644 1242733 1025 0
65 2 S116 681 1243414 1706 0
65 2 S116 740 1244154 2446 0
65 2 S116 702 1244856 3148 0
65 2 S116 726 1245582 3874 0
65 2 S116 756 1246338 4630 0
65 2 S116 776 1247114 5406 0
65 2 S116 782 1247896 6188 0
65 2 S116 747 1248643 6935 0
0 0 0 725 1249368 -11472 0
0 0 0 712 1250080 -10760 0
0 0 0 685 1250765 -10075 0
0 0 0 674 1251439 -9401 0
0 0 0 647 1252086 -8754 0
0 0 0 626 1252712 -8128 0
0 0 0 632 1253344 -7496 0
0 0 0 632 1253976 -6864 0
0 0 0 725 1254701 -6139 0
0 0 0 874 1255575 -5265 1
0 0 0 786 1256361 -4479 0
0 0 0 754 1257115 -3725 0
0 0 0 786 1257901 -2939 0
0 0 0 772 1258673 -2167 0
66 1 S102 756 1259429 -1411 0
66 1 S102 713 1260142 -698 0
66 1 S102 685 1260827 -13 0
66 2 S102 687 1261514 674 0
66 2 S102 686 1262200 1360 0
66 2 S102 688 1262888 2048 0
66 2 S102 672 1263560 2720 0
66 2 S102 664 1264224 3384 0
66 2 S102 663 1264887 4047 0
66 2 S102 675 1265562 4722 0
66 2 S102 700 1266262 5422 0
66 2 S102 726 1266988 6148 0
66 2 S102 705 1267693 6853 0
0 0 0 678 1268371 -6096 0
0 0 0 683 1269054 -5413 0
0 0 0 690 1269744 -4723 0
0 0 0 697 1270441 -4026 0
0 0 0 700 1271141 -3326 0
0 0 0 676 1271817 -2650 0
67 1 S106 667 1272484 -1983 0
67 1 S106 695 1273179 -1288 0
67 1 S106 743 1273922 -545 0
67 2 S106 787 1274709 242 0
67 2 S106 754 1275463 996 0
67 2 S106 705 1276168 1701 0
67 2 S106 706 1276874 2407 0
67 2 S106 717 1277591 3124 0
67 2 S106 723 1278314 3847 0
67 2 S106 720 1279034 4567 0
67 2 S106 679 1279713 5246 0
67 2 S106 669 1280382 5915 0
67 2 S106 696 1281078 6611 0
0 0 0 720 1281798 -10690 0
0 0 0 771 1282569 -9919 0
0 0 0 732 1283301 -9187 0
0 0 0 689 1283990 -8498 0
0 0 0 690 1284680 -7808 0
0 0 0 689 1285369 -7119 0
0 0 0 700 1286069 -6419 0
0 0 0 704 1286773 -5715 0
0 0 0 673 1287446 -5042 0
0 0 0 672 1288118 -4370 0
0 0 0 718 1288836 -3652 0
0 0 0 796 1289632 -2856 0
68 1 S102 856 1290488 -2000 1
68 1 S102 855 1291343 -1145 1
68 1 S102 828 1292171 -317 1
68 2 S102 814 1292985 497 1
68 2 S102 768 1293753 1265 0
68 2 S102 715 1294468 1980 0
68 2 S102 668 1295136 2648 0
68 2 S102 645 1295781 3293 0
68 2 S102 646 1296427 3939 0
68 2 S102 652 1297079 4591 0
68 2 S102 692 1297771 5283 0
68 2 S102 735 1298506 6018 0
68 2 S102 688 1299194 6706 0
0 0 0 695 1299889 -8332 0
0 0 0 777 1300666 -7555 0
0 0 0 754 1301420 -6801 0
0 0 0 701 1302121 -6100 0
0 0 0 652 1302773 -5448 0
0 0 0 663 1303436 -4785 0
0 0 0 642 1304078 -4143 0
0 0 0 629 1304707 -3514 0
0 0 0 611 1305318 -2903 0
0 0 0 613 1305931 -2290 0
69 1 S112 634 1306565 -1656 0
69 1 S112 640 1307205 -1016 0
69 1 S112 633 1307838 -383 0
69 2 S112 624 1308462 241 0
69 2 S112 641 1309103 882 0
69 2 S112 659 1309762 1541 0
69 2 S112 684 1310446 2225 0
69 2 S112 711 1311157 2936 0
69 2 S112 688 1311845 3624 0
69 2 S112 677 1312522 4301 0
69 2 S112 702 1313224 5003 0
69 2 S112 717 1313941 5720 0
69 2 S112 745 1314686 6465 0
0 0 0 710 1315396 -11492 0
0 0 0 677 1316073 -10815 0
0 0 0 689 1316762 -10126 0
0 0 0 714 1317476 -9412 0
0 0 0 749 1318225 -8663 0
0 0 0 738 1318963 -7925 0
0 0 0 698 1319661 -7227 0
0 0 0 690 1320351 -6537 0
0 0 0 717 1321068 -5820 0
0 0 0 733 1321801 -5087 0
0 0 0 753 1322554 -4334 0
0 0 0 744 1323298 -3590 0
0 0 0 704 1324002 -2886 0
0 0 0 732 1324734 -2154 0
70 1 S116 726 1325460 -1428 0
70 1 S116 740 1326200 -688 0
70 2 S116 723 1326923 35 0
70 2 S116 704 1327627 739 0
70 2 S116 724 1328351 1463 0
70 2 S116 738 1329089 2201 0
70 2 S116 753 1329842 2954 0
70 2 S116 717 1330559 3671 0
70 2 S116 687 1331246 4358 0
70 2 S116 710 1331956 5068 0
70 2 S116 742 1332698 5810 0
70 2 S116 753 1333451 6563 0
0 0 0 753 1334204 -9179 0
0 0 0 715 1334919 -8464 0
0 0 0 722 1335641 -7742 0
0 0 0 730 1336371 -7012 0
0 0 0 728 1337099 -6284 0
0 0 0 714 1337813 -5570 0
0 0 0 679 1338492 -4891 0
0 0 0 697 1339189 -4194 0
0 0 0 718 1339907 -3476 0
0 0 0 748 1340655 -2728 0
71 1 S102 733 1341388 -1995 0
71 1 S102 709 1342097 -1286 0
71 1 S102 718 1342815 -568 0
71 2 S102 738 1343553 170 0
71 2 S102 743 1344296 913 0
71 2 S102 714 1345010 1627 0
71 2 S102 676 1345686 2303 0
71 2 S102 693 1346379 2996 0
71 2 S102 692 1347071 3688 0
71 2 S102 693 1347764 4381 0
71 2 S102 685 1348449 5066 0
71 2 S102 659 1349108 5725 0
71 2 S102 654 1349762 6379 0
0 0 0 676 1350438 -6838 0
0 0 0 702 1351140 -6136 0
0 0 0 743 1351883 -5393 0
0 0 0 713 1352596 -4680 0
0 0 0 674 1353270 -4006 0
0 0 0 675 1353945 -3331 0
0 0 0 681 1354626 -2650 0
72 1 S116 675 1355301 -1975 0
72 1 S116 674 1355975 -1301 0
72 1 S116 655 1356630 -646 0
72 1 S116 640 1357270 -6 0
72 2 S116 647 1357917 641 0
72 2 S116 663 1358580 1304 0
72 2 S116 711 1359291 2015 0
72 2 S116 741 1360032 2756 0
72 2 S116 719 1360751 3475 0
72 2 S116 718 1361469 4193 0
72 2 S116 723 1362192 4916 0
72 2 S116 705 1362897 5621 0
72 2 S116 676 1363573 6297 0
72 2 S116 654 1364227 6951 0
0 0 0 647 1364874 -8052 0
0 0 0 661 1365535 -7391 0
0 0 0 663 1366198 -6728 0
0 0 0 691 1366889 -6037 0
0 0 0 687 1367576 -5350 0
0 0 0 662 1368238 -4688 0
0 0 0 670 1368908 -4018 0
0 0 0 684 1369592 -3334 0
0 0 0 678 1370270 -2656 0
0 0 0 649 1370919 -2007 0
73 1 S106 644 1371563 -1363 0
73 1 S106 663 1372226 -700 0
73 1 S106 648 1372874 -52 0
73 2 S106 637 1373511 585 0
73 2 S106 647 1374158 1232 0
73 2 S106 655 1374813 1887 0
73 2 S106 662 1375475 2549 0
73 2 S106 699 1376174 3248 0
73 2 S106 694 1376868 3942 0
73 2 S106 664 1377532 4606 0
73 2 S106 692 1378224 5298 0
73 2 S106 724 1378948 6022 0
73 2 S106 739 1379687 6761 0
0 0 0 739 1380426 -6724 0
0 0 0 697 1381123 -6027 0
0 0 0 685 1381808 -5342 0
0 0 0 682 1382490 -4660 0
0 0 0 681 1383171 -3979 0
0 0 0 688 1383859 -3291 0
0 0 0 661 1384520 -2630 0
74 1 S112 649 1385169 -1981 0
74 1 S112 668 1385837 -1313 0
74 1 S112 704 1386541 -609 0
74 2 S112 786 1387327 177 0
74 2 S112 778 1388105 955 0
74 2 S112 755 1388860 1710 0
74 2 S112 726 1389586 2436 0
74 2 S112 724 1390310 3160 0
74 2 S112 715 1391025 3875 0
74 2 S112 718 1391743 4593 0
74 2 S112 681 1392424 5274 0
74 2 S112 663 1393087 5937 0
74 2 S112 675 1393762 6612 0
0 0 0 684 1394446 -6978 0
0 0 0 723 1395169 -6255 0
0 0 0 711 1395880 -5544 0
0 0 0 689 1396569 -4855 0
0 0 0 705 1397274 -4150 0
0 0 0 707 1397981 -3443 0
0 0 0 719 1398700 -2724 0
0 0 0 699 1399399 -2025 0
75 1 S116 676 1400075 -1349 0
75 1 S116 679 1400754 -670 0
75 2 S116 701 1401455 31 0
75 2 S116 727 1402182 758 0
75 2 S116 745 1402927 1503 0
75 2 S116 704 1403631 2207 0
75 2 S116 679 1404310 2886 0
75 2 S116 699 1405009 3585 0
75 2 S116 698 1405707 4283 0
75 2 S116 699 1406406 4982 0
75 2 S116 669 1407075 5651 0
75 2 S116 658 1407733 6309 0
75 2 S116 684 1408417 6993 0
0 0 0 703 1409120 -6181 0
0 0 0 719 1409839 -5462 0
0 0 0 670 1410509 -4792 0
0 0 0 660 1411169 -4132 0
0 0 0 675 1411844 -3457 0
0 0 0 683 1412527 -2774 0
0 0 0 700 1413227 -2074 0
76 1 S106 706 1413933 -1368 0
76 1 S106 678 1414611 -690 0
76 1 S106 658 1415269 -32 0
76 2 S106 648 1415917 616 0
76 2 S106 645 1416562 1261 0
76 2 S106 763 1417325 2024 0
76 2 S106 734 1418059 2758 0
76 2 S106 740 1418799 3498 0
76 2 S106 734 1419533 4232 0
76 2 S106 712 1420245 4944 0
76 2 S106 684 1420929 5628 0
76 2 S106 656 1421585 6284 0
76 2 S106 663 1422248 6947 0
0 0 0 655 1422903 -8992 0
0 0 0 660 1423563 -8332 0
0 0 0 662 1424225 -7670 0
0 0 0 659 1424884 -7011 0
0 0 0 640 1425524 -6371 0
0 0 0 626 1426150 -5745 0
0 0 0 627 1426777 -5118 0
0 0 0 632 1427409 -4486 0
0 0 0 660 1428069 -3826 0
0 0 0 715 1428784 -3111 0
0 0 0 711 1429495 -2400 0
77 1 S112 662 1430157 -1738 0
77 1 S112 697 1430854 -1041 0
77 1 S112 721 1431575 -320 0
77 2 S112 680 1432255 360 0
77 2 S112 660 1432915 1020 0
77 2 S112 674 1433589 1694 0
77 2 S112 662 1434251 2356 0
77 2 S112 660 1434911 3016 0
77 2 S112 660 1435571 3676 0
77 2 S112 635 1436206 4311 0
77 2 S112 624 1436830 4935 0
77 2 S112 626 1437456 5561 0
77 2 S112 669 1438125 6230 0
0 0 0 877 1439002 -10980 1
0 0 0 902 1439904 -10078 1
0 0 0 793 1440697 -9285 0
0 0 0 762 1441459 -8523 0
0 0 0 800 1442259 -7723 0
0 0 0 802 1443061 -6921 0
0 0 0 801 1443862 -6120 0
0 0 0 762 1444624 -5358 0
0 0 0 762 1445386 -4596 0
0 0 0 711 1446097 -3885 0
0 0 0 695 1446792 -3190 0
0 0 0 678 1447470 -2512 0
78 1 S102 664 1448134 -1848 0
78 1 S102 672 1448806 -1176 0
78 1 S102 711 1449517 -465 0
78 2 S102 718 1450235 253 0
78 2 S102 731 1450966 984 0
78 2 S102 688 1451654 1672 0
78 2 S102 667 1452321 2339 0
78 2 S102 708 1453029 3047 0
78 2 S102 735 1453764 3782 0
78 2 S102 769 1454533 4551 0
78 2 S102 751 1455284 5302 0
78 2 S102 712 1455996 6014 0
78 2 S102 711 1456707 6725 0
0 0 0 715 1457422 -9586 0
0 0 0 723 1458145 -8863 0
0 0 0 694 1458839 -8169 0
0 0 0 663 1459502 -7506 0
0 0 0 652 1460154 -6854 0
0 0 0 661 1460815 -6193 0
0 0 0 678 1461493 -5515 0
0 0 0 731 1462224 -4784 0
0 0 0 705 1462929 -4079 0
0 0 0 680 1463609 -3399 0
0 0 0 667 1464276 -2732 0
0 0 0 708 1464984 -2024 0
79 1 S116 748 1465732 -1276 0
79 1 S116 751 1466483 -525 0
79 2 S116 736 1467219 211 0
79 2 S116 710 1467929 921 0
79 2 S116 674 1468603 1595 0
79 2 S116 684 1469287 2279 0
79 2 S116 658 1469945 2937 0
79 2 S116 647 1470592 3584 0
79 2 S116 633 1471225 4217 0
79 2 S116 635 1471860 4852 0
79 2 S116 661 1472521 5513 0
79 2 S116 706 1473227 6219 0
79 2 S116 754 1473981 6973 0
