T_0099
BeatCount Mean SD BeatCountNoOutliers MeanNoOutliers SDNoOutliers
1692 895,639479905437 158,674037191027 1686 891,813167259787 138,290024045743

Trial TrialStatus Trialtype IBI AbsPosition RelPosition Outlier
0 0 0 1141 1707 -9488 0
0 0 0 997 2704 -8491 0
0 0 0 848 3552 -7643 0
0 0 0 850 4402 -6793 0
0 0 0 849 5251 -5944 0
0 0 0 843 6094 -5101 0
0 0 0 790 6884 -4311 0
0 0 0 758 7642 -3553 0
0 0 0 802 8444 -2751 0
1 1 S112 871 9315 -1880 0
1 1 S112 843 10158 -1037 0
1 1 S112 790 10948 -247 0
1 2 S112 827 11775 580 0
1 2 S112 923 12698 1503 0
1 2 S112 972 13670 2475 0
1 2 S112 853 14523 3328 0
1 2 S112 858 15381 4186 0
1 2 S112 935 16316 5121 0
1 2 S112 996 17312 6117 0
1 2 S112 836 18148 6953 0
0 0 0 765 18913 -10750 0
0 0 0 841 19754 -9909 0
0 0 0 861 20615 -9048 0
0 0 0 918 21533 -8130 0
0 0 0 779 22312 -7351 0
0 0 0 790 23102 -6561 0
0 0 0 884 23986 -5677 0
0 0 0 941 24927 -4736 0
0 0 0 936 25863 -3800 0
0 0 0 847 26710 -2953 0
0 0 0 886 27596 -2067 0
2 1 S102 924 28520 -1143 0
2 1 S102 870 29390 -273 0
2 2 S102 828 30218 555 0
2 2 S102 870 31088 1425 0
2 2 S102 929 32017 2354 0
2 2 S102 1014 33031 3368 0
2 2 S102 845 33876 4213 0
2 2 S102 883 34759 5096 0
2 2 S102 939 35698 6035 0
2 2 S102 938 36636 6973 0
0 0 0 827 37463 -10287 0
0 0 0 820 38283 -9467 0
0 0 0 854 39137 -8613 0
0 0 0 1001 40138 -7612 0
0 0 0 977 41115 -6635 0
0 0 0 889 42004 -5746 0
0 0 0 902 42906 -4844 0
0 0 0 1011 43917 -3833 0
0 0 0 903 44820 -2930 0
0 0 0 849 45669 -2081 0
3 1 S116 968 46637 -1113 0
3 1 S116 986 47623 -127 0
3 2 S116 907 48530 780 0
3 2 S116 869 49399 1649 0
3 2 S116 1046 50445 2695 0
3 2 S116 1139 51584 3834 0
3 2 S116 1053 52637 4887 0
3 2 S116 911 53548 5798 0
3 2 S116 1026 54574 6824 0
0 0 0 1095 55669 -11345 0
0 0 0 1016 56685 -10329 0
0 0 0 887 57572 -9442 0
0 0 0 925 58497 -8517 0
0 0 0 909 59406 -7608 0
0 0 0 795 60201 -6813 0
0 0 0 778 60979 -6035 0
0 0 0 757 61736 -5278 0
0 0 0 747 62483 -4531 0
0 0 0 739 63222 -3792 0
0 0 0 717 63939 -3075 0
0 0 0 675 64614 -2400 0
4 1 S106 684 65298 -1716 0
4 1 S106 707 66005 -1009 0
4 1 S106 761 66766 -248 0
4 2 S106 804 67570 556 0
4 2 S106 726 68296 1282 0
4 2 S106 748 69044 2030 0
4 2 S106 774 69818 2804 0
4 2 S106 803 70621 3607 0
4 2 S106 841 71462 4448 0
4 2 S106 813 72275 5261 0
4 2 S106 789 73064 6050 0
4 2 S106 836 73900 6886 0
0 0 0 876 74776 -7292 0
0 0 0 891 75667 -6401 0
0 0 0 825 76492 -5576 0
0 0 0 890 77382 -4686 0
0 0 0 886 78268 -3800 0
0 0 0 820 79088 -2980 0
0 0 0 780 79868 -2200 0
5 1 S116 809 80677 -1391 0
5 1 S116 798 81475 -593 0
5 2 S116 913 82388 320 0
5 2 S116 1092 83480 1412 0
5 2 S116 996 84476 2408 0
5 2 S116 892 85368 3300 0
5 2 S116 1066 86434 4366 0
5 2 S116 1092 87526 5458 0
5 2 S116 958 88484 6416 0
0 0 0 851 89335 -11201 0
0 0 0 890 90225 -10311 0
0 0 0 977 91202 -9334 0
0 0 0 909 92111 -8425 0
0 0 0 1014 93125 -7411 0
0 0 0 1111 94236 -6300 0
0 0 0 930 95166 -5370 0
0 0 0 864 96030 -4506 0
0 0 0 942 96972 -3564 0
0 0 0 945 97917 -2619 0
6 1 S106 868 98785 -1751 0
6 1 S106 927 99712 -824 0
6 2 S106 1058 100770 234 0
6 2 S106 1026 101796 1260 0
6 2 S106 879 102675 2139 0
6 2 S106 899 103574 3038 0
6 2 S106 963 104537 4001 0
6 2 S106 889 105426 4890 0
6 2 S106 832 106258 5722 0
6 2 S106 906 107164 6628 0
0 0 0 1074 108238 -10650 0
0 0 0 914 109152 -9736 0
0 0 0 849 110001 -8887 0
0 0 0 857 110858 -8030 0
0 0 0 897 111755 -7133 0
0 0 0 852 112607 -6281 0
0 0 0 992 113599 -5289 0
0 0 0 1150 114749 -4139 0
0 0 0 1090 115839 -3049 0
0 0 0 939 116778 -2110 0
7 1 S102 922 117700 -1188 0
7 1 S102 1010 118710 -178 0
7 2 S102 1032 119742 854 0
7 2 S102 887 120629 1741 0
7 2 S102 858 121487 2599 0
7 2 S102 933 122420 3532 0
7 2 S102 947 123367 4479 0
7 2 S102 841 124208 5320 0
7 2 S102 875 125083 6195 0
0 0 0 1029 126112 -9205 0
0 0 0 1031 127143 -8174 0
0 0 0 868 128011 -7306 0
0 0 0 910 128921 -6396 0
0 0 0 924 129845 -5472 0
0 0 0 947 130792 -4525 0
0 0 0 826 131618 -3699 0
0 0 0 824 132442 -2875 0
0 0 0 853 133295 -2022 0
8 1 S112 863 134158 -1159 0
8 1 S112 792 134950 -367 0
8 2 S112 812 135762 445 0
8 2 S112 880 136642 1325 0
8 2 S112 875 137517 2200 0
8 2 S112 806 138323 3006 0
8 2 S112 841 139164 3847 0
8 2 S112 921 140085 4768 0
8 2 S112 928 141013 5696 0
8 2 S112 848 141861 6544 0
0 0 0 918 142779 -7476 0
0 0 0 1014 143793 -6462 0
0 0 0 927 144720 -5535 0
0 0 0 811 145531 -4724 0
0 0 0 818 146349 -3906 0
0 0 0 831 147180 -3075 0
0 0 0 810 147990 -2265 0
9 1 S116 747 148737 -1518 0
9 1 S116 771 149508 -747 0
9 2 S116 795 150303 48 0
9 2 S116 1161 151464 1209 0
9 2 S116 960 152424 2169 0
9 2 S116 1024 153448 3193 0
9 2 S116 961 154409 4154 0
9 2 S116 844 155253 4998 0
9 2 S116 894 156147 5892 0
9 2 S116 850 156997 6742 0
0 0 0 906 157903 -11516 0
0 0 0 835 158738 -10681 0
0 0 0 916 159654 -9765 0
0 0 0 1012 160666 -8753 0
0 0 0 911 161577 -7842 0
0 0 0 866 162443 -6976 0
0 0 0 932 163375 -6044 0
0 0 0 965 164340 -5079 0
0 0 0 1039 165379 -4040 0
0 0 0 886 166265 -3154 0
0 0 0 899 167164 -2255 0
10 1 S102 959 168123 -1296 0
10 1 S102 927 169050 -369 0
10 2 S102 841 169891 472 0
10 2 S102 863 170754 1335 0
10 2 S102 897 171651 2232 0
10 2 S102 886 172537 3118 0
10 2 S102 858 173395 3976 0
10 2 S102 929 174324 4905 0
10 2 S102 1005 175329 5910 0
10 2 S102 923 176252 6833 0
0 0 0 839 177091 -11344 0
0 0 0 890 177981 -10454 0
0 0 0 1034 179015 -9420 0
0 0 0 907 179922 -8513 0
0 0 0 855 180777 -7658 0
0 0 0 923 181700 -6735 0
0 0 0 966 182666 -5769 0
0 0 0 912 183578 -4857 0
0 0 0 871 184449 -3986 0
0 0 0 924 185373 -3062 0
0 0 0 985 186358 -2077 0
11 1 S112 897 187255 -1180 0
11 1 S112 848 188103 -332 0
11 2 S112 887 188990 555 0
11 2 S112 940 189930 1495 0
11 2 S112 926 190856 2421 0
11 2 S112 851 191707 3272 0
11 2 S112 970 192677 4242 0
11 2 S112 1102 193779 5344 0
11 2 S112 902 194681 6246 0
0 0 0 843 195524 -7102 0
0 0 0 901 196425 -6201 0
0 0 0 934 197359 -5267 0
0 0 0 807 198166 -4460 0
0 0 0 798 198964 -3662 0
0 0 0 809 199773 -2853 0
12 1 S116 875 200648 -1978 0
12 1 S116 795 201443 -1183 0
12 1 S116 799 202242 -384 0
12 2 S116 783 203025 399 0
12 2 S116 783 203808 1182 0
12 2 S116 771 204579 1953 0
12 2 S116 865 205444 2818 0
12 2 S116 1097 206541 3915 0
12 2 S116 1042 207583 4957 0
12 2 S116 887 208470 5844 0
12 2 S116 825 209295 6669 0
0 0 0 871 210166 -11774 0
0 0 0 958 211124 -10816 0
0 0 0 800 211924 -10016 0
0 0 0 816 212740 -9200 0
0 0 0 830 213570 -8370 0
0 0 0 844 214414 -7526 0
0 0 0 786 215200 -6740 0
0 0 0 816 216016 -5924 0
0 0 0 919 216935 -5005 0
0 0 0 947 217882 -4058 0
0 0 0 831 218713 -3227 0
0 0 0 847 219560 -2380 0
13 1 S112 1074 220634 -1306 0
13 1 S112 1001 221635 -305 0
13 2 S112 936 222571 631 0
13 2 S112 1005 223576 1636 0
13 2 S112 1019 224595 2655 0
13 2 S112 963 225558 3618 0
13 2 S112 934 226492 4552 0
13 2 S112 1074 227566 5626 0
13 2 S112 1095 228661 6721 0
0 0 0 957 229618 -11867 0
0 0 0 965 230583 -10902 0
0 0 0 956 231539 -9946 0
0 0 0 848 232387 -9098 0
0 0 0 796 233183 -8302 0
0 0 0 798 233981 -7504 0
0 0 0 756 234737 -6748 0
0 0 0 733 235470 -6015 0
0 0 0 718 236188 -5297 0
0 0 0 773 236961 -4524 0
0 0 0 887 237848 -3637 0
0 0 0 938 238786 -2699 0
14 1 S106 814 239600 -1885 0
14 1 S106 839 240439 -1046 0
14 1 S106 915 241354 -131 0
14 2 S106 940 242294 809 0
14 2 S106 834 243128 1643 0
14 2 S106 817 243945 2460 0
14 2 S106 897 244842 3357 0
14 2 S106 937 245779 4294 0
14 2 S106 851 246630 5145 0
14 2 S106 824 247454 5969 0
14 2 S106 928 248382 6897 0
0 0 0 1044 249426 -9914 0
0 0 0 943 250369 -8971 0
0 0 0 802 251171 -8169 0
0 0 0 837 252008 -7332 0
0 0 0 875 252883 -6457 0
0 0 0 969 253852 -5488 0
0 0 0 829 254681 -4659 0
0 0 0 912 255593 -3747 0
0 0 0 994 256587 -2753 0
15 1 S116 896 257483 -1857 0
15 1 S116 811 258294 -1046 0
15 1 S116 841 259135 -205 0
15 2 S116 1013 260148 808 0
15 2 S116 974 261122 1782 0
15 2 S116 851 261973 2633 0
15 2 S116 917 262890 3550 0
15 2 S116 998 263888 4548 0
15 2 S116 931 264819 5479 0
15 2 S116 840 265659 6319 0
0 0 0 877 266536 -8819 0
0 0 0 901 267437 -7918 0
0 0 0 840 268277 -7078 0
0 0 0 782 269059 -6296 0
0 0 0 783 269842 -5513 0
0 0 0 756 270598 -4757 0
0 0 0 755 271353 -4002 0
0 0 0 728 272081 -3274 0
0 0 0 751 272832 -2523 0
16 1 S116 806 273638 -1717 0
16 1 S116 921 274559 -796 0
16 2 S116 953 275512 157 0
16 2 S116 823 276335 980 0
16 2 S116 850 277185 1830 0
16 2 S116 891 278076 2721 0
16 2 S116 855 278931 3576 0
16 2 S116 789 279720 4365 0
16 2 S116 817 280537 5182 0
16 2 S116 880 281417 6062 0
16 2 S116 922 282339 6984 0
0 0 0 867 283206 -8313 0
0 0 0 1025 284231 -7288 0
0 0 0 1003 285234 -6285 0
0 0 0 870 286104 -5415 0
0 0 0 794 286898 -4621 0
0 0 0 843 287741 -3778 0
0 0 0 1036 288777 -2742 0
17 1 S106 1061 289838 -1681 0
17 1 S106 957 290795 -724 0
17 2 S106 953 291748 229 0
17 2 S106 1014 292762 1243 0
17 2 S106 904 293666 2147 0
17 2 S106 846 294512 2993 0
17 2 S106 909 295421 3902 0
17 2 S106 959 296380 4861 0
17 2 S106 853 297233 5714 0
17 2 S106 883 298116 6597 0
0 0 0 1023 299139 -10368 0
0 0 0 962 300101 -9406 0
0 0 0 820 300921 -8586 0
0 0 0 836 301757 -7750 0
0 0 0 937 302694 -6813 0
0 0 0 1025 303719 -5788 0
0 0 0 909 304628 -4879 0
0 0 0 981 305609 -3898 0
0 0 0 1083 306692 -2815 0
18 1 S102 996 307688 -1819 0
18 1 S102 932 308620 -887 0
18 2 S102 895 309515 8 0
18 2 S102 1027 310542 1035 0
18 2 S102 1033 311575 2068 0
18 2 S102 941 312516 3009 0
18 2 S102 834 313350 3843 0
18 2 S102 828 314178 4671 0
18 2 S102 835 315013 5506 0
18 2 S102 965 315978 6471 0
0 0 0 885 316863 -7564 0
0 0 0 901 317764 -6663 0
0 0 0 952 318716 -5711 0
0 0 0 946 319662 -4765 0
0 0 0 844 320506 -3921 0
0 0 0 848 321354 -3073 0
0 0 0 990 322344 -2083 0
19 1 S106 1056 323400 -1027 0
19 2 S106 1034 324434 7 0
19 2 S106 947 325381 954 0
19 2 S106 920 326301 1874 0
19 2 S106 895 327196 2769 0
19 2 S106 852 328048 3621 0
19 2 S106 816 328864 4437 0
19 2 S106 896 329760 5333 0
19 2 S106 960 330720 6293 0
0 0 0 947 331667 -11245 0
0 0 0 841 332508 -10404 0
0 0 0 883 333391 -9521 0
0 0 0 833 334224 -8688 0
0 0 0 755 334979 -7933 0
0 0 0 701 335680 -7232 0
0 0 0 718 336398 -6514 0
0 0 0 696 337094 -5818 0
0 0 0 684 337778 -5134 0
0 0 0 685 338463 -4449 0
0 0 0 685 339148 -3764 0
0 0 0 668 339816 -3096 0
0 0 0 665 340481 -2431 0
20 1 S112 663 341144 -1768 0
20 1 S112 678 341822 -1090 0
20 1 S112 691 342513 -399 0
20 2 S112 719 343232 320 0
20 2 S112 718 343950 1038 0
20 2 S112 716 344666 1754 0
20 2 S112 774 345440 2528 0
20 2 S112 986 346426 3514 0
20 2 S112 983 347409 4497 0
20 2 S112 896 348305 5393 0
20 2 S112 916 349221 6309 0
0 0 0 924 350145 -9561 0
0 0 0 859 351004 -8702 0
0 0 0 808 351812 -7894 0
0 0 0 871 352683 -7023 0
0 0 0 870 353553 -6153 0
0 0 0 827 354380 -5326 0
0 0 0 829 355209 -4497 0
0 0 0 940 356149 -3557 0
0 0 0 961 357110 -2596 0
21 1 S106 884 357994 -1712 0
21 1 S106 872 358866 -840 0
21 2 S106 1003 359869 163 0
21 2 S106 1070 360939 1233 0
21 2 S106 1025 361964 2258 0
21 2 S106 898 362862 3156 0
21 2 S106 935 363797 4091 0
21 2 S106 947 364744 5038 0
21 2 S106 865 365609 5903 0
21 2 S106 823 366432 6726 0
0 0 0 865 367297 -11623 0
0 0 0 910 368207 -10713 0
0 0 0 826 369033 -9887 0
0 0 0 877 369910 -9010 0
0 0 0 880 370790 -8130 0
0 0 0 796 371586 -7334 0
0 0 0 742 372328 -6592 0
0 0 0 737 373065 -5855 0
0 0 0 723 373788 -5132 0
0 0 0 715 374503 -4417 0
0 0 0 696 375199 -3721 0
0 0 0 697 375896 -3024 0
0 0 0 721 376617 -2303 0
22 1 S116 731 377348 -1572 0
22 1 S116 756 378104 -816 0
22 1 S116 729 378833 -87 0
22 2 S116 694 379527 607 0
22 2 S116 693 380220 1300 0
22 2 S116 704 380924 2004 0
22 2 S116 709 381633 2713 0
22 2 S116 720 382353 3433 0
22 2 S116 708 383061 4141 0
22 2 S116 700 383761 4841 0
22 2 S116 698 384459 5539 0
22 2 S116 697 385156 6236 0
22 2 S116 706 385862 6942 0
0 0 0 712 386574 -8295 0
0 0 0 726 387300 -7569 0
0 0 0 733 388033 -6836 0
0 0 0 699 388732 -6137 0
0 0 0 717 389449 -5420 0
0 0 0 722 390171 -4698 0
0 0 0 728 390899 -3970 0
0 0 0 738 391637 -3232 0
0 0 0 716 392353 -2516 0
23 1 S112 742 393095 -1774 0
23 1 S112 792 393887 -982 0
23 1 S112 862 394749 -120 0
23 2 S112 770 395519 650 0
23 2 S112 749 396268 1399 0
23 2 S112 792 397060 2191 0
23 2 S112 944 398004 3135 0
23 2 S112 952 398956 4087 0
23 2 S112 826 399782 4913 0
23 2 S112 901 400683 5814 0
23 2 S112 981 401664 6795 0
0 0 0 991 402655 -8079 0
0 0 0 825 403480 -7254 0
0 0 0 814 404294 -6440 0
0 0 0 814 405108 -5626 0
0 0 0 816 405924 -4810 0
0 0 0 796 406720 -4014 0
0 0 0 815 407535 -3199 0
0 0 0 972 408507 -2227 0
24 1 S106 896 409403 -1331 0
24 1 S106 833 410236 -498 0
24 2 S106 786 411022 288 0
24 2 S106 856 411878 1144 0
24 2 S106 917 412795 2061 0
24 2 S106 920 413715 2981 0
24 2 S106 836 414551 3817 0
24 2 S106 916 415467 4733 0
24 2 S106 1014 416481 5747 0
24 2 S106 1067 417548 6814 0
0 0 0 969 418517 -9160 0
0 0 0 851 419368 -8309 0
0 0 0 890 420258 -7419 0
0 0 0 994 421252 -6425 0
0 0 0 873 422125 -5552 0
0 0 0 818 422943 -4734 0
0 0 0 842 423785 -3892 0
0 0 0 813 424598 -3079 0
0 0 0 775 425373 -2304 0
25 1 S102 761 426134 -1543 0
25 1 S102 763 426897 -780 0
25 1 S102 757 427654 -23 0
25 2 S102 737 428391 714 0
25 2 S102 691 429082 1405 0
25 2 S102 701 429783 2106 0
25 2 S102 723 430506 2829 0
25 2 S102 763 431269 3592 0
25 2 S102 752 432021 4344 0
25 2 S102 725 432746 5069 0
25 2 S102 759 433505 5828 0
25 2 S102 774 434279 6602 0
0 0 0 759 435038 -6532 0
0 0 0 726 435764 -5806 0
0 0 0 712 436476 -5094 0
0 0 0 690 437166 -4404 0
0 0 0 691 437857 -3713 0
0 0 0 685 438542 -3028 0
0 0 0 667 439209 -2361 0
26 1 S116 657 439866 -1704 0
26 1 S116 652 440518 -1052 0
26 1 S116 673 441191 -379 0
26 2 S116 776 441967 397 0
26 2 S116 809 442776 1206 0
26 2 S116 771 443547 1977 0
26 2 S116 860 444407 2837 0
26 2 S116 945 445352 3782 0
26 2 S116 916 446268 4698 0
26 2 S116 782 447050 5480 0
26 2 S116 755 447805 6235 0
26 2 S116 762 448567 6997 0
0 0 0 783 449350 -6080 0
0 0 0 780 450130 -5300 0
0 0 0 757 450887 -4543 0
0 0 0 844 451731 -3699 0
0 0 0 846 452577 -2853 0
0 0 0 845 453422 -2008 0
27 1 S106 772 454194 -1236 0
27 1 S106 791 454985 -445 0
27 2 S106 859 455844 414 0
27 2 S106 906 456750 1320 0
27 2 S106 875 457625 2195 0
27 2 S106 885 458510 3080 0
27 2 S106 920 459430 4000 0
27 2 S106 859 460289 4859 0
27 2 S106 810 461099 5669 0
27 2 S106 843 461942 6512 0
0 0 0 913 462855 -6948 0
0 0 0 936 463791 -6012 0
0 0 0 871 464662 -5141 0
0 0 0 903 465565 -4238 0
0 0 0 958 466523 -3280 0
0 0 0 875 467398 -2405 0
28 1 S102 925 468323 -1480 0
28 1 S102 1095 469418 -385 0
28 2 S102 1081 470499 696 0
28 2 S102 1043 471542 1739 0
28 2 S102 1048 472590 2787 0
28 2 S102 1074 473664 3861 0
28 2 S102 944 474608 4805 0
28 2 S102 997 475605 5802 0
28 2 S102 1087 476692 6889 0
0 0 0 1106 477798 -10440 0
0 0 0 918 478716 -9522 0
0 0 0 899 479615 -8623 0
0 0 0 899 480514 -7724 0
0 0 0 898 481412 -6826 0
0 0 0 826 482238 -6000 0
0 0 0 900 483138 -5100 0
0 0 0 1062 484200 -4038 0
0 0 0 1095 485295 -2943 0
29 1 S112 963 486258 -1980 0
29 1 S112 963 487221 -1017 0
29 1 S112 986 488207 -31 0
29 2 S112 963 489170 932 0
29 2 S112 871 490041 1803 0
29 2 S112 974 491015 2777 0
29 2 S112 1077 492092 3854 0
29 2 S112 1038 493130 4892 0
29 2 S112 1001 494131 5893 0
0 0 0 1142 495273 -6875 0
0 0 0 1090 496363 -5785 0
0 0 0 874 497237 -4911 0
0 0 0 852 498089 -4059 0
0 0 0 883 498972 -3176 0
0 0 0 1017 499989 -2159 0
30 1 S112 845 500834 -1314 0
30 1 S112 888 501722 -426 0
30 2 S112 1131 502853 705 0
30 2 S112 1057 503910 1762 0
30 2 S112 938 504848 2700 0
30 2 S112 969 505817 3669 0
30 2 S112 1064 506881 4733 0
30 2 S112 1024 507905 5757 0
30 2 S112 966 508871 6723 0
0 0 0 999 509870 -8889 0
0 0 0 1061 510931 -7828 0
0 0 0 882 511813 -6946 0
0 0 0 843 512656 -6103 0
0 0 0 916 513572 -5187 0
0 0 0 986 514558 -4201 0
0 0 0 945 515503 -3256 0
0 0 0 886 516389 -2370 0
31 1 S106 992 517381 -1378 0
31 1 S106 1080 518461 -298 0
31 2 S106 1031 519492 733 0
31 2 S106 893 520385 1626 0
31 2 S106 877 521262 2503 0
31 2 S106 924 522186 3427 0
31 2 S106 923 523109 4350 0
31 2 S106 905 524014 5255 0
31 2 S106 1085 525099 6340 0
0 0 0 1004 526103 -9732 0
0 0 0 895 526998 -8837 0
0 0 0 851 527849 -7986 0
0 0 0 907 528756 -7079 0
0 0 0 891 529647 -6188 0
0 0 0 825 530472 -5363 0
0 0 0 878 531350 -4485 0
0 0 0 1041 532391 -3444 0
0 0 0 1090 533481 -2354 0
32 1 S102 971 534452 -1383 0
32 1 S102 971 535423 -412 0
32 2 S102 950 536373 538 0
32 2 S102 1008 537381 1546 0
32 2 S102 906 538287 2452 0
32 2 S102 1008 539295 3460 0
32 2 S102 1068 540363 4528 0
32 2 S102 1029 541392 5557 0
32 2 S102 882 542274 6439 0
0 0 0 886 543160 -11309 0
0 0 0 1011 544171 -10298 0
0 0 0 1081 545252 -9217 0
0 0 0 910 546162 -8307 0
0 0 0 974 547136 -7333 0
0 0 0 955 548091 -6378 0
0 0 0 882 548973 -5496 0
0 0 0 905 549878 -4591 0
0 0 0 1060 550938 -3531 0
0 0 0 1101 552039 -2430 0
33 1 S112 982 553021 -1448 0
33 1 S112 902 553923 -546 0
33 2 S112 975 554898 429 0
33 2 S112 1059 555957 1488 0
33 2 S112 943 556900 2431 0
33 2 S112 1021 557921 3452 0
33 2 S112 1039 558960 4491 0
33 2 S112 949 559909 5440 0
33 2 S112 991 560900 6431 0
0 0 0 1119 562019 -10802 0
0 0 0 1067 563086 -9735 0
0 0 0 893 563979 -8842 0
0 0 0 881 564860 -7961 0
0 0 0 927 565787 -7034 0
0 0 0 970 566757 -6064 0
0 0 0 900 567657 -5164 0
0 0 0 1071 568728 -4093 0
0 0 0 1175 569903 -2918 0
34 1 S106 1069 570972 -1849 0
34 1 S106 960 571932 -889 0
34 2 S106 1084 573016 195 0
34 2 S106 1097 574113 1292 0
34 2 S106 1041 575154 2333 0
34 2 S106 863 576017 3196 0
34 2 S106 909 576926 4105 0
34 2 S106 1081 578007 5186 0
34 2 S106 942 578949 6128 0
34 2 S106 874 579823 7002 0
0 0 0 991 580814 -10094 0
0 0 0 1100 581914 -8994 0
0 0 0 976 582890 -8018 0
0 0 0 933 583823 -7085 0
0 0 0 997 584820 -6088 0
0 0 0 909 585729 -5179 0
0 0 0 839 586568 -4340 0
0 0 0 898 587466 -3442 0
0 0 0 1013 588479 -2429 0
35 1 S102 990 589469 -1439 0
35 1 S102 919 590388 -520 0
35 2 S102 1039 591427 519 0
35 2 S102 1092 592519 1611 0
35 2 S102 993 593512 2604 0
35 2 S102 875 594387 3479 0
35 2 S102 859 595246 4338 0
35 2 S102 886 596132 5224 0
35 2 S102 931 597063 6155 0
35 2 S102 827 597890 6982 0
0 0 0 872 598762 -7249 0
0 0 0 996 599758 -6253 0
0 0 0 950 600708 -5303 0
0 0 0 833 601541 -4470 0
0 0 0 864 602405 -3606 0
0 0 0 899 603304 -2707 0
36 1 S106 836 604140 -1871 0
36 1 S106 844 604984 -1027 0
36 1 S106 896 605880 -131 0
36 2 S106 909 606789 778 0
36 2 S106 818 607607 1596 0
36 2 S106 788 608395 2384 0
36 2 S106 765 609160 3149 0
36 2 S106 735 609895 3884 0
36 2 S106 703 610598 4587 0
36 2 S106 696 611294 5283 0
36 2 S106 709 612003 5992 0
36 2 S106 715 612718 6707 0
0 0 0 718 613436 -9336 0
0 0 0 680 614116 -8656 0
0 0 0 678 614794 -7978 0
0 0 0 695 615489 -7283 0
0 0 0 710 616199 -6573 0
0 0 0 730 616929 -5843 0
0 0 0 740 617669 -5103 0
0 0 0 721 618390 -4382 0
0 0 0 771 619161 -3611 0
0 0 0 891 620052 -2720 0
37 1 S116 1006 621058 -1714 0
37 1 S116 1028 622086 -686 0
37 2 S116 929 623015 243 0
37 2 S116 893 623908 1136 0
37 2 S116 970 624878 2106 0
37 2 S116 936 625814 3042 0
37 2 S116 863 626677 3905 0
37 2 S116 861 627538 4766 0
37 2 S116 927 628465 5693 0
37 2 S116 942 629407 6635 0
0 0 0 851 630258 -11314 0
0 0 0 866 631124 -10448 0
0 0 0 1041 632165 -9407 0
0 0 0 916 633081 -8491 0
0 0 0 808 633889 -7683 0
0 0 0 831 634720 -6852 0
0 0 0 922 635642 -5930 0
0 0 0 1086 636728 -4844 0
0 0 0 872 637600 -3972 0
0 0 0 902 638502 -3070 0
0 0 0 917 639419 -2153 0
38 1 S102 967 640386 -1186 0
38 1 S102 915 641301 -271 0
38 2 S102 1076 642377 805 0
38 2 S102 1115 643492 1920 0
38 2 S102 1040 644532 2960 0
38 2 S102 921 645453 3881 0
38 2 S102 935 646388 4816 0
38 2 S102 1011 647399 5827 0
38 2 S102 879 648278 6706 0
0 0 0 846 649124 -8661 0
0 0 0 915 650039 -7746 0
0 0 0 918 650957 -6828 0
0 0 0 829 651786 -5999 0
0 0 0 880 652666 -5119 0
0 0 0 1106 653772 -4013 0
0 0 0 1155 654927 -2858 0
39 1 S116 967 655894 -1891 0
39 1 S116 842 656736 -1049 0
39 1 S116 848 657584 -201 0
39 2 S116 906 658490 705 0
39 2 S116 897 659387 1602 0
39 2 S116 887 660274 2489 0
39 2 S116 1069 661343 3558 0
39 2 S116 1073 662416 4631 0
39 2 S116 868 663284 5499 0
39 2 S116 886 664170 6385 0
0 0 0 986 665156 -6970 0
0 0 0 963 666119 -6007 0
0 0 0 835 666954 -5172 0
0 0 0 866 667820 -4306 0
0 0 0 861 668681 -3445 0
0 0 0 836 669517 -2609 0
40 1 S112 837 670354 -1772 0
40 1 S112 907 671261 -865 0
40 2 S112 1029 672290 164 0
40 2 S112 983 673273 1147 0
40 2 S112 883 674156 2030 0
40 2 S112 980 675136 3010 0
40 2 S112 1111 676247 4121 0
40 2 S112 1028 677275 5149 0
40 2 S112 912 678187 6061 0
40 2 S112 855 679042 6916 0
0 0 0 930 679972 -187364 0
0 0 0 955 680927 -186409 0
0 0 0 866 681793 -185543 0
0 0 0 936 682729 -184607 0
0 0 0 1078 683807 -183529 0
0 0 0 922 684729 -182607 0
0 0 0 908 685637 -181699 0
0 0 0 1047 686684 -180652 0
0 0 0 1028 687712 -179624 0
0 0 0 883 688595 -178741 0
0 0 0 890 689485 -177851 0
0 0 0 946 690431 -176905 0
0 0 0 932 691363 -175973 0
0 0 0 833 692196 -175140 0
0 0 0 3623 695819 -171517 1
0 0 0 990 696809 -170527 0
0 0 0 1465 698274 -169062 1
0 0 0 899 699173 -168163 0
0 0 0 645 699818 -167518 0
0 0 0 650 700468 -166868 0
0 0 0 648 701116 -166220 0
0 0 0 642 701758 -165578 0
0 0 0 629 702387 -164949 0
0 0 0 617 703004 -164332 0
0 0 0 615 703619 -163717 0
0 0 0 604 704223 -163113 0
0 0 0 1206 705429 -161907 0
0 0 0 598 706027 -161309 0
0 0 0 1170 707197 -160139 0
0 0 0 586 707783 -159553 0
0 0 0 577 708360 -158976 0
0 0 0 572 708932 -158404 0
0 0 0 571 709503 -157833 0
0 0 0 575 710078 -157258 0
0 0 0 586 710664 -156672 0
0 0 0 594 711258 -156078 0
0 0 0 624 711882 -155454 0
0 0 0 662 712544 -154792 0
0 0 0 633 713177 -154159 0
0 0 0 630 713807 -153529 0
0 0 0 627 714434 -152902 0
0 0 0 623 715057 -152279 0
0 0 0 615 715672 -151664 0
0 0 0 615 716287 -151049 0
0 0 0 593 716880 -150456 0
0 0 0 1240 718120 -149216 0
0 0 0 582 718702 -148634 0
0 0 0 584 719286 -148050 0
0 0 0 574 719860 -147476 0
0 0 0 1155 721015 -146321 0
0 0 0 591 721606 -145730 0
0 0 0 609 722215 -145121 0
0 0 0 579 722794 -144542 0
0 0 0 1168 723962 -143374 0
0 0 0 594 724556 -142780 0
0 0 0 599 725155 -142181 0
0 0 0 595 725750 -141586 0
0 0 0 600 726350 -140986 0
0 0 0 611 726961 -140375 0
0 0 0 609 727570 -139766 0
0 0 0 624 728194 -139142 0
0 0 0 634 728828 -138508 0
0 0 0 624 729452 -137884 0
0 0 0 626 730078 -137258 0
0 0 0 618 730696 -136640 0
0 0 0 605 731301 -136035 0
0 0 0 593 731894 -135442 0
0 0 0 590 732484 -134852 0
0 0 0 588 733072 -134264 0
0 0 0 583 733655 -133681 0
0 0 0 596 734251 -133085 0
0 0 0 636 734887 -132449 0
0 0 0 788 735675 -131661 0
0 0 0 865 736540 -130796 0
0 0 0 838 737378 -129958 0
0 0 0 746 738124 -129212 0
0 0 0 773 738897 -128439 0
0 0 0 821 739718 -127618 0
0 0 0 938 740656 -126680 0
0 0 0 813 741469 -125867 0
0 0 0 590 742059 -125277 0
0 0 0 1033 743092 -124244 0
0 0 0 856 743948 -123388 0
0 0 0 1618 745566 -121770 1
0 0 0 843 746409 -120927 0
0 0 0 945 747354 -119982 0
0 0 0 1028 748382 -118954 0
0 0 0 1957 750339 -116997 1
0 0 0 954 751293 -116043 0
0 0 0 906 752199 -115137 0
0 0 0 1296 753495 -113841 0
0 0 0 502 753997 -113339 0
0 0 0 930 754927 -112409 0
0 0 0 899 755826 -111510 0
0 0 0 894 756720 -110616 0
0 0 0 916 757636 -109700 0
0 0 0 906 758542 -108794 0
0 0 0 896 759438 -107898 0
0 0 0 915 760353 -106983 0
0 0 0 895 761248 -106088 0
0 0 0 798 762046 -105290 0
0 0 0 800 762846 -104490 0
0 0 0 842 763688 -103648 0
0 0 0 843 764531 -102805 0
0 0 0 774 765305 -102031 0
0 0 0 776 766081 -101255 0
0 0 0 780 766861 -100475 0
0 0 0 735 767596 -99740 0
0 0 0 713 768309 -99027 0
0 0 0 698 769007 -98329 0
0 0 0 694 769701 -97635 0
0 0 0 684 770385 -96951 0
0 0 0 704 771089 -96247 0
0 0 0 787 771876 -95460 0
0 0 0 781 772657 -94679 0
0 0 0 831 773488 -93848 0
0 0 0 827 774315 -93021 0
0 0 0 853 775168 -92168 0
0 0 0 754 775922 -91414 0
0 0 0 739 776661 -90675 0
0 0 0 781 777442 -89894 0
0 0 0 1056 778498 -88838 0
0 0 0 998 779496 -87840 0
0 0 0 873 780369 -86967 0
0 0 0 782 781151 -86185 0
0 0 0 777 781928 -85408 0
0 0 0 762 782690 -84646 0
0 0 0 760 783450 -83886 0
0 0 0 715 784165 -83171 0
0 0 0 722 784887 -82449 0
0 0 0 732 785619 -81717 0
0 0 0 751 786370 -80966 0
0 0 0 791 787161 -80175 0
0 0 0 768 787929 -79407 0
0 0 0 740 788669 -78667 0
0 0 0 694 789363 -77973 0
0 0 0 697 790060 -77276 0
0 0 0 725 790785 -76551 0
0 0 0 797 791582 -75754 0
0 0 0 863 792445 -74891 0
0 0 0 887 793332 -74004 0
0 0 0 850 794182 -73154 0
0 0 0 821 795003 -72333 0
0 0 0 828 795831 -71505 0
0 0 0 850 796681 -70655 0
0 0 0 878 797559 -69777 0
0 0 0 822 798381 -68955 0
0 0 0 917 799298 -68038 0
0 0 0 1048 800346 -66990 0
0 0 0 1115 801461 -65875 0
0 0 0 892 802353 -64983 0
0 0 0 911 803264 -64072 0
0 0 0 973 804237 -63099 0
0 0 0 947 805184 -62152 0
0 0 0 841 806025 -61311 0
0 0 0 858 806883 -60453 0
0 0 0 922 807805 -59531 0
0 0 0 843 808648 -58688 0
0 0 0 775 809423 -57913 0
0 0 0 832 810255 -57081 0
0 0 0 1119 811374 -55962 0
0 0 0 986 812360 -54976 0
0 0 0 1006 813366 -53970 0
0 0 0 999 814365 -52971 0
0 0 0 864 815229 -52107 0
0 0 0 837 816066 -51270 0
0 0 0 981 817047 -50289 0
0 0 0 961 818008 -49328 0
0 0 0 870 818878 -48458 0
0 0 0 894 819772 -47564 0
0 0 0 907 820679 -46657 0
0 0 0 992 821671 -45665 0
0 0 0 976 822647 -44689 0
0 0 0 977 823624 -43712 0
0 0 0 992 824616 -42720 0
0 0 0 971 825587 -41749 0
0 0 0 832 826419 -40917 0
0 0 0 772 827191 -40145 0
0 0 0 724 827915 -39421 0
0 0 0 701 828616 -38720 0
0 0 0 704 829320 -38016 0
0 0 0 732 830052 -37284 0
0 0 0 731 830783 -36553 0
0 0 0 700 831483 -35853 0
0 0 0 673 832156 -35180 0
0 0 0 709 832865 -34471 0
0 0 0 1565 834430 -32906 1
0 0 0 835 835265 -32071 0
0 0 0 514 835779 -31557 0
0 0 0 1120 836899 -30437 0
0 0 0 781 837680 -29656 0
0 0 0 767 838447 -28889 0
0 0 0 735 839182 -28154 0
0 0 0 713 839895 -27441 0
0 0 0 693 840588 -26748 0
0 0 0 674 841262 -26074 0
0 0 0 652 841914 -25422 0
0 0 0 653 842567 -24769 0
0 0 0 650 843217 -24119 0
0 0 0 656 843873 -23463 0
0 0 0 721 844594 -22742 0
0 0 0 1019 845613 -21723 0
0 0 0 1018 846631 -20705 0
0 0 0 1005 847636 -19700 0
0 0 0 993 848629 -18707 0
0 0 0 1067 849696 -17640 0
0 0 0 1166 850862 -16474 0
0 0 0 1157 852019 -15317 0
0 0 0 1043 853062 -14274 0
0 0 0 842 853904 -13432 0
0 0 0 784 854688 -12648 0
0 0 0 792 855480 -11856 0
0 0 0 804 856284 -11052 0
0 0 0 780 857064 -10272 0
0 0 0 721 857785 -9551 0
0 0 0 796 858581 -8755 0
0 0 0 1124 859705 -7631 0
0 0 0 1027 860732 -6604 0
0 0 0 870 861602 -5734 0
0 0 0 811 862413 -4923 0
0 0 0 874 863287 -4049 0
0 0 0 874 864161 -3175 0
0 0 0 779 864940 -2396 0
41 1 S102 785 865725 -1611 0
41 1 S102 775 866500 -836 0
41 1 S102 745 867245 -91 0
41 2 S102 729 867974 638 0
41 2 S102 752 868726 1390 0
41 2 S102 782 869508 2172 0
41 2 S102 823 870331 2995 0
41 2 S102 784 871115 3779 0
41 2 S102 820 871935 4599 0
41 2 S102 873 872808 5472 0
41 2 S102 872 873680 6344 0
0 0 0 811 874491 -6274 0
0 0 0 765 875256 -5509 0
0 0 0 786 876042 -4723 0
0 0 0 795 876837 -3928 0
0 0 0 926 877763 -3002 0
0 0 0 849 878612 -2153 0
42 1 S112 836 879448 -1317 0
42 1 S112 953 880401 -364 0
42 2 S112 1071 881472 707 0
42 2 S112 969 882441 1676 0
42 2 S112 879 883320 2555 0
42 2 S112 999 884319 3554 0
42 2 S112 1192 885511 4746 0
42 2 S112 1050 886561 5796 0
42 2 S112 960 887521 6756 0
0 0 0 988 888509 -7939 0
0 0 0 1015 889524 -6924 0
0 0 0 835 890359 -6089 0
0 0 0 909 891268 -5180 0
0 0 0 1091 892359 -4089 0
0 0 0 1167 893526 -2922 0
43 1 S116 991 894517 -1931 0
43 1 S116 961 895478 -970 0
43 1 S116 922 896400 -48 0
43 2 S116 859 897259 811 0
43 2 S116 985 898244 1796 0
43 2 S116 1209 899453 3005 0
43 2 S116 1082 900535 4087 0
43 2 S116 1031 901566 5118 0
43 2 S116 1028 902594 6146 0
0 0 0 1063 903657 -8557 0
0 0 0 963 904620 -7594 0
0 0 0 1059 905679 -6535 0
0 0 0 1107 906786 -5428 0
0 0 0 1048 907834 -4380 0
0 0 0 863 908697 -3517 0
0 0 0 920 909617 -2597 0
44 1 S102 977 910594 -1620 0
44 1 S102 957 911551 -663 0
44 2 S102 927 912478 264 0
44 2 S102 1045 913523 1309 0
44 2 S102 1107 914630 2416 0
44 2 S102 924 915554 3340 0
44 2 S102 849 916403 4189 0
44 2 S102 893 917296 5082 0
44 2 S102 917 918213 5999 0
44 2 S102 920 919133 6919 0
0 0 0 923 920056 -9068 0
0 0 0 1106 921162 -7962 0
0 0 0 1099 922261 -6863 0
0 0 0 908 923169 -5955 0
0 0 0 932 924101 -5023 0
0 0 0 937 925038 -4086 0
0 0 0 943 925981 -3143 0
0 0 0 874 926855 -2269 0
45 1 S116 1024 927879 -1245 0
45 1 S116 1115 928994 -130 0
45 2 S116 1141 930135 1011 0
45 2 S116 1016 931151 2027 0
45 2 S116 968 932119 2995 0
45 2 S116 1131 933250 4126 0
45 2 S116 1050 934300 5176 0
45 2 S116 1031 935331 6207 0
0 0 0 1232 936563 -12240 0
0 0 0 1107 937670 -11133 0
0 0 0 909 938579 -10224 0
0 0 0 1069 939648 -9155 0
0 0 0 1111 940759 -8044 0
0 0 0 878 941637 -7166 0
0 0 0 915 942552 -6251 0
0 0 0 867 943419 -5384 0
0 0 0 770 944189 -4614 0
0 0 0 735 944924 -3879 0
0 0 0 714 945638 -3165 0
0 0 0 709 946347 -2456 0
46 1 S102 703 947050 -1753 0
46 1 S102 720 947770 -1033 0
46 1 S102 703 948473 -330 0
46 2 S102 701 949174 371 0
46 2 S102 703 949877 1074 0
46 2 S102 691 950568 1765 0
46 2 S102 680 951248 2445 0
46 2 S102 672 951920 3117 0
46 2 S102 660 952580 3777 0
46 2 S102 657 953237 4434 0
46 2 S102 649 953886 5083 0
46 2 S102 648 954534 5731 0
46 2 S102 649 955183 6380 0
46 2 S102 644 955827 7024 0
0 0 0 630 956457 -8360 0
0 0 0 638 957095 -7722 0
0 0 0 640 957735 -7082 0
0 0 0 648 958383 -6434 0
0 0 0 649 959032 -5785 0
0 0 0 642 959674 -5143 0
0 0 0 648 960322 -4495 0
0 0 0 684 961006 -3811 0
0 0 0 740 961746 -3071 0
0 0 0 764 962510 -2307 0
47 1 S112 792 963302 -1515 0
47 1 S112 743 964045 -772 0
47 2 S112 812 964857 40 0
47 2 S112 885 965742 925 0
47 2 S112 992 966734 1917 0
47 2 S112 1007 967741 2924 0
47 2 S112 846 968587 3770 0
47 2 S112 1032 969619 4802 0
47 2 S112 1126 970745 5928 0
47 2 S112 1068 971813 6996 0
0 0 0 1010 972823 -11010 0
0 0 0 1185 974008 -9825 0
0 0 0 928 974936 -8897 0
0 0 0 800 975736 -8097 0
0 0 0 780 976516 -7317 0
0 0 0 750 977266 -6567 0
0 0 0 750 978016 -5817 0
0 0 0 753 978769 -5064 0
0 0 0 794 979563 -4270 0
0 0 0 841 980404 -3429 0
0 0 0 914 981318 -2515 0
48 1 S116 860 982178 -1655 0
48 1 S116 1025 983203 -630 0
48 2 S116 1080 984283 450 0
48 2 S116 1050 985333 1500 0
48 2 S116 986 986319 2486 0
48 2 S116 1090 987409 3576 0
48 2 S116 1185 988594 4761 0
48 2 S116 1148 989742 5909 0
48 2 S116 949 990691 6858 0
0 0 0 889 991580 -6825 0
0 0 0 1225 992805 -5600 0
0 0 0 1105 993910 -4495 0
0 0 0 877 994787 -3618 0
0 0 0 872 995659 -2746 0
49 1 S112 965 996624 -1781 0
49 1 S112 924 997548 -857 0
49 1 S112 831 998379 -26 0
49 2 S112 863 999242 837 0
49 2 S112 885 1000127 1722 0
49 2 S112 895 1001022 2617 0
49 2 S112 828 1001850 3445 0
49 2 S112 760 1002610 4205 0
49 2 S112 771 1003381 4976 0
49 2 S112 819 1004200 5795 0
49 2 S112 861 1005061 6656 0
0 0 0 861 1005922 -10769 0
0 0 0 796 1006718 -9973 0
0 0 0 832 1007550 -9141 0
0 0 0 854 1008404 -8287 0
0 0 0 941 1009345 -7346 0
0 0 0 839 1010184 -6507 0
0 0 0 916 1011100 -5591 0
0 0 0 1086 1012186 -4505 0
0 0 0 1051 1013237 -3454 0
0 0 0 944 1014181 -2510 0
50 1 S106 1026 1015207 -1484 0
50 1 S106 1219 1016426 -265 0
50 2 S106 1110 1017536 845 0
50 2 S106 910 1018446 1755 0
50 2 S106 862 1019308 2617 0
50 2 S106 1108 1020416 3725 0
50 2 S106 1216 1021632 4941 0
50 2 S106 1027 1022659 5968 0
50 2 S106 1046 1023705 7014 0
0 0 0 1105 1024810 -7216 0
0 0 0 946 1025756 -6270 0
0 0 0 986 1026742 -5284 0
0 0 0 965 1027707 -4319 0
0 0 0 880 1028587 -3439 0
0 0 0 846 1029433 -2593 0
51 1 S112 948 1030381 -1645 0
51 1 S112 1094 1031475 -551 0
51 2 S112 976 1032451 425 0
51 2 S112 1003 1033454 1428 0
51 2 S112 1085 1034539 2513 0
51 2 S112 1134 1035673 3647 0
51 2 S112 1014 1036687 4661 0
51 2 S112 1032 1037719 5693 0
51 2 S112 1079 1038798 6772 0
0 0 0 1003 1039801 -6035 0
0 0 0 870 1040671 -5165 0
0 0 0 864 1041535 -4301 0
0 0 0 835 1042370 -3466 0
0 0 0 788 1043158 -2678 0
52 1 S116 793 1043951 -1885 0
52 1 S116 794 1044745 -1091 0
52 1 S116 789 1045534 -302 0
52 2 S116 758 1046292 456 0
52 2 S116 775 1047067 1231 0
52 2 S116 828 1047895 2059 0
52 2 S116 995 1048890 3054 0
52 2 S116 917 1049807 3971 0
52 2 S116 823 1050630 4794 0
52 2 S116 847 1051477 5641 0
52 2 S116 991 1052468 6632 0
0 0 0 1010 1053478 -8290 0
0 0 0 872 1054350 -7418 0
0 0 0 841 1055191 -6577 0
0 0 0 851 1056042 -5726 0
0 0 0 885 1056927 -4841 0
0 0 0 993 1057920 -3848 0
0 0 0 909 1058829 -2939 0
53 1 S106 1101 1059930 -1838 0
53 1 S106 1064 1060994 -774 0
53 2 S106 915 1061909 141 0
53 2 S106 898 1062807 1039 0
53 2 S106 1227 1064034 2266 0
53 2 S106 1084 1065118 3350 0
53 2 S106 952 1066070 4302 0
53 2 S106 951 1067021 5253 0
53 2 S106 1054 1068075 6307 0
0 0 0 923 1068998 -6530 0
0 0 0 961 1069959 -5569 0
0 0 0 1110 1071069 -4459 0
0 0 0 964 1072033 -3495 0
0 0 0 880 1072913 -2615 0
54 1 S102 923 1073836 -1692 0
54 1 S102 1153 1074989 -539 0
54 2 S102 1107 1076096 568 0
54 2 S102 1038 1077134 1606 0
54 2 S102 1154 1078288 2760 0
54 2 S102 1160 1079448 3920 0
54 2 S102 971 1080419 4891 0
54 2 S102 875 1081294 5766 0
54 2 S102 952 1082246 6718 0
0 0 0 1181 1083427 -10105 0
0 0 0 967 1084394 -9138 0
0 0 0 810 1085204 -8328 0
0 0 0 1597 1086801 -6731 1
0 0 0 765 1087566 -5966 0
0 0 0 738 1088304 -5228 0
0 0 0 729 1089033 -4499 0
0 0 0 689 1089722 -3810 0
0 0 0 697 1090419 -3113 0
0 0 0 705 1091124 -2408 0
55 1 S106 719 1091843 -1689 0
55 1 S106 727 1092570 -962 0
55 1 S106 709 1093279 -253 0
55 2 S106 712 1093991 459 0
55 2 S106 695 1094686 1154 0
55 2 S106 670 1095356 1824 0
55 2 S106 686 1096042 2510 0
55 2 S106 682 1096724 3192 0
55 2 S106 674 1097398 3866 0
55 2 S106 657 1098055 4523 0
55 2 S106 653 1098708 5176 0
55 2 S106 645 1099353 5821 0
55 2 S106 647 1100000 6468 0
0 0 0 656 1100656 -8526 0
0 0 0 675 1101331 -7851 0
0 0 0 688 1102019 -7163 0
0 0 0 738 1102757 -6425 0
0 0 0 696 1103453 -5729 0
0 0 0 709 1104162 -5020 0
0 0 0 725 1104887 -4295 0
0 0 0 769 1105656 -3526 0
0 0 0 941 1106597 -2585 0
56 1 S116 994 1107591 -1591 0
56 1 S116 1059 1108650 -532 0
56 2 S116 982 1109632 450 0
56 2 S116 934 1110566 1384 0
56 2 S116 1040 1111606 2424 0
56 2 S116 989 1112595 3413 0
56 2 S116 852 1113447 4265 0
56 2 S116 928 1114375 5193 0
56 2 S116 1196 1115571 6389 0
0 0 0 1100 1116671 -6652 0
0 0 0 877 1117548 -5775 0
0 0 0 950 1118498 -4825 0
0 0 0 856 1119354 -3969 0
0 0 0 796 1120150 -3173 0
0 0 0 763 1120913 -2410 0
57 1 S106 766 1121679 -1644 0
57 1 S106 794 1122473 -850 0
57 1 S106 799 1123272 -51 0
57 2 S106 774 1124046 723 0
57 2 S106 828 1124874 1551 0
57 2 S106 878 1125752 2429 0
57 2 S106 942 1126694 3371 0
57 2 S106 794 1127488 4165 0
57 2 S106 820 1128308 4985 0
57 2 S106 837 1129145 5822 0
57 2 S106 975 1130120 6797 0
0 0 0 1052 1131172 -9956 0
0 0 0 914 1132086 -9042 0
0 0 0 997 1133083 -8045 0
0 0 0 960 1134043 -7085 0
0 0 0 907 1134950 -6178 0
0 0 0 841 1135791 -5337 0
0 0 0 1002 1136793 -4335 0
0 0 0 1110 1137903 -3225 0
0 0 0 1120 1139023 -2105 0
58 1 S102 991 1140014 -1114 0
58 1 S102 1068 1141082 -46 0
58 2 S102 1085 1142167 1039 0
58 2 S102 908 1143075 1947 0
58 2 S102 856 1143931 2803 0
58 2 S102 812 1144743 3615 0
58 2 S102 806 1145549 4421 0
58 2 S102 858 1146407 5279 0
58 2 S102 1007 1147414 6286 0
0 0 0 900 1148314 -6574 0
0 0 0 850 1149164 -5724 0
0 0 0 815 1149979 -4909 0
0 0 0 771 1150750 -4138 0
0 0 0 754 1151504 -3384 0
0 0 0 738 1152242 -2646 0
59 1 S112 769 1153011 -1877 0
59 1 S112 885 1153896 -992 0
59 2 S112 1029 1154925 37 0
59 2 S112 1002 1155927 1039 0
59 2 S112 896 1156823 1935 0
59 2 S112 1020 1157843 2955 0
59 2 S112 1105 1158948 4060 0
59 2 S112 961 1159909 5021 0
59 2 S112 834 1160743 5855 0
59 2 S112 900 1161643 6755 0
0 0 0 1002 1162645 -8673 0
0 0 0 925 1163570 -7748 0
0 0 0 851 1164421 -6897 0
0 0 0 857 1165278 -6040 0
0 0 0 842 1166120 -5198 0
0 0 0 814 1166934 -4384 0
0 0 0 818 1167752 -3566 0
0 0 0 824 1168576 -2742 0
60 1 S102 842 1169418 -1900 0
60 1 S102 821 1170239 -1079 0
60 1 S102 767 1171006 -312 0
60 2 S102 813 1171819 501 0
60 2 S102 938 1172757 1439 0
60 2 S102 1038 1173795 2477 0
60 2 S102 1036 1174831 3513 0
60 2 S102 1042 1175873 4555 0
60 2 S102 1069 1176942 5624 0
60 2 S102 1058 1178000 6682 0
0 0 0 909 1178909 -10579 0
0 0 0 880 1179789 -9699 0
0 0 0 948 1180737 -8751 0
0 0 0 881 1181618 -7870 0
0 0 0 862 1182480 -7008 0
0 0 0 1130 1183610 -5878 0
0 0 0 1111 1184721 -4767 0
0 0 0 972 1185693 -3795 0
0 0 0 811 1186504 -2984 0
0 0 0 798 1187302 -2186 0
61 1 S106 794 1188096 -1392 0
61 1 S106 785 1188881 -607 0
61 2 S106 731 1189612 124 0
61 2 S106 726 1190338 850 0
61 2 S106 822 1191160 1672 0
61 2 S106 1042 1192202 2714 0
61 2 S106 1095 1193297 3809 0
61 2 S106 1014 1194311 4823 0
61 2 S106 927 1195238 5750 0
61 2 S106 937 1196175 6687 0
0 0 0 961 1197136 -5830 0
0 0 0 835 1197971 -4995 0
0 0 0 770 1198741 -4225 0
0 0 0 754 1199495 -3471 0
0 0 0 758 1200253 -2713 0
62 1 S112 793 1201046 -1920 0
62 1 S112 933 1201979 -987 0
62 1 S112 839 1202818 -148 0
62 2 S112 867 1203685 719 0
62 2 S112 967 1204652 1686 0
62 2 S112 987 1205639 2673 0
62 2 S112 1006 1206645 3679 0
62 2 S112 847 1207492 4526 0
62 2 S112 844 1208336 5370 0
62 2 S112 861 1209197 6231 0
0 0 0 999 1210196 -10973 0
0 0 0 915 1211111 -10058 0
0 0 0 891 1212002 -9167 0
0 0 0 893 1212895 -8274 0
0 0 0 830 1213725 -7444 0
0 0 0 790 1214515 -6654 0
0 0 0 835 1215350 -5819 0
0 0 0 828 1216178 -4991 0
0 0 0 814 1216992 -4177 0
0 0 0 778 1217770 -3399 0
0 0 0 716 1218486 -2683 0
63 1 S102 738 1219224 -1945 0
63 1 S102 773 1219997 -1172 0
63 1 S102 898 1220895 -274 0
63 2 S102 840 1221735 566 0
63 2 S102 761 1222496 1327 0
63 2 S102 808 1223304 2135 0
63 2 S102 856 1224160 2991 0
63 2 S102 852 1225012 3843 0
63 2 S102 789 1225801 4632 0
63 2 S102 898 1226699 5530 0
63 2 S102 979 1227678 6509 0
0 0 0 1080 1228758 -11012 0
0 0 0 1008 1229766 -10004 0
0 0 0 976 1230742 -9028 0
0 0 0 978 1231720 -8050 0
0 0 0 1164 1232884 -6886 0
0 0 0 1008 1233892 -5878 0
0 0 0 952 1234844 -4926 0
0 0 0 970 1235814 -3956 0
0 0 0 869 1236683 -3087 0
0 0 0 827 1237510 -2260 0
64 1 S112 887 1238397 -1373 0
64 1 S112 978 1239375 -395 0
64 2 S112 989 1240364 594 0
64 2 S112 887 1241251 1481 0
64 2 S112 948 1242199 2429 0
64 2 S112 1041 1243240 3470 0
64 2 S112 949 1244189 4419 0
64 2 S112 1041 1245230 5460 0
64 2 S112 1142 1246372 6602 0
0 0 0 1053 1247425 -6088 0
0 0 0 919 1248344 -5169 0
0 0 0 934 1249278 -4235 0
0 0 0 1061 1250339 -3174 0
0 0 0 1028 1251367 -2146 0
65 1 S106 1035 1252402 -1111 0
65 2 S106 1178 1253580 67 0
65 2 S106 1086 1254666 1153 0
65 2 S106 981 1255647 2134 0
65 2 S106 931 1256578 3065 0
65 2 S106 1147 1257725 4212 0
65 2 S106 1028 1258753 5240 0
65 2 S106 907 1259660 6147 0
0 0 0 1069 1260729 -7307 0
0 0 0 1146 1261875 -6161 0
0 0 0 968 1262843 -5193 0
0 0 0 887 1263730 -4306 0
0 0 0 901 1264631 -3405 0
0 0 0 1094 1265725 -2311 0
66 1 S116 980 1266705 -1331 0
66 1 S116 1008 1267713 -323 0
66 2 S116 1121 1268834 798 0
66 2 S116 1216 1270050 2014 0
66 2 S116 1054 1271104 3068 0
66 2 S116 1061 1272165 4129 0
66 2 S116 1135 1273300 5264 0
66 2 S116 1031 1274331 6295 0
0 0 0 962 1275293 -11162 0
0 0 0 1169 1276462 -9993 0
0 0 0 1055 1277517 -8938 0
0 0 0 845 1278362 -8093 0
0 0 0 886 1279248 -7207 0
0 0 0 936 1280184 -6271 0
0 0 0 986 1281170 -5285 0
0 0 0 928 1282098 -4357 0
0 0 0 1070 1283168 -3287 0
0 0 0 1173 1284341 -2114 0
67 1 S102 1104 1285445 -1010 0
67 1 S102 950 1286395 -60 0
67 2 S102 1032 1287427 972 0
67 2 S102 1141 1288568 2113 0
67 2 S102 1121 1289689 3234 0
67 2 S102 927 1290616 4161 0
67 2 S102 928 1291544 5089 0
67 2 S102 1094 1292638 6183 0
0 0 0 1025 1293663 -6701 0
0 0 0 925 1294588 -5776 0
0 0 0 944 1295532 -4832 0
0 0 0 911 1296443 -3921 0
0 0 0 820 1297263 -3101 0
0 0 0 852 1298115 -2249 0
68 1 S106 991 1299106 -1258 0
68 1 S106 948 1300054 -310 0
68 2 S106 850 1300904 540 0
68 2 S106 906 1301810 1446 0
68 2 S106 1148 1302958 2594 0
68 2 S106 1090 1304048 3684 0
68 2 S106 1027 1305075 4711 0
68 2 S106 985 1306060 5696 0
68 2 S106 1053 1307113 6749 0
0 0 0 1092 1308205 -11721 0
0 0 0 1035 1309240 -10686 0
0 0 0 964 1310204 -9722 0
0 0 0 1073 1311277 -8649 0
0 0 0 990 1312267 -7659 0
0 0 0 869 1313136 -6790 0
0 0 0 938 1314074 -5852 0
0 0 0 1017 1315091 -4835 0
0 0 0 969 1316060 -3866 0
0 0 0 1054 1317114 -2812 0
69 1 S102 1149 1318263 -1663 0
69 1 S102 1111 1319374 -552 0
69 2 S102 941 1320315 389 0
69 2 S102 990 1321305 1379 0
69 2 S102 977 1322282 2356 0
69 2 S102 925 1323207 3281 0
69 2 S102 842 1324049 4123 0
69 2 S102 975 1325024 5098 0
69 2 S102 1163 1326187 6261 0
0 0 0 1095 1327282 -8327 0
0 0 0 952 1328234 -7375 0
0 0 0 892 1329126 -6483 0
0 0 0 1165 1330291 -5318 0
0 0 0 1066 1331357 -4252 0
0 0 0 971 1332328 -3281 0
0 0 0 1038 1333366 -2243 0
70 1 S112 1082 1334448 -1161 0
70 1 S112 997 1335445 -164 0
70 2 S112 1026 1336471 862 0
70 2 S112 1107 1337578 1969 0
70 2 S112 1134 1338712 3103 0
70 2 S112 994 1339706 4097 0
70 2 S112 914 1340620 5011 0
70 2 S112 999 1341619 6010 0
0 0 0 1059 1342678 -12345 0
0 0 0 885 1343563 -11460 0
0 0 0 971 1344534 -10489 0
0 0 0 1112 1345646 -9377 0
0 0 0 930 1346576 -8447 0
0 0 0 859 1347435 -7588 0
0 0 0 947 1348382 -6641 0
0 0 0 1096 1349478 -5545 0
0 0 0 1060 1350538 -4485 0
0 0 0 1001 1351539 -3484 0
0 0 0 1173 1352712 -2311 0
71 1 S116 1068 1353780 -1243 0
71 1 S116 872 1354652 -371 0
71 2 S116 850 1355502 479 0
71 2 S116 922 1356424 1401 0
71 2 S116 1075 1357499 2476 0
71 2 S116 941 1358440 3417 0
71 2 S116 987 1359427 4404 0
71 2 S116 1144 1360571 5548 0
71 2 S116 1024 1361595 6572 0
0 0 0 858 1362453 -8783 0
0 0 0 898 1363351 -7885 0
0 0 0 995 1364346 -6890 0
0 0 0 865 1365211 -6025 0
0 0 0 832 1366043 -5193 0
0 0 0 928 1366971 -4265 0
0 0 0 877 1367848 -3388 0
0 0 0 801 1368649 -2587 0
72 1 S102 764 1369413 -1823 0
72 1 S102 752 1370165 -1071 0
72 1 S102 724 1370889 -347 0
72 2 S102 688 1371577 341 0
72 2 S102 671 1372248 1012 0
72 2 S102 662 1372910 1674 0
72 2 S102 650 1373560 2324 0
72 2 S102 642 1374202 2966 0
72 2 S102 633 1374835 3599 0
72 2 S102 626 1375461 4225 0
72 2 S102 619 1376080 4844 0
72 2 S102 619 1376699 5463 0
72 2 S102 604 1377303 6067 0
72 2 S102 605 1377908 6672 0
0 0 0 599 1378507 -7037 0
0 0 0 598 1379105 -6439 0
0 0 0 602 1379707 -5837 0
0 0 0 601 1380308 -5236 0
0 0 0 594 1380902 -4642 0
0 0 0 595 1381497 -4047 0
0 0 0 595 1382092 -3452 0
0 0 0 595 1382687 -2857 0
0 0 0 606 1383293 -2251 0
73 1 S116 602 1383895 -1649 0
73 1 S116 608 1384503 -1041 0
73 1 S116 603 1385106 -438 0
73 2 S116 602 1385708 164 0
73 2 S116 619 1386327 783 0
73 2 S116 643 1386970 1426 0
73 2 S116 679 1387649 2105 0
73 2 S116 776 1388425 2881 0
73 2 S116 780 1389205 3661 0
73 2 S116 805 1390010 4466 0
73 2 S116 1070 1391080 5536 0
73 2 S116 1071 1392151 6607 0
0 0 0 1016 1393167 -9336 0
0 0 0 837 1394004 -8499 0
0 0 0 852 1394856 -7647 0
0 0 0 1118 1395974 -6529 0
0 0 0 953 1396927 -5576 0
0 0 0 808 1397735 -4768 0
0 0 0 812 1398547 -3956 0
0 0 0 852 1399399 -3104 0
0 0 0 909 1400308 -2195 0
74 1 S106 822 1401130 -1373 0
74 1 S106 918 1402048 -455 0
74 2 S106 1155 1403203 700 0
74 2 S106 1067 1404270 1767 0
74 2 S106 961 1405231 2728 0
74 2 S106 1071 1406302 3799 0
74 2 S106 1144 1407446 4943 0
74 2 S106 1048 1408494 5991 0
74 2 S106 924 1409418 6915 0
0 0 0 1054 1410472 -6687 0
0 0 0 1119 1411591 -5568 0
0 0 0 876 1412467 -4692 0
0 0 0 886 1413353 -3806 0
0 0 0 928 1414281 -2878 0
75 1 S112 1031 1415312 -1847 0
75 1 S112 1007 1416319 -840 0
75 2 S112 1140 1417459 300 0
75 2 S112 1215 1418674 1515 0
75 2 S112 1229 1419903 2744 0
75 2 S112 1133 1421036 3877 0
75 2 S112 1065 1422101 4942 0
75 2 S112 874 1422975 5816 0
75 2 S112 1153 1424128 6969 0
0 0 0 1238 1425366 -6912 0
0 0 0 1022 1426388 -5890 0
0 0 0 924 1427312 -4966 0
0 0 0 954 1428266 -4012 0
0 0 0 844 1429110 -3168 0
0 0 0 797 1429907 -2371 0
76 1 S116 814 1430721 -1557 0
76 1 S116 977 1431698 -580 0
76 2 S116 914 1432612 334 0
76 2 S116 939 1433551 1273 0
76 2 S116 1229 1434780 2502 0
76 2 S116 1178 1435958 3680 0
76 2 S116 1066 1437024 4746 0
76 2 S116 1038 1438062 5784 0
76 2 S116 1145 1439207 6929 0
0 0 0 1159 1440366 -7645 0
0 0 0 916 1441282 -6729 0
0 0 0 897 1442179 -5832 0
0 0 0 1048 1443227 -4784 0
0 0 0 976 1444203 -3808 0
0 0 0 940 1445143 -2868 0
77 1 S106 1234 1446377 -1634 0
77 1 S106 1264 1447641 -370 0
77 2 S106 1133 1448774 763 0
77 2 S106 935 1449709 1698 0
77 2 S106 1004 1450713 2702 0
77 2 S106 1156 1451869 3858 0
77 2 S106 1007 1452876 4865 0
77 2 S106 1084 1453960 5949 0
0 0 0 1217 1455177 -9313 0
0 0 0 1049 1456226 -8264 0
0 0 0 873 1457099 -7391 0
0 0 0 937 1458036 -6454 0
0 0 0 1001 1459037 -5453 0
0 0 0 853 1459890 -4600 0
0 0 0 861 1460751 -3739 0
0 0 0 859 1461610 -2880 0
0 0 0 848 1462458 -2032 0
78 1 S112 787 1463245 -1245 0
78 1 S112 760 1464005 -485 0
78 2 S112 768 1464773 283 0
78 2 S112 774 1465547 1057 0
78 2 S112 753 1466300 1810 0
78 2 S112 721 1467021 2531 0
78 2 S112 716 1467737 3247 0
78 2 S112 701 1468438 3948 0
78 2 S112 701 1469139 4649 0
78 2 S112 721 1469860 5370 0
78 2 S112 758 1470618 6128 0
78 2 S112 875 1471493 7003 0
0 0 0 898 1472391 -11147 0
0 0 0 795 1473186 -10352 0
0 0 0 792 1473978 -9560 0
0 0 0 794 1474772 -8766 0
0 0 0 788 1475560 -7978 0
0 0 0 749 1476309 -7229 0
0 0 0 746 1477055 -6483 0
0 0 0 781 1477836 -5702 0
0 0 0 849 1478685 -4853 0
0 0 0 948 1479633 -3905 0
0 0 0 800 1480433 -3105 0
0 0 0 842 1481275 -2263 0
79 1 S102 941 1482216 -1322 0
79 1 S102 1172 1483388 -150 0
79 2 S102 1015 1484403 865 0
79 2 S102 1050 1485453 1915 0
79 2 S102 1114 1486567 3029 0
79 2 S102 1073 1487640 4102 0
79 2 S102 1088 1488728 5190 0
79 2 S102 1245 1489973 6435 0
0 0 0 1037 1491010 -8609 0
0 0 0 878 1491888 -7731 0
0 0 0 927 1492815 -6804 0
0 0 0 996 1493811 -5808 0
0 0 0 869 1494680 -4939 0
0 0 0 920 1495600 -4019 0
0 0 0 1143 1496743 -2876 0
80 1 S116 1059 1497802 -1817 0
80 1 S116 906 1498708 -911 0
80 2 S116 998 1499706 87 0
80 2 S116 1111 1500817 1198 0
80 2 S116 1014 1501831 2212 0
80 2 S116 1001 1502832 3213 0
80 2 S116 1012 1503844 4225 0
80 2 S116 1017 1504861 5242 0
80 2 S116 1064 1505925 6306 0
