T_0040
BeatCount Mean SD BeatCountNoOutliers MeanNoOutliers SDNoOutliers
1676 921,749403341289 146,153709210754 1670 916,483233532934 84,8457747926345

Trial TrialStatus Trialtype IBI AbsPosition RelPosition Outlier
0 0 0 985 1640 -16218 0
0 0 0 911 2551 -15307 0
0 0 0 852 3403 -14455 0
0 0 0 813 4216 -13642 0
0 0 0 798 5014 -12844 0
0 0 0 846 5860 -11998 0
0 0 0 903 6763 -11095 0
0 0 0 955 7718 -10140 0
0 0 0 1015 8733 -9125 0
0 0 0 993 9726 -8132 0
0 0 0 993 10719 -7139 0
0 0 0 1037 11756 -6102 0
0 0 0 981 12737 -5121 0
0 0 0 925 13662 -4196 0
0 0 0 863 14525 -3333 0
0 0 0 858 15383 -2475 0
1 1 S112 879 16262 -1596 0
1 1 S112 935 17197 -661 0
1 2 S112 926 18123 265 0
1 2 S112 895 19018 1160 0
1 2 S112 911 19929 2071 0
1 2 S112 947 20876 3018 0
1 2 S112 963 21839 3981 0
1 2 S112 967 22806 4948 0
1 2 S112 953 23759 5901 0
1 2 S112 921 24680 6822 0
0 0 0 958 25638 -11285 0
0 0 0 1018 26656 -10267 0
0 0 0 1014 27670 -9253 0
0 0 0 990 28660 -8263 0
0 0 0 951 29611 -7312 0
0 0 0 857 30468 -6455 0
0 0 0 847 31315 -5608 0
0 0 0 858 32173 -4750 0
0 0 0 877 33050 -3873 0
0 0 0 919 33969 -2954 0
2 1 S102 1051 35020 -1903 0
2 1 S102 1020 36040 -883 0
2 2 S102 991 37031 108 0
2 2 S102 980 38011 1088 0
2 2 S102 931 38942 2019 0
2 2 S102 872 39814 2891 0
2 2 S102 852 40666 3743 0
2 2 S102 849 41515 4592 0
2 2 S102 853 42368 5445 0
2 2 S102 927 43295 6372 0
0 0 0 1063 44358 -8563 0
0 0 0 1023 45381 -7540 0
0 0 0 1038 46419 -6502 0
0 0 0 971 47390 -5531 0
0 0 0 923 48313 -4608 0
0 0 0 940 49253 -3668 0
0 0 0 893 50146 -2775 0
3 1 S116 894 51040 -1881 0
3 1 S116 889 51929 -992 0
3 1 S116 887 52816 -105 0
3 2 S116 904 53720 799 0
3 2 S116 901 54621 1700 0
3 2 S116 868 55489 2568 0
3 2 S116 892 56381 3460 0
3 2 S116 882 57263 4342 0
3 2 S116 885 58148 5227 0
3 2 S116 933 59081 6160 0
0 0 0 974 60055 -11881 0
0 0 0 965 61020 -10916 0
0 0 0 1021 62041 -9895 0
0 0 0 1007 63048 -8888 0
0 0 0 925 63973 -7963 0
0 0 0 918 64891 -7045 0
0 0 0 854 65745 -6191 0
0 0 0 822 66567 -5369 0
0 0 0 829 67396 -4540 0
0 0 0 885 68281 -3655 0
0 0 0 975 69256 -2680 0
4 1 S106 944 70200 -1736 0
4 1 S106 876 71076 -860 0
4 2 S106 885 71961 25 0
4 2 S106 898 72859 923 0
4 2 S106 862 73721 1785 0
4 2 S106 845 74566 2630 0
4 2 S106 822 75388 3452 0
4 2 S106 805 76193 4257 0
4 2 S106 801 76994 5058 0
4 2 S106 799 77793 5857 0
4 2 S106 819 78612 6676 0
0 0 0 824 79436 -7123 0
0 0 0 879 80315 -6244 0
0 0 0 968 81283 -5276 0
0 0 0 924 82207 -4352 0
0 0 0 923 83130 -3429 0
0 0 0 903 84033 -2526 0
5 1 S116 884 84917 -1642 0
5 1 S116 882 85799 -760 0
5 2 S116 875 86674 115 0
5 2 S116 870 87544 985 0
5 2 S116 875 88419 1860 0
5 2 S116 890 89309 2750 0
5 2 S116 889 90198 3639 0
5 2 S116 907 91105 4546 0
5 2 S116 916 92021 5462 0
5 2 S116 946 92967 6408 0
0 0 0 966 93933 -10713 0
0 0 0 920 94853 -9793 0
0 0 0 942 95795 -8851 0
0 0 0 946 96741 -7905 0
0 0 0 929 97670 -6976 0
0 0 0 931 98601 -6045 0
0 0 0 943 99544 -5102 0
0 0 0 901 100445 -4201 0
0 0 0 947 101392 -3254 0
0 0 0 890 102282 -2364 0
6 1 S106 866 103148 -1498 0
6 1 S106 855 104003 -643 0
6 2 S106 866 104869 223 0
6 2 S106 852 105721 1075 0
6 2 S106 878 106599 1953 0
6 2 S106 890 107489 2843 0
6 2 S106 864 108353 3707 0
6 2 S106 873 109226 4580 0
6 2 S106 888 110114 5468 0
6 2 S106 874 110988 6342 0
0 0 0 879 111867 -11297 0
0 0 0 891 112758 -10406 0
0 0 0 927 113685 -9479 0
0 0 0 932 114617 -8547 0
0 0 0 924 115541 -7623 0
0 0 0 900 116441 -6723 0
0 0 0 899 117340 -5824 0
0 0 0 880 118220 -4944 0
0 0 0 851 119071 -4093 0
0 0 0 838 119909 -3255 0
0 0 0 865 120774 -2390 0
7 1 S102 883 121657 -1507 0
7 1 S102 888 122545 -619 0
7 2 S102 920 123465 301 0
7 2 S102 918 124383 1219 0
7 2 S102 904 125287 2123 0
7 2 S102 896 126183 3019 0
7 2 S102 875 127058 3894 0
7 2 S102 864 127922 4758 0
7 2 S102 854 128776 5612 0
7 2 S102 873 129649 6485 0
0 0 0 878 130527 -10939 0
0 0 0 901 131428 -10038 0
0 0 0 907 132335 -9131 0
0 0 0 931 133266 -8200 0
0 0 0 952 134218 -7248 0
0 0 0 907 135125 -6341 0
0 0 0 908 136033 -5433 0
0 0 0 902 136935 -4531 0
0 0 0 884 137819 -3647 0
0 0 0 894 138713 -2753 0
8 1 S112 885 139598 -1868 0
8 1 S112 877 140475 -991 0
8 1 S112 863 141338 -128 0
8 2 S112 866 142204 738 0
8 2 S112 856 143060 1594 0
8 2 S112 866 143926 2460 0
8 2 S112 876 144802 3336 0
8 2 S112 880 145682 4216 0
8 2 S112 897 146579 5113 0
8 2 S112 917 147496 6030 0
8 2 S112 922 148418 6952 0
0 0 0 951 149369 -7548 0
0 0 0 952 150321 -6596 0
0 0 0 944 151265 -5652 0
0 0 0 947 152212 -4705 0
0 0 0 860 153072 -3845 0
0 0 0 838 153910 -3007 0
0 0 0 775 154685 -2232 0
9 1 S116 740 155425 -1492 0
9 1 S116 694 156119 -798 0
9 1 S116 707 156826 -91 0
9 2 S116 683 157509 592 0
9 2 S116 672 158181 1264 0
9 2 S116 660 158841 1924 0
9 2 S116 681 159522 2605 0
9 2 S116 706 160228 3311 0
9 2 S116 712 160940 4023 0
9 2 S116 754 161694 4777 0
9 2 S116 777 162471 5554 0
9 2 S116 763 163234 6317 0
0 0 0 775 164009 -11791 0
0 0 0 774 164783 -11017 0
0 0 0 763 165546 -10254 0
0 0 0 784 166330 -9470 0
0 0 0 782 167112 -8688 0
0 0 0 747 167859 -7941 0
0 0 0 736 168595 -7205 0
0 0 0 751 169346 -6454 0
0 0 0 761 170107 -5693 0
0 0 0 789 170896 -4904 0
0 0 0 926 171822 -3978 0
0 0 0 1028 172850 -2950 0
10 1 S102 1118 173968 -1832 0
10 1 S102 1060 175028 -772 0
10 2 S102 1031 176059 259 0
10 2 S102 986 177045 1245 0
10 2 S102 954 177999 2199 0
10 2 S102 913 178912 3112 0
10 2 S102 910 179822 4022 0
10 2 S102 943 180765 4965 0
10 2 S102 915 181680 5880 0
10 2 S102 944 182624 6824 0
0 0 0 964 183588 -11493 0
0 0 0 1052 184640 -10441 0
0 0 0 1013 185653 -9428 0
0 0 0 1031 186684 -8397 0
0 0 0 1007 187691 -7390 0
0 0 0 943 188634 -6447 0
0 0 0 943 189577 -5504 0
0 0 0 951 190528 -4553 0
0 0 0 920 191448 -3633 0
0 0 0 923 192371 -2710 0
11 1 S112 948 193319 -1762 0
11 1 S112 1005 194324 -757 0
11 2 S112 954 195278 197 0
11 2 S112 995 196273 1192 0
11 2 S112 1006 197279 2198 0
11 2 S112 911 198190 3109 0
11 2 S112 997 199187 4106 0
11 2 S112 1015 200202 5121 0
11 2 S112 1045 201247 6166 0
0 0 0 949 202196 -7142 0
0 0 0 1041 203237 -6101 0
0 0 0 1099 204336 -5002 0
0 0 0 1027 205363 -3975 0
0 0 0 1050 206413 -2925 0
12 1 S116 961 207374 -1964 0
12 1 S116 976 208350 -988 0
12 2 S116 1063 209413 75 0
12 2 S116 997 210410 1072 0
12 2 S116 965 211375 2037 0
12 2 S116 1017 212392 3054 0
12 2 S116 905 213297 3959 0
12 2 S116 956 214253 4915 0
12 2 S116 949 215202 5864 0
12 2 S116 944 216146 6808 0
0 0 0 942 217088 -12061 0
0 0 0 999 218087 -11062 0
0 0 0 1062 219149 -10000 0
0 0 0 1053 220202 -8947 0
0 0 0 1040 221242 -7907 0
0 0 0 988 222230 -6919 0
0 0 0 965 223195 -5954 0
0 0 0 954 224149 -5000 0
0 0 0 948 225097 -4052 0
0 0 0 961 226058 -3091 0
0 0 0 1036 227094 -2055 0
13 1 S112 1064 228158 -991 0
13 1 S112 978 229136 -13 0
13 2 S112 992 230128 979 0
13 2 S112 1042 231170 2021 0
13 2 S112 955 232125 2976 0
13 2 S112 931 233056 3907 0
13 2 S112 957 234013 4864 0
13 2 S112 998 235011 5862 0
13 2 S112 1017 236028 6879 0
0 0 0 1124 237152 -12604 0
0 0 0 1091 238243 -11513 0
0 0 0 1043 239286 -10470 0
0 0 0 1081 240367 -9389 0
0 0 0 1038 241405 -8351 0
0 0 0 1023 242428 -7328 0
0 0 0 971 243399 -6357 0
0 0 0 933 244332 -5424 0
0 0 0 966 245298 -4458 0
0 0 0 975 246273 -3483 0
0 0 0 866 247139 -2617 0
14 1 S106 871 248010 -1746 0
14 1 S106 871 248881 -875 0
14 1 S106 867 249748 -8 0
14 2 S106 906 250654 898 0
14 2 S106 903 251557 1801 0
14 2 S106 873 252430 2674 0
14 2 S106 880 253310 3554 0
14 2 S106 880 254190 4434 0
14 2 S106 859 255049 5293 0
14 2 S106 875 255924 6168 0
0 0 0 893 256817 -11109 0
0 0 0 904 257721 -10205 0
0 0 0 952 258673 -9253 0
0 0 0 953 259626 -8300 0
0 0 0 919 260545 -7381 0
0 0 0 921 261466 -6460 0
0 0 0 917 262383 -5543 0
0 0 0 899 263282 -4644 0
0 0 0 896 264178 -3748 0
0 0 0 892 265070 -2856 0
15 1 S116 945 266015 -1911 0
15 1 S116 966 266981 -945 0
15 2 S116 1001 267982 56 0
15 2 S116 1037 269019 1093 0
15 2 S116 991 270010 2084 0
15 2 S116 1001 271011 3085 0
15 2 S116 995 272006 4080 0
15 2 S116 981 272987 5061 0
15 2 S116 987 273974 6048 0
15 2 S116 968 274942 7016 0
0 0 0 874 275816 -9766 0
0 0 0 909 276725 -8857 0
0 0 0 945 277670 -7912 0
0 0 0 990 278660 -6922 0
0 0 0 980 279640 -5942 0
0 0 0 1009 280649 -4933 0
0 0 0 952 281601 -3981 0
0 0 0 937 282538 -3044 0
0 0 0 932 283470 -2112 0
16 1 S116 928 284398 -1184 0
16 1 S116 950 285348 -234 0
16 2 S116 937 286285 703 0
16 2 S116 892 287177 1595 0
16 2 S116 896 288073 2491 0
16 2 S116 896 288969 3387 0
16 2 S116 895 289864 4282 0
16 2 S116 937 290801 5219 0
16 2 S116 959 291760 6178 0
0 0 0 982 292742 -10695 0
0 0 0 1015 293757 -9680 0
0 0 0 1045 294802 -8635 0
0 0 0 1013 295815 -7622 0
0 0 0 1017 296832 -6605 0
0 0 0 967 297799 -5638 0
0 0 0 949 298748 -4689 0
0 0 0 972 299720 -3717 0
0 0 0 964 300684 -2753 0
17 1 S106 929 301613 -1824 0
17 1 S106 973 302586 -851 0
17 2 S106 969 303555 118 0
17 2 S106 909 304464 1027 0
17 2 S106 929 305393 1956 0
17 2 S106 896 306289 2852 0
17 2 S106 861 307150 3713 0
17 2 S106 880 308030 4593 0
17 2 S106 926 308956 5519 0
17 2 S106 979 309935 6498 0
0 0 0 1008 310943 -10995 0
0 0 0 1037 311980 -9958 0
0 0 0 1022 313002 -8936 0
0 0 0 962 313964 -7974 0
0 0 0 931 314895 -7043 0
0 0 0 873 315768 -6170 0
0 0 0 880 316648 -5290 0
0 0 0 904 317552 -4386 0
0 0 0 954 318506 -3432 0
0 0 0 947 319453 -2485 0
18 1 S102 1025 320478 -1460 0
18 1 S102 1026 321504 -434 0
18 2 S102 968 322472 534 0
18 2 S102 956 323428 1490 0
18 2 S102 930 324358 2420 0
18 2 S102 881 325239 3301 0
18 2 S102 889 326128 4190 0
18 2 S102 914 327042 5104 0
18 2 S102 893 327935 5997 0
18 2 S102 933 328868 6930 0
0 0 0 963 329831 -6166 0
0 0 0 936 330767 -5230 0
0 0 0 934 331701 -4296 0
0 0 0 912 332613 -3384 0
0 0 0 864 333477 -2520 0
19 1 S106 881 334358 -1639 0
19 1 S106 918 335276 -721 0
19 2 S106 921 336197 200 0
19 2 S106 935 337132 1135 0
19 2 S106 885 338017 2020 0
19 2 S106 886 338903 2906 0
19 2 S106 897 339800 3803 0
19 2 S106 894 340694 4697 0
19 2 S106 880 341574 5577 0
19 2 S106 897 342471 6474 0
0 0 0 888 343359 -10493 0
0 0 0 893 344252 -9600 0
0 0 0 952 345204 -8648 0
0 0 0 917 346121 -7731 0
0 0 0 895 347016 -6836 0
0 0 0 891 347907 -5945 0
0 0 0 896 348803 -5049 0
0 0 0 823 349626 -4226 0
0 0 0 779 350405 -3447 0
0 0 0 773 351178 -2674 0
20 1 S112 832 352010 -1842 0
20 1 S112 884 352894 -958 0
20 2 S112 995 353889 37 0
20 2 S112 981 354870 1018 0
20 2 S112 957 355827 1975 0
20 2 S112 951 356778 2926 0
20 2 S112 930 357708 3856 0
20 2 S112 917 358625 4773 0
20 2 S112 895 359520 5668 0
20 2 S112 891 360411 6559 0
0 0 0 928 361339 -10202 0
0 0 0 958 362297 -9244 0
0 0 0 1000 363297 -8244 0
0 0 0 1006 364303 -7238 0
0 0 0 1024 365327 -6214 0
0 0 0 1002 366329 -5212 0
0 0 0 997 367326 -4215 0
0 0 0 1027 368353 -3188 0
0 0 0 995 369348 -2193 0
21 1 S106 1002 370350 -1191 0
21 1 S106 980 371330 -211 0
21 2 S106 951 372281 740 0
21 2 S106 955 373236 1695 0
21 2 S106 928 374164 2623 0
21 2 S106 924 375088 3547 0
21 2 S106 956 376044 4503 0
21 2 S106 1012 377056 5515 0
21 2 S106 995 378051 6510 0
0 0 0 1024 379075 -11630 0
0 0 0 1026 380101 -10604 0
0 0 0 982 381083 -9622 0
0 0 0 1021 382104 -8601 0
0 0 0 990 383094 -7611 0
0 0 0 943 384037 -6668 0
0 0 0 983 385020 -5685 0
0 0 0 1016 386036 -4669 0
0 0 0 964 387000 -3705 0
0 0 0 975 387975 -2730 0
22 1 S116 997 388972 -1733 0
22 1 S116 951 389923 -782 0
22 2 S116 946 390869 164 0
22 2 S116 953 391822 1117 0
22 2 S116 924 392746 2041 0
22 2 S116 906 393652 2947 0
22 2 S116 922 394574 3869 0
22 2 S116 912 395486 4781 0
22 2 S116 971 396457 5752 0
22 2 S116 1015 397472 6767 0
0 0 0 964 398436 -9395 0
0 0 0 983 399419 -8412 0
0 0 0 987 400406 -7425 0
0 0 0 856 401262 -6569 0
0 0 0 840 402102 -5729 0
0 0 0 856 402958 -4873 0
0 0 0 864 403822 -4009 0
0 0 0 835 404657 -3174 0
0 0 0 835 405492 -2339 0
23 1 S112 823 406315 -1516 0
23 1 S112 809 407124 -707 0
23 2 S112 823 407947 116 0
23 2 S112 850 408797 966 0
23 2 S112 855 409652 1821 0
23 2 S112 890 410542 2711 0
23 2 S112 918 411460 3629 0
23 2 S112 919 412379 4548 0
23 2 S112 947 413326 5495 0
23 2 S112 972 414298 6467 0
0 0 0 974 415272 -9916 0
0 0 0 962 416234 -8954 0
0 0 0 966 417200 -7988 0
0 0 0 989 418189 -6999 0
0 0 0 945 419134 -6054 0
0 0 0 927 420061 -5127 0
0 0 0 959 421020 -4168 0
0 0 0 967 421987 -3201 0
0 0 0 1015 423002 -2186 0
24 1 S106 1027 424029 -1159 0
24 1 S106 999 425028 -160 0
24 2 S106 1011 426039 851 0
24 2 S106 989 427028 1840 0
24 2 S106 924 427952 2764 0
24 2 S106 921 428873 3685 0
24 2 S106 895 429768 4580 0
24 2 S106 879 430647 5459 0
24 2 S106 940 431587 6399 0
0 0 0 936 432523 -8100 0
0 0 0 1005 433528 -7095 0
0 0 0 985 434513 -6110 0
0 0 0 941 435454 -5169 0
0 0 0 955 436409 -4214 0
0 0 0 922 437331 -3292 0
0 0 0 926 438257 -2366 0
25 1 S102 936 439193 -1430 0
25 1 S102 899 440092 -531 0
25 2 S102 897 440989 366 0
25 2 S102 884 441873 1250 0
25 2 S102 840 442713 2090 0
25 2 S102 860 443573 2950 0
25 2 S102 842 444415 3792 0
25 2 S102 824 445239 4616 0
25 2 S102 838 446077 5454 0
25 2 S102 860 446937 6314 0
0 0 0 889 447826 -7120 0
0 0 0 947 448773 -6173 0
0 0 0 934 449707 -5239 0
0 0 0 910 450617 -4329 0
0 0 0 885 451502 -3444 0
0 0 0 852 452354 -2592 0
26 1 S116 885 453239 -1707 0
26 1 S116 928 454167 -779 0
26 2 S116 904 455071 125 0
26 2 S116 945 456016 1070 0
26 2 S116 909 456925 1979 0
26 2 S116 896 457821 2875 0
26 2 S116 915 458736 3790 0
26 2 S116 893 459629 4683 0
26 2 S116 918 460547 5601 0
26 2 S116 921 461468 6522 0
0 0 0 902 462370 -7729 0
0 0 0 924 463294 -6805 0
0 0 0 896 464190 -5909 0
0 0 0 961 465151 -4948 0
0 0 0 945 466096 -4003 0
0 0 0 916 467012 -3087 0
0 0 0 928 467940 -2159 0
27 1 S106 908 468848 -1251 0
27 1 S106 925 469773 -326 0
27 2 S106 947 470720 621 0
27 2 S106 899 471619 1520 0
27 2 S106 918 472537 2438 0
27 2 S106 915 473452 3353 0
27 2 S106 897 474349 4250 0
27 2 S106 912 475261 5162 0
27 2 S106 884 476145 6046 0
27 2 S106 915 477060 6961 0
0 0 0 900 477960 -6131 0
0 0 0 990 478950 -5141 0
0 0 0 984 479934 -4157 0
0 0 0 969 480903 -3188 0
0 0 0 1021 481924 -2167 0
28 1 S102 1004 482928 -1163 0
28 1 S102 937 483865 -226 0
28 2 S102 939 484804 713 0
28 2 S102 910 485714 1623 0
28 2 S102 892 486606 2515 0
28 2 S102 907 487513 3422 0
28 2 S102 929 488442 4351 0
28 2 S102 932 489374 5283 0
28 2 S102 966 490340 6249 0
0 0 0 967 491307 -11617 0
0 0 0 944 492251 -10673 0
0 0 0 944 493195 -9729 0
0 0 0 910 494105 -8819 0
0 0 0 888 494993 -7931 0
0 0 0 937 495930 -6994 0
0 0 0 1000 496930 -5994 0
0 0 0 1025 497955 -4969 0
0 0 0 1024 498979 -3945 0
0 0 0 942 499921 -3003 0
0 0 0 955 500876 -2048 0
29 1 S112 943 501819 -1105 0
29 1 S112 880 502699 -225 0
29 2 S112 912 503611 687 0
29 2 S112 933 504544 1620 0
29 2 S112 913 505457 2533 0
29 2 S112 938 506395 3471 0
29 2 S112 967 507362 4438 0
29 2 S112 951 508313 5389 0
29 2 S112 1051 509364 6440 0
0 0 0 1037 510401 -7543 0
0 0 0 1014 511415 -6529 0
0 0 0 1037 512452 -5492 0
0 0 0 976 513428 -4516 0
0 0 0 934 514362 -3582 0
0 0 0 923 515285 -2659 0
30 1 S112 907 516192 -1752 0
30 1 S112 957 517149 -795 0
30 2 S112 941 518090 146 0
30 2 S112 936 519026 1082 0
30 2 S112 965 519991 2047 0
30 2 S112 998 520989 3045 0
30 2 S112 963 521952 4008 0
30 2 S112 986 522938 4994 0
30 2 S112 975 523913 5969 0
30 2 S112 960 524873 6929 0
0 0 0 932 525805 -9348 0
0 0 0 891 526696 -8457 0
0 0 0 911 527607 -7546 0
0 0 0 943 528550 -6603 0
0 0 0 917 529467 -5686 0
0 0 0 886 530353 -4800 0
0 0 0 884 531237 -3916 0
0 0 0 857 532094 -3059 0
0 0 0 874 532968 -2185 0
31 1 S106 893 533861 -1292 0
31 1 S106 875 534736 -417 0
31 2 S106 869 535605 452 0
31 2 S106 868 536473 1320 0
31 2 S106 828 537301 2148 0
31 2 S106 815 538116 2963 0
31 2 S106 807 538923 3770 0
31 2 S106 813 539736 4583 0
31 2 S106 815 540551 5398 0
31 2 S106 880 541431 6278 0
0 0 0 927 542358 -10749 0
0 0 0 912 543270 -9837 0
0 0 0 960 544230 -8877 0
0 0 0 964 545194 -7913 0
0 0 0 960 546154 -6953 0
0 0 0 924 547078 -6029 0
0 0 0 868 547946 -5161 0
0 0 0 834 548780 -4327 0
0 0 0 811 549591 -3516 0
0 0 0 781 550372 -2735 0
32 1 S102 748 551120 -1987 0
32 1 S102 724 551844 -1263 0
32 1 S102 723 552567 -540 0
32 2 S102 733 553300 193 0
32 2 S102 747 554047 940 0
32 2 S102 749 554796 1689 0
32 2 S102 780 555576 2469 0
32 2 S102 800 556376 3269 0
32 2 S102 860 557236 4129 0
32 2 S102 952 558188 5081 0
32 2 S102 869 559057 5950 0
32 2 S102 833 559890 6783 0
0 0 0 898 560788 -9776 0
0 0 0 917 561705 -8859 0
0 0 0 960 562665 -7899 0
0 0 0 1037 563702 -6862 0
0 0 0 1057 564759 -5805 0
0 0 0 1068 565827 -4737 0
0 0 0 1044 566871 -3693 0
0 0 0 1011 567882 -2682 0
33 1 S112 1037 568919 -1645 0
33 1 S112 1054 569973 -591 0
33 2 S112 1038 571011 447 0
33 2 S112 1002 572013 1449 0
33 2 S112 990 573003 2439 0
33 2 S112 978 573981 3417 0
33 2 S112 1012 574993 4429 0
33 2 S112 1040 576033 5469 0
33 2 S112 1020 577053 6489 0
0 0 0 1041 578094 -11270 0
0 0 0 1092 579186 -10178 0
0 0 0 1072 580258 -9106 0
0 0 0 1028 581286 -8078 0
0 0 0 948 582234 -7130 0
0 0 0 933 583167 -6197 0
0 0 0 935 584102 -5262 0
0 0 0 922 585024 -4340 0
0 0 0 947 585971 -3393 0
0 0 0 993 586964 -2400 0
34 1 S106 953 587917 -1447 0
34 1 S106 984 588901 -463 0
34 2 S106 985 589886 522 0
34 2 S106 932 590818 1454 0
34 2 S106 916 591734 2370 0
34 2 S106 905 592639 3275 0
34 2 S106 881 593520 4156 0
34 2 S106 894 594414 5050 0
34 2 S106 918 595332 5968 0
34 2 S106 894 596226 6862 0
0 0 0 920 597146 -8995 0
0 0 0 955 598101 -8040 0
0 0 0 908 599009 -7132 0
0 0 0 899 599908 -6233 0
0 0 0 886 600794 -5347 0
0 0 0 850 601644 -4497 0
0 0 0 858 602502 -3639 0
0 0 0 928 603430 -2711 0
35 1 S102 908 604338 -1803 0
35 1 S102 935 605273 -868 0
35 2 S102 942 606215 74 0
35 2 S102 907 607122 981 0
35 2 S102 905 608027 1886 0
35 2 S102 883 608910 2769 0
35 2 S102 875 609785 3644 0
35 2 S102 886 610671 4530 0
35 2 S102 916 611587 5446 0
35 2 S102 942 612529 6388 0
0 0 0 971 613500 -6733 0
0 0 0 988 614488 -5745 0
0 0 0 994 615482 -4751 0
0 0 0 934 616416 -3817 0
0 0 0 892 617308 -2925 0
0 0 0 915 618223 -2010 0
36 1 S106 927 619150 -1083 0
36 1 S106 929 620079 -154 0
36 2 S106 980 621059 826 0
36 2 S106 981 622040 1807 0
36 2 S106 910 622950 2717 0
36 2 S106 887 623837 3604 0
36 2 S106 891 624728 4495 0
36 2 S106 884 625612 5379 0
36 2 S106 896 626508 6275 0
0 0 0 896 627404 -9706 0
0 0 0 897 628301 -8809 0
0 0 0 922 629223 -7887 0
0 0 0 949 630172 -6938 0
0 0 0 906 631078 -6032 0
0 0 0 900 631978 -5132 0
0 0 0 870 632848 -4262 0
0 0 0 881 633729 -3381 0
0 0 0 891 634620 -2490 0
37 1 S116 890 635510 -1600 0
37 1 S116 899 636409 -701 0
37 2 S116 923 637332 222 0
37 2 S116 893 638225 1115 0
37 2 S116 913 639138 2028 0
37 2 S116 944 640082 2972 0
37 2 S116 909 640991 3881 0
37 2 S116 916 641907 4797 0
37 2 S116 930 642837 5727 0
37 2 S116 908 643745 6635 0
0 0 0 940 644685 -10097 0
0 0 0 928 645613 -9169 0
0 0 0 898 646511 -8271 0
0 0 0 886 647397 -7385 0
0 0 0 864 648261 -6521 0
0 0 0 877 649138 -5644 0
0 0 0 882 650020 -4762 0
0 0 0 903 650923 -3859 0
0 0 0 921 651844 -2938 0
38 1 S102 953 652797 -1985 0
38 1 S102 926 653723 -1059 0
38 1 S102 889 654612 -170 0
38 2 S102 878 655490 708 0
38 2 S102 842 656332 1550 0
38 2 S102 843 657175 2393 0
38 2 S102 860 658035 3253 0
38 2 S102 856 658891 4109 0
38 2 S102 913 659804 5022 0
38 2 S102 961 660765 5983 0
38 2 S102 930 661695 6913 0
0 0 0 938 662633 -9125 0
0 0 0 940 663573 -8185 0
0 0 0 911 664484 -7274 0
0 0 0 903 665387 -6371 0
0 0 0 889 666276 -5482 0
0 0 0 880 667156 -4602 0
0 0 0 889 668045 -3713 0
0 0 0 895 668940 -2818 0
39 1 S116 904 669844 -1914 0
39 1 S116 925 670769 -989 0
39 1 S116 939 671708 -50 0
39 2 S116 918 672626 868 0
39 2 S116 950 673576 1818 0
39 2 S116 923 674499 2741 0
39 2 S116 929 675428 3670 0
39 2 S116 962 676390 4632 0
39 2 S116 972 677362 5604 0
39 2 S116 1025 678387 6629 0
0 0 0 1051 679438 -7871 0
0 0 0 993 680431 -6878 0
0 0 0 1025 681456 -5853 0
0 0 0 1031 682487 -4822 0
0 0 0 902 683389 -3920 0
0 0 0 870 684259 -3050 0
0 0 0 846 685105 -2204 0
40 1 S112 841 685946 -1363 0
40 1 S112 825 686771 -538 0
40 2 S112 839 687610 301 0
40 2 S112 803 688413 1104 0
40 2 S112 768 689181 1872 0
40 2 S112 751 689932 2623 0
40 2 S112 780 690712 3403 0
40 2 S112 824 691536 4227 0
40 2 S112 869 692405 5096 0
40 2 S112 844 693249 5940 0
40 2 S112 859 694108 6799 0
0 0 0 850 694958 -188937 0
0 0 0 810 695768 -188127 0
0 0 0 805 696573 -187322 0
0 0 0 811 697384 -186511 0
0 0 0 807 698191 -185704 0
0 0 0 822 699013 -184882 0
0 0 0 827 699840 -184055 0
0 0 0 800 700640 -183255 0
0 0 0 752 701392 -182503 0
0 0 0 715 702107 -181788 0
0 0 0 761 702868 -181027 0
0 0 0 597 703465 -180430 0
0 0 0 846 704311 -179584 0
0 0 0 709 705020 -178875 0
0 0 0 891 705911 -177984 0
0 0 0 1864 707775 -176120 1
0 0 0 664 708439 -175456 0
0 0 0 647 709086 -174809 0
0 0 0 635 709721 -174174 0
0 0 0 636 710357 -173538 0
0 0 0 636 710993 -172902 0
0 0 0 643 711636 -172259 0
0 0 0 660 712296 -171599 0
0 0 0 691 712987 -170908 0
0 0 0 708 713695 -170200 0
0 0 0 695 714390 -169505 0
0 0 0 706 715096 -168799 0
0 0 0 728 715824 -168071 0
0 0 0 787 716611 -167284 0
0 0 0 928 717539 -166356 0
0 0 0 1031 718570 -165325 0
0 0 0 1056 719626 -164269 0
0 0 0 1045 720671 -163224 0
0 0 0 1061 721732 -162163 0
0 0 0 1048 722780 -161115 0
0 0 0 1027 723807 -160088 0
0 0 0 1065 724872 -159023 0
0 0 0 1067 725939 -157956 0
0 0 0 1170 727109 -156786 0
0 0 0 1109 728218 -155677 0
0 0 0 1026 729244 -154651 0
0 0 0 1045 730289 -153606 0
0 0 0 1117 731406 -152489 0
0 0 0 1015 732421 -151474 0
0 0 0 896 733317 -150578 0
0 0 0 863 734180 -149715 0
0 0 0 1011 735191 -148704 0
0 0 0 1293 736484 -147411 0
0 0 0 1131 737615 -146280 0
0 0 0 1074 738689 -145206 0
0 0 0 1101 739790 -144105 0
0 0 0 979 740769 -143126 0
0 0 0 991 741760 -142135 0
0 0 0 1051 742811 -141084 0
0 0 0 982 743793 -140102 0
0 0 0 975 744768 -139127 0
0 0 0 999 745767 -138128 0
0 0 0 938 746705 -137190 0
0 0 0 962 747667 -136228 0
0 0 0 942 748609 -135286 0
0 0 0 964 749573 -134322 0
0 0 0 1044 750617 -133278 0
0 0 0 1012 751629 -132266 0
0 0 0 1033 752662 -131233 0
0 0 0 1052 753714 -130181 0
0 0 0 978 754692 -129203 0
0 0 0 950 755642 -128253 0
0 0 0 876 756518 -127377 0
0 0 0 851 757369 -126526 0
0 0 0 822 758191 -125704 0
0 0 0 862 759053 -124842 0
0 0 0 1003 760056 -123839 0
0 0 0 994 761050 -122845 0
0 0 0 1038 762088 -121807 0
0 0 0 1017 763105 -120790 0
0 0 0 980 764085 -119810 0
0 0 0 965 765050 -118845 0
0 0 0 860 765910 -117985 0
0 0 0 3162 769072 -114823 1
0 0 0 1086 770158 -113737 0
0 0 0 1093 771251 -112644 0
0 0 0 2443 773694 -110201 1
0 0 0 581 774275 -109620 0
0 0 0 512 774787 -109108 1
0 0 0 1552 776339 -107556 1
0 0 0 1102 777441 -106454 0
0 0 0 711 778152 -105743 0
0 0 0 788 778940 -104955 0
0 0 0 4792 783732 -100163 1
0 0 0 818 784550 -99345 0
0 0 0 857 785407 -98488 0
0 0 0 870 786277 -97618 0
0 0 0 915 787192 -96703 0
0 0 0 900 788092 -95803 0
0 0 0 911 789003 -94892 0
0 0 0 950 789953 -93942 0
0 0 0 946 790899 -92996 0
0 0 0 906 791805 -92090 0
0 0 0 905 792710 -91185 0
0 0 0 914 793624 -90271 0
0 0 0 928 794552 -89343 0
0 0 0 981 795533 -88362 0
0 0 0 907 796440 -87455 0
0 0 0 840 797280 -86615 0
0 0 0 791 798071 -85824 0
0 0 0 797 798868 -85027 0
0 0 0 803 799671 -84224 0
0 0 0 857 800528 -83367 0
0 0 0 953 801481 -82414 0
0 0 0 988 802469 -81426 0
0 0 0 951 803420 -80475 0
0 0 0 913 804333 -79562 0
0 0 0 856 805189 -78706 0
0 0 0 841 806030 -77865 0
0 0 0 826 806856 -77039 0
0 0 0 828 807684 -76211 0
0 0 0 911 808595 -75300 0
0 0 0 987 809582 -74313 0
0 0 0 1049 810631 -73264 0
0 0 0 1039 811670 -72225 0
0 0 0 1084 812754 -71141 0
0 0 0 982 813736 -70159 0
0 0 0 1030 814766 -69129 0
0 0 0 952 815718 -68177 0
0 0 0 984 816702 -67193 0
0 0 0 1000 817702 -66193 0
0 0 0 937 818639 -65256 0
0 0 0 940 819579 -64316 0
0 0 0 925 820504 -63391 0
0 0 0 937 821441 -62454 0
0 0 0 994 822435 -61460 0
0 0 0 988 823423 -60472 0
0 0 0 1005 824428 -59467 0
0 0 0 984 825412 -58483 0
0 0 0 950 826362 -57533 0
0 0 0 935 827297 -56598 0
0 0 0 922 828219 -55676 0
0 0 0 913 829132 -54763 0
0 0 0 870 830002 -53893 0
0 0 0 894 830896 -52999 0
0 0 0 938 831834 -52061 0
0 0 0 899 832733 -51162 0
0 0 0 838 833571 -50324 0
0 0 0 847 834418 -49477 0
0 0 0 929 835347 -48548 0
0 0 0 935 836282 -47613 0
0 0 0 946 837228 -46667 0
0 0 0 889 838117 -45778 0
0 0 0 881 838998 -44897 0
0 0 0 860 839858 -44037 0
0 0 0 824 840682 -43213 0
0 0 0 780 841462 -42433 0
0 0 0 766 842228 -41667 0
0 0 0 744 842972 -40923 0
0 0 0 741 843713 -40182 0
0 0 0 816 844529 -39366 0
0 0 0 797 845326 -38569 0
0 0 0 780 846106 -37789 0
0 0 0 775 846881 -37014 0
0 0 0 859 847740 -36155 0
0 0 0 876 848616 -35279 0
0 0 0 962 849578 -34317 0
0 0 0 967 850545 -33350 0
0 0 0 934 851479 -32416 0
0 0 0 934 852413 -31482 0
0 0 0 911 853324 -30571 0
0 0 0 862 854186 -29709 0
0 0 0 874 855060 -28835 0
0 0 0 882 855942 -27953 0
0 0 0 918 856860 -27035 0
0 0 0 974 857834 -26061 0
0 0 0 948 858782 -25113 0
0 0 0 974 859756 -24139 0
0 0 0 988 860744 -23151 0
0 0 0 929 861673 -22222 0
0 0 0 915 862588 -21307 0
0 0 0 961 863549 -20346 0
0 0 0 986 864535 -19360 0
0 0 0 994 865529 -18366 0
0 0 0 1060 866589 -17306 0
0 0 0 1000 867589 -16306 0
0 0 0 982 868571 -15324 0
0 0 0 988 869559 -14336 0
0 0 0 951 870510 -13385 0
0 0 0 941 871451 -12444 0
0 0 0 983 872434 -11461 0
0 0 0 950 873384 -10511 0
0 0 0 1020 874404 -9491 0
0 0 0 1011 875415 -8480 0
0 0 0 1030 876445 -7450 0
0 0 0 1031 877476 -6419 0
0 0 0 971 878447 -5448 0
0 0 0 962 879409 -4486 0
0 0 0 879 880288 -3607 0
0 0 0 788 881076 -2819 0
0 0 0 770 881846 -2049 0
41 1 S102 848 882694 -1201 0
41 1 S102 854 883548 -347 0
41 2 S102 1142 884690 795 0
41 2 S102 1001 885691 1796 0
41 2 S102 1129 886820 2925 0
41 2 S102 1110 887930 4035 0
41 2 S102 1080 889010 5115 0
41 2 S102 1000 890010 6115 0
0 0 0 952 890962 -6378 0
0 0 0 944 891906 -5434 0
0 0 0 914 892820 -4520 0
0 0 0 883 893703 -3637 0
0 0 0 863 894566 -2774 0
42 1 S112 866 895432 -1908 0
42 1 S112 821 896253 -1087 0
42 1 S112 790 897043 -297 0
42 2 S112 781 897824 484 0
42 2 S112 825 898649 1309 0
42 2 S112 864 899513 2173 0
42 2 S112 989 900502 3162 0
42 2 S112 1123 901625 4285 0
42 2 S112 1147 902772 5432 0
42 2 S112 1066 903838 6498 0
0 0 0 1022 904860 -8478 0
0 0 0 948 905808 -7530 0
0 0 0 922 906730 -6608 0
0 0 0 866 907596 -5742 0
0 0 0 869 908465 -4873 0
0 0 0 915 909380 -3958 0
0 0 0 975 910355 -2983 0
43 1 S116 1007 911362 -1976 0
43 1 S116 1026 912388 -950 0
43 2 S116 1022 913410 72 0
43 2 S116 1005 914415 1077 0
43 2 S116 974 915389 2051 0
43 2 S116 993 916382 3044 0
43 2 S116 911 917293 3955 0
43 2 S116 994 918287 4949 0
43 2 S116 1131 919418 6080 0
0 0 0 1067 920485 -7509 0
0 0 0 1093 921578 -6416 0
0 0 0 1124 922702 -5292 0
0 0 0 987 923689 -4305 0
0 0 0 977 924666 -3328 0
0 0 0 916 925582 -2412 0
44 1 S102 927 926509 -1485 0
44 1 S102 1035 927544 -450 0
44 2 S102 963 928507 513 0
44 2 S102 999 929506 1512 0
44 2 S102 1011 930517 2523 0
44 2 S102 939 931456 3462 0
44 2 S102 971 932427 4433 0
44 2 S102 1007 933434 5440 0
44 2 S102 978 934412 6418 0
0 0 0 1021 935433 -9189 0
0 0 0 979 936412 -8210 0
0 0 0 992 937404 -7218 0
0 0 0 977 938381 -6241 0
0 0 0 898 939279 -5343 0
0 0 0 940 940219 -4403 0
0 0 0 981 941200 -3422 0
0 0 0 978 942178 -2444 0
45 1 S116 1017 943195 -1427 0
45 1 S116 1017 944212 -410 0
45 2 S116 984 945196 574 0
45 2 S116 1017 946213 1591 0
45 2 S116 951 947164 2542 0
45 2 S116 949 948113 3491 0
45 2 S116 933 949046 4424 0
45 2 S116 898 949944 5322 0
45 2 S116 940 950884 6262 0
0 0 0 967 951851 -10990 0
0 0 0 986 952837 -10004 0
0 0 0 1041 953878 -8963 0
0 0 0 963 954841 -8000 0
0 0 0 955 955796 -7045 0
0 0 0 918 956714 -6127 0
0 0 0 912 957626 -5215 0
0 0 0 950 958576 -4265 0
0 0 0 991 959567 -3274 0
0 0 0 970 960537 -2304 0
46 1 S102 1018 961555 -1286 0
46 1 S102 1022 962577 -264 0
46 2 S102 1004 963581 740 0
46 2 S102 975 964556 1715 0
46 2 S102 938 965494 2653 0
46 2 S102 977 966471 3630 0
46 2 S102 995 967466 4625 0
46 2 S102 1025 968491 5650 0
46 2 S102 1103 969594 6753 0
0 0 0 1042 970636 -9115 0
0 0 0 1113 971749 -8002 0
0 0 0 1094 972843 -6908 0
0 0 0 1022 973865 -5886 0
0 0 0 1027 974892 -4859 0
0 0 0 980 975872 -3879 0
0 0 0 1034 976906 -2845 0
47 1 S112 1019 977925 -1826 0
47 1 S112 1004 978929 -822 0
47 2 S112 1045 979974 223 0
47 2 S112 964 980938 1187 0
47 2 S112 986 981924 2173 0
47 2 S112 976 982900 3149 0
47 2 S112 937 983837 4086 0
47 2 S112 1002 984839 5088 0
47 2 S112 1032 985871 6120 0
0 0 0 1045 986916 -12696 0
0 0 0 1037 987953 -11659 0
0 0 0 945 988898 -10714 0
0 0 0 974 989872 -9740 0
0 0 0 959 990831 -8781 0
0 0 0 902 991733 -7879 0
0 0 0 898 992631 -6981 0
0 0 0 905 993536 -6076 0
0 0 0 971 994507 -5105 0
0 0 0 1044 995551 -4061 0
0 0 0 990 996541 -3071 0
0 0 0 1016 997557 -2055 0
48 1 S116 958 998515 -1097 0
48 1 S116 961 999476 -136 0
48 2 S116 989 1000465 853 0
48 2 S116 960 1001425 1813 0
48 2 S116 955 1002380 2768 0
48 2 S116 955 1003335 3723 0
48 2 S116 923 1004258 4646 0
48 2 S116 959 1005217 5605 0
48 2 S116 948 1006165 6553 0
0 0 0 952 1007117 -8344 0
0 0 0 971 1008088 -7373 0
0 0 0 937 1009025 -6436 0
0 0 0 976 1010001 -5460 0
0 0 0 960 1010961 -4500 0
0 0 0 888 1011849 -3612 0
0 0 0 879 1012728 -2733 0
49 1 S112 887 1013615 -1846 0
49 1 S112 877 1014492 -969 0
49 1 S112 943 1015435 -26 0
49 2 S112 927 1016362 901 0
49 2 S112 890 1017252 1791 0
49 2 S112 895 1018147 2686 0
49 2 S112 868 1019015 3554 0
49 2 S112 863 1019878 4417 0
49 2 S112 890 1020768 5307 0
49 2 S112 898 1021666 6205 0
0 0 0 928 1022594 -11667 0
0 0 0 993 1023587 -10674 0
0 0 0 1012 1024599 -9662 0
0 0 0 1002 1025601 -8660 0
0 0 0 972 1026573 -7688 0
0 0 0 924 1027497 -6764 0
0 0 0 936 1028433 -5828 0
0 0 0 905 1029338 -4923 0
0 0 0 916 1030254 -4007 0
0 0 0 935 1031189 -3072 0
0 0 0 903 1032092 -2169 0
50 1 S106 927 1033019 -1242 0
50 1 S106 947 1033966 -295 0
50 2 S106 971 1034937 676 0
50 2 S106 1012 1035949 1688 0
50 2 S106 983 1036932 2671 0
50 2 S106 948 1037880 3619 0
50 2 S106 943 1038823 4562 0
50 2 S106 905 1039728 5467 0
50 2 S106 901 1040629 6368 0
0 0 0 899 1041528 -9112 0
0 0 0 893 1042421 -8219 0
0 0 0 909 1043330 -7310 0
0 0 0 934 1044264 -6376 0
0 0 0 933 1045197 -5443 0
0 0 0 952 1046149 -4491 0
0 0 0 955 1047104 -3536 0
0 0 0 899 1048003 -2637 0
51 1 S112 922 1048925 -1715 0
51 1 S112 946 1049871 -769 0
51 2 S112 911 1050782 142 0
51 2 S112 954 1051736 1096 0
51 2 S112 929 1052665 2025 0
51 2 S112 916 1053581 2941 0
51 2 S112 901 1054482 3842 0
51 2 S112 889 1055371 4731 0
51 2 S112 873 1056244 5604 0
51 2 S112 894 1057138 6498 0
0 0 0 987 1058125 -7718 0
0 0 0 986 1059111 -6732 0
0 0 0 987 1060098 -5745 0
0 0 0 935 1061033 -4810 0
0 0 0 878 1061911 -3932 0
0 0 0 856 1062767 -3076 0
0 0 0 847 1063614 -2229 0
52 1 S116 841 1064455 -1388 0
52 1 S116 866 1065321 -522 0
52 2 S116 894 1066215 372 0
52 2 S116 894 1067109 1266 0
52 2 S116 976 1068085 2242 0
52 2 S116 968 1069053 3210 0
52 2 S116 926 1069979 4136 0
52 2 S116 936 1070915 5072 0
52 2 S116 893 1071808 5965 0
52 2 S116 901 1072709 6866 0
0 0 0 907 1073616 -9153 0
0 0 0 916 1074532 -8237 0
0 0 0 970 1075502 -7267 0
0 0 0 975 1076477 -6292 0
0 0 0 922 1077399 -5370 0
0 0 0 914 1078313 -4456 0
0 0 0 898 1079211 -3558 0
0 0 0 866 1080077 -2692 0
53 1 S106 861 1080938 -1831 0
53 1 S106 872 1081810 -959 0
53 1 S106 887 1082697 -72 0
53 2 S106 894 1083591 822 0
53 2 S106 914 1084505 1736 0
53 2 S106 890 1085395 2626 0
53 2 S106 879 1086274 3505 0
53 2 S106 882 1087156 4387 0
53 2 S106 865 1088021 5252 0
53 2 S106 871 1088892 6123 0
53 2 S106 892 1089784 7015 0
0 0 0 894 1090678 -6133 0
0 0 0 896 1091574 -5237 0
0 0 0 893 1092467 -4344 0
0 0 0 896 1093363 -3448 0
0 0 0 913 1094276 -2535 0
54 1 S102 954 1095230 -1581 0
54 1 S102 956 1096186 -625 0
54 2 S102 970 1097156 345 0
54 2 S102 1015 1098171 1360 0
54 2 S102 952 1099123 2312 0
54 2 S102 934 1100057 3246 0
54 2 S102 965 1101022 4211 0
54 2 S102 917 1101939 5128 0
54 2 S102 936 1102875 6064 0
0 0 0 972 1103847 -12129 0
0 0 0 962 1104809 -11167 0
0 0 0 997 1105806 -10170 0
0 0 0 1017 1106823 -9153 0
0 0 0 952 1107775 -8201 0
0 0 0 924 1108699 -7277 0
0 0 0 866 1109565 -6411 0
0 0 0 875 1110440 -5536 0
0 0 0 864 1111304 -4672 0
0 0 0 835 1112139 -3837 0
0 0 0 851 1112990 -2986 0
0 0 0 884 1113874 -2102 0
55 1 S106 870 1114744 -1232 0
55 1 S106 911 1115655 -321 0
55 2 S106 914 1116569 593 0
55 2 S106 904 1117473 1497 0
55 2 S106 921 1118394 2418 0
55 2 S106 906 1119300 3324 0
55 2 S106 876 1120176 4200 0
55 2 S106 888 1121064 5088 0
55 2 S106 878 1121942 5966 0
55 2 S106 807 1122749 6773 0
0 0 0 805 1123554 -6281 0
0 0 0 826 1124380 -5455 0
0 0 0 879 1125259 -4576 0
0 0 0 899 1126158 -3677 0
0 0 0 908 1127066 -2769 0
56 1 S116 829 1127895 -1940 0
56 1 S116 848 1128743 -1092 0
56 1 S116 879 1129622 -213 0
56 2 S116 871 1130493 658 0
56 2 S116 869 1131362 1527 0
56 2 S116 853 1132215 2380 0
56 2 S116 856 1133071 3236 0
56 2 S116 852 1133923 4088 0
56 2 S116 876 1134799 4964 0
56 2 S116 887 1135686 5851 0
56 2 S116 921 1136607 6772 0
0 0 0 926 1137533 -8267 0
0 0 0 930 1138463 -7337 0
0 0 0 920 1139383 -6417 0
0 0 0 917 1140300 -5500 0
0 0 0 988 1141288 -4512 0
0 0 0 932 1142220 -3580 0
0 0 0 953 1143173 -2627 0
57 1 S106 968 1144141 -1659 0
57 1 S106 971 1145112 -688 0
57 2 S106 974 1146086 286 0
57 2 S106 1028 1147114 1314 0
57 2 S106 969 1148083 2283 0
57 2 S106 943 1149026 3226 0
57 2 S106 919 1149945 4145 0
57 2 S106 858 1150803 5003 0
57 2 S106 870 1151673 5873 0
57 2 S106 919 1152592 6792 0
0 0 0 940 1153532 -7156 0
0 0 0 984 1154516 -6172 0
0 0 0 904 1155420 -5268 0
0 0 0 897 1156317 -4371 0
0 0 0 902 1157219 -3469 0
0 0 0 962 1158181 -2507 0
58 1 S102 962 1159143 -1545 0
58 1 S102 869 1160012 -676 0
58 2 S102 879 1160891 203 0
58 2 S102 877 1161768 1080 0
58 2 S102 937 1162705 2017 0
58 2 S102 1014 1163719 3031 0
58 2 S102 989 1164708 4020 0
58 2 S102 1048 1165756 5068 0
58 2 S102 1137 1166893 6205 0
0 0 0 1166 1168059 -7864 0
0 0 0 1110 1169169 -6754 0
0 0 0 1069 1170238 -5685 0
0 0 0 1073 1171311 -4612 0
0 0 0 1003 1172314 -3609 0
0 0 0 1013 1173327 -2596 0
59 1 S112 1027 1174354 -1569 0
59 1 S112 975 1175329 -594 0
59 2 S112 1032 1176361 438 0
59 2 S112 1065 1177426 1503 0
59 2 S112 1000 1178426 2503 0
59 2 S112 1041 1179467 3544 0
59 2 S112 1035 1180502 4579 0
59 2 S112 949 1181451 5528 0
59 2 S112 991 1182442 6519 0
0 0 0 995 1183437 -10358 0
0 0 0 956 1184393 -9402 0
0 0 0 1041 1185434 -8361 0
0 0 0 1061 1186495 -7300 0
0 0 0 1027 1187522 -6273 0
0 0 0 1002 1188524 -5271 0
0 0 0 942 1189466 -4329 0
0 0 0 1009 1190475 -3320 0
0 0 0 1007 1191482 -2313 0
60 1 S102 969 1192451 -1344 0
60 1 S102 1048 1193499 -296 0
60 2 S102 989 1194488 693 0
60 2 S102 943 1195431 1636 0
60 2 S102 949 1196380 2585 0
60 2 S102 893 1197273 3478 0
60 2 S102 898 1198171 4376 0
60 2 S102 993 1199164 5369 0
60 2 S102 1033 1200197 6402 0
0 0 0 1000 1201197 -9657 0
0 0 0 1025 1202222 -8632 0
0 0 0 950 1203172 -7682 0
0 0 0 932 1204104 -6750 0
0 0 0 962 1205066 -5788 0
0 0 0 966 1206032 -4822 0
0 0 0 1020 1207052 -3802 0
0 0 0 1105 1208157 -2697 0
61 1 S106 1046 1209203 -1651 0
61 1 S106 1030 1210233 -621 0
61 2 S106 980 1211213 359 0
61 2 S106 986 1212199 1345 0
61 2 S106 1019 1213218 2364 0
61 2 S106 993 1214211 3357 0
61 2 S106 1030 1215241 4387 0
61 2 S106 997 1216238 5384 0
61 2 S106 999 1217237 6383 0
0 0 0 1008 1218245 -8673 0
0 0 0 968 1219213 -7705 0
0 0 0 972 1220185 -6733 0
0 0 0 946 1221131 -5787 0
0 0 0 1013 1222144 -4774 0
0 0 0 941 1223085 -3833 0
0 0 0 928 1224013 -2905 0
62 1 S112 912 1224925 -1993 0
62 1 S112 848 1225773 -1145 0
62 1 S112 847 1226620 -298 0
62 2 S112 820 1227440 522 0
62 2 S112 782 1228222 1304 0
62 2 S112 766 1228988 2070 0
62 2 S112 798 1229786 2868 0
62 2 S112 820 1230606 3688 0
62 2 S112 786 1231392 4474 0
62 2 S112 819 1232211 5293 0
62 2 S112 820 1233031 6113 0
62 2 S112 801 1233832 6914 0
0 0 0 825 1234657 -12885 0
0 0 0 830 1235487 -12055 0
0 0 0 816 1236303 -11239 0
0 0 0 828 1237131 -10411 0
0 0 0 832 1237963 -9579 0
0 0 0 815 1238778 -8764 0
0 0 0 827 1239605 -7937 0
0 0 0 814 1240419 -7123 0
0 0 0 811 1241230 -6312 0
0 0 0 822 1242052 -5490 0
0 0 0 875 1242927 -4615 0
0 0 0 863 1243790 -3752 0
0 0 0 891 1244681 -2861 0
63 1 S102 939 1245620 -1922 0
63 1 S102 951 1246571 -971 0
63 1 S102 965 1247536 -6 0
63 2 S102 952 1248488 946 0
63 2 S102 908 1249396 1854 0
63 2 S102 969 1250365 2823 0
63 2 S102 964 1251329 3787 0
63 2 S102 1001 1252330 4788 0
63 2 S102 1122 1253452 5910 0
63 2 S102 1092 1254544 7002 0
0 0 0 1087 1255631 -9235 0
0 0 0 1031 1256662 -8204 0
0 0 0 1032 1257694 -7172 0
0 0 0 945 1258639 -6227 0
0 0 0 926 1259565 -5301 0
0 0 0 897 1260462 -4404 0
0 0 0 889 1261351 -3515 0
0 0 0 877 1262228 -2638 0
64 1 S112 817 1263045 -1821 0
64 1 S112 783 1263828 -1038 0
64 1 S112 835 1264663 -203 0
64 2 S112 880 1265543 677 0
64 2 S112 1002 1266545 1679 0
64 2 S112 993 1267538 2672 0
64 2 S112 993 1268531 3665 0
64 2 S112 1012 1269543 4677 0
64 2 S112 952 1270495 5629 0
64 2 S112 952 1271447 6581 0
0 0 0 960 1272407 -7695 0
0 0 0 918 1273325 -6777 0
0 0 0 960 1274285 -5817 0
0 0 0 979 1275264 -4838 0
0 0 0 914 1276178 -3924 0
0 0 0 981 1277159 -2943 0
65 1 S106 995 1278154 -1948 0
65 1 S106 968 1279122 -980 0
65 1 S106 900 1280022 -80 0
65 2 S106 863 1280885 783 0
65 2 S106 878 1281763 1661 0
65 2 S106 850 1282613 2511 0
65 2 S106 807 1283420 3318 0
65 2 S106 832 1284252 4150 0
65 2 S106 841 1285093 4991 0
65 2 S106 818 1285911 5809 0
65 2 S106 789 1286700 6598 0
0 0 0 821 1287521 -6191 0
0 0 0 817 1288338 -5374 0
0 0 0 762 1289100 -4612 0
0 0 0 742 1289842 -3870 0
0 0 0 727 1290569 -3143 0
0 0 0 705 1291274 -2438 0
66 1 S116 686 1291960 -1752 0
66 1 S116 671 1292631 -1081 0
66 1 S116 659 1293290 -422 0
66 2 S116 646 1293936 224 0
66 2 S116 649 1294585 873 0
66 2 S116 666 1295251 1539 0
66 2 S116 724 1295975 2263 0
66 2 S116 806 1296781 3069 0
66 2 S116 896 1297677 3965 0
66 2 S116 955 1298632 4920 0
66 2 S116 955 1299587 5875 0
66 2 S116 933 1300520 6808 0
0 0 0 908 1301428 -11764 0
0 0 0 903 1302331 -10861 0
0 0 0 899 1303230 -9962 0
0 0 0 977 1304207 -8985 0
0 0 0 951 1305158 -8034 0
0 0 0 894 1306052 -7140 0
0 0 0 847 1306899 -6293 0
0 0 0 838 1307737 -5455 0
0 0 0 811 1308548 -4644 0
0 0 0 762 1309310 -3882 0
0 0 0 733 1310043 -3149 0
0 0 0 721 1310764 -2428 0
67 1 S102 710 1311474 -1718 0
67 1 S102 704 1312178 -1014 0
67 1 S102 691 1312869 -323 0
67 2 S102 677 1313546 354 0
67 2 S102 682 1314228 1036 0
67 2 S102 682 1314910 1718 0
67 2 S102 683 1315593 2401 0
67 2 S102 687 1316280 3088 0
67 2 S102 688 1316968 3776 0
67 2 S102 679 1317647 4455 0
67 2 S102 683 1318330 5138 0
67 2 S102 687 1319017 5825 0
67 2 S102 689 1319706 6514 0
0 0 0 681 1320387 -6532 0
0 0 0 706 1321093 -5826 0
0 0 0 727 1321820 -5099 0
0 0 0 762 1322582 -4337 0
0 0 0 854 1323436 -3483 0
0 0 0 882 1324318 -2601 0
68 1 S106 868 1325186 -1733 0
68 1 S106 857 1326043 -876 0
68 1 S106 840 1326883 -36 0
68 2 S106 822 1327705 786 0
68 2 S106 793 1328498 1579 0
68 2 S106 749 1329247 2328 0
68 2 S106 722 1329969 3050 0
68 2 S106 703 1330672 3753 0
68 2 S106 686 1331358 4439 0
68 2 S106 773 1332131 5212 0
68 2 S106 945 1333076 6157 0
0 0 0 888 1333964 -12335 0
0 0 0 910 1334874 -11425 0
0 0 0 926 1335800 -10499 0
0 0 0 936 1336736 -9563 0
0 0 0 954 1337690 -8609 0
0 0 0 882 1338572 -7727 0
0 0 0 842 1339414 -6885 0
0 0 0 833 1340247 -6052 0
0 0 0 835 1341082 -5217 0
0 0 0 869 1341951 -4348 0
0 0 0 880 1342831 -3468 0
0 0 0 918 1343749 -2550 0
69 1 S102 966 1344715 -1584 0
69 1 S102 931 1345646 -653 0
69 2 S102 915 1346561 262 0
69 2 S102 901 1347462 1163 0
69 2 S102 833 1348295 1996 0
69 2 S102 775 1349070 2771 0
69 2 S102 767 1349837 3538 0
69 2 S102 780 1350617 4318 0
69 2 S102 788 1351405 5106 0
69 2 S102 800 1352205 5906 0
69 2 S102 797 1353002 6703 0
0 0 0 772 1353774 -8026 0
0 0 0 756 1354530 -7270 0
0 0 0 771 1355301 -6499 0
0 0 0 817 1356118 -5682 0
0 0 0 936 1357054 -4746 0
0 0 0 952 1358006 -3794 0
0 0 0 909 1358915 -2885 0
70 1 S112 890 1359805 -1995 0
70 1 S112 883 1360688 -1112 0
70 1 S112 864 1361552 -248 0
70 2 S112 873 1362425 625 0
70 2 S112 897 1363322 1522 0
70 2 S112 924 1364246 2446 0
70 2 S112 1123 1365369 3569 0
70 2 S112 1109 1366478 4678 0
70 2 S112 1020 1367498 5698 0
70 2 S112 981 1368479 6679 0
0 0 0 955 1369434 -12011 0
0 0 0 937 1370371 -11074 0
0 0 0 900 1371271 -10174 0
0 0 0 932 1372203 -9242 0
0 0 0 915 1373118 -8327 0
0 0 0 842 1373960 -7485 0
0 0 0 809 1374769 -6676 0
0 0 0 803 1375572 -5873 0
0 0 0 838 1376410 -5035 0
0 0 0 995 1377405 -4040 0
0 0 0 1011 1378416 -3029 0
0 0 0 957 1379373 -2072 0
71 1 S116 938 1380311 -1134 0
71 1 S116 893 1381204 -241 0
71 2 S116 888 1382092 647 0
71 2 S116 876 1382968 1523 0
71 2 S116 870 1383838 2393 0
71 2 S116 881 1384719 3274 0
71 2 S116 871 1385590 4145 0
71 2 S116 862 1386452 5007 0
71 2 S116 899 1387351 5906 0
71 2 S116 886 1388237 6792 0
0 0 0 897 1389134 -9238 0
0 0 0 905 1390039 -8333 0
0 0 0 913 1390952 -7420 0
0 0 0 901 1391853 -6519 0
0 0 0 893 1392746 -5626 0
0 0 0 848 1393594 -4778 0
0 0 0 847 1394441 -3931 0
0 0 0 852 1395293 -3079 0
0 0 0 843 1396136 -2236 0
72 1 S102 857 1396993 -1379 0
72 1 S102 875 1397868 -504 0
72 2 S102 888 1398756 384 0
72 2 S102 899 1399655 1283 0
72 2 S102 890 1400545 2173 0
72 2 S102 850 1401395 3023 0
72 2 S102 808 1402203 3831 0
72 2 S102 770 1402973 4601 0
72 2 S102 778 1403751 5379 0
72 2 S102 850 1404601 6229 0
0 0 0 971 1405572 -7389 0
0 0 0 986 1406558 -6403 0
0 0 0 997 1407555 -5406 0
0 0 0 943 1408498 -4463 0
0 0 0 863 1409361 -3600 0
0 0 0 799 1410160 -2801 0
0 0 0 754 1410914 -2047 0
73 1 S116 739 1411653 -1308 0
73 1 S116 733 1412386 -575 0
73 2 S116 766 1413152 191 0
73 2 S116 793 1413945 984 0
73 2 S116 875 1414820 1859 0
73 2 S116 962 1415782 2821 0
73 2 S116 1032 1416814 3853 0
73 2 S116 998 1417812 4851 0
73 2 S116 984 1418796 5835 0
73 2 S116 958 1419754 6793 0
0 0 0 948 1420702 -8837 0
0 0 0 946 1421648 -7891 0
0 0 0 928 1422576 -6963 0
0 0 0 914 1423490 -6049 0
0 0 0 920 1424410 -5129 0
0 0 0 899 1425309 -4230 0
0 0 0 910 1426219 -3320 0
0 0 0 918 1427137 -2402 0
74 1 S106 921 1428058 -1481 0
74 1 S106 955 1429013 -526 0
74 2 S106 944 1429957 418 0
74 2 S106 938 1430895 1356 0
74 2 S106 929 1431824 2285 0
74 2 S106 883 1432707 3168 0
74 2 S106 884 1433591 4052 0
74 2 S106 881 1434472 4933 0
74 2 S106 847 1435319 5780 0
74 2 S106 864 1436183 6644 0
0 0 0 935 1437118 -8320 0
0 0 0 912 1438030 -7408 0
0 0 0 935 1438965 -6473 0
0 0 0 976 1439941 -5497 0
0 0 0 906 1440847 -4591 0
0 0 0 874 1441721 -3717 0
0 0 0 783 1442504 -2934 0
0 0 0 815 1443319 -2119 0
75 1 S112 788 1444107 -1331 0
75 1 S112 836 1444943 -495 0
75 2 S112 869 1445812 374 0
75 2 S112 883 1446695 1257 0
75 2 S112 880 1447575 2137 0
75 2 S112 854 1448429 2991 0
75 2 S112 851 1449280 3842 0
75 2 S112 837 1450117 4679 0
75 2 S112 860 1450977 5539 0
75 2 S112 927 1451904 6466 0
0 0 0 977 1452881 -7726 0
0 0 0 970 1453851 -6756 0
0 0 0 986 1454837 -5770 0
0 0 0 984 1455821 -4786 0
0 0 0 906 1456727 -3880 0
0 0 0 864 1457591 -3016 0
0 0 0 830 1458421 -2186 0
76 1 S116 832 1459253 -1354 0
76 1 S116 842 1460095 -512 0
76 2 S116 846 1460941 334 0
76 2 S116 895 1461836 1229 0
76 2 S116 970 1462806 2199 0
76 2 S116 975 1463781 3174 0
76 2 S116 970 1464751 4144 0
76 2 S116 956 1465707 5100 0
76 2 S116 915 1466622 6015 0
76 2 S116 925 1467547 6940 0
0 0 0 932 1468479 -7695 0
0 0 0 915 1469394 -6780 0
0 0 0 947 1470341 -5833 0
0 0 0 963 1471304 -4870 0
0 0 0 902 1472206 -3968 0
0 0 0 866 1473072 -3102 0
0 0 0 810 1473882 -2292 0
77 1 S106 829 1474711 -1463 0
77 1 S106 825 1475536 -638 0
77 2 S106 838 1476374 200 0
77 2 S106 873 1477247 1073 0
77 2 S106 910 1478157 1983 0
77 2 S106 890 1479047 2873 0
77 2 S106 882 1479929 3755 0
77 2 S106 852 1480781 4607 0
77 2 S106 841 1481622 5448 0
77 2 S106 827 1482449 6275 0
0 0 0 833 1483282 -9271 0
0 0 0 885 1484167 -8386 0
0 0 0 896 1485063 -7490 0
0 0 0 916 1485979 -6574 0
0 0 0 872 1486851 -5702 0
0 0 0 855 1487706 -4847 0
0 0 0 861 1488567 -3986 0
0 0 0 865 1489432 -3121 0
0 0 0 891 1490323 -2230 0
78 1 S112 982 1491305 -1248 0
78 1 S112 996 1492301 -252 0
78 2 S112 987 1493288 735 0
78 2 S112 950 1494238 1685 0
78 2 S112 875 1495113 2560 0
78 2 S112 851 1495964 3411 0
78 2 S112 819 1496783 4230 0
78 2 S112 811 1497594 5041 0
78 2 S112 865 1498459 5906 0
78 2 S112 902 1499361 6808 0
0 0 0 939 1500300 -11269 0
0 0 0 960 1501260 -10309 0
0 0 0 978 1502238 -9331 0
0 0 0 923 1503161 -8408 0
0 0 0 900 1504061 -7508 0
0 0 0 866 1504927 -6642 0
0 0 0 848 1505775 -5794 0
0 0 0 844 1506619 -4950 0
0 0 0 854 1507473 -4096 0
0 0 0 855 1508328 -3241 0
0 0 0 905 1509233 -2336 0
79 1 S102 925 1510158 -1411 0
79 1 S102 901 1511059 -510 0
79 2 S102 913 1511972 403 0
79 2 S102 884 1512856 1287 0
79 2 S102 824 1513680 2111 0
79 2 S102 812 1514492 2923 0
79 2 S102 808 1515300 3731 0
79 2 S102 802 1516102 4533 0
79 2 S102 850 1516952 5383 0
79 2 S102 890 1517842 6273 0
0 0 0 928 1518770 -10869 0
0 0 0 959 1519729 -9910 0
0 0 0 986 1520715 -8924 0
0 0 0 975 1521690 -7949 0
0 0 0 1022 1522712 -6927 0
0 0 0 972 1523684 -5955 0
0 0 0 900 1524584 -5055 0
0 0 0 875 1525459 -4180 0
0 0 0 841 1526300 -3339 0
0 0 0 839 1527139 -2500 0
80 1 S116 864 1528003 -1636 0
80 1 S116 894 1528897 -742 0
80 2 S116 905 1529802 163 0
80 2 S116 967 1530769 1130 0
80 2 S116 931 1531700 2061 0
80 2 S116 930 1532630 2991 0
80 2 S116 935 1533565 3926 0
80 2 S116 886 1534451 4812 0
80 2 S116 874 1535325 5686 0
80 2 S116 872 1536197 6558 0
