T_0024
BeatCount Mean SD BeatCountNoOutliers MeanNoOutliers SDNoOutliers
1703 948,200822078685 50,6919066521357 1673 949,374178123132 46,7237317864292

Trial TrialStatus Trialtype IBI AbsPosition RelPosition Outlier
0 0 0 932 1144 -15586 0
0 0 0 908 2052 -14678 0
0 0 0 913 2965 -13765 0
0 0 0 896 3861 -12869 0
0 0 0 870 4731 -11999 0
0 0 0 846 5577 -11153 0
0 0 0 862 6439 -10291 0
0 0 0 871 7310 -9420 0
0 0 0 848 8158 -8572 0
0 0 0 878 9036 -7694 0
0 0 0 897 9933 -6797 0
0 0 0 918 10851 -5879 0
0 0 0 900 11751 -4979 0
0 0 0 933 12684 -4046 0
0 0 0 961 13645 -3085 0
0 0 0 980 14625 -2105 0
1 1 S112 954 15579 -1151 0
1 1 S112 970 16549 -181 0
1 2 S112 972 17521 791 0
1 2 S112 951 18472 1742 0
1 2 S112 940 19412 2682 0
1 2 S112 945 20357 3627 0
1 2 S112 958 21315 4585 0
1 2 S112 962 22277 5547 0
1 2 S112 986 23263 6533 0
0 0 0 1011 24274 -11538 0
0 0 0 984 25258 -10554 0
0 0 0 984 26242 -9570 0
0 0 0 1000 27242 -8570 0
0 0 0 972 28214 -7598 0
0 0 0 942 29156 -6656 0
0 0 0 950 30106 -5706 0
0 0 0 945 31051 -4761 0
0 0 0 928 31979 -3833 0
0 0 0 950 32929 -2883 0
2 1 S102 956 33885 -1927 0
2 1 S102 947 34832 -980 0
2 1 S102 946 35778 -34 0
2 2 S102 984 36762 950 0
2 2 S102 1007 37769 1957 0
2 2 S102 972 38741 2929 0
2 2 S102 985 39726 3914 0
2 2 S102 990 40716 4904 0
2 2 S102 983 41699 5887 0
2 2 S102 970 42669 6857 0
0 0 0 984 43653 -9782 0
0 0 0 967 44620 -8815 0
0 0 0 945 45565 -7870 0
0 0 0 971 46536 -6899 0
0 0 0 949 47485 -5950 0
0 0 0 944 48429 -5006 0
0 0 0 947 49376 -4059 0
0 0 0 913 50289 -3146 0
0 0 0 914 51203 -2232 0
3 1 S116 908 52111 -1324 0
3 1 S116 893 53004 -431 0
3 2 S116 923 53927 492 0
3 2 S116 920 54847 1412 0
3 2 S116 931 55778 2343 0
3 2 S116 969 56747 3312 0
3 2 S116 959 57706 4271 0
3 2 S116 923 58629 5194 0
3 2 S116 929 59558 6123 0
0 0 0 935 60493 -11990 0
0 0 0 933 61426 -11057 0
0 0 0 907 62333 -10150 0
0 0 0 930 63263 -9220 0
0 0 0 955 64218 -8265 0
0 0 0 933 65151 -7332 0
0 0 0 948 66099 -6384 0
0 0 0 958 67057 -5426 0
0 0 0 967 68024 -4459 0
0 0 0 945 68969 -3514 0
0 0 0 968 69937 -2546 0
4 1 S106 973 70910 -1573 0
4 1 S106 950 71860 -623 0
4 2 S106 958 72818 335 0
4 2 S106 968 73786 1303 0
4 2 S106 964 74750 2267 0
4 2 S106 954 75704 3221 0
4 2 S106 977 76681 4198 0
4 2 S106 982 77663 5180 0
4 2 S106 945 78608 6125 0
0 0 0 955 79563 -7659 0
0 0 0 949 80512 -6710 0
0 0 0 927 81439 -5783 0
0 0 0 930 82369 -4853 0
0 0 0 946 83315 -3907 0
0 0 0 932 84247 -2975 0
0 0 0 916 85163 -2059 0
5 1 S116 937 86100 -1122 0
5 1 S116 949 87049 -173 0
5 2 S116 919 87968 746 0
5 2 S116 949 88917 1695 0
5 2 S116 965 89882 2660 0
5 2 S116 950 90832 3610 0
5 2 S116 937 91769 4547 0
5 2 S116 956 92725 5503 0
5 2 S116 963 93688 6466 0
0 0 0 930 94618 -10409 0
0 0 0 936 95554 -9473 0
0 0 0 943 96497 -8530 0
0 0 0 931 97428 -7599 0
0 0 0 958 98386 -6641 0
0 0 0 940 99326 -5701 0
0 0 0 917 100243 -4784 0
0 0 0 933 101176 -3851 0
0 0 0 935 102111 -2916 0
0 0 0 914 103025 -2002 0
6 1 S106 895 103920 -1107 0
6 1 S106 911 104831 -196 0
6 2 S106 916 105747 720 0
6 2 S106 926 106673 1646 0
6 2 S106 913 107586 2559 0
6 2 S106 929 108515 3488 0
6 2 S106 944 109459 4432 0
6 2 S106 951 110410 5383 0
6 2 S106 946 111356 6329 0
0 0 0 976 112332 -12058 0
0 0 0 981 113313 -11077 0
0 0 0 955 114268 -10122 0
0 0 0 949 115217 -9173 0
0 0 0 952 116169 -8221 0
0 0 0 935 117104 -7286 0
0 0 0 928 118032 -6358 0
0 0 0 937 118969 -5421 0
0 0 0 932 119901 -4489 0
0 0 0 918 120819 -3571 0
0 0 0 947 121766 -2624 0
7 1 S102 955 122721 -1669 0
7 1 S102 929 123650 -740 0
7 2 S102 940 124590 200 0
7 2 S102 936 125526 1136 0
7 2 S102 899 126425 2035 0
7 2 S102 898 127323 2933 0
7 2 S102 901 128224 3834 0
7 2 S102 906 129130 4740 0
7 2 S102 932 130062 5672 0
7 2 S102 958 131020 6630 0
0 0 0 932 131952 -10741 0
0 0 0 936 132888 -9805 0
0 0 0 948 133836 -8857 0
0 0 0 929 134765 -7928 0
0 0 0 960 135725 -6968 0
0 0 0 966 136691 -6002 0
0 0 0 939 137630 -5063 0
0 0 0 917 138547 -4146 0
0 0 0 935 139482 -3211 0
0 0 0 935 140417 -2276 0
8 1 S112 919 141336 -1357 0
8 1 S112 903 142239 -454 0
8 2 S112 915 143154 461 0
8 2 S112 934 144088 1395 0
8 2 S112 924 145012 2319 0
8 2 S112 928 145940 3247 0
8 2 S112 960 146900 4207 0
8 2 S112 983 147883 5190 0
8 2 S112 978 148861 6168 0
0 0 0 971 149832 -7516 0
0 0 0 979 150811 -6537 0
0 0 0 959 151770 -5578 0
0 0 0 947 152717 -4631 0
0 0 0 953 153670 -3678 0
0 0 0 926 154596 -2752 0
9 1 S116 887 155483 -1865 0
9 1 S116 892 156375 -973 0
9 1 S116 885 157260 -88 0
9 2 S116 860 158120 772 0
9 2 S116 869 158989 1641 0
9 2 S116 894 159883 2535 0
9 2 S116 917 160800 3452 0
9 2 S116 913 161713 4365 0
9 2 S116 918 162631 5283 0
9 2 S116 946 163577 6229 0
0 0 0 966 164543 -12401 0
0 0 0 944 165487 -11457 0
0 0 0 929 166416 -10528 0
0 0 0 939 167355 -9589 0
0 0 0 945 168300 -8644 0
0 0 0 891 169191 -7753 0
0 0 0 907 170098 -6846 0
0 0 0 899 170997 -5947 0
0 0 0 859 171856 -5088 0
0 0 0 876 172732 -4212 0
0 0 0 857 173589 -3355 0
0 0 0 836 174425 -2519 0
10 1 S102 856 175281 -1663 0
10 1 S102 876 176157 -787 0
10 2 S102 868 177025 81 0
10 2 S102 955 177980 1036 0
10 2 S102 991 178971 2027 0
10 2 S102 965 179936 2992 0
10 2 S102 967 180903 3959 0
10 2 S102 980 181883 4939 0
10 2 S102 967 182850 5906 0
10 2 S102 938 183788 6844 0
0 0 0 939 184727 -12790 0
0 0 0 942 185669 -11848 0
0 0 0 913 186582 -10935 0
0 0 0 927 187509 -10008 0
0 0 0 973 188482 -9035 0
0 0 0 950 189432 -8085 0
0 0 0 942 190374 -7143 0
0 0 0 936 191310 -6207 0
0 0 0 946 192256 -5261 0
0 0 0 930 193186 -4331 0
0 0 0 904 194090 -3427 0
0 0 0 893 194983 -2534 0
11 1 S112 882 195865 -1652 0
11 1 S112 843 196708 -809 0
11 2 S112 863 197571 54 0
11 2 S112 922 198493 976 0
11 2 S112 966 199459 1942 0
11 2 S112 933 200392 2875 0
11 2 S112 974 201366 3849 0
11 2 S112 1001 202367 4850 0
11 2 S112 1005 203372 5855 0
11 2 S112 975 204347 6830 0
0 0 0 982 205329 -8120 0
0 0 0 971 206300 -7149 0
0 0 0 928 207228 -6221 0
0 0 0 935 208163 -5286 0
0 0 0 948 209111 -4338 0
0 0 0 938 210049 -3400 0
0 0 0 905 210954 -2495 0
12 1 S116 912 211866 -1583 0
12 1 S116 921 212787 -662 0
12 2 S116 890 213677 228 0
12 2 S116 889 214566 1117 0
12 2 S116 920 215486 2037 0
12 2 S116 988 216474 3025 0
12 2 S116 1000 217474 4025 0
12 2 S116 1011 218485 5036 0
12 2 S116 1054 219539 6090 0
0 0 0 1053 220592 -13464 0
0 0 0 1014 221606 -12450 0
0 0 0 994 222600 -11456 0
0 0 0 937 223537 -10519 0
0 0 0 914 224451 -9605 0
0 0 0 926 225377 -8679 0
0 0 0 910 226287 -7769 0
0 0 0 931 227218 -6838 0
0 0 0 952 228170 -5886 0
0 0 0 923 229093 -4963 0
0 0 0 945 230038 -4018 0
0 0 0 967 231005 -3051 0
0 0 0 963 231968 -2088 0
13 1 S112 949 232917 -1139 0
13 1 S112 974 233891 -165 0
13 2 S112 997 234888 832 0
13 2 S112 986 235874 1818 0
13 2 S112 983 236857 2801 0
13 2 S112 999 237856 3800 0
13 2 S112 995 238851 4795 0
13 2 S112 973 239824 5768 0
13 2 S112 987 240811 6755 0
0 0 0 991 241802 -11402 0
0 0 0 956 242758 -10446 0
0 0 0 928 243686 -9518 0
0 0 0 958 244644 -8560 0
0 0 0 938 245582 -7622 0
0 0 0 905 246487 -6717 0
0 0 0 916 247403 -5801 0
0 0 0 919 248322 -4882 0
0 0 0 904 249226 -3978 0
0 0 0 896 250122 -3082 0
0 0 0 922 251044 -2160 0
14 1 S106 931 251975 -1229 0
14 1 S106 925 252900 -304 0
14 2 S106 912 253812 608 0
14 2 S106 940 254752 1548 0
14 2 S106 950 255702 2498 0
14 2 S106 936 256638 3434 0
14 2 S106 924 257562 4358 0
14 2 S106 960 258522 5318 0
14 2 S106 979 259501 6297 0
0 0 0 948 260449 -12251 0
0 0 0 972 261421 -11279 0
0 0 0 955 262376 -10324 0
0 0 0 940 263316 -9384 0
0 0 0 944 264260 -8440 0
0 0 0 950 265210 -7490 0
0 0 0 920 266130 -6570 0
0 0 0 892 267022 -5678 0
0 0 0 902 267924 -4776 0
0 0 0 894 268818 -3882 0
0 0 0 866 269684 -3016 0
0 0 0 869 270553 -2147 0
15 1 S116 874 271427 -1273 0
15 1 S116 883 272310 -390 0
15 2 S116 868 273178 478 0
15 2 S116 904 274082 1382 0
15 2 S116 923 275005 2305 0
15 2 S116 923 275928 3228 0
15 2 S116 945 276873 4173 0
15 2 S116 969 277842 5142 0
15 2 S116 980 278822 6122 0
0 0 0 945 279767 -11534 0
0 0 0 958 280725 -10576 0
0 0 0 942 281667 -9634 0
0 0 0 912 282579 -8722 0
0 0 0 908 283487 -7814 0
0 0 0 931 284418 -6883 0
0 0 0 912 285330 -5971 0
0 0 0 871 286201 -5100 0
0 0 0 830 287031 -4270 0
0 0 0 1026 288057 -3244 0
0 0 0 971 289028 -2273 0
16 1 S116 934 289962 -1339 0
16 1 S116 925 290887 -414 0
16 2 S116 913 291800 499 0
16 2 S116 946 292746 1445 0
16 2 S116 960 293706 2405 0
16 2 S116 947 294653 3352 0
16 2 S116 958 295611 4310 0
16 2 S116 957 296568 5267 0
16 2 S116 957 297525 6224 0
0 0 0 955 298480 -10212 0
0 0 0 967 299447 -9245 0
0 0 0 973 300420 -8272 0
0 0 0 953 301373 -7319 0
0 0 0 979 302352 -6340 0
0 0 0 962 303314 -5378 0
0 0 0 926 304240 -4452 0
0 0 0 927 305167 -3525 0
0 0 0 921 306088 -2604 0
17 1 S106 902 306990 -1702 0
17 1 S106 890 307880 -812 0
17 2 S106 900 308780 88 0
17 2 S106 915 309695 1003 0
17 2 S106 912 310607 1915 0
17 2 S106 882 311489 2797 0
17 2 S106 898 312387 3695 0
17 2 S106 900 313287 4595 0
17 2 S106 885 314172 5480 0
17 2 S106 899 315071 6379 0
0 0 0 904 315975 -12611 0
0 0 0 894 316869 -11717 0
0 0 0 877 317746 -10840 0
0 0 0 894 318640 -9946 0
0 0 0 897 319537 -9049 0
0 0 0 872 320409 -8177 0
0 0 0 862 321271 -7315 0
0 0 0 866 322137 -6449 0
0 0 0 869 323006 -5580 0
0 0 0 846 323852 -4734 0
0 0 0 847 324699 -3887 0
0 0 0 853 325552 -3034 0
0 0 0 878 326430 -2156 0
18 1 S102 877 327307 -1279 0
18 1 S102 907 328214 -372 0
18 2 S102 946 329160 574 0
18 2 S102 969 330129 1543 0
18 2 S102 952 331081 2495 0
18 2 S102 972 332053 3467 0
18 2 S102 995 333048 4462 0
18 2 S102 997 334045 5459 0
18 2 S102 961 335006 6420 0
0 0 0 968 335974 -7665 0
0 0 0 952 336926 -6713 0
0 0 0 896 337822 -5817 0
0 0 0 874 338696 -4943 0
0 0 0 905 339601 -4038 0
0 0 0 913 340514 -3125 0
0 0 0 911 341425 -2214 0
19 1 S106 925 342350 -1289 0
19 1 S106 944 343294 -345 0
19 2 S106 945 344239 600 0
19 2 S106 934 345173 1534 0
19 2 S106 965 346138 2499 0
19 2 S106 965 347103 3464 0
19 2 S106 938 348041 4402 0
19 2 S106 960 349001 5362 0
19 2 S106 963 349964 6325 0
0 0 0 950 350914 -11608 0
0 0 0 934 351848 -10674 0
0 0 0 963 352811 -9711 0
0 0 0 964 353775 -8747 0
0 0 0 924 354699 -7823 0
0 0 0 934 355633 -6889 0
0 0 0 914 356547 -5975 0
0 0 0 899 357446 -5076 0
0 0 0 879 358325 -4197 0
0 0 0 891 359216 -3306 0
0 0 0 899 360115 -2407 0
20 1 S112 887 361002 -1520 0
20 1 S112 901 361903 -619 0
20 2 S112 915 362818 296 0
20 2 S112 902 363720 1198 0
20 2 S112 912 364632 2110 0
20 2 S112 947 365579 3057 0
20 2 S112 996 366575 4053 0
20 2 S112 985 367560 5038 0
20 2 S112 977 368537 6015 0
20 2 S112 1001 369538 7016 0
0 0 0 983 370521 -8563 0
0 0 0 937 371458 -7626 0
0 0 0 946 372404 -6680 0
0 0 0 899 373303 -5781 0
0 0 0 881 374184 -4900 0
0 0 0 870 375054 -4030 0
0 0 0 872 375926 -3158 0
0 0 0 859 376785 -2299 0
21 1 S106 940 377725 -1359 0
21 1 S106 958 378683 -401 0
21 2 S106 950 379633 549 0
21 2 S106 958 380591 1507 0
21 2 S106 978 381569 2485 0
21 2 S106 966 382535 3451 0
21 2 S106 948 383483 4399 0
21 2 S106 959 384442 5358 0
21 2 S106 979 385421 6337 0
0 0 0 965 386386 -12260 0
0 0 0 953 387339 -11307 0
0 0 0 972 388311 -10335 0
0 0 0 971 389282 -9364 0
0 0 0 951 390233 -8413 0
0 0 0 963 391196 -7450 0
0 0 0 967 392163 -6483 0
0 0 0 941 393104 -5542 0
0 0 0 950 394054 -4592 0
0 0 0 943 394997 -3649 0
0 0 0 926 395923 -2723 0
22 1 S116 940 396863 -1783 0
22 1 S116 960 397823 -823 0
22 2 S116 971 398794 148 0
22 2 S116 963 399757 1111 0
22 2 S116 997 400754 2108 0
22 2 S116 1017 401771 3125 0
22 2 S116 988 402759 4113 0
22 2 S116 998 403757 5111 0
22 2 S116 991 404748 6102 0
0 0 0 976 405724 -10495 0
0 0 0 950 406674 -9545 0
0 0 0 957 407631 -8588 0
0 0 0 976 408607 -7612 0
0 0 0 945 409552 -6667 0
0 0 0 951 410503 -5716 0
0 0 0 960 411463 -4756 0
0 0 0 948 412411 -3808 0
0 0 0 967 413378 -2841 0
23 1 S112 978 414356 -1863 0
23 1 S112 980 415336 -883 0
23 2 S112 958 416294 75 0
23 2 S112 983 417277 1058 0
23 2 S112 1004 418281 2062 0
23 2 S112 985 419266 3047 0
23 2 S112 973 420239 4020 0
23 2 S112 1004 421243 5024 0
23 2 S112 1016 422259 6040 0
23 2 S112 973 423232 7013 0
0 0 0 970 424202 -8563 0
0 0 0 969 425171 -7594 0
0 0 0 937 426108 -6657 0
0 0 0 945 427053 -5712 0
0 0 0 938 427991 -4774 0
0 0 0 924 428915 -3850 0
0 0 0 936 429851 -2914 0
0 0 0 897 430748 -2017 0
24 1 S106 882 431630 -1135 0
24 1 S106 880 432510 -255 0
24 2 S106 863 433373 608 0
24 2 S106 884 434257 1492 0
24 2 S106 929 435186 2421 0
24 2 S106 949 436135 3370 0
24 2 S106 948 437083 4318 0
24 2 S106 999 438082 5317 0
24 2 S106 1033 439115 6350 0
0 0 0 1014 440129 -10457 0
0 0 0 1001 441130 -9456 0
0 0 0 1000 442130 -8456 0
0 0 0 991 443121 -7465 0
0 0 0 951 444072 -6514 0
0 0 0 938 445010 -5576 0
0 0 0 927 445937 -4649 0
0 0 0 868 446805 -3781 0
0 0 0 896 447701 -2885 0
0 0 0 856 448557 -2029 0
25 1 S102 827 449384 -1202 0
25 1 S102 811 450195 -391 1
25 2 S102 868 451063 477 0
25 2 S102 917 451980 1394 0
25 2 S102 901 452881 2295 0
25 2 S102 904 453785 3199 0
25 2 S102 955 454740 4154 0
25 2 S102 1009 455749 5163 0
25 2 S102 962 456711 6125 0
0 0 0 959 457670 -8069 0
0 0 0 979 458649 -7090 0
0 0 0 977 459626 -6113 0
0 0 0 983 460609 -5130 0
0 0 0 987 461596 -4143 0
0 0 0 992 462588 -3151 0
0 0 0 975 463563 -2176 0
26 1 S116 992 464555 -1184 0
26 1 S116 1004 465559 -180 0
26 2 S116 964 466523 784 0
26 2 S116 1001 467524 1785 0
26 2 S116 1009 468533 2794 0
26 2 S116 998 469531 3792 0
26 2 S116 991 470522 4783 0
26 2 S116 1013 471535 5796 0
26 2 S116 998 472533 6794 0
0 0 0 976 473509 -8261 0
0 0 0 988 474497 -7273 0
0 0 0 981 475478 -6292 0
0 0 0 948 476426 -5344 0
0 0 0 952 477378 -4392 0
0 0 0 925 478303 -3467 0
0 0 0 893 479196 -2574 0
27 1 S106 910 480106 -1664 0
27 1 S106 908 481014 -756 0
27 2 S106 889 481903 133 0
27 2 S106 913 482816 1046 0
27 2 S106 936 483752 1982 0
27 2 S106 919 484671 2901 0
27 2 S106 934 485605 3835 0
27 2 S106 964 486569 4799 0
27 2 S106 974 487543 5773 0
27 2 S106 954 488497 6727 0
0 0 0 971 489468 -8450 0
0 0 0 977 490445 -7473 0
0 0 0 951 491396 -6522 0
0 0 0 965 492361 -5557 0
0 0 0 984 493345 -4573 0
0 0 0 955 494300 -3618 0
0 0 0 920 495220 -2698 0
28 1 S102 922 496142 -1776 0
28 1 S102 940 497082 -836 0
28 2 S102 961 498043 125 0
28 2 S102 947 498990 1072 0
28 2 S102 901 499891 1973 0
28 2 S102 886 500777 2859 0
28 2 S102 912 501689 3771 0
28 2 S102 910 502599 4681 0
28 2 S102 916 503515 5597 0
28 2 S102 910 504425 6507 0
0 0 0 923 505348 -12016 0
0 0 0 935 506283 -11081 0
0 0 0 940 507223 -10141 0
0 0 0 938 508161 -9203 0
0 0 0 950 509111 -8253 0
0 0 0 947 510058 -7306 0
0 0 0 915 510973 -6391 0
0 0 0 919 511892 -5472 0
0 0 0 936 512828 -4536 0
0 0 0 939 513767 -3597 0
0 0 0 912 514679 -2685 0
29 1 S112 928 515607 -1757 0
29 1 S112 937 516544 -820 0
29 2 S112 934 517478 114 0
29 2 S112 917 518395 1031 0
29 2 S112 941 519336 1972 0
29 2 S112 973 520309 2945 0
29 2 S112 966 521275 3911 0
29 2 S112 967 522242 4878 0
29 2 S112 1000 523242 5878 0
29 2 S112 1022 524264 6900 0
0 0 0 995 525259 -7241 0
0 0 0 985 526244 -6256 0
0 0 0 942 527186 -5314 0
0 0 0 919 528105 -4395 0
0 0 0 894 528999 -3501 0
0 0 0 900 529899 -2601 0
30 1 S112 880 530779 -1721 0
30 1 S112 905 531684 -816 0
30 2 S112 907 532591 91 0
30 2 S112 899 533490 990 0
30 2 S112 903 534393 1893 0
30 2 S112 944 535337 2837 0
30 2 S112 987 536324 3824 0
30 2 S112 980 537304 4804 0
30 2 S112 972 538276 5776 0
30 2 S112 995 539271 6771 0
0 0 0 996 540267 -9939 0
0 0 0 958 541225 -8981 0
0 0 0 966 542191 -8015 0
0 0 0 981 543172 -7034 0
0 0 0 927 544099 -6107 0
0 0 0 927 545026 -5180 0
0 0 0 892 545918 -4288 0
0 0 0 872 546790 -3416 0
0 0 0 875 547665 -2541 0
31 1 S106 869 548534 -1672 0
31 1 S106 887 549421 -785 0
31 2 S106 919 550340 134 0
31 2 S106 942 551282 1076 0
31 2 S106 943 552225 2019 0
31 2 S106 955 553180 2974 0
31 2 S106 961 554141 3935 0
31 2 S106 930 555071 4865 0
31 2 S106 947 556018 5812 0
31 2 S106 959 556977 6771 0
0 0 0 955 557932 -10195 0
0 0 0 933 558865 -9262 0
0 0 0 927 559792 -8335 0
0 0 0 921 560713 -7414 0
0 0 0 902 561615 -6512 0
0 0 0 881 562496 -5631 0
0 0 0 870 563366 -4761 0
0 0 0 857 564223 -3904 0
0 0 0 856 565079 -3048 0
0 0 0 868 565947 -2180 0
32 1 S102 895 566842 -1285 0
32 1 S102 908 567750 -377 0
32 2 S102 887 568637 510 0
32 2 S102 887 569524 1397 0
32 2 S102 882 570406 2279 0
32 2 S102 819 571225 3098 0
32 2 S102 856 572081 3954 0
32 2 S102 846 572927 4800 0
32 2 S102 852 573779 5652 0
32 2 S102 891 574670 6543 0
0 0 0 865 575535 -11922 0
0 0 0 887 576422 -11035 0
0 0 0 933 577355 -10102 0
0 0 0 991 578346 -9111 0
0 0 0 977 579323 -8134 0
0 0 0 937 580260 -7197 0
0 0 0 951 581211 -6246 0
0 0 0 954 582165 -5292 0
0 0 0 916 583081 -4376 0
0 0 0 898 583979 -3478 0
0 0 0 895 584874 -2583 0
33 1 S112 909 585783 -1674 0
33 1 S112 953 586736 -721 0
33 2 S112 967 587703 246 0
33 2 S112 974 588677 1220 0
33 2 S112 979 589656 2199 0
33 2 S112 999 590655 3198 0
33 2 S112 1000 591655 4198 0
33 2 S112 994 592649 5192 0
33 2 S112 1019 593668 6211 0
0 0 0 1028 594696 -12937 0
0 0 0 1012 595708 -11925 0
0 0 0 950 596658 -10975 0
0 0 0 923 597581 -10052 0
0 0 0 970 598551 -9082 0
0 0 0 970 599521 -8112 0
0 0 0 953 600474 -7159 0
0 0 0 930 601404 -6229 0
0 0 0 960 602364 -5269 0
0 0 0 949 603313 -4320 0
0 0 0 928 604241 -3392 0
0 0 0 966 605207 -2426 0
34 1 S106 1001 606208 -1425 0
34 1 S106 1023 607231 -402 0
34 2 S106 1019 608250 617 0
34 2 S106 1077 609327 1694 0
34 2 S106 1075 610402 2769 0
34 2 S106 1040 611442 3809 0
34 2 S106 1046 612488 4855 0
34 2 S106 1046 613534 5901 0
34 2 S106 993 614527 6894 0
0 0 0 971 615498 -10173 0
0 0 0 958 616456 -9215 0
0 0 0 969 617425 -8246 0
0 0 0 954 618379 -7292 0
0 0 0 979 619358 -6313 0
0 0 0 981 620339 -5332 0
0 0 0 967 621306 -4365 0
0 0 0 995 622301 -3370 0
0 0 0 986 623287 -2384 0
35 1 S102 958 624245 -1426 0
35 1 S102 957 625202 -469 0
35 2 S102 959 626161 490 0
35 2 S102 927 627088 1417 0
35 2 S102 921 628009 2338 0
35 2 S102 958 628967 3296 0
35 2 S102 979 629946 4275 0
35 2 S102 971 630917 5246 0
35 2 S102 979 631896 6225 0
0 0 0 1002 632898 -8307 0
0 0 0 1003 633901 -7304 0
0 0 0 970 634871 -6334 0
0 0 0 995 635866 -5339 0
0 0 0 991 636857 -4348 0
0 0 0 952 637809 -3396 0
0 0 0 957 638766 -2439 0
36 1 S106 952 639718 -1487 0
36 1 S106 924 640642 -563 0
36 2 S106 946 641588 383 0
36 2 S106 959 642547 1342 0
36 2 S106 960 643507 2302 0
36 2 S106 972 644479 3274 0
36 2 S106 982 645461 4256 0
36 2 S106 975 646436 5231 0
36 2 S106 976 647412 6207 0
0 0 0 992 648404 -11037 0
0 0 0 1002 649406 -10035 0
0 0 0 965 650371 -9070 0
0 0 0 974 651345 -8096 0
0 0 0 986 652331 -7110 0
0 0 0 956 653287 -6154 0
0 0 0 924 654211 -5230 0
0 0 0 936 655147 -4294 0
0 0 0 907 656054 -3387 0
0 0 0 871 656925 -2516 0
37 1 S116 876 657801 -1640 0
37 1 S116 858 658659 -782 0
37 2 S116 836 659495 54 0
37 2 S116 827 660322 881 0
37 2 S116 822 661144 1703 0
37 2 S116 896 662040 2599 0
37 2 S116 914 662954 3513 0
37 2 S116 894 663848 4407 0
37 2 S116 905 664753 5312 0
37 2 S116 933 665686 6245 0
0 0 0 937 666623 -12132 0
0 0 0 928 667551 -11204 0
0 0 0 913 668464 -10291 0
0 0 0 947 669411 -9344 0
0 0 0 966 670377 -8378 0
0 0 0 945 671322 -7433 0
0 0 0 961 672283 -6472 0
0 0 0 979 673262 -5493 0
0 0 0 936 674198 -4557 0
0 0 0 946 675144 -3611 0
0 0 0 966 676110 -2645 0
38 1 S102 942 677052 -1703 0
38 1 S102 964 678016 -739 0
38 2 S102 960 678976 221 0
38 2 S102 940 679916 1161 0
38 2 S102 927 680843 2088 0
38 2 S102 905 681748 2993 0
38 2 S102 917 682665 3910 0
38 2 S102 941 683606 4851 0
38 2 S102 918 684524 5769 0
38 2 S102 935 685459 6704 0
0 0 0 960 686419 -10887 0
0 0 0 957 687376 -9930 0
0 0 0 938 688314 -8992 0
0 0 0 955 689269 -8037 0
0 0 0 1000 690269 -7037 0
0 0 0 956 691225 -6081 0
0 0 0 920 692145 -5161 0
0 0 0 931 693076 -4230 0
0 0 0 923 693999 -3307 0
0 0 0 894 694893 -2413 0
39 1 S116 913 695806 -1500 0
39 1 S116 934 696740 -566 0
39 2 S116 942 697682 376 0
39 2 S116 948 698630 1324 0
39 2 S116 990 699620 2314 0
39 2 S116 1012 700632 3326 0
39 2 S116 994 701626 4320 0
39 2 S116 1014 702640 5334 0
39 2 S116 1047 703687 6381 0
0 0 0 1001 704688 -9163 0
0 0 0 977 705665 -8186 0
0 0 0 963 706628 -7223 0
0 0 0 929 707557 -6294 0
0 0 0 935 708492 -5359 0
0 0 0 932 709424 -4427 0
0 0 0 897 710321 -3530 0
0 0 0 883 711204 -2647 0
40 1 S112 911 712115 -1736 0
40 1 S112 905 713020 -831 0
40 2 S112 902 713922 71 0
40 2 S112 952 714874 1023 0
40 2 S112 1006 715880 2029 0
40 2 S112 995 716875 3024 0
40 2 S112 987 717862 4011 0
40 2 S112 1010 718872 5021 0
40 2 S112 1007 719879 6028 0
40 2 S112 972 720851 7000 0
0 0 0 980 721831 -188092 0
0 0 0 951 722782 -187141 0
0 0 0 914 723696 -186227 0
0 0 0 933 724629 -185294 0
0 0 0 949 725578 -184345 0
0 0 0 950 726528 -183395 0
0 0 0 907 727435 -182488 0
0 0 0 865 728300 -181623 0
0 0 0 838 729138 -180785 0
0 0 0 989 730127 -179796 0
0 0 0 930 731057 -178866 0
0 0 0 896 731953 -177970 0
0 0 0 917 732870 -177053 0
0 0 0 936 733806 -176117 0
0 0 0 958 734764 -175159 0
0 0 0 933 735697 -174226 0
0 0 0 948 736645 -173278 0
0 0 0 939 737584 -172339 0
0 0 0 922 738506 -171417 0
0 0 0 910 739416 -170507 0
0 0 0 922 740338 -169585 0
0 0 0 946 741284 -168639 0
0 0 0 946 742230 -167693 0
0 0 0 983 743213 -166710 0
0 0 0 1020 744233 -165690 0
0 0 0 1028 745261 -164662 0
0 0 0 992 746253 -163670 0
0 0 0 1005 747258 -162665 0
0 0 0 1001 748259 -161664 0
0 0 0 965 749224 -160699 0
0 0 0 927 750151 -159772 0
0 0 0 918 751069 -158854 0
0 0 0 912 751981 -157942 0
0 0 0 889 752870 -157053 0
0 0 0 932 753802 -156121 0
0 0 0 959 754761 -155162 0
0 0 0 959 755720 -154203 0
0 0 0 956 756676 -153247 0
0 0 0 982 757658 -152265 0
0 0 0 1001 758659 -151264 0
0 0 0 973 759632 -150291 0
0 0 0 974 760606 -149317 0
0 0 0 977 761583 -148340 0
0 0 0 949 762532 -147391 0
0 0 0 926 763458 -146465 0
0 0 0 937 764395 -145528 0
0 0 0 921 765316 -144607 0
0 0 0 931 766247 -143676 0
0 0 0 943 767190 -142733 0
0 0 0 921 768111 -141812 0
0 0 0 923 769034 -140889 0
0 0 0 962 769996 -139927 0
0 0 0 998 770994 -138929 0
0 0 0 1009 772003 -137920 0
0 0 0 1063 773066 -136857 0
0 0 0 1103 774169 -135754 1
0 0 0 1071 775240 -134683 0
0 0 0 1036 776276 -133647 0
0 0 0 1052 777328 -132595 0
0 0 0 992 778320 -131603 0
0 0 0 948 779268 -130655 0
0 0 0 937 780205 -129718 0
0 0 0 906 781111 -128812 0
0 0 0 824 781935 -127988 0
0 0 0 808 782743 -127180 1
0 0 0 801 783544 -126379 1
0 0 0 784 784328 -125595 1
0 0 0 772 785100 -124823 1
0 0 0 873 785973 -123950 0
0 0 0 854 786827 -123096 0
0 0 0 810 787637 -122286 1
0 0 0 818 788455 -121468 0
0 0 0 783 789238 -120685 1
0 0 0 756 789994 -119929 1
0 0 0 793 790787 -119136 1
0 0 0 825 791612 -118311 0
0 0 0 844 792456 -117467 0
0 0 0 847 793303 -116620 0
0 0 0 866 794169 -115754 0
0 0 0 830 794999 -114924 0
0 0 0 819 795818 -114105 0
0 0 0 849 796667 -113256 0
0 0 0 870 797537 -112386 0
0 0 0 916 798453 -111470 0
0 0 0 890 799343 -110580 0
0 0 0 898 800241 -109682 0
0 0 0 908 801149 -108774 0
0 0 0 916 802065 -107858 0
0 0 0 930 802995 -106928 0
0 0 0 945 803940 -105983 0
0 0 0 946 804886 -105037 0
0 0 0 933 805819 -104104 0
0 0 0 928 806747 -103176 0
0 0 0 917 807664 -102259 0
0 0 0 916 808580 -101343 0
0 0 0 905 809485 -100438 0
0 0 0 919 810404 -99519 0
0 0 0 997 811401 -98522 0
0 0 0 1010 812411 -97512 0
0 0 0 992 813403 -96520 0
0 0 0 1014 814417 -95506 0
0 0 0 1044 815461 -94462 0
0 0 0 1050 816511 -93412 0
0 0 0 1032 817543 -92380 0
0 0 0 1004 818547 -91376 0
0 0 0 1001 819548 -90375 0
0 0 0 1007 820555 -89368 0
0 0 0 985 821540 -88383 0
0 0 0 953 822493 -87430 0
0 0 0 966 823459 -86464 0
0 0 0 976 824435 -85488 0
0 0 0 963 825398 -84525 0
0 0 0 963 826361 -83562 0
0 0 0 985 827346 -82577 0
0 0 0 985 828331 -81592 0
0 0 0 969 829300 -80623 0
0 0 0 984 830284 -79639 0
0 0 0 984 831268 -78655 0
0 0 0 946 832214 -77709 0
0 0 0 952 833166 -76757 0
0 0 0 972 834138 -75785 0
0 0 0 977 835115 -74808 0
0 0 0 975 836090 -73833 0
0 0 0 1015 837105 -72818 0
0 0 0 1036 838141 -71782 0
0 0 0 1023 839164 -70759 0
0 0 0 1030 840194 -69729 0
0 0 0 1020 841214 -68709 0
0 0 0 979 842193 -67730 0
0 0 0 937 843130 -66793 0
0 0 0 928 844058 -65865 0
0 0 0 925 844983 -64940 0
0 0 0 912 845895 -64028 0
0 0 0 902 846797 -63126 0
0 0 0 930 847727 -62196 0
0 0 0 953 848680 -61243 0
0 0 0 960 849640 -60283 0
0 0 0 942 850582 -59341 0
0 0 0 964 851546 -58377 0
0 0 0 966 852512 -57411 0
0 0 0 946 853458 -56465 0
0 0 0 946 854404 -55519 0
0 0 0 949 855353 -54570 0
0 0 0 957 856310 -53613 0
0 0 0 952 857262 -52661 0
0 0 0 964 858226 -51697 0
0 0 0 971 859197 -50726 0
0 0 0 943 860140 -49783 0
0 0 0 927 861067 -48856 0
0 0 0 877 861944 -47979 0
0 0 0 826 862770 -47153 0
0 0 0 888 863658 -46265 0
0 0 0 827 864485 -45438 0
0 0 0 781 865266 -44657 1
0 0 0 758 866024 -43899 1
0 0 0 774 866798 -43125 1
0 0 0 804 867602 -42321 1
0 0 0 819 868421 -41502 0
0 0 0 911 869332 -40591 0
0 0 0 952 870284 -39639 0
0 0 0 1026 871310 -38613 0
0 0 0 994 872304 -37619 0
0 0 0 969 873273 -36650 0
0 0 0 968 874241 -35682 0
0 0 0 916 875157 -34766 0
0 0 0 887 876044 -33879 0
0 0 0 879 876923 -33000 0
0 0 0 892 877815 -32108 0
0 0 0 921 878736 -31187 0
0 0 0 914 879650 -30273 0
0 0 0 929 880579 -29344 0
0 0 0 944 881523 -28400 0
0 0 0 966 882489 -27434 0
0 0 0 984 883473 -26450 0
0 0 0 987 884460 -25463 0
0 0 0 991 885451 -24472 0
0 0 0 1006 886457 -23466 0
0 0 0 1023 887480 -22443 0
0 0 0 1042 888522 -21401 0
0 0 0 1037 889559 -20364 0
0 0 0 1036 890595 -19328 0
0 0 0 1035 891630 -18293 0
0 0 0 972 892602 -17321 0
0 0 0 971 893573 -16350 0
0 0 0 968 894541 -15382 0
0 0 0 937 895478 -14445 0
0 0 0 917 896395 -13528 0
0 0 0 947 897342 -12581 0
0 0 0 972 898314 -11609 0
0 0 0 1015 899329 -10594 0
0 0 0 997 900326 -9597 0
0 0 0 1009 901335 -8588 0
0 0 0 1031 902366 -7557 0
0 0 0 1024 903390 -6533 0
0 0 0 977 904367 -5556 0
0 0 0 959 905326 -4597 0
0 0 0 958 906284 -3639 0
0 0 0 926 907210 -2713 0
41 1 S102 886 908096 -1827 0
41 1 S102 908 909004 -919 0
41 1 S102 910 909914 -9 0
41 2 S102 932 910846 923 0
41 2 S102 950 911796 1873 0
41 2 S102 1008 912804 2881 0
41 2 S102 1062 913866 3943 0
41 2 S102 1071 914937 5014 0
41 2 S102 1027 915964 6041 0
0 0 0 1044 917008 -7786 0
0 0 0 1036 918044 -6750 0
0 0 0 985 919029 -5765 0
0 0 0 988 920017 -4777 0
0 0 0 967 920984 -3810 0
0 0 0 941 921925 -2869 0
42 1 S112 932 922857 -1937 0
42 1 S112 945 923802 -992 0
42 1 S112 922 924724 -70 0
42 2 S112 900 925624 830 0
42 2 S112 936 926560 1766 0
42 2 S112 990 927550 2756 0
42 2 S112 1010 928560 3766 0
42 2 S112 989 929549 4755 0
42 2 S112 1010 930559 5765 0
42 2 S112 1040 931599 6805 0
0 0 0 1022 932621 -8702 0
0 0 0 1005 933626 -7697 0
0 0 0 998 934624 -6699 0
0 0 0 950 935574 -5749 0
0 0 0 943 936517 -4806 0
0 0 0 943 937460 -3863 0
0 0 0 947 938407 -2916 0
43 1 S116 932 939339 -1984 0
43 1 S116 942 940281 -1042 0
43 1 S116 917 941198 -125 0
43 2 S116 906 942104 781 0
43 2 S116 955 943059 1736 0
43 2 S116 956 944015 2692 0
43 2 S116 1001 945016 3693 0
43 2 S116 1035 946051 4728 0
43 2 S116 1014 947065 5742 0
43 2 S116 972 948037 6714 0
0 0 0 980 949017 -7956 0
0 0 0 962 949979 -6994 0
0 0 0 937 950916 -6057 0
0 0 0 955 951871 -5102 0
0 0 0 959 952830 -4143 0
0 0 0 963 953793 -3180 0
0 0 0 937 954730 -2243 0
44 1 S102 965 955695 -1278 0
44 1 S102 969 956664 -309 0
44 2 S102 950 957614 641 0
44 2 S102 972 958586 1613 0
44 2 S102 996 959582 2609 0
44 2 S102 1035 960617 3644 0
44 2 S102 1005 961622 4649 0
44 2 S102 1018 962640 5667 0
44 2 S102 1042 963682 6709 0
0 0 0 1023 964705 -9758 0
0 0 0 977 965682 -8781 0
0 0 0 976 966658 -7805 0
0 0 0 981 967639 -6824 0
0 0 0 937 968576 -5887 0
0 0 0 947 969523 -4940 0
0 0 0 947 970470 -3993 0
0 0 0 936 971406 -3057 0
0 0 0 941 972347 -2116 0
45 1 S116 963 973310 -1153 0
45 1 S116 968 974278 -185 0
45 2 S116 978 975256 793 0
45 2 S116 1030 976286 1823 0
45 2 S116 1033 977319 2856 0
45 2 S116 1005 978324 3861 0
45 2 S116 1008 979332 4869 0
45 2 S116 1015 980347 5884 0
45 2 S116 1001 981348 6885 0
0 0 0 990 982338 -11903 0
0 0 0 1004 983342 -10899 0
0 0 0 1003 984345 -9896 0
0 0 0 990 985335 -8906 0
0 0 0 977 986312 -7929 0
0 0 0 948 987260 -6981 0
0 0 0 922 988182 -6059 0
0 0 0 929 989111 -5130 0
0 0 0 932 990043 -4198 0
0 0 0 934 990977 -3264 0
0 0 0 964 991941 -2300 0
46 1 S102 995 992936 -1305 0
46 1 S102 992 993928 -313 0
46 2 S102 986 994914 673 0
46 2 S102 1017 995931 1690 0
46 2 S102 1018 996949 2708 0
46 2 S102 990 997939 3698 0
46 2 S102 1000 998939 4698 0
46 2 S102 1003 999942 5701 0
46 2 S102 982 1000924 6683 0
0 0 0 986 1001910 -10932 0
0 0 0 983 1002893 -9949 0
0 0 0 965 1003858 -8984 0
0 0 0 960 1004818 -8024 0
0 0 0 978 1005796 -7046 0
0 0 0 927 1006723 -6119 0
0 0 0 913 1007636 -5206 0
0 0 0 919 1008555 -4287 0
0 0 0 899 1009454 -3388 0
0 0 0 877 1010331 -2511 0
47 1 S112 889 1011220 -1622 0
47 1 S112 910 1012130 -712 0
47 2 S112 950 1013080 238 0
47 2 S112 953 1014033 1191 0
47 2 S112 1029 1015062 2220 0
47 2 S112 1087 1016149 3307 1
47 2 S112 1083 1017232 4390 1
47 2 S112 1036 1018268 5426 0
47 2 S112 1038 1019306 6464 0
0 0 0 1021 1020327 -10519 0
0 0 0 968 1021295 -9551 0
0 0 0 967 1022262 -8584 0
0 0 0 961 1023223 -7623 0
0 0 0 945 1024168 -6678 0
0 0 0 942 1025110 -5736 0
0 0 0 985 1026095 -4751 0
0 0 0 1006 1027101 -3745 0
0 0 0 996 1028097 -2749 0
48 1 S116 979 1029076 -1770 0
48 1 S116 1014 1030090 -756 0
48 2 S116 1017 1031107 261 0
48 2 S116 997 1032104 1258 0
48 2 S116 1020 1033124 2278 0
48 2 S116 1036 1034160 3314 0
48 2 S116 994 1035154 4308 0
48 2 S116 993 1036147 5301 0
48 2 S116 987 1037134 6288 0
0 0 0 990 1038124 -9085 0
0 0 0 973 1039097 -8112 0
0 0 0 970 1040067 -7142 0
0 0 0 960 1041027 -6182 0
0 0 0 964 1041991 -5218 0
0 0 0 966 1042957 -4252 0
0 0 0 945 1043902 -3307 0
0 0 0 918 1044820 -2389 0
49 1 S112 931 1045751 -1458 0
49 1 S112 911 1046662 -547 0
49 2 S112 879 1047541 332 0
49 2 S112 867 1048408 1199 0
49 2 S112 887 1049295 2086 0
49 2 S112 915 1050210 3001 0
49 2 S112 956 1051166 3957 0
49 2 S112 966 1052132 4923 0
49 2 S112 986 1053118 5909 0
49 2 S112 1002 1054120 6911 0
0 0 0 979 1055099 -11175 0
0 0 0 945 1056044 -10230 0
0 0 0 945 1056989 -9285 0
0 0 0 922 1057911 -8363 0
0 0 0 887 1058798 -7476 0
0 0 0 895 1059693 -6581 0
0 0 0 896 1060589 -5685 0
0 0 0 871 1061460 -4814 0
0 0 0 884 1062344 -3930 0
0 0 0 916 1063260 -3014 0
0 0 0 957 1064217 -2057 0
50 1 S106 956 1065173 -1101 0
50 1 S106 1019 1066192 -82 0
50 2 S106 1064 1067256 982 0
50 2 S106 1014 1068270 1996 0
50 2 S106 959 1069229 2955 0
50 2 S106 986 1070215 3941 0
50 2 S106 1004 1071219 4945 0
50 2 S106 1012 1072231 5957 0
50 2 S106 982 1073213 6939 0
0 0 0 975 1074188 -7736 0
0 0 0 960 1075148 -6776 0
0 0 0 945 1076093 -5831 0
0 0 0 940 1077033 -4891 0
0 0 0 942 1077975 -3949 0
0 0 0 965 1078940 -2984 0
0 0 0 943 1079883 -2041 0
51 1 S112 975 1080858 -1066 0
51 1 S112 994 1081852 -72 0
51 2 S112 991 1082843 919 0
51 2 S112 1005 1083848 1924 0
51 2 S112 1051 1084899 2975 0
51 2 S112 1059 1085958 4034 0
51 2 S112 1045 1087003 5079 0
51 2 S112 1043 1088046 6122 0
0 0 0 1040 1089086 -8720 0
0 0 0 1021 1090107 -7699 0
0 0 0 973 1091080 -6726 0
0 0 0 968 1092048 -5758 0
0 0 0 961 1093009 -4797 0
0 0 0 917 1093926 -3880 0
0 0 0 926 1094852 -2954 0
0 0 0 927 1095779 -2027 0
52 1 S116 894 1096673 -1133 0
52 1 S116 883 1097556 -250 0
52 2 S116 886 1098442 636 0
52 2 S116 891 1099333 1527 0
52 2 S116 894 1100227 2421 0
52 2 S116 924 1101151 3345 0
52 2 S116 957 1102108 4302 0
52 2 S116 966 1103074 5268 0
52 2 S116 953 1104027 6221 0
0 0 0 956 1104983 -10661 0
0 0 0 960 1105943 -9701 0
0 0 0 942 1106885 -8759 0
0 0 0 921 1107806 -7838 0
0 0 0 922 1108728 -6916 0
0 0 0 899 1109627 -6017 0
0 0 0 886 1110513 -5131 0
0 0 0 894 1111407 -4237 0
0 0 0 912 1112319 -3325 0
0 0 0 956 1113275 -2369 0
53 1 S106 956 1114231 -1413 0
53 1 S106 979 1115210 -434 0
53 2 S106 1036 1116246 602 0
53 2 S106 1040 1117286 1642 0
53 2 S106 1015 1118301 2657 0
53 2 S106 1024 1119325 3681 0
53 2 S106 1015 1120340 4696 0
53 2 S106 973 1121313 5669 0
53 2 S106 993 1122306 6662 0
0 0 0 1017 1123323 -7491 0
0 0 0 981 1124304 -6510 0
0 0 0 972 1125276 -5538 0
0 0 0 985 1126261 -4553 0
0 0 0 947 1127208 -3606 0
0 0 0 922 1128130 -2684 0
54 1 S102 916 1129046 -1768 0
54 1 S102 901 1129947 -867 0
54 2 S102 876 1130823 9 0
54 2 S102 876 1131699 885 0
54 2 S102 900 1132599 1785 0
54 2 S102 969 1133568 2754 0
54 2 S102 947 1134515 3701 0
54 2 S102 971 1135486 4672 0
54 2 S102 1066 1136552 5738 0
54 2 S102 1099 1137651 6837 1
0 0 0 1052 1138703 -11822 0
0 0 0 1032 1139735 -10790 0
0 0 0 1028 1140763 -9762 0
0 0 0 993 1141756 -8769 0
0 0 0 969 1142725 -7800 0
0 0 0 962 1143687 -6838 0
0 0 0 938 1144625 -5900 0
0 0 0 894 1145519 -5006 0
0 0 0 898 1146417 -4108 0
0 0 0 918 1147335 -3190 0
0 0 0 937 1148272 -2253 0
55 1 S106 938 1149210 -1315 0
55 1 S106 991 1150201 -324 0
55 2 S106 1001 1151202 677 0
55 2 S106 1001 1152203 1678 0
55 2 S106 983 1153186 2661 0
55 2 S106 979 1154165 3640 0
55 2 S106 976 1155141 4616 0
55 2 S106 954 1156095 5570 0
55 2 S106 962 1157057 6532 0
0 0 0 968 1158025 -7902 0
0 0 0 955 1158980 -6947 0
0 0 0 938 1159918 -6009 0
0 0 0 978 1160896 -5031 0
0 0 0 962 1161858 -4069 0
0 0 0 926 1162784 -3143 0
0 0 0 899 1163683 -2244 0
56 1 S116 913 1164596 -1331 0
56 1 S116 921 1165517 -410 0
56 2 S116 902 1166419 492 0
56 2 S116 902 1167321 1394 0
56 2 S116 936 1168257 2330 0
56 2 S116 935 1169192 3265 0
56 2 S116 926 1170118 4191 0
56 2 S116 969 1171087 5160 0
56 2 S116 994 1172081 6154 0
0 0 0 991 1173072 -8007 0
0 0 0 987 1174059 -7020 0
0 0 0 1007 1175066 -6013 0
0 0 0 1004 1176070 -5009 0
0 0 0 971 1177041 -4038 0
0 0 0 976 1178017 -3062 0
0 0 0 981 1178998 -2081 0
57 1 S106 946 1179944 -1135 0
57 1 S106 947 1180891 -188 0
57 2 S106 941 1181832 753 0
57 2 S106 949 1182781 1702 0
57 2 S106 938 1183719 2640 0
57 2 S106 966 1184685 3606 0
57 2 S106 1002 1185687 4608 0
57 2 S106 994 1186681 5602 0
57 2 S106 968 1187649 6570 0
0 0 0 979 1188628 -9461 0
0 0 0 982 1189610 -8479 0
0 0 0 955 1190565 -7524 0
0 0 0 961 1191526 -6563 0
0 0 0 950 1192476 -5613 0
0 0 0 932 1193408 -4681 0
0 0 0 917 1194325 -3764 0
0 0 0 935 1195260 -2829 0
58 1 S102 935 1196195 -1894 0
58 1 S102 911 1197106 -983 0
58 1 S102 915 1198021 -68 0
58 2 S102 927 1198948 859 0
58 2 S102 946 1199894 1805 0
58 2 S102 915 1200809 2720 0
58 2 S102 943 1201752 3663 0
58 2 S102 947 1202699 4610 0
58 2 S102 946 1203645 5556 0
58 2 S102 964 1204609 6520 0
0 0 0 954 1205563 -7297 0
0 0 0 927 1206490 -6370 0
0 0 0 928 1207418 -5442 0
0 0 0 929 1208347 -4513 0
0 0 0 890 1209237 -3623 0
0 0 0 877 1210114 -2746 0
59 1 S112 884 1210998 -1862 0
59 1 S112 906 1211904 -956 0
59 1 S112 894 1212798 -62 0
59 2 S112 885 1213683 823 0
59 2 S112 922 1214605 1745 0
59 2 S112 923 1215528 2668 0
59 2 S112 928 1216456 3596 0
59 2 S112 959 1217415 4555 0
59 2 S112 981 1218396 5536 0
59 2 S112 980 1219376 6516 0
0 0 0 972 1220348 -10549 0
0 0 0 964 1221312 -9585 0
0 0 0 969 1222281 -8616 0
0 0 0 938 1223219 -7678 0
0 0 0 943 1224162 -6735 0
0 0 0 926 1225088 -5809 0
0 0 0 901 1225989 -4908 0
0 0 0 898 1226887 -4010 0
0 0 0 902 1227789 -3108 0
0 0 0 919 1228708 -2189 0
60 1 S102 927 1229635 -1262 0
60 1 S102 954 1230589 -308 0
60 2 S102 978 1231567 670 0
60 2 S102 991 1232558 1661 0
60 2 S102 979 1233537 2640 0
60 2 S102 998 1234535 3638 0
60 2 S102 1024 1235559 4662 0
60 2 S102 1003 1236562 5665 0
60 2 S102 992 1237554 6657 0
0 0 0 996 1238550 -11429 0
0 0 0 992 1239542 -10437 0
0 0 0 969 1240511 -9468 0
0 0 0 978 1241489 -8490 0
0 0 0 942 1242431 -7548 0
0 0 0 913 1243344 -6635 0
0 0 0 911 1244255 -5724 0
0 0 0 917 1245172 -4807 0
0 0 0 906 1246078 -3901 0
0 0 0 885 1246963 -3016 0
0 0 0 915 1247878 -2101 0
61 1 S106 946 1248824 -1155 0
61 1 S106 968 1249792 -187 0
61 2 S106 962 1250754 775 0
61 2 S106 990 1251744 1765 0
61 2 S106 1003 1252747 2768 0
61 2 S106 992 1253739 3760 0
61 2 S106 962 1254701 4722 0
61 2 S106 968 1255669 5690 0
61 2 S106 965 1256634 6655 0
0 0 0 953 1257587 -8473 0
0 0 0 933 1258520 -7540 0
0 0 0 933 1259453 -6607 0
0 0 0 931 1260384 -5676 0
0 0 0 910 1261294 -4766 0
0 0 0 899 1262193 -3867 0
0 0 0 895 1263088 -2972 0
0 0 0 867 1263955 -2105 0
62 1 S112 848 1264803 -1257 0
62 1 S112 784 1265587 -473 1
62 2 S112 816 1266403 343 1
62 2 S112 839 1267242 1182 0
62 2 S112 871 1268113 2053 0
62 2 S112 932 1269045 2985 0
62 2 S112 987 1270032 3972 0
62 2 S112 999 1271031 4971 0
62 2 S112 1009 1272040 5980 0
62 2 S112 987 1273027 6967 0
0 0 0 977 1274004 -11337 0
0 0 0 956 1274960 -10381 0
0 0 0 925 1275885 -9456 0
0 0 0 897 1276782 -8559 0
0 0 0 887 1277669 -7672 0
0 0 0 874 1278543 -6798 0
0 0 0 868 1279411 -5930 0
0 0 0 878 1280289 -5052 0
0 0 0 900 1281189 -4152 0
0 0 0 930 1282119 -3222 0
0 0 0 933 1283052 -2289 0
63 1 S102 961 1284013 -1328 0
63 1 S102 991 1285004 -337 0
63 2 S102 991 1285995 654 0
63 2 S102 982 1286977 1636 0
63 2 S102 982 1287959 2618 0
63 2 S102 990 1288949 3608 0
63 2 S102 988 1289937 4596 0
63 2 S102 960 1290897 5556 0
63 2 S102 970 1291867 6526 0
0 0 0 968 1292835 -9664 0
0 0 0 963 1293798 -8701 0
0 0 0 929 1294727 -7772 0
0 0 0 940 1295667 -6832 0
0 0 0 922 1296589 -5910 0
0 0 0 884 1297473 -5026 0
0 0 0 882 1298355 -4144 0
0 0 0 877 1299232 -3267 0
0 0 0 881 1300113 -2386 0
64 1 S112 878 1300991 -1508 0
64 1 S112 920 1301911 -588 0
64 2 S112 963 1302874 375 0
64 2 S112 953 1303827 1328 0
64 2 S112 977 1304804 2305 0
64 2 S112 1016 1305820 3321 0
64 2 S112 1031 1306851 4352 0
64 2 S112 1002 1307853 5354 0
64 2 S112 1001 1308854 6355 0
0 0 0 980 1309834 -8780 0
0 0 0 942 1310776 -7838 0
0 0 0 924 1311700 -6914 0
0 0 0 922 1312622 -5992 0
0 0 0 934 1313556 -5058 0
0 0 0 911 1314467 -4147 0
0 0 0 914 1315381 -3233 0
0 0 0 914 1316295 -2319 0
65 1 S106 895 1317190 -1424 0
65 1 S106 889 1318079 -535 0
65 2 S106 926 1319005 391 0
65 2 S106 917 1319922 1308 0
65 2 S106 943 1320865 2251 0
65 2 S106 963 1321828 3214 0
65 2 S106 964 1322792 4178 0
65 2 S106 953 1323745 5131 0
65 2 S106 976 1324721 6107 0
0 0 0 982 1325703 -8395 0
0 0 0 959 1326662 -7436 0
0 0 0 954 1327616 -6482 0
0 0 0 947 1328563 -5535 0
0 0 0 942 1329505 -4593 0
0 0 0 900 1330405 -3693 0
0 0 0 899 1331304 -2794 0
66 1 S116 874 1332178 -1920 0
66 1 S116 834 1333012 -1086 0
66 1 S116 773 1333785 -313 1
66 2 S116 791 1334576 478 1
66 2 S116 816 1335392 1294 1
66 2 S116 953 1336345 2247 0
66 2 S116 948 1337293 3195 0
66 2 S116 968 1338261 4163 0
66 2 S116 1041 1339302 5204 0
66 2 S116 1056 1340358 6260 0
0 0 0 1033 1341391 -12269 0
0 0 0 1027 1342418 -11242 0
0 0 0 1012 1343430 -10230 0
0 0 0 978 1344408 -9252 0
0 0 0 958 1345366 -8294 0
0 0 0 927 1346293 -7367 0
0 0 0 892 1347185 -6475 0
0 0 0 883 1348068 -5592 0
0 0 0 886 1348954 -4706 0
0 0 0 910 1349864 -3796 0
0 0 0 940 1350804 -2856 0
67 1 S102 985 1351789 -1871 0
67 1 S102 1040 1352829 -831 0
67 2 S102 1015 1353844 184 0
67 2 S102 1054 1354898 1238 0
67 2 S102 1038 1355936 2276 0
67 2 S102 1006 1356942 3282 0
67 2 S102 1052 1357994 4334 0
67 2 S102 1069 1359063 5403 0
67 2 S102 1036 1360099 6439 0
0 0 0 1042 1361141 -8086 0
0 0 0 1022 1362163 -7064 0
0 0 0 984 1363147 -6080 0
0 0 0 966 1364113 -5114 0
0 0 0 957 1365070 -4157 0
0 0 0 935 1366005 -3222 0
0 0 0 902 1366907 -2320 0
68 1 S106 897 1367804 -1423 0
68 1 S106 890 1368694 -533 0
68 2 S106 872 1369566 339 0
68 2 S106 865 1370431 1204 0
68 2 S106 903 1371334 2107 0
68 2 S106 959 1372293 3066 0
68 2 S106 979 1373272 4045 0
68 2 S106 969 1374241 5014 0
68 2 S106 949 1375190 5963 0
68 2 S106 1001 1376191 6964 0
0 0 0 1026 1377217 -11258 0
0 0 0 1019 1378236 -10239 0
0 0 0 979 1379215 -9260 0
0 0 0 978 1380193 -8282 0
0 0 0 950 1381143 -7332 0
0 0 0 923 1382066 -6409 0
0 0 0 903 1382969 -5506 0
0 0 0 913 1383882 -4593 0
0 0 0 914 1384796 -3679 0
0 0 0 896 1385692 -2783 0
69 1 S102 934 1386626 -1849 0
69 1 S102 950 1387576 -899 0
69 2 S102 990 1388566 91 0
69 2 S102 991 1389557 1082 0
69 2 S102 1016 1390573 2098 0
69 2 S102 1024 1391597 3122 0
69 2 S102 994 1392591 4116 0
69 2 S102 1004 1393595 5120 0
69 2 S102 1002 1394597 6122 0
0 0 0 980 1395577 -10206 0
0 0 0 974 1396551 -9232 0
0 0 0 959 1397510 -8273 0
0 0 0 932 1398442 -7341 0
0 0 0 936 1399378 -6405 0
0 0 0 926 1400304 -5479 0
0 0 0 905 1401209 -4574 0
0 0 0 898 1402107 -3676 0
0 0 0 886 1402993 -2790 0
70 1 S112 877 1403870 -1913 0
70 1 S112 864 1404734 -1049 0
70 1 S112 864 1405598 -185 0
70 2 S112 882 1406480 697 0
70 2 S112 988 1407468 1685 0
70 2 S112 1014 1408482 2699 0
70 2 S112 1035 1409517 3734 0
70 2 S112 1027 1410544 4761 0
70 2 S112 1033 1411577 5794 0
70 2 S112 1019 1412596 6813 0
0 0 0 988 1413584 -12093 0
0 0 0 972 1414556 -11121 0
0 0 0 950 1415506 -10171 0
0 0 0 922 1416428 -9249 0
0 0 0 918 1417346 -8331 0
0 0 0 905 1418251 -7426 0
0 0 0 887 1419138 -6539 0
0 0 0 885 1420023 -5654 0
0 0 0 903 1420926 -4751 0
0 0 0 926 1421852 -3825 0
0 0 0 921 1422773 -2904 0
71 1 S116 952 1423725 -1952 0
71 1 S116 943 1424668 -1009 0
71 1 S116 930 1425598 -79 0
71 2 S116 936 1426534 857 0
71 2 S116 973 1427507 1830 0
71 2 S116 957 1428464 2787 0
71 2 S116 973 1429437 3760 0
71 2 S116 986 1430423 4746 0
71 2 S116 978 1431401 5724 0
71 2 S116 983 1432384 6707 0
0 0 0 998 1433382 -9437 0
0 0 0 999 1434381 -8438 0
0 0 0 963 1435344 -7475 0
0 0 0 978 1436322 -6497 0
0 0 0 993 1437315 -5504 0
0 0 0 1002 1438317 -4502 0
0 0 0 1047 1439364 -3455 0
0 0 0 1066 1440430 -2389 0
72 1 S102 1021 1441451 -1368 0
72 1 S102 1016 1442467 -352 0
72 2 S102 1038 1443505 686 0
72 2 S102 1051 1444556 1737 0
72 2 S102 1010 1445566 2747 0
72 2 S102 999 1446565 3746 0
72 2 S102 1013 1447578 4759 0
72 2 S102 1003 1448581 5762 0
72 2 S102 977 1449558 6739 0
0 0 0 999 1450557 -7166 0
0 0 0 1001 1451558 -6165 0
0 0 0 993 1452551 -5172 0
0 0 0 979 1453530 -4193 0
0 0 0 973 1454503 -3220 0
0 0 0 919 1455422 -2301 0
73 1 S116 918 1456340 -1383 0
73 1 S116 912 1457252 -471 0
73 2 S116 886 1458138 415 0
73 2 S116 903 1459041 1318 0
73 2 S116 942 1459983 2260 0
73 2 S116 993 1460976 3253 0
73 2 S116 997 1461973 4250 0
73 2 S116 994 1462967 5244 0
73 2 S116 1034 1464001 6278 0
0 0 0 1038 1465039 -10091 0
0 0 0 983 1466022 -9108 0
0 0 0 987 1467009 -8121 0
0 0 0 986 1467995 -7135 0
0 0 0 943 1468938 -6192 0
0 0 0 931 1469869 -5261 0
0 0 0 932 1470801 -4329 0
0 0 0 883 1471684 -3446 0
0 0 0 901 1472585 -2545 0
74 1 S106 904 1473489 -1641 0
74 1 S106 927 1474416 -714 0
74 2 S106 910 1475326 196 0
74 2 S106 910 1476236 1106 0
74 2 S106 965 1477201 2071 0
74 2 S106 971 1478172 3042 0
74 2 S106 1007 1479179 4049 0
74 2 S106 1022 1480201 5071 0
74 2 S106 1008 1481209 6079 0
0 0 0 1008 1482217 -9093 0
0 0 0 1007 1483224 -8086 0
0 0 0 987 1484211 -7099 0
0 0 0 955 1485166 -6144 0
0 0 0 966 1486132 -5178 0
0 0 0 956 1487088 -4222 0
0 0 0 944 1488032 -3278 0
0 0 0 908 1488940 -2370 0
75 1 S112 913 1489853 -1457 0
75 1 S112 909 1490762 -548 0
75 2 S112 917 1491679 369 0
75 2 S112 910 1492589 1279 0
75 2 S112 940 1493529 2219 0
75 2 S112 1004 1494533 3223 0
75 2 S112 1076 1495609 4299 0
75 2 S112 1076 1496685 5375 0
75 2 S112 1094 1497779 6469 1
0 0 0 1120 1498899 -6884 1
0 0 0 1093 1499992 -5791 1
0 0 0 1033 1501025 -4758 0
0 0 0 1024 1502049 -3734 0
0 0 0 1013 1503062 -2721 0
76 1 S116 981 1504043 -1740 0
76 1 S116 984 1505027 -756 0
76 2 S116 1034 1506061 278 0
76 2 S116 1090 1507151 1368 1
76 2 S116 1045 1508196 2413 0
76 2 S116 1072 1509268 3485 0
76 2 S116 1100 1510368 4585 1
76 2 S116 1071 1511439 5656 0
76 2 S116 1024 1512463 6680 0
0 0 0 1025 1513488 -8890 0
0 0 0 1027 1514515 -7863 0
0 0 0 978 1515493 -6885 0
0 0 0 988 1516481 -5897 0
0 0 0 1020 1517501 -4877 0
0 0 0 1018 1518519 -3859 0
0 0 0 994 1519513 -2865 0
77 1 S106 1010 1520523 -1855 0
77 1 S106 993 1521516 -862 0
77 2 S106 987 1522503 125 0
77 2 S106 1002 1523505 1127 0
77 2 S106 991 1524496 2118 0
77 2 S106 949 1525445 3067 0
77 2 S106 926 1526371 3993 0
77 2 S106 944 1527315 4937 0
77 2 S106 968 1528283 5905 0
77 2 S106 984 1529267 6889 0
0 0 0 969 1530236 -9152 0
0 0 0 967 1531203 -8185 0
0 0 0 981 1532184 -7204 0
0 0 0 940 1533124 -6264 0
0 0 0 897 1534021 -5367 0
0 0 0 889 1534910 -4478 0
0 0 0 890 1535800 -3588 0
0 0 0 883 1536683 -2705 0
78 1 S112 878 1537561 -1827 0
78 1 S112 921 1538482 -906 0
78 2 S112 968 1539450 62 0
78 2 S112 993 1540443 1055 0
78 2 S112 1001 1541444 2056 0
78 2 S112 1043 1542487 3099 0
78 2 S112 1051 1543538 4150 0
78 2 S112 1029 1544567 5179 0
78 2 S112 1017 1545584 6196 0
0 0 0 998 1546582 -12965 0
0 0 0 970 1547552 -11995 0
0 0 0 930 1548482 -11065 0
0 0 0 934 1549416 -10131 0
0 0 0 942 1550358 -9189 0
0 0 0 916 1551274 -8273 0
0 0 0 899 1552173 -7374 0
0 0 0 896 1553069 -6478 0
0 0 0 899 1553968 -5579 0
0 0 0 870 1554838 -4709 0
0 0 0 872 1555710 -3837 0
0 0 0 872 1556582 -2965 0
0 0 0 803 1557385 -2162 1
79 1 S102 818 1558203 -1344 0
79 1 S102 835 1559038 -509 0
79 2 S102 845 1559883 336 0
79 2 S102 834 1560717 1170 0
79 2 S102 795 1561512 1965 1
79 2 S102 837 1562349 2802 0
79 2 S102 850 1563199 3652 0
79 2 S102 831 1564030 4483 0
79 2 S102 801 1564831 5284 1
79 2 S102 825 1565656 6109 0
79 2 S102 859 1566515 6968 0
0 0 0 879 1567394 -9859 0
0 0 0 860 1568254 -8999 0
0 0 0 863 1569117 -8136 0
0 0 0 891 1570008 -7245 0
0 0 0 910 1570918 -6335 0
0 0 0 894 1571812 -5441 0
0 0 0 905 1572717 -4536 0
0 0 0 912 1573629 -3624 0
0 0 0 899 1574528 -2725 0
80 1 S116 886 1575414 -1839 0
80 1 S116 903 1576317 -936 0
80 1 S116 914 1577231 -22 0
80 2 S116 919 1578150 897 0
80 2 S116 941 1579091 1838 0
80 2 S116 975 1580066 2813 0
80 2 S116 999 1581065 3812 0
80 2 S116 1018 1582083 4830 0
80 2 S116 1019 1583102 5849 0
80 2 S116 1029 1584131 6878 0
