T_0044
BeatCount Mean SD BeatCountNoOutliers MeanNoOutliers SDNoOutliers
2094 749,948424068768 88,3536535652459 2077 747,448724121329 83,4323013185209

Trial TrialStatus Trialtype IBI AbsPosition RelPosition Outlier
0 0 0 687 691 -16402 0
0 0 0 673 1364 -15729 0
0 0 0 680 2044 -15049 0
0 0 0 657 2701 -14392 0
0 0 0 627 3328 -13765 0
0 0 0 605 3933 -13160 0
0 0 0 595 4528 -12565 0
0 0 0 597 5125 -11968 0
0 0 0 793 5918 -11175 0
0 0 0 919 6837 -10256 0
0 0 0 869 7706 -9387 0
0 0 0 877 8583 -8510 0
0 0 0 868 9451 -7642 0
0 0 0 859 10310 -6783 0
0 0 0 897 11207 -5886 0
0 0 0 911 12118 -4975 0
0 0 0 855 12973 -4120 0
0 0 0 845 13818 -3275 0
0 0 0 829 14647 -2446 0
1 1 S112 803 15450 -1643 0
1 1 S112 781 16231 -862 0
1 1 S112 765 16996 -97 0
1 2 S112 769 17765 672 0
1 2 S112 753 18518 1425 0
1 2 S112 771 19289 2196 0
1 2 S112 760 20049 2956 0
1 2 S112 793 20842 3749 0
1 2 S112 787 21629 4536 0
1 2 S112 827 22456 5363 0
1 2 S112 802 23258 6165 0
1 2 S112 789 24047 6954 0
0 0 0 840 24887 -11984 0
0 0 0 834 25721 -11150 0
0 0 0 733 26454 -10417 0
0 0 0 710 27164 -9707 0
0 0 0 727 27891 -8980 0
0 0 0 712 28603 -8268 0
0 0 0 676 29279 -7592 0
0 0 0 648 29927 -6944 0
0 0 0 623 30550 -6321 0
0 0 0 637 31187 -5684 0
0 0 0 673 31860 -5011 0
0 0 0 679 32539 -4332 0
0 0 0 712 33251 -3620 0
0 0 0 701 33952 -2919 0
0 0 0 693 34645 -2226 0
2 1 S102 715 35360 -1511 0
2 1 S102 719 36079 -792 0
2 1 S102 734 36813 -58 0
2 2 S102 692 37505 634 0
2 2 S102 734 38239 1368 0
2 2 S102 707 38946 2075 0
2 2 S102 768 39714 2843 0
2 2 S102 737 40451 3580 0
2 2 S102 790 41241 4370 0
2 2 S102 699 41940 5069 0
2 2 S102 767 42707 5836 0
2 2 S102 765 43472 6601 0
0 0 0 826 44298 -10726 0
0 0 0 806 45104 -9920 0
0 0 0 844 45948 -9076 0
0 0 0 928 46876 -8148 0
0 0 0 940 47816 -7208 0
0 0 0 845 48661 -6363 0
0 0 0 786 49447 -5577 0
0 0 0 771 50218 -4806 0
0 0 0 719 50937 -4087 0
0 0 0 699 51636 -3388 0
0 0 0 709 52345 -2679 0
3 1 S116 711 53056 -1968 0
3 1 S116 702 53758 -1266 0
3 1 S116 660 54418 -606 0
3 2 S116 715 55133 109 0
3 2 S116 715 55848 824 0
3 2 S116 842 56690 1666 0
3 2 S116 817 57507 2483 0
3 2 S116 789 58296 3272 0
3 2 S116 798 59094 4070 0
3 2 S116 793 59887 4863 0
3 2 S116 764 60651 5627 0
3 2 S116 720 61371 6347 0
0 0 0 717 62088 -12233 0
0 0 0 730 62818 -11503 0
0 0 0 700 63518 -10803 0
0 0 0 706 64224 -10097 0
0 0 0 676 64900 -9421 0
0 0 0 729 65629 -8692 0
0 0 0 710 66339 -7982 0
0 0 0 674 67013 -7308 0
0 0 0 637 67650 -6671 0
0 0 0 619 68269 -6052 0
0 0 0 611 68880 -5441 0
0 0 0 612 69492 -4829 0
0 0 0 609 70101 -4220 0
0 0 0 620 70721 -3600 0
0 0 0 657 71378 -2943 0
0 0 0 668 72046 -2275 0
4 1 S106 702 72748 -1573 0
4 1 S106 690 73438 -883 0
4 1 S106 661 74099 -222 0
4 2 S106 639 74738 417 0
4 2 S106 681 75419 1098 0
4 2 S106 729 76148 1827 0
4 2 S106 731 76879 2558 0
4 2 S106 759 77638 3317 0
4 2 S106 745 78383 4062 0
4 2 S106 708 79091 4770 0
4 2 S106 772 79863 5542 0
4 2 S106 771 80634 6313 0
0 0 0 771 81405 -7787 0
0 0 0 768 82173 -7019 0
0 0 0 729 82902 -6290 0
0 0 0 788 83690 -5502 0
0 0 0 766 84456 -4736 0
0 0 0 698 85154 -4038 0
0 0 0 649 85803 -3389 0
0 0 0 641 86444 -2748 0
0 0 0 670 87114 -2078 0
5 1 S116 691 87805 -1387 0
5 1 S116 693 88498 -694 0
5 1 S116 644 89142 -50 0
5 2 S116 649 89791 599 0
5 2 S116 691 90482 1290 0
5 2 S116 764 91246 2054 0
5 2 S116 837 92083 2891 0
5 2 S116 859 92942 3750 0
5 2 S116 846 93788 4596 0
5 2 S116 872 94660 5468 0
5 2 S116 854 95514 6322 0
0 0 0 821 96335 -11458 0
0 0 0 791 97126 -10667 0
0 0 0 776 97902 -9891 0
0 0 0 768 98670 -9123 0
0 0 0 748 99418 -8375 0
0 0 0 759 100177 -7616 0
0 0 0 742 100919 -6874 0
0 0 0 764 101683 -6110 0
0 0 0 769 102452 -5341 0
0 0 0 747 103199 -4594 0
0 0 0 701 103900 -3893 0
0 0 0 732 104632 -3161 0
0 0 0 732 105364 -2429 0
6 1 S106 680 106044 -1749 0
6 1 S106 657 106701 -1092 0
6 1 S106 677 107378 -415 0
6 2 S106 674 108052 259 0
6 2 S106 691 108743 950 0
6 2 S106 675 109418 1625 0
6 2 S106 662 110080 2287 0
6 2 S106 663 110743 2950 0
6 2 S106 691 111434 3641 0
6 2 S106 696 112130 4337 0
6 2 S106 694 112824 5031 0
6 2 S106 675 113499 5706 0
6 2 S106 696 114195 6402 0
0 0 0 727 114922 -10975 0
0 0 0 782 115704 -10193 0
0 0 0 721 116425 -9472 0
0 0 0 757 117182 -8715 0
0 0 0 697 117879 -8018 0
0 0 0 718 118597 -7300 0
0 0 0 656 119253 -6644 0
0 0 0 657 119910 -5987 0
0 0 0 652 120562 -5335 0
0 0 0 645 121207 -4690 0
0 0 0 626 121833 -4064 0
0 0 0 643 122476 -3421 0
0 0 0 666 123142 -2755 0
0 0 0 674 123816 -2081 0
7 1 S102 671 124487 -1410 0
7 1 S102 692 125179 -718 0
7 1 S102 684 125863 -34 0
7 2 S102 680 126543 646 0
7 2 S102 681 127224 1327 0
7 2 S102 667 127891 1994 0
7 2 S102 693 128584 2687 0
7 2 S102 685 129269 3372 0
7 2 S102 691 129960 4063 0
7 2 S102 674 130634 4737 0
7 2 S102 675 131309 5412 0
7 2 S102 737 132046 6149 0
7 2 S102 750 132796 6899 0
0 0 0 788 133584 -9488 0
0 0 0 761 134345 -8727 0
0 0 0 815 135160 -7912 0
0 0 0 842 136002 -7070 0
0 0 0 826 136828 -6244 0
0 0 0 763 137591 -5481 0
0 0 0 767 138358 -4714 0
0 0 0 738 139096 -3976 0
0 0 0 681 139777 -3295 0
0 0 0 656 140433 -2639 0
8 1 S112 662 141095 -1977 0
8 1 S112 700 141795 -1277 0
8 1 S112 680 142475 -597 0
8 2 S112 695 143170 98 0
8 2 S112 739 143909 837 0
8 2 S112 868 144777 1705 0
8 2 S112 921 145698 2626 0
8 2 S112 905 146603 3531 0
8 2 S112 820 147423 4351 0
8 2 S112 791 148214 5142 0
8 2 S112 751 148965 5893 0
8 2 S112 704 149669 6597 0
0 0 0 693 150362 -7365 0
0 0 0 718 151080 -6647 0
0 0 0 787 151867 -5860 0
0 0 0 810 152677 -5050 0
0 0 0 791 153468 -4259 0
0 0 0 842 154310 -3417 0
0 0 0 825 155135 -2592 0
9 1 S116 817 155952 -1775 0
9 1 S116 863 156815 -912 0
9 1 S116 773 157588 -139 0
9 2 S116 734 158322 595 0
9 2 S116 755 159077 1350 0
9 2 S116 776 159853 2126 0
9 2 S116 769 160622 2895 0
9 2 S116 759 161381 3654 0
9 2 S116 743 162124 4397 0
9 2 S116 792 162916 5189 0
9 2 S116 796 163712 5985 0
9 2 S116 824 164536 6809 0
0 0 0 780 165316 -12090 0
0 0 0 759 166075 -11331 0
0 0 0 760 166835 -10571 0
0 0 0 735 167570 -9836 0
0 0 0 673 168243 -9163 0
0 0 0 687 168930 -8476 0
0 0 0 684 169614 -7792 0
0 0 0 671 170285 -7121 0
0 0 0 636 170921 -6485 0
0 0 0 610 171531 -5875 0
0 0 0 603 172134 -5272 0
0 0 0 873 173007 -4399 0
0 0 0 829 173836 -3570 0
0 0 0 856 174692 -2714 0
10 1 S102 863 175555 -1851 0
10 1 S102 819 176374 -1032 0
10 1 S102 802 177176 -230 0
10 2 S102 771 177947 541 0
10 2 S102 744 178691 1285 0
10 2 S102 725 179416 2010 0
10 2 S102 738 180154 2748 0
10 2 S102 757 180911 3505 0
10 2 S102 781 181692 4286 0
10 2 S102 790 182482 5076 0
10 2 S102 779 183261 5855 0
10 2 S102 793 184054 6648 0
0 0 0 827 184881 -12402 0
0 0 0 830 185711 -11572 0
0 0 0 843 186554 -10729 0
0 0 0 801 187355 -9928 0
0 0 0 800 188155 -9128 0
0 0 0 759 188914 -8369 0
0 0 0 728 189642 -7641 0
0 0 0 685 190327 -6956 0
0 0 0 668 190995 -6288 0
0 0 0 643 191638 -5645 0
0 0 0 619 192257 -5026 0
0 0 0 600 192857 -4426 0
0 0 0 595 193452 -3831 0
0 0 0 594 194046 -3237 0
0 0 0 597 194643 -2640 0
0 0 0 622 195265 -2018 0
11 1 S112 726 195991 -1292 0
11 1 S112 729 196720 -563 0
11 2 S112 739 197459 176 0
11 2 S112 705 198164 881 0
11 2 S112 727 198891 1608 0
11 2 S112 729 199620 2337 0
11 2 S112 782 200402 3119 0
11 2 S112 776 201178 3895 0
11 2 S112 785 201963 4680 0
11 2 S112 764 202727 5444 0
11 2 S112 727 203454 6171 0
11 2 S112 796 204250 6967 0
0 0 0 851 205101 -8761 0
0 0 0 886 205987 -7875 0
0 0 0 903 206890 -6972 0
0 0 0 854 207744 -6118 0
0 0 0 835 208579 -5283 0
0 0 0 817 209396 -4466 0
0 0 0 763 210159 -3703 0
0 0 0 683 210842 -3020 0
0 0 0 657 211499 -2363 0
12 1 S116 652 212151 -1711 0
12 1 S116 657 212808 -1054 0
12 1 S116 679 213487 -375 0
12 2 S116 683 214170 308 0
12 2 S116 832 215002 1140 0
12 2 S116 896 215898 2036 0
12 2 S116 965 216863 3001 0
12 2 S116 937 217800 3938 0
12 2 S116 906 218706 4844 0
12 2 S116 845 219551 5689 0
12 2 S116 811 220362 6500 0
0 0 0 759 221121 -12021 0
0 0 0 728 221849 -11293 0
0 0 0 731 222580 -10562 0
0 0 0 761 223341 -9801 0
0 0 0 768 224109 -9033 0
0 0 0 755 224864 -8278 0
0 0 0 777 225641 -7501 0
0 0 0 766 226407 -6735 0
0 0 0 725 227132 -6010 0
0 0 0 776 227908 -5234 0
0 0 0 783 228691 -4451 0
0 0 0 769 229460 -3682 0
0 0 0 739 230199 -2943 0
0 0 0 763 230962 -2180 0
13 1 S112 742 231704 -1438 0
13 1 S112 731 232435 -707 0
13 1 S112 705 233140 -2 0
13 2 S112 654 233794 652 0
13 2 S112 678 234472 1330 0
13 2 S112 716 235188 2046 0
13 2 S112 693 235881 2739 0
13 2 S112 726 236607 3465 0
13 2 S112 665 237272 4130 0
13 2 S112 651 237923 4781 0
13 2 S112 677 238600 5458 0
13 2 S112 757 239357 6215 0
13 2 S112 788 240145 7003 0
0 0 0 825 240970 -11237 0
0 0 0 833 241803 -10404 0
0 0 0 940 242743 -9464 0
0 0 0 964 243707 -8500 0
0 0 0 837 244544 -7663 0
0 0 0 770 245314 -6893 0
0 0 0 757 246071 -6136 0
0 0 0 751 246822 -5385 0
0 0 0 713 247535 -4672 0
0 0 0 728 248263 -3944 0
0 0 0 770 249033 -3174 0
0 0 0 770 249803 -2404 0
14 1 S106 767 250570 -1637 0
14 1 S106 785 251355 -852 0
14 1 S106 781 252136 -71 0
14 2 S106 793 252929 722 0
14 2 S106 748 253677 1470 0
14 2 S106 711 254388 2181 0
14 2 S106 741 255129 2922 0
14 2 S106 717 255846 3639 0
14 2 S106 778 256624 4417 0
14 2 S106 689 257313 5106 0
14 2 S106 688 258001 5794 0
14 2 S106 700 258701 6494 0
0 0 0 707 259408 -11268 0
0 0 0 690 260098 -10578 0
0 0 0 695 260793 -9883 0
0 0 0 830 261623 -9053 0
0 0 0 839 262462 -8214 0
0 0 0 805 263267 -7409 0
0 0 0 727 263994 -6682 0
0 0 0 745 264739 -5937 0
0 0 0 753 265492 -5184 0
0 0 0 720 266212 -4464 0
0 0 0 701 266913 -3763 0
0 0 0 742 267655 -3021 0
0 0 0 731 268386 -2290 0
15 1 S116 708 269094 -1582 0
15 1 S116 686 269780 -896 0
15 1 S116 645 270425 -251 0
15 2 S116 622 271047 371 0
15 2 S116 644 271691 1015 0
15 2 S116 807 272498 1822 0
15 2 S116 840 273338 2662 0
15 2 S116 869 274207 3531 0
15 2 S116 893 275100 4424 0
15 2 S116 902 276002 5326 0
15 2 S116 900 276902 6226 0
0 0 0 899 277801 -11343 0
0 0 0 880 278681 -10463 0
0 0 0 846 279527 -9617 0
0 0 0 818 280345 -8799 0
0 0 0 758 281103 -8041 0
0 0 0 771 281874 -7270 0
0 0 0 777 282651 -6493 0
0 0 0 801 283452 -5692 0
0 0 0 763 284215 -4929 0
0 0 0 713 284928 -4216 0
0 0 0 772 285700 -3444 0
0 0 0 808 286508 -2636 0
16 1 S116 773 287281 -1863 0
16 1 S116 777 288058 -1086 0
16 1 S116 729 288787 -357 0
16 2 S116 709 289496 352 0
16 2 S116 679 290175 1031 0
16 2 S116 680 290855 1711 0
16 2 S116 653 291508 2364 0
16 2 S116 652 292160 3016 0
16 2 S116 705 292865 3721 0
16 2 S116 749 293614 4470 0
16 2 S116 717 294331 5187 0
16 2 S116 724 295055 5911 0
16 2 S116 681 295736 6592 0
0 0 0 664 296400 -9720 0
0 0 0 684 297084 -9036 0
0 0 0 732 297816 -8304 0
0 0 0 727 298543 -7577 0
0 0 0 743 299286 -6834 0
0 0 0 667 299953 -6167 0
0 0 0 696 300649 -5471 0
0 0 0 677 301326 -4794 0
0 0 0 679 302005 -4115 0
0 0 0 746 302751 -3369 0
0 0 0 752 303503 -2617 0
17 1 S106 757 304260 -1860 0
17 1 S106 737 304997 -1123 0
17 1 S106 699 305696 -424 0
17 2 S106 725 306421 301 0
17 2 S106 721 307142 1022 0
17 2 S106 736 307878 1758 0
17 2 S106 708 308586 2466 0
17 2 S106 712 309298 3178 0
17 2 S106 812 310110 3990 0
17 2 S106 805 310915 4795 0
17 2 S106 790 311705 5585 0
17 2 S106 760 312465 6345 0
0 0 0 736 313201 -11935 0
0 0 0 755 313956 -11180 0
0 0 0 771 314727 -10409 0
0 0 0 767 315494 -9642 0
0 0 0 762 316256 -8880 0
0 0 0 719 316975 -8161 0
0 0 0 699 317674 -7462 0
0 0 0 652 318326 -6810 0
0 0 0 668 318994 -6142 0
0 0 0 703 319697 -5439 0
0 0 0 730 320427 -4709 0
0 0 0 708 321135 -4001 0
0 0 0 693 321828 -3308 0
0 0 0 683 322511 -2625 0
18 1 S102 721 323232 -1904 0
18 1 S102 729 323961 -1175 0
18 1 S102 726 324687 -449 0
18 2 S102 688 325375 239 0
18 2 S102 751 326126 990 0
18 2 S102 763 326889 1753 0
18 2 S102 805 327694 2558 0
18 2 S102 777 328471 3335 0
18 2 S102 721 329192 4056 0
18 2 S102 753 329945 4809 0
18 2 S102 743 330688 5552 0
18 2 S102 727 331415 6279 0
18 2 S102 676 332091 6955 0
0 0 0 700 332791 -7033 0
0 0 0 716 333507 -6317 0
0 0 0 709 334216 -5608 0
0 0 0 701 334917 -4907 0
0 0 0 639 335556 -4268 0
0 0 0 638 336194 -3630 0
0 0 0 639 336833 -2991 0
0 0 0 635 337468 -2356 0
19 1 S106 621 338089 -1735 0
19 1 S106 621 338710 -1114 0
19 1 S106 644 339354 -470 0
19 2 S106 662 340016 192 0
19 2 S106 681 340697 873 0
19 2 S106 685 341382 1558 0
19 2 S106 689 342071 2247 0
19 2 S106 756 342827 3003 0
19 2 S106 765 343592 3768 0
19 2 S106 818 344410 4586 0
19 2 S106 782 345192 5368 0
19 2 S106 727 345919 6095 0
19 2 S106 675 346594 6770 0
0 0 0 688 347282 -10812 0
0 0 0 722 348004 -10090 0
0 0 0 723 348727 -9367 0
0 0 0 705 349432 -8662 0
0 0 0 645 350077 -8017 0
0 0 0 663 350740 -7354 0
0 0 0 694 351434 -6660 0
0 0 0 702 352136 -5958 0
0 0 0 709 352845 -5249 0
0 0 0 687 353532 -4562 0
0 0 0 737 354269 -3825 0
0 0 0 709 354978 -3116 0
0 0 0 705 355683 -2411 0
20 1 S112 710 356393 -1701 0
20 1 S112 727 357120 -974 0
20 1 S112 722 357842 -252 0
20 2 S112 690 358532 438 0
20 2 S112 668 359200 1106 0
20 2 S112 693 359893 1799 0
20 2 S112 730 360623 2529 0
20 2 S112 769 361392 3298 0
20 2 S112 778 362170 4076 0
20 2 S112 766 362936 4842 0
20 2 S112 763 363699 5605 0
20 2 S112 784 364483 6389 0
0 0 0 806 365289 -10212 0
0 0 0 817 366106 -9395 0
0 0 0 797 366903 -8598 0
0 0 0 799 367702 -7799 0
0 0 0 740 368442 -7059 0
0 0 0 705 369147 -6354 0
0 0 0 684 369831 -5670 0
0 0 0 691 370522 -4979 0
0 0 0 657 371179 -4322 0
0 0 0 705 371884 -3617 0
0 0 0 765 372649 -2852 0
0 0 0 772 373421 -2080 0
21 1 S106 798 374219 -1282 0
21 1 S106 710 374929 -572 0
21 2 S106 720 375649 148 0
21 2 S106 709 376358 857 0
21 2 S106 708 377066 1565 0
21 2 S106 668 377734 2233 0
21 2 S106 746 378480 2979 0
21 2 S106 777 379257 3756 0
21 2 S106 875 380132 4631 0
21 2 S106 834 380966 5465 0
21 2 S106 819 381785 6284 0
0 0 0 824 382609 -12421 0
0 0 0 825 383434 -11596 0
0 0 0 801 384235 -10795 0
0 0 0 789 385024 -10006 0
0 0 0 798 385822 -9208 0
0 0 0 754 386576 -8454 0
0 0 0 707 387283 -7747 0
0 0 0 762 388045 -6985 0
0 0 0 753 388798 -6232 0
0 0 0 723 389521 -5509 0
0 0 0 708 390229 -4801 0
0 0 0 733 390962 -4068 0
0 0 0 748 391710 -3320 0
0 0 0 750 392460 -2570 0
22 1 S116 687 393147 -1883 0
22 1 S116 720 393867 -1163 0
22 1 S116 722 394589 -441 0
22 2 S116 735 395324 294 0
22 2 S116 738 396062 1032 0
22 2 S116 696 396758 1728 0
22 2 S116 757 397515 2485 0
22 2 S116 777 398292 3262 0
22 2 S116 842 399134 4104 0
22 2 S116 870 400004 4974 0
22 2 S116 898 400902 5872 0
22 2 S116 770 401672 6642 0
0 0 0 687 402359 -9946 0
0 0 0 659 403018 -9287 0
0 0 0 677 403695 -8610 0
0 0 0 912 404607 -7698 0
0 0 0 846 405453 -6852 0
0 0 0 785 406238 -6067 0
0 0 0 756 406994 -5311 0
0 0 0 699 407693 -4612 0
0 0 0 655 408348 -3957 0
0 0 0 658 409006 -3299 0
0 0 0 641 409647 -2658 0
0 0 0 653 410300 -2005 0
23 1 S112 722 411022 -1283 0
23 1 S112 735 411757 -548 0
23 2 S112 771 412528 223 0
23 2 S112 759 413287 982 0
23 2 S112 723 414010 1705 0
23 2 S112 709 414719 2414 0
23 2 S112 698 415417 3112 0
23 2 S112 679 416096 3791 0
23 2 S112 703 416799 4494 0
23 2 S112 684 417483 5178 0
23 2 S112 665 418148 5843 0
23 2 S112 747 418895 6590 0
0 0 0 786 419681 -9020 0
0 0 0 868 420549 -8152 0
0 0 0 880 421429 -7272 0
0 0 0 772 422201 -6500 0
0 0 0 717 422918 -5783 0
0 0 0 714 423632 -5069 0
0 0 0 694 424326 -4375 0
0 0 0 683 425009 -3692 0
0 0 0 661 425670 -3031 0
0 0 0 688 426358 -2343 0
24 1 S106 710 427068 -1633 0
24 1 S106 716 427784 -917 0
24 1 S106 713 428497 -204 0
24 2 S106 701 429198 497 0
24 2 S106 790 429988 1287 0
24 2 S106 772 430760 2059 0
24 2 S106 777 431537 2836 0
24 2 S106 753 432290 3589 0
24 2 S106 694 432984 4283 0
24 2 S106 691 433675 4974 0
24 2 S106 699 434374 5673 0
24 2 S106 724 435098 6397 0
0 0 0 733 435831 -10194 0
0 0 0 782 436613 -9412 0
0 0 0 760 437373 -8652 0
0 0 0 751 438124 -7901 0
0 0 0 829 438953 -7072 0
0 0 0 791 439744 -6281 0
0 0 0 762 440506 -5519 0
0 0 0 702 441208 -4817 0
0 0 0 714 441922 -4103 0
0 0 0 718 442640 -3385 0
0 0 0 732 443372 -2653 0
25 1 S102 754 444126 -1899 0
25 1 S102 675 444801 -1224 0
25 1 S102 705 445506 -519 0
25 2 S102 720 446226 201 0
25 2 S102 785 447011 986 0
25 2 S102 745 447756 1731 0
25 2 S102 755 448511 2486 0
25 2 S102 777 449288 3263 0
25 2 S102 803 450091 4066 0
25 2 S102 775 450866 4841 0
25 2 S102 766 451632 5607 0
25 2 S102 692 452324 6299 0
25 2 S102 662 452986 6961 0
0 0 0 663 453649 -7861 0
0 0 0 687 454336 -7174 0
0 0 0 690 455026 -6484 0
0 0 0 671 455697 -5813 0
0 0 0 714 456411 -5099 0
0 0 0 699 457110 -4400 0
0 0 0 713 457823 -3687 0
0 0 0 661 458484 -3026 0
0 0 0 634 459118 -2392 0
26 1 S116 651 459769 -1741 0
26 1 S116 687 460456 -1054 0
26 1 S116 663 461119 -391 0
26 2 S116 670 461789 279 0
26 2 S116 655 462444 934 0
26 2 S116 669 463113 1603 0
26 2 S116 708 463821 2311 0
26 2 S116 749 464570 3060 0
26 2 S116 780 465350 3840 0
26 2 S116 791 466141 4631 0
26 2 S116 772 466913 5403 0
26 2 S116 735 467648 6138 0
26 2 S116 699 468347 6837 0
0 0 0 649 468996 -7898 0
0 0 0 666 469662 -7232 0
0 0 0 677 470339 -6555 0
0 0 0 692 471031 -5863 0
0 0 0 698 471729 -5165 0
0 0 0 666 472395 -4499 0
0 0 0 721 473116 -3778 0
0 0 0 704 473820 -3074 0
0 0 0 651 474471 -2423 0
27 1 S106 649 475120 -1774 0
27 1 S106 691 475811 -1083 0
27 1 S106 700 476511 -383 0
27 2 S106 792 477303 409 0
27 2 S106 716 478019 1125 0
27 2 S106 699 478718 1824 0
27 2 S106 701 479419 2525 0
27 2 S106 715 480134 3240 0
27 2 S106 708 480842 3948 0
27 2 S106 686 481528 4634 0
27 2 S106 678 482206 5312 0
27 2 S106 658 482864 5970 0
27 2 S106 663 483527 6633 0
0 0 0 634 484161 -8383 0
0 0 0 640 484801 -7743 0
0 0 0 653 485454 -7090 0
0 0 0 661 486115 -6429 0
0 0 0 655 486770 -5774 0
0 0 0 690 487460 -5084 0
0 0 0 704 488164 -4380 0
0 0 0 754 488918 -3626 0
0 0 0 716 489634 -2910 0
0 0 0 705 490339 -2205 0
28 1 S102 744 491083 -1461 0
28 1 S102 733 491816 -728 0
28 1 S102 717 492533 -11 0
28 2 S102 699 493232 688 0
28 2 S102 725 493957 1413 0
28 2 S102 672 494629 2085 0
28 2 S102 645 495274 2730 0
28 2 S102 652 495926 3382 0
28 2 S102 694 496620 4076 0
28 2 S102 717 497337 4793 0
28 2 S102 731 498068 5524 0
28 2 S102 697 498765 6221 0
28 2 S102 688 499453 6909 0
0 0 0 740 500193 -11002 0
0 0 0 749 500942 -10253 0
0 0 0 759 501701 -9494 0
0 0 0 775 502476 -8719 0
0 0 0 727 503203 -7992 0
0 0 0 734 503937 -7258 0
0 0 0 699 504636 -6559 0
0 0 0 673 505309 -5886 0
0 0 0 679 505988 -5207 0
0 0 0 689 506677 -4518 0
0 0 0 694 507371 -3824 0
0 0 0 682 508053 -3142 0
0 0 0 667 508720 -2475 0
29 1 S112 726 509446 -1749 0
29 1 S112 696 510142 -1053 0
29 1 S112 712 510854 -341 0
29 2 S112 665 511519 324 0
29 2 S112 652 512171 976 0
29 2 S112 725 512896 1701 0
29 2 S112 748 513644 2449 0
29 2 S112 802 514446 3251 0
29 2 S112 834 515280 4085 0
29 2 S112 819 516099 4904 0
29 2 S112 747 516846 5651 0
29 2 S112 758 517604 6409 0
0 0 0 746 518350 -7832 0
0 0 0 734 519084 -7098 0
0 0 0 707 519791 -6391 0
0 0 0 695 520486 -5696 0
0 0 0 700 521186 -4996 0
0 0 0 684 521870 -4312 0
0 0 0 683 522553 -3629 0
0 0 0 647 523200 -2982 0
0 0 0 673 523873 -2309 0
30 1 S112 686 524559 -1623 0
30 1 S112 700 525259 -923 0
30 1 S112 692 525951 -231 0
30 2 S112 671 526622 440 0
30 2 S112 698 527320 1138 0
30 2 S112 694 528014 1832 0
30 2 S112 774 528788 2606 0
30 2 S112 768 529556 3374 0
30 2 S112 799 530355 4173 0
30 2 S112 819 531174 4992 0
30 2 S112 757 531931 5749 0
30 2 S112 720 532651 6469 0
0 0 0 740 533391 -9651 0
0 0 0 774 534165 -8877 0
0 0 0 782 534947 -8095 0
0 0 0 782 535729 -7313 0
0 0 0 709 536438 -6604 0
0 0 0 755 537193 -5849 0
0 0 0 737 537930 -5112 0
0 0 0 691 538621 -4421 0
0 0 0 759 539380 -3662 0
0 0 0 791 540171 -2871 0
0 0 0 839 541010 -2032 0
31 1 S106 828 541838 -1204 0
31 1 S106 760 542598 -444 0
31 2 S106 770 543368 326 0
31 2 S106 791 544159 1117 0
31 2 S106 777 544936 1894 0
31 2 S106 764 545700 2658 0
31 2 S106 745 546445 3403 0
31 2 S106 705 547150 4108 0
31 2 S106 740 547890 4848 0
31 2 S106 765 548655 5613 0
31 2 S106 773 549428 6386 0
0 0 0 744 550172 -10145 0
0 0 0 786 550958 -9359 0
0 0 0 869 551827 -8490 0
0 0 0 931 552758 -7559 0
0 0 0 853 553611 -6706 0
0 0 0 845 554456 -5861 0
0 0 0 777 555233 -5084 0
0 0 0 713 555946 -4371 0
0 0 0 704 556650 -3667 0
0 0 0 685 557335 -2982 0
0 0 0 645 557980 -2337 0
32 1 S102 628 558608 -1709 0
32 1 S102 614 559222 -1095 0
32 1 S102 599 559821 -496 0
32 2 S102 599 560420 103 0
32 2 S102 622 561042 725 0
32 2 S102 631 561673 1356 0
32 2 S102 631 562304 1987 0
32 2 S102 700 563004 2687 0
32 2 S102 720 563724 3407 0
32 2 S102 744 564468 4151 0
32 2 S102 710 565178 4861 0
32 2 S102 739 565917 5600 0
32 2 S102 744 566661 6344 0
0 0 0 779 567440 -10582 0
0 0 0 716 568156 -9866 0
0 0 0 708 568864 -9158 0
0 0 0 671 569535 -8487 0
0 0 0 657 570192 -7830 0
0 0 0 631 570823 -7199 0
0 0 0 646 571469 -6553 0
0 0 0 702 572171 -5851 0
0 0 0 728 572899 -5123 0
0 0 0 722 573621 -4401 0
0 0 0 717 574338 -3684 0
0 0 0 767 575105 -2917 0
0 0 0 791 575896 -2126 0
33 1 S112 818 576714 -1308 0
33 1 S112 775 577489 -533 0
33 2 S112 747 578236 214 0
33 2 S112 758 578994 972 0
33 2 S112 761 579755 1733 0
33 2 S112 791 580546 2524 0
33 2 S112 801 581347 3325 0
33 2 S112 775 582122 4100 0
33 2 S112 836 582958 4936 0
33 2 S112 872 583830 5808 0
33 2 S112 896 584726 6704 0
0 0 0 844 585570 -12396 0
0 0 0 854 586424 -11542 0
0 0 0 854 587278 -10688 0
0 0 0 802 588080 -9886 0
0 0 0 806 588886 -9080 0
0 0 0 782 589668 -8298 0
0 0 0 707 590375 -7591 0
0 0 0 711 591086 -6880 0
0 0 0 766 591852 -6114 0
0 0 0 820 592672 -5294 0
0 0 0 768 593440 -4526 0
0 0 0 805 594245 -3721 0
0 0 0 839 595084 -2882 0
0 0 0 822 595906 -2060 0
34 1 S106 750 596656 -1310 0
34 1 S106 763 597419 -547 0
34 2 S106 770 598189 223 0
34 2 S106 767 598956 990 0
34 2 S106 733 599689 1723 0
34 2 S106 744 600433 2467 0
34 2 S106 756 601189 3223 0
34 2 S106 790 601979 4013 0
34 2 S106 732 602711 4745 0
34 2 S106 660 603371 5405 0
34 2 S106 637 604008 6042 0
34 2 S106 741 604749 6783 0
0 0 0 767 605516 -8747 0
0 0 0 821 606337 -7926 0
0 0 0 871 607208 -7055 0
0 0 0 860 608068 -6195 0
0 0 0 758 608826 -5437 0
0 0 0 743 609569 -4694 0
0 0 0 753 610322 -3941 0
0 0 0 766 611088 -3175 0
0 0 0 768 611856 -2407 0
35 1 S102 711 612567 -1696 0
35 1 S102 738 613305 -958 0
35 1 S102 777 614082 -181 0
35 2 S102 777 614859 596 0
35 2 S102 803 615662 1399 0
35 2 S102 825 616487 2224 0
35 2 S102 816 617303 3040 0
35 2 S102 825 618128 3865 0
35 2 S102 843 618971 4708 0
35 2 S102 825 619796 5533 0
35 2 S102 799 620595 6332 0
0 0 0 761 621356 -8706 0
0 0 0 759 622115 -7947 0
0 0 0 765 622880 -7182 0
0 0 0 764 623644 -6418 0
0 0 0 758 624402 -5660 0
0 0 0 814 625216 -4846 0
0 0 0 817 626033 -4029 0
0 0 0 791 626824 -3238 0
0 0 0 740 627564 -2498 0
36 1 S106 787 628351 -1711 0
36 1 S106 767 629118 -944 0
36 1 S106 775 629893 -169 0
36 2 S106 733 630626 564 0
36 2 S106 702 631328 1266 0
36 2 S106 693 632021 1959 0
36 2 S106 687 632708 2646 0
36 2 S106 701 633409 3347 0
36 2 S106 663 634072 4010 0
36 2 S106 708 634780 4718 0
36 2 S106 744 635524 5462 0
36 2 S106 872 636396 6334 0
0 0 0 874 637270 -9055 0
0 0 0 913 638183 -8142 0
0 0 0 874 639057 -7268 0
0 0 0 748 639805 -6520 0
0 0 0 713 640518 -5807 0
0 0 0 692 641210 -5115 0
0 0 0 701 641911 -4414 0
0 0 0 660 642571 -3754 0
0 0 0 664 643235 -3090 0
0 0 0 680 643915 -2410 0
37 1 S116 705 644620 -1705 0
37 1 S116 696 645316 -1009 0
37 1 S116 687 646003 -322 0
37 2 S116 760 646763 438 0
37 2 S116 708 647471 1146 0
37 2 S116 819 648290 1965 0
37 2 S116 748 649038 2713 0
37 2 S116 799 649837 3512 0
37 2 S116 794 650631 4306 0
37 2 S116 752 651383 5058 0
37 2 S116 710 652093 5768 0
37 2 S116 729 652822 6497 0
0 0 0 744 653566 -11510 0
0 0 0 739 654305 -10771 0
0 0 0 710 655015 -10061 0
0 0 0 778 655793 -9283 0
0 0 0 773 656566 -8510 0
0 0 0 697 657263 -7813 0
0 0 0 669 657932 -7144 0
0 0 0 667 658599 -6477 0
0 0 0 744 659343 -5733 0
0 0 0 723 660066 -5010 0
0 0 0 763 660829 -4247 0
0 0 0 705 661534 -3542 0
0 0 0 712 662246 -2830 0
0 0 0 710 662956 -2120 0
38 1 S102 755 663711 -1365 0
38 1 S102 743 664454 -622 0
38 2 S102 755 665209 133 0
38 2 S102 734 665943 867 0
38 2 S102 798 666741 1665 0
38 2 S102 836 667577 2501 0
38 2 S102 820 668397 3321 0
38 2 S102 751 669148 4072 0
38 2 S102 809 669957 4881 0
38 2 S102 835 670792 5716 0
38 2 S102 826 671618 6542 0
0 0 0 746 672364 -10517 0
0 0 0 786 673150 -9731 0
0 0 0 795 673945 -8936 0
0 0 0 748 674693 -8188 0
0 0 0 738 675431 -7450 0
0 0 0 747 676178 -6703 0
0 0 0 697 676875 -6006 0
0 0 0 654 677529 -5352 0
0 0 0 643 678172 -4709 0
0 0 0 670 678842 -4039 0
0 0 0 685 679527 -3354 0
0 0 0 694 680221 -2660 0
39 1 S116 674 680895 -1986 0
39 1 S116 706 681601 -1280 0
39 1 S116 794 682395 -486 0
39 2 S116 791 683186 305 0
39 2 S116 795 683981 1100 0
39 2 S116 743 684724 1843 0
39 2 S116 760 685484 2603 0
39 2 S116 745 686229 3348 0
39 2 S116 735 686964 4083 0
39 2 S116 683 687647 4766 0
39 2 S116 683 688330 5449 0
39 2 S116 712 689042 6161 0
39 2 S116 788 689830 6949 0
0 0 0 784 690614 -6557 0
0 0 0 737 691351 -5820 0
0 0 0 798 692149 -5022 0
0 0 0 753 692902 -4269 0
0 0 0 678 693580 -3591 0
0 0 0 659 694239 -2932 0
0 0 0 640 694879 -2292 0
40 1 S112 626 695505 -1666 0
40 1 S112 613 696118 -1053 0
40 1 S112 600 696718 -453 0
40 2 S112 593 697311 140 0
40 2 S112 603 697914 743 0
40 2 S112 651 698565 1394 0
40 2 S112 649 699214 2043 0
40 2 S112 666 699880 2709 0
40 2 S112 638 700518 3347 0
40 2 S112 668 701186 4015 0
40 2 S112 680 701866 4695 0
40 2 S112 720 702586 5415 0
40 2 S112 696 703282 6111 0
40 2 S112 675 703957 6786 0
0 0 0 680 704637 -187513 0
0 0 0 770 705407 -186743 0
0 0 0 859 706266 -185884 0
0 0 0 897 707163 -184987 0
0 0 0 917 708080 -184070 0
0 0 0 980 709060 -183090 1
0 0 0 937 709997 -182153 0
0 0 0 875 710872 -181278 0
0 0 0 893 711765 -180385 0
0 0 0 844 712609 -179541 0
0 0 0 799 713408 -178742 0
0 0 0 791 714199 -177951 0
0 0 0 772 714971 -177179 0
0 0 0 754 715725 -176425 0
0 0 0 1512 717237 -174913 1
0 0 0 686 717923 -174227 0
0 0 0 696 718619 -173531 0
0 0 0 695 719314 -172836 0
0 0 0 1286 720600 -171550 1
0 0 0 649 721249 -170901 0
0 0 0 662 721911 -170239 0
0 0 0 642 722553 -169597 0
0 0 0 648 723201 -168949 0
0 0 0 682 723883 -168267 0
0 0 0 649 724532 -167618 0
0 0 0 681 725213 -166937 0
0 0 0 659 725872 -166278 0
0 0 0 634 726506 -165644 0
0 0 0 639 727145 -165005 0
0 0 0 669 727814 -164336 0
0 0 0 639 728453 -163697 0
0 0 0 694 729147 -163003 0
0 0 0 670 729817 -162333 0
0 0 0 675 730492 -161658 0
0 0 0 645 731137 -161013 0
0 0 0 681 731818 -160332 0
0 0 0 654 732472 -159678 0
0 0 0 646 733118 -159032 0
0 0 0 641 733759 -158391 0
0 0 0 636 734395 -157755 0
0 0 0 620 735015 -157135 0
0 0 0 605 735620 -156530 0
0 0 0 598 736218 -155932 0
0 0 0 596 736814 -155336 0
0 0 0 581 737395 -154755 0
0 0 0 586 737981 -154169 0
0 0 0 570 738551 -153599 0
0 0 0 560 739111 -153039 0
0 0 0 557 739668 -152482 0
0 0 0 554 740222 -151928 0
0 0 0 564 740786 -151364 0
0 0 0 570 741356 -150794 0
0 0 0 561 741917 -150233 0
0 0 0 568 742485 -149665 0
0 0 0 563 743048 -149102 0
0 0 0 572 743620 -148530 0
0 0 0 565 744185 -147965 0
0 0 0 574 744759 -147391 0
0 0 0 569 745328 -146822 0
0 0 0 561 745889 -146261 0
0 0 0 571 746460 -145690 0
0 0 0 558 747018 -145132 0
0 0 0 562 747580 -144570 0
0 0 0 554 748134 -144016 0
0 0 0 550 748684 -143466 0
0 0 0 547 749231 -142919 0
0 0 0 546 749777 -142373 0
0 0 0 538 750315 -141835 0
0 0 0 544 750859 -141291 0
0 0 0 546 751405 -140745 0
0 0 0 553 751958 -140192 0
0 0 0 569 752527 -139623 0
0 0 0 564 753091 -139059 0
0 0 0 558 753649 -138501 0
0 0 0 556 754205 -137945 0
0 0 0 585 754790 -137360 0
0 0 0 660 755450 -136700 0
0 0 0 653 756103 -136047 0
0 0 0 617 756720 -135430 0
0 0 0 610 757330 -134820 0
0 0 0 627 757957 -134193 0
0 0 0 606 758563 -133587 0
0 0 0 628 759191 -132959 0
0 0 0 715 759906 -132244 0
0 0 0 667 760573 -131577 0
0 0 0 667 761240 -130910 0
0 0 0 625 761865 -130285 0
0 0 0 674 762539 -129611 0
0 0 0 740 763279 -128871 0
0 0 0 754 764033 -128117 0
0 0 0 752 764785 -127365 0
0 0 0 895 765680 -126470 0
0 0 0 975 766655 -125495 0
0 0 0 936 767591 -124559 0
0 0 0 878 768469 -123681 0
0 0 0 781 769250 -122900 0
0 0 0 690 769940 -122210 0
0 0 0 660 770600 -121550 0
0 0 0 646 771246 -120904 0
0 0 0 658 771904 -120246 0
0 0 0 797 772701 -119449 0
0 0 0 836 773537 -118613 0
0 0 0 744 774281 -117869 0
0 0 0 746 775027 -117123 0
0 0 0 771 775798 -116352 0
0 0 0 742 776540 -115610 0
0 0 0 674 777214 -114936 0
0 0 0 637 777851 -114299 0
0 0 0 665 778516 -113634 0
0 0 0 721 779237 -112913 0
0 0 0 928 780165 -111985 0
0 0 0 917 781082 -111068 0
0 0 0 829 781911 -110239 0
0 0 0 767 782678 -109472 0
0 0 0 718 783396 -108754 0
0 0 0 719 784115 -108035 0
0 0 0 718 784833 -107317 0
0 0 0 682 785515 -106635 0
0 0 0 657 786172 -105978 0
0 0 0 644 786816 -105334 0
0 0 0 657 787473 -104677 0
0 0 0 644 788117 -104033 0
0 0 0 736 788853 -103297 0
0 0 0 697 789550 -102600 0
0 0 0 653 790203 -101947 0
0 0 0 621 790824 -101326 0
0 0 0 618 791442 -100708 0
0 0 0 611 792053 -100097 0
0 0 0 659 792712 -99438 0
0 0 0 742 793454 -98696 0
0 0 0 765 794219 -97931 0
0 0 0 750 794969 -97181 0
0 0 0 744 795713 -96437 0
0 0 0 734 796447 -95703 0
0 0 0 710 797157 -94993 0
0 0 0 663 797820 -94330 0
0 0 0 636 798456 -93694 0
0 0 0 640 799096 -93054 0
0 0 0 667 799763 -92387 0
0 0 0 703 800466 -91684 0
0 0 0 725 801191 -90959 0
0 0 0 661 801852 -90298 0
0 0 0 633 802485 -89665 0
0 0 0 620 803105 -89045 0
0 0 0 643 803748 -88402 0
0 0 0 687 804435 -87715 0
0 0 0 705 805140 -87010 0
0 0 0 678 805818 -86332 0
0 0 0 657 806475 -85675 0
0 0 0 609 807084 -85066 0
0 0 0 569 807653 -84497 0
0 0 0 592 808245 -83905 0
0 0 0 616 808861 -83289 0
0 0 0 645 809506 -82644 0
0 0 0 764 810270 -81880 0
0 0 0 750 811020 -81130 0
0 0 0 798 811818 -80332 0
0 0 0 873 812691 -79459 0
0 0 0 896 813587 -78563 0
0 0 0 783 814370 -77780 0
0 0 0 689 815059 -77091 0
0 0 0 670 815729 -76421 0
0 0 0 638 816367 -75783 0
0 0 0 626 816993 -75157 0
0 0 0 683 817676 -74474 0
0 0 0 675 818351 -73799 0
0 0 0 717 819068 -73082 0
0 0 0 713 819781 -72369 0
0 0 0 678 820459 -71691 0
0 0 0 761 821220 -70930 0
0 0 0 745 821965 -70185 0
0 0 0 770 822735 -69415 0
0 0 0 818 823553 -68597 0
0 0 0 887 824440 -67710 0
0 0 0 876 825316 -66834 0
0 0 0 877 826193 -65957 0
0 0 0 893 827086 -65064 0
0 0 0 952 828038 -64112 0
0 0 0 965 829003 -63147 0
0 0 0 949 829952 -62198 0
0 0 0 944 830896 -61254 0
0 0 0 954 831850 -60300 0
0 0 0 947 832797 -59353 0
0 0 0 932 833729 -58421 0
0 0 0 920 834649 -57501 0
0 0 0 862 835511 -56639 0
0 0 0 784 836295 -55855 0
0 0 0 744 837039 -55111 0
0 0 0 741 837780 -54370 0
0 0 0 824 838604 -53546 0
0 0 0 848 839452 -52698 0
0 0 0 844 840296 -51854 0
0 0 0 952 841248 -50902 0
0 0 0 961 842209 -49941 0
0 0 0 775 842984 -49166 0
0 0 0 706 843690 -48460 0
0 0 0 692 844382 -47768 0
0 0 0 661 845043 -47107 0
0 0 0 658 845701 -46449 0
0 0 0 647 846348 -45802 0
0 0 0 701 847049 -45101 0
0 0 0 721 847770 -44380 0
0 0 0 902 848672 -43478 0
0 0 0 801 849473 -42677 0
0 0 0 796 850269 -41881 0
0 0 0 797 851066 -41084 0
0 0 0 753 851819 -40331 0
0 0 0 723 852542 -39608 0
0 0 0 745 853287 -38863 0
0 0 0 727 854014 -38136 0
0 0 0 687 854701 -37449 0
0 0 0 658 855359 -36791 0
0 0 0 687 856046 -36104 0
0 0 0 685 856731 -35419 0
0 0 0 691 857422 -34728 0
0 0 0 656 858078 -34072 0
0 0 0 690 858768 -33382 0
0 0 0 720 859488 -32662 0
0 0 0 734 860222 -31928 0
0 0 0 707 860929 -31221 0
0 0 0 678 861607 -30543 0
0 0 0 682 862289 -29861 0
0 0 0 679 862968 -29182 0
0 0 0 651 863619 -28531 0
0 0 0 690 864309 -27841 0
0 0 0 685 864994 -27156 0
0 0 0 687 865681 -26469 0
0 0 0 662 866343 -25807 0
0 0 0 630 866973 -25177 0
0 0 0 645 867618 -24532 0
0 0 0 649 868267 -23883 0
0 0 0 649 868916 -23234 0
0 0 0 641 869557 -22593 0
0 0 0 665 870222 -21928 0
0 0 0 683 870905 -21245 0
0 0 0 661 871566 -20584 0
0 0 0 639 872205 -19945 0
0 0 0 673 872878 -19272 0
0 0 0 706 873584 -18566 0
0 0 0 680 874264 -17886 0
0 0 0 675 874939 -17211 0
0 0 0 655 875594 -16556 0
0 0 0 639 876233 -15917 0
0 0 0 634 876867 -15283 0
0 0 0 628 877495 -14655 0
0 0 0 620 878115 -14035 0
0 0 0 608 878723 -13427 0
0 0 0 591 879314 -12836 0
0 0 0 586 879900 -12250 0
0 0 0 597 880497 -11653 0
0 0 0 623 881120 -11030 0
0 0 0 652 881772 -10378 0
0 0 0 716 882488 -9662 0
0 0 0 681 883169 -8981 0
0 0 0 669 883838 -8312 0
0 0 0 727 884565 -7585 0
0 0 0 680 885245 -6905 0
0 0 0 681 885926 -6224 0
0 0 0 638 886564 -5586 0
0 0 0 635 887199 -4951 0
0 0 0 684 887883 -4267 0
0 0 0 668 888551 -3599 0
0 0 0 656 889207 -2943 0
0 0 0 633 889840 -2310 0
41 1 S102 663 890503 -1647 0
41 1 S102 724 891227 -923 0
41 1 S102 762 891989 -161 0
41 2 S102 718 892707 557 0
41 2 S102 716 893423 1273 0
41 2 S102 720 894143 1993 0
41 2 S102 672 894815 2665 0
41 2 S102 642 895457 3307 0
41 2 S102 643 896100 3950 0
41 2 S102 683 896783 4633 0
41 2 S102 682 897465 5315 0
41 2 S102 666 898131 5981 0
41 2 S102 677 898808 6658 0
0 0 0 689 899497 -7010 0
0 0 0 730 900227 -6280 0
0 0 0 683 900910 -5597 0
0 0 0 749 901659 -4848 0
0 0 0 691 902350 -4157 0
0 0 0 667 903017 -3490 0
0 0 0 636 903653 -2854 0
0 0 0 647 904300 -2207 0
42 1 S112 672 904972 -1535 0
42 1 S112 683 905655 -852 0
42 1 S112 663 906318 -189 0
42 2 S112 670 906988 481 0
42 2 S112 704 907692 1185 0
42 2 S112 763 908455 1948 0
42 2 S112 775 909230 2723 0
42 2 S112 715 909945 3438 0
42 2 S112 782 910727 4220 0
42 2 S112 764 911491 4984 0
42 2 S112 742 912233 5726 0
42 2 S112 695 912928 6421 0
0 0 0 797 913725 -8995 0
0 0 0 762 914487 -8233 0
0 0 0 673 915160 -7560 0
0 0 0 668 915828 -6892 0
0 0 0 659 916487 -6233 0
0 0 0 662 917149 -5571 0
0 0 0 696 917845 -4875 0
0 0 0 670 918515 -4205 0
0 0 0 647 919162 -3558 0
0 0 0 637 919799 -2921 0
0 0 0 638 920437 -2283 0
43 1 S116 651 921088 -1632 0
43 1 S116 630 921718 -1002 0
43 1 S116 599 922317 -403 0
43 2 S116 592 922909 189 0
43 2 S116 621 923530 810 0
43 2 S116 628 924158 1438 0
43 2 S116 734 924892 2172 0
43 2 S116 1026 925918 3198 1
43 2 S116 1061 926979 4259 1
43 2 S116 1046 928025 5305 1
43 2 S116 1019 929044 6324 1
0 0 0 982 930026 -8858 1
0 0 0 936 930962 -7922 0
0 0 0 859 931821 -7063 0
0 0 0 790 932611 -6273 0
0 0 0 807 933418 -5466 0
0 0 0 817 934235 -4649 0
0 0 0 732 934967 -3917 0
0 0 0 724 935691 -3193 0
0 0 0 699 936390 -2494 0
44 1 S102 664 937054 -1830 0
44 1 S102 665 937719 -1165 0
44 1 S102 699 938418 -466 0
44 2 S102 876 939294 410 0
44 2 S102 940 940234 1350 0
44 2 S102 885 941119 2235 0
44 2 S102 857 941976 3092 0
44 2 S102 834 942810 3926 0
44 2 S102 799 943609 4725 0
44 2 S102 754 944363 5479 0
44 2 S102 707 945070 6186 0
44 2 S102 724 945794 6910 0
0 0 0 770 946564 -8998 0
0 0 0 880 947444 -8118 0
0 0 0 910 948354 -7208 0
0 0 0 942 949296 -6266 0
0 0 0 862 950158 -5404 0
0 0 0 760 950918 -4644 0
0 0 0 807 951725 -3837 0
0 0 0 830 952555 -3007 0
0 0 0 827 953382 -2180 0
45 1 S116 796 954178 -1384 0
45 1 S116 756 954934 -628 0
45 2 S116 731 955665 103 0
45 2 S116 734 956399 837 0
45 2 S116 749 957148 1586 0
45 2 S116 730 957878 2316 0
45 2 S116 749 958627 3065 0
45 2 S116 786 959413 3851 0
45 2 S116 836 960249 4687 0
45 2 S116 849 961098 5536 0
45 2 S116 787 961885 6323 0
0 0 0 799 962684 -12192 0
0 0 0 825 963509 -11367 0
0 0 0 798 964307 -10569 0
0 0 0 748 965055 -9821 0
0 0 0 774 965829 -9047 0
0 0 0 768 966597 -8279 0
0 0 0 718 967315 -7561 0
0 0 0 670 967985 -6891 0
0 0 0 707 968692 -6184 0
0 0 0 755 969447 -5429 0
0 0 0 748 970195 -4681 0
0 0 0 699 970894 -3982 0
0 0 0 746 971640 -3236 0
0 0 0 805 972445 -2431 0
46 1 S102 818 973263 -1613 0
46 1 S102 806 974069 -807 0
46 2 S102 822 974891 15 0
46 2 S102 807 975698 822 0
46 2 S102 789 976487 1611 0
46 2 S102 761 977248 2372 0
46 2 S102 768 978016 3140 0
46 2 S102 746 978762 3886 0
46 2 S102 741 979503 4627 0
46 2 S102 791 980294 5418 0
46 2 S102 826 981120 6244 0
46 2 S102 777 981897 7021 0
0 0 0 748 982645 -9174 0
0 0 0 781 983426 -8393 0
0 0 0 794 984220 -7599 0
0 0 0 753 984973 -6846 0
0 0 0 763 985736 -6083 0
0 0 0 754 986490 -5329 0
0 0 0 676 987166 -4653 0
0 0 0 677 987843 -3976 0
0 0 0 811 988654 -3165 0
0 0 0 767 989421 -2398 0
47 1 S112 731 990152 -1667 0
47 1 S112 728 990880 -939 0
47 1 S112 804 991684 -135 0
47 2 S112 853 992537 718 0
47 2 S112 941 993478 1659 0
47 2 S112 917 994395 2576 0
47 2 S112 942 995337 3518 0
47 2 S112 947 996284 4465 0
47 2 S112 920 997204 5385 0
47 2 S112 811 998015 6196 0
47 2 S112 814 998829 7010 0
0 0 0 814 999643 -10959 0
0 0 0 792 1000435 -10167 0
0 0 0 772 1001207 -9395 0
0 0 0 846 1002053 -8549 0
0 0 0 825 1002878 -7724 0
0 0 0 734 1003612 -6990 0
0 0 0 772 1004384 -6218 0
0 0 0 896 1005280 -5322 0
0 0 0 844 1006124 -4478 0
0 0 0 807 1006931 -3671 0
0 0 0 800 1007731 -2871 0
0 0 0 770 1008501 -2101 0
48 1 S116 742 1009243 -1359 0
48 1 S116 751 1009994 -608 0
48 2 S116 723 1010717 115 0
48 2 S116 680 1011397 795 0
48 2 S116 678 1012075 1473 0
48 2 S116 708 1012783 2181 0
48 2 S116 725 1013508 2906 0
48 2 S116 721 1014229 3627 0
48 2 S116 760 1014989 4387 0
48 2 S116 798 1015787 5185 0
48 2 S116 756 1016543 5941 0
48 2 S116 723 1017266 6664 0
0 0 0 713 1017979 -8456 0
0 0 0 722 1018701 -7734 0
0 0 0 737 1019438 -6997 0
0 0 0 717 1020155 -6280 0
0 0 0 682 1020837 -5598 0
0 0 0 697 1021534 -4901 0
0 0 0 690 1022224 -4211 0
0 0 0 702 1022926 -3509 0
0 0 0 676 1023602 -2833 0
0 0 0 696 1024298 -2137 0
49 1 S112 729 1025027 -1408 0
49 1 S112 740 1025767 -668 0
49 2 S112 741 1026508 73 0
49 2 S112 704 1027212 777 0
49 2 S112 804 1028016 1581 0
49 2 S112 827 1028843 2408 0
49 2 S112 886 1029729 3294 0
49 2 S112 901 1030630 4195 0
49 2 S112 902 1031532 5097 0
49 2 S112 911 1032443 6008 0
49 2 S112 866 1033309 6874 0
0 0 0 764 1034073 -10963 0
0 0 0 757 1034830 -10206 0
0 0 0 779 1035609 -9427 0
0 0 0 761 1036370 -8666 0
0 0 0 690 1037060 -7976 0
0 0 0 677 1037737 -7299 0
0 0 0 745 1038482 -6554 0
0 0 0 818 1039300 -5736 0
0 0 0 793 1040093 -4943 0
0 0 0 811 1040904 -4132 0
0 0 0 873 1041777 -3259 0
0 0 0 931 1042708 -2328 0
50 1 S106 864 1043572 -1464 0
50 1 S106 840 1044412 -624 0
50 2 S106 815 1045227 191 0
50 2 S106 796 1046023 987 0
50 2 S106 745 1046768 1732 0
50 2 S106 666 1047434 2398 0
50 2 S106 639 1048073 3037 0
50 2 S106 731 1048804 3768 0
50 2 S106 774 1049578 4542 0
50 2 S106 863 1050441 5405 0
50 2 S106 956 1051397 6361 0
0 0 0 1004 1052401 -8036 1
0 0 0 963 1053364 -7073 0
0 0 0 926 1054290 -6147 0
0 0 0 915 1055205 -5232 0
0 0 0 908 1056113 -4324 0
0 0 0 878 1056991 -3446 0
0 0 0 821 1057812 -2625 0
51 1 S112 768 1058580 -1857 0
51 1 S112 752 1059332 -1105 0
51 1 S112 762 1060094 -343 0
51 2 S112 755 1060849 412 0
51 2 S112 728 1061577 1140 0
51 2 S112 787 1062364 1927 0
51 2 S112 920 1063284 2847 0
51 2 S112 969 1064253 3816 0
51 2 S112 932 1065185 4748 0
51 2 S112 946 1066131 5694 0
51 2 S112 931 1067062 6625 0
0 0 0 909 1067971 -7005 0
0 0 0 844 1068815 -6161 0
0 0 0 847 1069662 -5314 0
0 0 0 820 1070482 -4494 0
0 0 0 750 1071232 -3744 0
0 0 0 702 1071934 -3042 0
0 0 0 681 1072615 -2361 0
52 1 S116 653 1073268 -1708 0
52 1 S116 621 1073889 -1087 0
52 1 S116 613 1074502 -474 0
52 2 S116 646 1075148 172 0
52 2 S116 786 1075934 958 0
52 2 S116 960 1076894 1918 0
52 2 S116 976 1077870 2894 0
52 2 S116 970 1078840 3864 0
52 2 S116 946 1079786 4810 0
52 2 S116 888 1080674 5698 0
52 2 S116 803 1081477 6501 0
0 0 0 772 1082249 -10582 0
0 0 0 760 1083009 -9822 0
0 0 0 755 1083764 -9067 0
0 0 0 745 1084509 -8322 0
0 0 0 736 1085245 -7586 0
0 0 0 758 1086003 -6828 0
0 0 0 709 1086712 -6119 0
0 0 0 694 1087406 -5425 0
0 0 0 661 1088067 -4764 0
0 0 0 683 1088750 -4081 0
0 0 0 704 1089454 -3377 0
0 0 0 672 1090126 -2705 0
0 0 0 651 1090777 -2054 0
53 1 S106 666 1091443 -1388 0
53 1 S106 701 1092144 -687 0
53 2 S106 700 1092844 13 0
53 2 S106 686 1093530 699 0
53 2 S106 671 1094201 1370 0
53 2 S106 644 1094845 2014 0
53 2 S106 614 1095459 2628 0
53 2 S106 605 1096064 3233 0
53 2 S106 694 1096758 3927 0
53 2 S106 782 1097540 4709 0
53 2 S106 791 1098331 5500 0
53 2 S106 904 1099235 6404 0
0 0 0 1003 1100238 -7613 1
0 0 0 969 1101207 -6644 0
0 0 0 845 1102052 -5799 0
0 0 0 877 1102929 -4922 0
0 0 0 794 1103723 -4128 0
0 0 0 720 1104443 -3408 0
0 0 0 675 1105118 -2733 0
0 0 0 639 1105757 -2094 0
54 1 S102 632 1106389 -1462 0
54 1 S102 653 1107042 -809 0
54 1 S102 629 1107671 -180 0
54 2 S102 661 1108332 481 0
54 2 S102 726 1109058 1207 0
54 2 S102 819 1109877 2026 0
54 2 S102 911 1110788 2937 0
54 2 S102 952 1111740 3889 0
54 2 S102 903 1112643 4792 0
54 2 S102 911 1113554 5703 0
54 2 S102 868 1114422 6571 0
0 0 0 817 1115239 -11346 0
0 0 0 784 1116023 -10562 0
0 0 0 748 1116771 -9814 0
0 0 0 769 1117540 -9045 0
0 0 0 784 1118324 -8261 0
0 0 0 865 1119189 -7396 0
0 0 0 817 1120006 -6579 0
0 0 0 824 1120830 -5755 0
0 0 0 825 1121655 -4930 0
0 0 0 808 1122463 -4122 0
0 0 0 738 1123201 -3384 0
0 0 0 705 1123906 -2679 0
55 1 S106 718 1124624 -1961 0
55 1 S106 713 1125337 -1248 0
55 1 S106 701 1126038 -547 0
55 2 S106 667 1126705 120 0
55 2 S106 681 1127386 801 0
55 2 S106 713 1128099 1514 0
55 2 S106 708 1128807 2222 0
55 2 S106 698 1129505 2920 0
55 2 S106 653 1130158 3573 0
55 2 S106 638 1130796 4211 0
55 2 S106 644 1131440 4855 0
55 2 S106 667 1132107 5522 0
55 2 S106 700 1132807 6222 0
55 2 S106 741 1133548 6963 0
0 0 0 739 1134287 -7152 0
0 0 0 764 1135051 -6388 0
0 0 0 708 1135759 -5680 0
0 0 0 737 1136496 -4943 0
0 0 0 709 1137205 -4234 0
0 0 0 728 1137933 -3506 0
0 0 0 663 1138596 -2843 0
0 0 0 733 1139329 -2110 0
56 1 S116 766 1140095 -1344 0
56 1 S116 867 1140962 -477 0
56 2 S116 871 1141833 394 0
56 2 S116 957 1142790 1351 0
56 2 S116 976 1143766 2327 0
56 2 S116 986 1144752 3313 1
56 2 S116 911 1145663 4224 0
56 2 S116 866 1146529 5090 0
56 2 S116 879 1147408 5969 0
56 2 S116 832 1148240 6801 0
0 0 0 765 1149005 -8233 0
0 0 0 787 1149792 -7446 0
0 0 0 781 1150573 -6665 0
0 0 0 802 1151375 -5863 0
0 0 0 769 1152144 -5094 0
0 0 0 778 1152922 -4316 0
0 0 0 754 1153676 -3562 0
0 0 0 732 1154408 -2830 0
0 0 0 748 1155156 -2082 0
57 1 S106 789 1155945 -1293 0
57 1 S106 824 1156769 -469 0
57 2 S106 922 1157691 453 0
57 2 S106 927 1158618 1380 0
57 2 S106 847 1159465 2227 0
57 2 S106 784 1160249 3011 0
57 2 S106 783 1161032 3794 0
57 2 S106 784 1161816 4578 0
57 2 S106 752 1162568 5330 0
57 2 S106 733 1163301 6063 0
57 2 S106 754 1164055 6817 0
0 0 0 799 1164854 -8366 0
0 0 0 784 1165638 -7582 0
0 0 0 773 1166411 -6809 0
0 0 0 764 1167175 -6045 0
0 0 0 747 1167922 -5298 0
0 0 0 701 1168623 -4597 0
0 0 0 712 1169335 -3885 0
0 0 0 764 1170099 -3121 0
0 0 0 768 1170867 -2353 0
58 1 S102 721 1171588 -1632 0
58 1 S102 772 1172360 -860 0
58 1 S102 804 1173164 -56 0
58 2 S102 808 1173972 752 0
58 2 S102 746 1174718 1498 0
58 2 S102 773 1175491 2271 0
58 2 S102 772 1176263 3043 0
58 2 S102 789 1177052 3832 0
58 2 S102 754 1177806 4586 0
58 2 S102 757 1178563 5343 0
58 2 S102 831 1179394 6174 0
0 0 0 881 1180275 -8346 0
0 0 0 880 1181155 -7466 0
0 0 0 824 1181979 -6642 0
0 0 0 848 1182827 -5794 0
0 0 0 811 1183638 -4983 0
0 0 0 716 1184354 -4267 0
0 0 0 720 1185074 -3547 0
0 0 0 754 1185828 -2793 0
0 0 0 771 1186599 -2022 0
59 1 S112 729 1187328 -1293 0
59 1 S112 806 1188134 -487 0
59 2 S112 850 1188984 363 0
59 2 S112 915 1189899 1278 0
59 2 S112 914 1190813 2192 0
59 2 S112 893 1191706 3085 0
59 2 S112 903 1192609 3988 0
59 2 S112 859 1193468 4847 0
59 2 S112 816 1194284 5663 0
59 2 S112 826 1195110 6489 0
0 0 0 814 1195924 -8844 0
0 0 0 775 1196699 -8069 0
0 0 0 802 1197501 -7267 0
0 0 0 844 1198345 -6423 0
0 0 0 802 1199147 -5621 0
0 0 0 748 1199895 -4873 0
0 0 0 748 1200643 -4125 0
0 0 0 768 1201411 -3357 0
0 0 0 717 1202128 -2640 0
60 1 S102 707 1202835 -1933 0
60 1 S102 722 1203557 -1211 0
60 1 S102 696 1204253 -515 0
60 2 S102 647 1204900 132 0
60 2 S102 657 1205557 789 0
60 2 S102 696 1206253 1485 0
60 2 S102 680 1206933 2165 0
60 2 S102 658 1207591 2823 0
60 2 S102 680 1208271 3503 0
60 2 S102 693 1208964 4196 0
60 2 S102 758 1209722 4954 0
60 2 S102 722 1210444 5676 0
60 2 S102 699 1211143 6375 0
0 0 0 793 1211936 -11665 0
0 0 0 843 1212779 -10822 0
0 0 0 866 1213645 -9956 0
0 0 0 841 1214486 -9115 0
0 0 0 756 1215242 -8359 0
0 0 0 756 1215998 -7603 0
0 0 0 747 1216745 -6856 0
0 0 0 708 1217453 -6148 0
0 0 0 700 1218153 -5448 0
0 0 0 732 1218885 -4716 0
0 0 0 753 1219638 -3963 0
0 0 0 770 1220408 -3193 0
0 0 0 731 1221139 -2462 0
61 1 S106 793 1221932 -1669 0
61 1 S106 791 1222723 -878 0
61 1 S106 752 1223475 -126 0
61 2 S106 771 1224246 645 0
61 2 S106 778 1225024 1423 0
61 2 S106 792 1225816 2215 0
61 2 S106 815 1226631 3030 0
61 2 S106 776 1227407 3806 0
61 2 S106 797 1228204 4603 0
61 2 S106 824 1229028 5427 0
61 2 S106 830 1229858 6257 0
0 0 0 790 1230648 -8056 0
0 0 0 761 1231409 -7295 0
0 0 0 853 1232262 -6442 0
0 0 0 865 1233127 -5577 0
0 0 0 796 1233923 -4781 0
0 0 0 690 1234613 -4091 0
0 0 0 667 1235280 -3424 0
0 0 0 819 1236099 -2605 0
62 1 S112 824 1236923 -1781 0
62 1 S112 799 1237722 -982 0
62 1 S112 791 1238513 -191 0
62 2 S112 768 1239281 577 0
62 2 S112 813 1240094 1390 0
62 2 S112 851 1240945 2241 0
62 2 S112 883 1241828 3124 0
62 2 S112 901 1242729 4025 0
62 2 S112 878 1243607 4903 0
62 2 S112 885 1244492 5788 0
62 2 S112 882 1245374 6670 0
0 0 0 886 1246260 -10680 0
0 0 0 872 1247132 -9808 0
0 0 0 797 1247929 -9011 0
0 0 0 721 1248650 -8290 0
0 0 0 718 1249368 -7572 0
0 0 0 754 1250122 -6818 0
0 0 0 790 1250912 -6028 0
0 0 0 744 1251656 -5284 0
0 0 0 867 1252523 -4417 0
0 0 0 973 1253496 -3444 0
0 0 0 979 1254475 -2465 1
63 1 S102 914 1255389 -1551 0
63 1 S102 926 1256315 -625 0
63 2 S102 900 1257215 275 0
63 2 S102 888 1258103 1163 0
63 2 S102 841 1258944 2004 0
63 2 S102 870 1259814 2874 0
63 2 S102 871 1260685 3745 0
63 2 S102 873 1261558 4618 0
63 2 S102 823 1262381 5441 0
63 2 S102 849 1263230 6290 0
0 0 0 852 1264082 -9105 0
0 0 0 824 1264906 -8281 0
0 0 0 852 1265758 -7429 0
0 0 0 864 1266622 -6565 0
0 0 0 816 1267438 -5749 0
0 0 0 812 1268250 -4937 0
0 0 0 809 1269059 -4128 0
0 0 0 769 1269828 -3359 0
0 0 0 726 1270554 -2633 0
64 1 S112 703 1271257 -1930 0
64 1 S112 678 1271935 -1252 0
64 1 S112 657 1272592 -595 0
64 2 S112 651 1273243 56 0
64 2 S112 641 1273884 697 0
64 2 S112 645 1274529 1342 0
64 2 S112 646 1275175 1988 0
64 2 S112 655 1275830 2643 0
64 2 S112 719 1276549 3362 0
64 2 S112 739 1277288 4101 0
64 2 S112 736 1278024 4837 0
64 2 S112 726 1278750 5563 0
64 2 S112 783 1279533 6346 0
0 0 0 752 1280285 -7756 0
0 0 0 752 1281037 -7004 0
0 0 0 753 1281790 -6251 0
0 0 0 685 1282475 -5566 0
0 0 0 689 1283164 -4877 0
0 0 0 676 1283840 -4201 0
0 0 0 662 1284502 -3539 0
0 0 0 637 1285139 -2902 0
0 0 0 627 1285766 -2275 0
65 1 S106 660 1286426 -1615 0
65 1 S106 789 1287215 -826 0
65 2 S106 877 1288092 51 0
65 2 S106 989 1289081 1040 1
65 2 S106 906 1289987 1946 0
65 2 S106 796 1290783 2742 0
65 2 S106 795 1291578 3537 0
65 2 S106 800 1292378 4337 0
65 2 S106 741 1293119 5078 0
65 2 S106 704 1293823 5782 0
65 2 S106 727 1294550 6509 0
0 0 0 730 1295280 -7384 0
0 0 0 746 1296026 -6638 0
0 0 0 707 1296733 -5931 0
0 0 0 724 1297457 -5207 0
0 0 0 742 1298199 -4465 0
0 0 0 714 1298913 -3751 0
0 0 0 681 1299594 -3070 0
0 0 0 651 1300245 -2419 0
66 1 S116 661 1300906 -1758 0
66 1 S116 759 1301665 -999 0
66 1 S116 715 1302380 -284 0
66 2 S116 727 1303107 443 0
66 2 S116 679 1303786 1122 0
66 2 S116 776 1304562 1898 0
66 2 S116 823 1305385 2721 0
66 2 S116 902 1306287 3623 0
66 2 S116 934 1307221 4557 0
66 2 S116 884 1308105 5441 0
66 2 S116 892 1308997 6333 0
0 0 0 898 1309895 -12530 0
0 0 0 888 1310783 -11642 0
0 0 0 796 1311579 -10846 0
0 0 0 818 1312397 -10028 0
0 0 0 797 1313194 -9231 0
0 0 0 740 1313934 -8491 0
0 0 0 698 1314632 -7793 0
0 0 0 742 1315374 -7051 0
0 0 0 825 1316199 -6226 0
0 0 0 813 1317012 -5413 0
0 0 0 867 1317879 -4546 0
0 0 0 890 1318769 -3656 0
0 0 0 864 1319633 -2792 0
0 0 0 768 1320401 -2024 0
67 1 S102 796 1321197 -1228 0
67 1 S102 827 1322024 -401 0
67 2 S102 736 1322760 335 0
67 2 S102 722 1323482 1057 0
67 2 S102 725 1324207 1782 0
67 2 S102 723 1324930 2505 0
67 2 S102 685 1325615 3190 0
67 2 S102 702 1326317 3892 0
67 2 S102 771 1327088 4663 0
67 2 S102 899 1327987 5562 0
67 2 S102 952 1328939 6514 0
0 0 0 910 1329849 -8176 0
0 0 0 958 1330807 -7218 0
0 0 0 912 1331719 -6306 0
0 0 0 866 1332585 -5440 0
0 0 0 878 1333463 -4562 0
0 0 0 838 1334301 -3724 0
0 0 0 762 1335063 -2962 0
0 0 0 698 1335761 -2264 0
68 1 S106 670 1336431 -1594 0
68 1 S106 653 1337084 -941 0
68 1 S106 634 1337718 -307 0
68 2 S106 615 1338333 308 0
68 2 S106 663 1338996 971 0
68 2 S106 663 1339659 1634 0
68 2 S106 765 1340424 2399 0
68 2 S106 865 1341289 3264 0
68 2 S106 918 1342207 4182 0
68 2 S106 925 1343132 5107 0
68 2 S106 960 1344092 6067 0
68 2 S106 922 1345014 6989 0
0 0 0 849 1345863 -10117 0
0 0 0 797 1346660 -9320 0
0 0 0 757 1347417 -8563 0
0 0 0 732 1348149 -7831 0
0 0 0 708 1348857 -7123 0
0 0 0 684 1349541 -6439 0
0 0 0 726 1350267 -5713 0
0 0 0 837 1351104 -4876 0
0 0 0 907 1352011 -3969 0
0 0 0 942 1352953 -3027 0
0 0 0 977 1353930 -2050 0
69 1 S102 971 1354901 -1079 0
69 1 S102 862 1355763 -217 0
69 2 S102 849 1356612 632 0
69 2 S102 844 1357456 1476 0
69 2 S102 821 1358277 2297 0
69 2 S102 781 1359058 3078 0
69 2 S102 799 1359857 3877 0
69 2 S102 773 1360630 4650 0
69 2 S102 714 1361344 5364 0
69 2 S102 686 1362030 6050 0
69 2 S102 704 1362734 6754 0
0 0 0 717 1363451 -9339 0
0 0 0 740 1364191 -8599 0
0 0 0 713 1364904 -7886 0
0 0 0 869 1365773 -7017 0
0 0 0 844 1366617 -6173 0
0 0 0 759 1367376 -5414 0
0 0 0 732 1368108 -4682 0
0 0 0 746 1368854 -3936 0
0 0 0 698 1369552 -3238 0
0 0 0 666 1370218 -2572 0
70 1 S112 698 1370916 -1874 0
70 1 S112 698 1371614 -1176 0
70 1 S112 673 1372287 -503 0
70 2 S112 661 1372948 158 0
70 2 S112 701 1373649 859 0
70 2 S112 778 1374427 1637 0
70 2 S112 797 1375224 2434 0
70 2 S112 792 1376016 3226 0
70 2 S112 829 1376845 4055 0
70 2 S112 875 1377720 4930 0
70 2 S112 895 1378615 5825 0
70 2 S112 864 1379479 6689 0
0 0 0 852 1380331 -12652 0
0 0 0 887 1381218 -11765 0
0 0 0 864 1382082 -10901 0
0 0 0 788 1382870 -10113 0
0 0 0 805 1383675 -9308 0
0 0 0 816 1384491 -8492 0
0 0 0 797 1385288 -7695 0
0 0 0 736 1386024 -6959 0
0 0 0 747 1386771 -6212 0
0 0 0 746 1387517 -5466 0
0 0 0 789 1388306 -4677 0
0 0 0 751 1389057 -3926 0
0 0 0 780 1389837 -3146 0
0 0 0 829 1390666 -2317 0
71 1 S116 833 1391499 -1484 0
71 1 S116 749 1392248 -735 0
71 2 S116 775 1393023 40 0
71 2 S116 774 1393797 814 0
71 2 S116 809 1394606 1623 0
71 2 S116 819 1395425 2442 0
71 2 S116 910 1396335 3352 0
71 2 S116 923 1397258 4275 0
71 2 S116 911 1398169 5186 0
71 2 S116 954 1399123 6140 0
0 0 0 963 1400086 -11382 0
0 0 0 918 1401004 -10464 0
0 0 0 801 1401805 -9663 0
0 0 0 786 1402591 -8877 0
0 0 0 767 1403358 -8110 0
0 0 0 752 1404110 -7358 0
0 0 0 699 1404809 -6659 0
0 0 0 712 1405521 -5947 0
0 0 0 759 1406280 -5188 0
0 0 0 879 1407159 -4309 0
0 0 0 861 1408020 -3448 0
0 0 0 994 1409014 -2454 1
72 1 S102 1021 1410035 -1433 1
72 1 S102 968 1411003 -465 0
72 2 S102 853 1411856 388 0
72 2 S102 780 1412636 1168 0
72 2 S102 759 1413395 1927 0
72 2 S102 789 1414184 2716 0
72 2 S102 821 1415005 3537 0
72 2 S102 806 1415811 4343 0
72 2 S102 876 1416687 5219 0
72 2 S102 920 1417607 6139 0
0 0 0 948 1418555 -8098 0
0 0 0 963 1419518 -7135 0
0 0 0 975 1420493 -6160 0
0 0 0 912 1421405 -5248 0
0 0 0 787 1422192 -4461 0
0 0 0 784 1422976 -3677 0
0 0 0 746 1423722 -2931 0
0 0 0 687 1424409 -2244 0
73 1 S116 666 1425075 -1578 0
73 1 S116 646 1425721 -932 0
73 1 S116 675 1426396 -257 0
73 2 S116 683 1427079 426 0
73 2 S116 719 1427798 1145 0
73 2 S116 721 1428519 1866 0
73 2 S116 848 1429367 2714 0
73 2 S116 970 1430337 3684 0
73 2 S116 1021 1431358 4705 1
73 2 S116 1032 1432390 5737 1
73 2 S116 977 1433367 6714 0
0 0 0 892 1434259 -8973 0
0 0 0 801 1435060 -8172 0
0 0 0 698 1435758 -7474 0
0 0 0 649 1436407 -6825 0
0 0 0 655 1437062 -6170 0
0 0 0 826 1437888 -5344 0
0 0 0 806 1438694 -4538 0
0 0 0 809 1439503 -3729 0
0 0 0 750 1440253 -2979 0
0 0 0 754 1441007 -2225 0
74 1 S106 845 1441852 -1380 0
74 1 S106 813 1442665 -567 0
74 2 S106 845 1443510 278 0
74 2 S106 876 1444386 1154 0
74 2 S106 848 1445234 2002 0
74 2 S106 845 1446079 2847 0
74 2 S106 789 1446868 3636 0
74 2 S106 769 1447637 4405 0
74 2 S106 793 1448430 5198 0
74 2 S106 789 1449219 5987 0
74 2 S106 743 1449962 6730 0
0 0 0 707 1450669 -6489 0
0 0 0 674 1451343 -5815 0
0 0 0 643 1451986 -5172 0
0 0 0 628 1452614 -4544 0
0 0 0 628 1453242 -3916 0
0 0 0 651 1453893 -3265 0
0 0 0 772 1454665 -2493 0
75 1 S112 817 1455482 -1676 0
75 1 S112 819 1456301 -857 0
75 1 S112 792 1457093 -65 0
75 2 S112 749 1457842 684 0
75 2 S112 772 1458614 1456 0
75 2 S112 738 1459352 2194 0
75 2 S112 706 1460058 2900 0
75 2 S112 751 1460809 3651 0
75 2 S112 847 1461656 4498 0
75 2 S112 917 1462573 5415 0
75 2 S112 959 1463532 6374 0
0 0 0 904 1464436 -6332 0
0 0 0 866 1465302 -5466 0
0 0 0 774 1466076 -4692 0
0 0 0 791 1466867 -3901 0
0 0 0 761 1467628 -3140 0
0 0 0 708 1468336 -2432 0
76 1 S116 720 1469056 -1712 0
76 1 S116 779 1469835 -933 0
76 1 S116 811 1470646 -122 0
76 2 S116 831 1471477 709 0
76 2 S116 894 1472371 1603 0
76 2 S116 873 1473244 2476 0
76 2 S116 814 1474058 3290 0
76 2 S116 822 1474880 4112 0
76 2 S116 807 1475687 4919 0
76 2 S116 802 1476489 5721 0
76 2 S116 780 1477269 6501 0
0 0 0 743 1478012 -6566 0
0 0 0 784 1478796 -5782 0
0 0 0 799 1479595 -4983 0
0 0 0 777 1480372 -4206 0
0 0 0 730 1481102 -3476 0
0 0 0 721 1481823 -2755 0
0 0 0 741 1482564 -2014 0
77 1 S106 747 1483311 -1267 0
77 1 S106 721 1484032 -546 0
77 2 S106 706 1484738 160 0
77 2 S106 720 1485458 880 0
77 2 S106 735 1486193 1615 0
77 2 S106 759 1486952 2374 0
77 2 S106 767 1487719 3141 0
77 2 S106 725 1488444 3866 0
77 2 S106 736 1489180 4602 0
77 2 S106 749 1489929 5351 0
77 2 S106 762 1490691 6113 0
77 2 S106 774 1491465 6887 0
0 0 0 790 1492255 -8056 0
0 0 0 736 1492991 -7320 0
0 0 0 720 1493711 -6600 0
0 0 0 688 1494399 -5912 0
0 0 0 673 1495072 -5239 0
0 0 0 627 1495699 -4612 0
0 0 0 626 1496325 -3986 0
0 0 0 637 1496962 -3349 0
0 0 0 697 1497659 -2652 0
78 1 S112 720 1498379 -1932 0
78 1 S112 715 1499094 -1217 0
78 1 S112 734 1499828 -483 0
78 2 S112 801 1500629 318 0
78 2 S112 831 1501460 1149 0
78 2 S112 790 1502250 1939 0
78 2 S112 833 1503083 2772 0
78 2 S112 828 1503911 3600 0
78 2 S112 812 1504723 4412 0
78 2 S112 740 1505463 5152 0
78 2 S112 711 1506174 5863 0
78 2 S112 727 1506901 6590 0
0 0 0 695 1507596 -13339 0
0 0 0 675 1508271 -12664 0
0 0 0 650 1508921 -12014 0
0 0 0 680 1509601 -11334 0
0 0 0 677 1510278 -10657 0
0 0 0 688 1510966 -9969 0
0 0 0 702 1511668 -9267 0
0 0 0 766 1512434 -8501 0
0 0 0 747 1513181 -7754 0
0 0 0 784 1513965 -6970 0
0 0 0 754 1514719 -6216 0
0 0 0 803 1515522 -5413 0
0 0 0 876 1516398 -4537 0
0 0 0 879 1517277 -3658 0
0 0 0 817 1518094 -2841 0
0 0 0 832 1518926 -2009 0
79 1 S102 814 1519740 -1195 0
79 1 S102 802 1520542 -393 0
79 2 S102 795 1521337 402 0
79 2 S102 794 1522131 1196 0
79 2 S102 779 1522910 1975 0
79 2 S102 726 1523636 2701 0
79 2 S102 768 1524404 3469 0
79 2 S102 798 1525202 4267 0
79 2 S102 807 1526009 5074 0
79 2 S102 810 1526819 5884 0
79 2 S102 795 1527614 6679 0
0 0 0 805 1528419 -10089 0
0 0 0 815 1529234 -9274 0
0 0 0 791 1530025 -8483 0
0 0 0 807 1530832 -7676 0
0 0 0 821 1531653 -6855 0
0 0 0 735 1532388 -6120 0
0 0 0 744 1533132 -5376 0
0 0 0 739 1533871 -4637 0
0 0 0 762 1534633 -3875 0
0 0 0 703 1535336 -3172 0
0 0 0 713 1536049 -2459 0
80 1 S116 744 1536793 -1715 0
80 1 S116 731 1537524 -984 0
80 1 S116 742 1538266 -242 0
80 2 S116 761 1539027 519 0
80 2 S116 744 1539771 1263 0
80 2 S116 714 1540485 1977 0
80 2 S116 767 1541252 2744 0
80 2 S116 821 1542073 3565 0
80 2 S116 890 1542963 4455 0
80 2 S116 886 1543849 5341 0
80 2 S116 917 1544766 6258 0
