T_0027
BeatCount Mean SD BeatCountNoOutliers MeanNoOutliers SDNoOutliers
2037 774,166912125675 53,2979598069765 1994 776,126379137412 47,9252330881007

Trial TrialStatus Trialtype IBI AbsPosition RelPosition Outlier
0 0 0 754 1364 -15140 0
0 0 0 699 2063 -14441 0
0 0 0 716 2779 -13725 0
0 0 0 734 3513 -12991 0
0 0 0 726 4239 -12265 0
0 0 0 679 4918 -11586 0
0 0 0 693 5611 -10893 0
0 0 0 699 6310 -10194 0
0 0 0 741 7051 -9453 0
0 0 0 740 7791 -8713 0
0 0 0 694 8485 -8019 0
0 0 0 722 9207 -7297 0
0 0 0 739 9946 -6558 0
0 0 0 774 10720 -5784 0
0 0 0 771 11491 -5013 0
0 0 0 742 12233 -4271 0
0 0 0 708 12941 -3563 0
0 0 0 693 13634 -2870 0
0 0 0 701 14335 -2169 0
1 1 S112 691 15026 -1478 0
1 1 S112 687 15713 -791 0
1 1 S112 676 16389 -115 0
1 2 S112 667 17056 552 0
1 2 S112 712 17768 1264 0
1 2 S112 747 18515 2011 0
1 2 S112 809 19324 2820 0
1 2 S112 832 20156 3652 0
1 2 S112 779 20935 4431 0
1 2 S112 784 21719 5215 0
1 2 S112 813 22532 6028 0
1 2 S112 813 23345 6841 0
0 0 0 785 24130 -11074 0
0 0 0 731 24861 -10343 0
0 0 0 763 25624 -9580 0
0 0 0 779 26403 -8801 0
0 0 0 741 27144 -8060 0
0 0 0 707 27851 -7353 0
0 0 0 744 28595 -6609 0
0 0 0 757 29352 -5852 0
0 0 0 733 30085 -5119 0
0 0 0 740 30825 -4379 0
0 0 0 775 31600 -3604 0
0 0 0 781 32381 -2823 0
0 0 0 786 33167 -2037 0
2 1 S102 736 33903 -1301 0
2 1 S102 775 34678 -526 0
2 2 S102 802 35480 276 0
2 2 S102 807 36287 1083 0
2 2 S102 816 37103 1899 0
2 2 S102 794 37897 2693 0
2 2 S102 804 38701 3497 0
2 2 S102 843 39544 4340 0
2 2 S102 843 40387 5183 0
2 2 S102 830 41217 6013 0
2 2 S102 756 41973 6769 0
0 0 0 792 42765 -9399 0
0 0 0 820 43585 -8579 0
0 0 0 831 44416 -7748 0
0 0 0 775 45191 -6973 0
0 0 0 752 45943 -6221 0
0 0 0 767 46710 -5454 0
0 0 0 747 47457 -4707 0
0 0 0 705 48162 -4002 0
0 0 0 747 48909 -3255 0
0 0 0 765 49674 -2490 0
3 1 S116 779 50453 -1711 0
3 1 S116 737 51190 -974 0
3 1 S116 776 51966 -198 0
3 2 S116 795 52761 597 0
3 2 S116 804 53565 1401 0
3 2 S116 803 54368 2204 0
3 2 S116 769 55137 2973 0
3 2 S116 821 55958 3794 0
3 2 S116 842 56800 4636 0
3 2 S116 841 57641 5477 0
3 2 S116 795 58436 6272 0
3 2 S116 738 59174 7010 0
0 0 0 776 59950 -12241 0
0 0 0 788 60738 -11453 0
0 0 0 776 61514 -10677 0
0 0 0 725 62239 -9952 0
0 0 0 757 62996 -9195 0
0 0 0 775 63771 -8420 0
0 0 0 774 64545 -7646 0
0 0 0 724 65269 -6922 0
0 0 0 733 66002 -6189 0
0 0 0 758 66760 -5431 0
0 0 0 769 67529 -4662 0
0 0 0 715 68244 -3947 0
0 0 0 748 68992 -3199 0
0 0 0 771 69763 -2428 0
4 1 S106 785 70548 -1643 0
4 1 S106 728 71276 -915 0
4 1 S106 745 72021 -170 0
4 2 S106 763 72784 593 0
4 2 S106 777 73561 1370 0
4 2 S106 792 74353 2162 0
4 2 S106 752 75105 2914 0
4 2 S106 747 75852 3661 0
4 2 S106 779 76631 4440 0
4 2 S106 781 77412 5221 0
4 2 S106 782 78194 6003 0
4 2 S106 733 78927 6736 0
0 0 0 740 79667 -7660 0
0 0 0 764 80431 -6896 0
0 0 0 765 81196 -6131 0
0 0 0 749 81945 -5382 0
0 0 0 732 82677 -4650 0
0 0 0 750 83427 -3900 0
0 0 0 786 84213 -3114 0
0 0 0 816 85029 -2298 0
5 1 S116 802 85831 -1496 0
5 1 S116 735 86566 -761 0
5 1 S116 753 87319 -8 0
5 2 S116 762 88081 754 0
5 2 S116 755 88836 1509 0
5 2 S116 716 89552 2225 0
5 2 S116 700 90252 2925 0
5 2 S116 716 90968 3641 0
5 2 S116 720 91688 4361 0
5 2 S116 736 92424 5097 0
5 2 S116 703 93127 5800 0
5 2 S116 712 93839 6512 0
0 0 0 748 94587 -10379 0
0 0 0 794 95381 -9585 0
0 0 0 793 96174 -8792 0
0 0 0 739 96913 -8053 0
0 0 0 773 97686 -7280 0
0 0 0 789 98475 -6491 0
0 0 0 754 99229 -5737 0
0 0 0 705 99934 -5032 0
0 0 0 727 100661 -4305 0
0 0 0 729 101390 -3576 0
0 0 0 719 102109 -2857 0
0 0 0 683 102792 -2174 0
6 1 S106 712 103504 -1462 0
6 1 S106 730 104234 -732 0
6 2 S106 742 104976 10 0
6 2 S106 739 105715 749 0
6 2 S106 706 106421 1455 0
6 2 S106 751 107172 2206 0
6 2 S106 755 107927 2961 0
6 2 S106 757 108684 3718 0
6 2 S106 732 109416 4450 0
6 2 S106 715 110131 5165 0
6 2 S106 738 110869 5903 0
6 2 S106 754 111623 6657 0
0 0 0 761 112384 -10636 0
0 0 0 730 113114 -9906 0
0 0 0 706 113820 -9200 0
0 0 0 736 114556 -8464 0
0 0 0 711 115267 -7753 0
0 0 0 714 115981 -7039 0
0 0 0 708 116689 -6331 0
0 0 0 716 117405 -5615 0
0 0 0 710 118115 -4905 0
0 0 0 684 118799 -4221 0
0 0 0 714 119513 -3507 0
0 0 0 712 120225 -2795 0
0 0 0 713 120938 -2082 0
7 1 S102 670 121608 -1412 0
7 1 S102 675 122283 -737 0
7 1 S102 700 122983 -37 0
7 2 S102 726 123709 689 0
7 2 S102 783 124492 1472 0
7 2 S102 810 125302 2282 0
7 2 S102 750 126052 3032 0
7 2 S102 806 126858 3838 0
7 2 S102 841 127699 4679 0
7 2 S102 838 128537 5517 0
7 2 S102 773 129310 6290 0
0 0 0 755 130065 -9832 0
0 0 0 783 130848 -9049 0
0 0 0 776 131624 -8273 0
0 0 0 755 132379 -7518 0
0 0 0 728 133107 -6790 0
0 0 0 750 133857 -6040 0
0 0 0 762 134619 -5278 0
0 0 0 728 135347 -4550 0
0 0 0 710 136057 -3840 0
0 0 0 749 136806 -3091 0
0 0 0 788 137594 -2303 0
8 1 S112 814 138408 -1489 0
8 1 S112 807 139215 -682 0
8 2 S112 764 139979 82 0
8 2 S112 798 140777 880 0
8 2 S112 814 141591 1694 0
8 2 S112 812 142403 2506 0
8 2 S112 787 143190 3293 0
8 2 S112 735 143925 4028 0
8 2 S112 771 144696 4799 0
8 2 S112 791 145487 5590 0
8 2 S112 798 146285 6388 0
0 0 0 757 147042 -8339 0
0 0 0 794 147836 -7545 0
0 0 0 812 148648 -6733 0
0 0 0 831 149479 -5902 0
0 0 0 770 150249 -5132 0
0 0 0 787 151036 -4345 0
0 0 0 800 151836 -3545 0
0 0 0 766 152602 -2779 0
0 0 0 721 153323 -2058 0
9 1 S116 751 154074 -1307 0
9 1 S116 762 154836 -545 0
9 2 S116 778 155614 233 0
9 2 S116 740 156354 973 0
9 2 S116 744 157098 1717 0
9 2 S116 785 157883 2502 0
9 2 S116 800 158683 3302 0
9 2 S116 765 159448 4067 0
9 2 S116 757 160205 4824 0
9 2 S116 789 160994 5613 0
9 2 S116 807 161801 6420 0
0 0 0 757 162558 -11424 0
0 0 0 738 163296 -10686 0
0 0 0 764 164060 -9922 0
0 0 0 769 164829 -9153 0
0 0 0 715 165544 -8438 0
0 0 0 727 166271 -7711 0
0 0 0 752 167023 -6959 0
0 0 0 772 167795 -6187 0
0 0 0 747 168542 -5440 0
0 0 0 724 169266 -4716 0
0 0 0 760 170026 -3956 0
0 0 0 766 170792 -3190 0
0 0 0 795 171587 -2395 0
10 1 S102 753 172340 -1642 0
10 1 S102 742 173082 -900 0
10 1 S102 782 173864 -118 0
10 2 S102 801 174665 683 0
10 2 S102 809 175474 1492 0
10 2 S102 793 176267 2285 0
10 2 S102 737 177004 3022 0
10 2 S102 770 177774 3792 0
10 2 S102 790 178564 4582 0
10 2 S102 814 179378 5396 0
10 2 S102 783 180161 6179 0
10 2 S102 759 180920 6938 0
0 0 0 810 181730 -11997 0
0 0 0 804 182534 -11193 0
0 0 0 757 183291 -10436 0
0 0 0 730 184021 -9706 0
0 0 0 771 184792 -8935 0
0 0 0 762 185554 -8173 0
0 0 0 721 186275 -7452 0
0 0 0 699 186974 -6753 0
0 0 0 722 187696 -6031 0
0 0 0 727 188423 -5304 0
0 0 0 693 189116 -4611 0
0 0 0 709 189825 -3902 0
0 0 0 733 190558 -3169 0
0 0 0 724 191282 -2445 0
11 1 S112 688 191970 -1757 0
11 1 S112 704 192674 -1053 0
11 1 S112 707 193381 -346 0
11 2 S112 724 194105 378 0
11 2 S112 752 194857 1130 0
11 2 S112 713 195570 1843 0
11 2 S112 736 196306 2579 0
11 2 S112 788 197094 3367 0
11 2 S112 819 197913 4186 0
11 2 S112 826 198739 5012 0
11 2 S112 761 199500 5773 0
11 2 S112 775 200275 6548 0
0 0 0 804 201079 -7834 0
0 0 0 832 201911 -7002 0
0 0 0 774 202685 -6228 0
0 0 0 740 203425 -5488 0
0 0 0 778 204203 -4710 0
0 0 0 779 204982 -3931 0
0 0 0 736 205718 -3195 0
0 0 0 744 206462 -2451 0
12 1 S116 765 207227 -1686 0
12 1 S116 784 208011 -902 0
12 1 S116 763 208774 -139 0
12 2 S116 718 209492 579 0
12 2 S116 774 210266 1353 0
12 2 S116 815 211081 2168 0
12 2 S116 855 211936 3023 0
12 2 S116 827 212763 3850 0
12 2 S116 767 213530 4617 0
12 2 S116 807 214337 5424 0
12 2 S116 837 215174 6261 0
0 0 0 845 216019 -12456 0
0 0 0 818 216837 -11638 0
0 0 0 737 217574 -10901 0
0 0 0 766 218340 -10135 0
0 0 0 776 219116 -9359 0
0 0 0 750 219866 -8609 0
0 0 0 705 220571 -7904 0
0 0 0 731 221302 -7173 0
0 0 0 754 222056 -6419 0
0 0 0 765 222821 -5654 0
0 0 0 717 223538 -4937 0
0 0 0 726 224264 -4211 0
0 0 0 763 225027 -3448 0
0 0 0 777 225804 -2671 0
13 1 S112 830 226634 -1841 0
13 1 S112 758 227392 -1083 0
13 1 S112 795 228187 -288 0
13 2 S112 849 229036 561 0
13 2 S112 874 229910 1435 0
13 2 S112 875 230785 2310 0
13 2 S112 796 231581 3106 0
13 2 S112 769 232350 3875 0
13 2 S112 805 233155 4680 0
13 2 S112 814 233969 5494 0
13 2 S112 770 234739 6264 0
13 2 S112 753 235492 7017 0
0 0 0 785 236277 -12291 0
0 0 0 764 237041 -11527 0
0 0 0 731 237772 -10796 0
0 0 0 788 238560 -10008 0
0 0 0 832 239392 -9176 0
0 0 0 775 240167 -8401 0
0 0 0 739 240906 -7662 0
0 0 0 775 241681 -6887 0
0 0 0 774 242455 -6113 0
0 0 0 722 243177 -5391 0
0 0 0 728 243905 -4663 0
0 0 0 751 244656 -3912 0
0 0 0 778 245434 -3134 0
0 0 0 808 246242 -2326 0
14 1 S106 797 247039 -1529 0
14 1 S106 750 247789 -779 0
14 2 S106 792 248581 13 0
14 2 S106 814 249395 827 0
14 2 S106 824 250219 1651 0
14 2 S106 807 251026 2458 0
14 2 S106 751 251777 3209 0
14 2 S106 791 252568 4000 0
14 2 S106 796 253364 4796 0
14 2 S106 809 254173 5605 0
14 2 S106 833 255006 6438 0
0 0 0 787 255793 -12056 0
0 0 0 764 256557 -11292 0
0 0 0 789 257346 -10503 0
0 0 0 793 258139 -9710 0
0 0 0 779 258918 -8931 0
0 0 0 707 259625 -8224 0
0 0 0 710 260335 -7514 0
0 0 0 726 261061 -6788 0
0 0 0 739 261800 -6049 0
0 0 0 774 262574 -5275 0
0 0 0 797 263371 -4478 0
0 0 0 817 264188 -3661 0
0 0 0 812 265000 -2849 0
0 0 0 800 265800 -2049 0
15 1 S116 800 266600 -1249 0
15 1 S116 773 267373 -476 0
15 2 S116 722 268095 246 0
15 2 S116 727 268822 973 0
15 2 S116 748 269570 1721 0
15 2 S116 787 270357 2508 0
15 2 S116 841 271198 3349 0
15 2 S116 847 272045 4196 0
15 2 S116 847 272892 5043 0
15 2 S116 770 273662 5813 0
15 2 S116 800 274462 6613 0
0 0 0 802 275264 -10042 0
0 0 0 807 276071 -9235 0
0 0 0 768 276839 -8467 0
0 0 0 726 277565 -7741 0
0 0 0 762 278327 -6979 0
0 0 0 758 279085 -6221 0
0 0 0 746 279831 -5475 0
0 0 0 736 280567 -4739 0
0 0 0 690 281257 -4049 0
0 0 0 709 281966 -3340 0
0 0 0 708 282674 -2632 0
16 1 S116 699 283373 -1933 0
16 1 S116 678 284051 -1255 0
16 1 S116 697 284748 -558 0
16 2 S116 701 285449 143 0
16 2 S116 724 286173 867 0
16 2 S116 740 286913 1607 0
16 2 S116 703 287616 2310 0
16 2 S116 704 288320 3014 0
16 2 S116 741 289061 3755 0
16 2 S116 757 289818 4512 0
16 2 S116 777 290595 5289 0
16 2 S116 795 291390 6084 0
16 2 S116 758 292148 6842 0
0 0 0 762 292910 -10384 0
0 0 0 785 293695 -9599 0
0 0 0 780 294475 -8819 0
0 0 0 737 295212 -8082 0
0 0 0 766 295978 -7316 0
0 0 0 770 296748 -6546 0
0 0 0 751 297499 -5795 0
0 0 0 718 298217 -5077 0
0 0 0 748 298965 -4329 0
0 0 0 765 299730 -3564 0
0 0 0 784 300514 -2780 0
0 0 0 745 301259 -2035 0
17 1 S106 736 301995 -1299 0
17 1 S106 778 302773 -521 0
17 2 S106 800 303573 279 0
17 2 S106 801 304374 1080 0
17 2 S106 779 305153 1859 0
17 2 S106 742 305895 2601 0
17 2 S106 784 306679 3385 0
17 2 S106 784 307463 4169 0
17 2 S106 782 308245 4951 0
17 2 S106 734 308979 5685 0
17 2 S106 732 309711 6417 0
0 0 0 761 310472 -13429 0
0 0 0 792 311264 -12637 0
0 0 0 783 312047 -11854 0
0 0 0 724 312771 -11130 0
0 0 0 764 313535 -10366 0
0 0 0 803 314338 -9563 0
0 0 0 826 315164 -8737 0
0 0 0 740 315904 -7997 0
0 0 0 738 316642 -7259 0
0 0 0 747 317389 -6512 0
0 0 0 754 318143 -5758 0
0 0 0 712 318855 -5046 0
0 0 0 695 319550 -4351 0
0 0 0 736 320286 -3615 0
0 0 0 747 321033 -2868 0
0 0 0 782 321815 -2086 0
18 1 S102 759 322574 -1327 0
18 1 S102 754 323328 -573 0
18 2 S102 801 324129 228 0
18 2 S102 806 324935 1034 0
18 2 S102 813 325748 1847 0
18 2 S102 777 326525 2624 0
18 2 S102 728 327253 3352 0
18 2 S102 765 328018 4117 0
18 2 S102 786 328804 4903 0
18 2 S102 802 329606 5705 0
18 2 S102 751 330357 6456 0
0 0 0 767 331124 -8327 0
0 0 0 804 331928 -7523 0
0 0 0 805 332733 -6718 0
0 0 0 803 333536 -5915 0
0 0 0 750 334286 -5165 0
0 0 0 799 335085 -4366 0
0 0 0 804 335889 -3562 0
0 0 0 767 336656 -2795 0
0 0 0 734 337390 -2061 0
19 1 S106 760 338150 -1301 0
19 1 S106 771 338921 -530 0
19 2 S106 777 339698 247 0
19 2 S106 755 340453 1002 0
19 2 S106 758 341211 1760 0
19 2 S106 780 341991 2540 0
19 2 S106 781 342772 3321 0
19 2 S106 754 343526 4075 0
19 2 S106 738 344264 4813 0
19 2 S106 796 345060 5609 0
19 2 S106 817 345877 6426 0
0 0 0 806 346683 -13259 0
0 0 0 758 347441 -12501 0
0 0 0 778 348219 -11723 0
0 0 0 794 349013 -10929 0
0 0 0 795 349808 -10134 0
0 0 0 743 350551 -9391 0
0 0 0 752 351303 -8639 0
0 0 0 771 352074 -7868 0
0 0 0 747 352821 -7121 0
0 0 0 713 353534 -6408 0
0 0 0 750 354284 -5658 0
0 0 0 761 355045 -4897 0
0 0 0 782 355827 -4115 0
0 0 0 744 356571 -3371 0
0 0 0 766 357337 -2605 0
20 1 S112 818 358155 -1787 0
20 1 S112 845 359000 -942 0
20 1 S112 840 359840 -102 0
20 2 S112 776 360616 674 0
20 2 S112 791 361407 1465 0
20 2 S112 803 362210 2268 0
20 2 S112 772 362982 3040 0
20 2 S112 736 363718 3776 0
20 2 S112 777 364495 4553 0
20 2 S112 812 365307 5365 0
20 2 S112 851 366158 6216 0
20 2 S112 793 366951 7009 0
0 0 0 822 367773 -10770 0
0 0 0 856 368629 -9914 0
0 0 0 842 369471 -9072 0
0 0 0 769 370240 -8303 0
0 0 0 794 371034 -7509 0
0 0 0 789 371823 -6720 0
0 0 0 787 372610 -5933 0
0 0 0 738 373348 -5195 0
0 0 0 758 374106 -4437 0
0 0 0 774 374880 -3663 0
0 0 0 796 375676 -2867 0
0 0 0 751 376427 -2116 0
21 1 S106 757 377184 -1359 0
21 1 S106 800 377984 -559 0
21 2 S106 834 378818 275 0
21 2 S106 855 379673 1130 0
21 2 S106 773 380446 1903 0
21 2 S106 800 381246 2703 0
21 2 S106 819 382065 3522 0
21 2 S106 836 382901 4358 0
21 2 S106 768 383669 5126 0
21 2 S106 778 384447 5904 0
21 2 S106 806 385253 6710 0
0 0 0 821 386074 -12048 0
0 0 0 784 386858 -11264 0
0 0 0 732 387590 -10532 0
0 0 0 792 388382 -9740 0
0 0 0 826 389208 -8914 0
0 0 0 830 390038 -8084 0
0 0 0 757 390795 -7327 0
0 0 0 760 391555 -6567 0
0 0 0 759 392314 -5808 0
0 0 0 728 393042 -5080 0
0 0 0 703 393745 -4377 0
0 0 0 738 394483 -3639 0
0 0 0 753 395236 -2886 0
0 0 0 767 396003 -2119 0
22 1 S116 736 396739 -1383 0
22 1 S116 750 397489 -633 0
22 2 S116 778 398267 145 0
22 2 S116 793 399060 938 0
22 2 S116 807 399867 1745 0
22 2 S116 814 400681 2559 0
22 2 S116 762 401443 3321 0
22 2 S116 790 402233 4111 0
22 2 S116 838 403071 4949 0
22 2 S116 869 403940 5818 0
22 2 S116 882 404822 6700 0
0 0 0 807 405629 -9221 0
0 0 0 812 406441 -8409 0
0 0 0 839 407280 -7570 0
0 0 0 797 408077 -6773 0
0 0 0 732 408809 -6041 0
0 0 0 776 409585 -5265 0
0 0 0 803 410388 -4462 0
0 0 0 802 411190 -3660 0
0 0 0 740 411930 -2920 0
0 0 0 787 412717 -2133 0
23 1 S112 799 413516 -1334 0
23 1 S112 810 414326 -524 0
23 2 S112 738 415064 214 0
23 2 S112 748 415812 962 0
23 2 S112 792 416604 1754 0
23 2 S112 792 417396 2546 0
23 2 S112 783 418179 3329 0
23 2 S112 725 418904 4054 0
23 2 S112 766 419670 4820 0
23 2 S112 779 420449 5599 0
23 2 S112 730 421179 6329 0
0 0 0 743 421922 -10468 0
0 0 0 781 422703 -9687 0
0 0 0 795 423498 -8892 0
0 0 0 724 424222 -8168 0
0 0 0 751 424973 -7417 0
0 0 0 803 425776 -6614 0
0 0 0 798 426574 -5816 0
0 0 0 735 427309 -5081 0
0 0 0 773 428082 -4308 0
0 0 0 781 428863 -3527 0
0 0 0 822 429685 -2705 0
24 1 S106 771 430456 -1934 0
24 1 S106 805 431261 -1129 0
24 1 S106 843 432104 -286 0
24 2 S106 855 432959 569 0
24 2 S106 793 433752 1362 0
24 2 S106 806 434558 2168 0
24 2 S106 831 435389 2999 0
24 2 S106 839 436228 3838 0
24 2 S106 795 437023 4633 0
24 2 S106 736 437759 5369 0
24 2 S106 766 438525 6135 0
24 2 S106 778 439303 6913 0
0 0 0 770 440073 -9624 0
0 0 0 784 440857 -8840 0
0 0 0 781 441638 -8059 0
0 0 0 766 442404 -7293 0
0 0 0 763 443167 -6530 0
0 0 0 788 443955 -5742 0
0 0 0 831 444786 -4911 0
0 0 0 847 445633 -4064 0
0 0 0 829 446462 -3235 0
0 0 0 754 447216 -2481 0
25 1 S102 777 447993 -1704 0
25 1 S102 787 448780 -917 0
25 1 S102 793 449573 -124 0
25 2 S102 749 450322 625 0
25 2 S102 737 451059 1362 0
25 2 S102 782 451841 2144 0
25 2 S102 817 452658 2961 0
25 2 S102 787 453445 3748 0
25 2 S102 741 454186 4489 0
25 2 S102 801 454987 5290 0
25 2 S102 813 455800 6103 0
25 2 S102 781 456581 6884 0
0 0 0 734 457315 -7303 0
0 0 0 769 458084 -6534 0
0 0 0 785 458869 -5749 0
0 0 0 751 459620 -4998 0
0 0 0 714 460334 -4284 0
0 0 0 745 461079 -3539 0
0 0 0 754 461833 -2785 0
0 0 0 739 462572 -2046 0
26 1 S116 704 463276 -1342 0
26 1 S116 746 464022 -596 0
26 2 S116 755 464777 159 0
26 2 S116 778 465555 937 0
26 2 S116 753 466308 1690 0
26 2 S116 737 467045 2427 0
26 2 S116 763 467808 3190 0
26 2 S116 784 468592 3974 0
26 2 S116 780 469372 4754 0
26 2 S116 722 470094 5476 0
26 2 S116 759 470853 6235 0
26 2 S116 780 471633 7015 0
0 0 0 833 472466 -8134 0
0 0 0 824 473290 -7310 0
0 0 0 751 474041 -6559 0
0 0 0 806 474847 -5753 0
0 0 0 840 475687 -4913 0
0 0 0 810 476497 -4103 0
0 0 0 756 477253 -3347 0
0 0 0 795 478048 -2552 0
27 1 S106 794 478842 -1758 0
27 1 S106 807 479649 -951 0
27 1 S106 764 480413 -187 0
27 2 S106 761 481174 574 0
27 2 S106 806 481980 1380 0
27 2 S106 817 482797 2197 0
27 2 S106 839 483636 3036 0
27 2 S106 805 484441 3841 0
27 2 S106 809 485250 4650 0
27 2 S106 854 486104 5504 0
27 2 S106 884 486988 6388 0
0 0 0 879 487867 -7819 0
0 0 0 815 488682 -7004 0
0 0 0 749 489431 -6255 0
0 0 0 786 490217 -5469 0
0 0 0 796 491013 -4673 0
0 0 0 780 491793 -3893 0
0 0 0 742 492535 -3151 0
0 0 0 782 493317 -2369 0
28 1 S102 812 494129 -1557 0
28 1 S102 851 494980 -706 0
28 2 S102 827 495807 121 0
28 2 S102 787 496594 908 0
28 2 S102 827 497421 1735 0
28 2 S102 843 498264 2578 0
28 2 S102 812 499076 3390 0
28 2 S102 756 499832 4146 0
28 2 S102 788 500620 4934 0
28 2 S102 809 501429 5743 0
28 2 S102 809 502238 6552 0
0 0 0 758 502996 -11772 0
0 0 0 780 503776 -10992 0
0 0 0 803 504579 -10189 0
0 0 0 819 505398 -9370 0
0 0 0 758 506156 -8612 0
0 0 0 756 506912 -7856 0
0 0 0 781 507693 -7075 0
0 0 0 792 508485 -6283 0
0 0 0 740 509225 -5543 0
0 0 0 749 509974 -4794 0
0 0 0 782 510756 -4012 0
0 0 0 809 511565 -3203 0
0 0 0 807 512372 -2396 0
29 1 S112 778 513150 -1618 0
29 1 S112 788 513938 -830 0
29 1 S112 826 514764 -4 0
29 2 S112 825 515589 821 0
29 2 S112 766 516355 1587 0
29 2 S112 776 517131 2363 0
29 2 S112 799 517930 3162 0
29 2 S112 758 518688 3920 0
29 2 S112 745 519433 4665 0
29 2 S112 789 520222 5454 0
29 2 S112 793 521015 6247 0
29 2 S112 750 521765 6997 0
0 0 0 785 522550 -6956 0
0 0 0 792 523342 -6164 0
0 0 0 725 524067 -5439 0
0 0 0 752 524819 -4687 0
0 0 0 764 525583 -3923 0
0 0 0 772 526355 -3151 0
0 0 0 742 527097 -2409 0
30 1 S112 734 527831 -1675 0
30 1 S112 767 528598 -908 0
30 1 S112 801 529399 -107 0
30 2 S112 804 530203 697 0
30 2 S112 760 530963 1457 0
30 2 S112 809 531772 2266 0
30 2 S112 809 532581 3075 0
30 2 S112 803 533384 3878 0
30 2 S112 736 534120 4614 0
30 2 S112 760 534880 5374 0
30 2 S112 783 535663 6157 0
30 2 S112 793 536456 6950 0
0 0 0 765 537221 -9361 0
0 0 0 748 537969 -8613 0
0 0 0 775 538744 -7838 0
0 0 0 782 539526 -7056 0
0 0 0 731 540257 -6325 0
0 0 0 739 540996 -5586 0
0 0 0 764 541760 -4822 0
0 0 0 781 542541 -4041 0
0 0 0 738 543279 -3303 0
0 0 0 768 544047 -2535 0
31 1 S106 784 544831 -1751 0
31 1 S106 785 545616 -966 0
31 1 S106 746 546362 -220 0
31 2 S106 764 547126 544 0
31 2 S106 779 547905 1323 0
31 2 S106 770 548675 2093 0
31 2 S106 719 549394 2812 0
31 2 S106 760 550154 3572 0
31 2 S106 768 550922 4340 0
31 2 S106 774 551696 5114 0
31 2 S106 779 552475 5893 0
31 2 S106 779 553254 6672 0
0 0 0 782 554036 -9389 0
0 0 0 758 554794 -8631 0
0 0 0 721 555515 -7910 0
0 0 0 724 556239 -7186 0
0 0 0 733 556972 -6453 0
0 0 0 755 557727 -5698 0
0 0 0 745 558472 -4953 0
0 0 0 728 559200 -4225 0
0 0 0 692 559892 -3533 0
0 0 0 708 560600 -2825 0
0 0 0 704 561304 -2121 0
32 1 S102 705 562009 -1416 0
32 1 S102 677 562686 -739 0
32 1 S102 678 563364 -61 0
32 2 S102 711 564075 650 0
32 2 S102 750 564825 1400 0
32 2 S102 782 565607 2182 0
32 2 S102 805 566412 2987 0
32 2 S102 750 567162 3737 0
32 2 S102 803 567965 4540 0
32 2 S102 840 568805 5380 0
32 2 S102 834 569639 6214 0
32 2 S102 791 570430 7005 0
0 0 0 733 571163 -10498 0
0 0 0 742 571905 -9756 0
0 0 0 740 572645 -9016 0
0 0 0 709 573354 -8307 0
0 0 0 690 574044 -7617 0
0 0 0 716 574760 -6901 0
0 0 0 722 575482 -6179 0
0 0 0 705 576187 -5474 0
0 0 0 744 576931 -4730 0
0 0 0 743 577674 -3987 0
0 0 0 720 578394 -3267 0
0 0 0 738 579132 -2529 0
33 1 S112 738 579870 -1791 0
33 1 S112 737 580607 -1054 0
33 1 S112 690 581297 -364 0
33 2 S112 687 581984 323 0
33 2 S112 710 582694 1033 0
33 2 S112 741 583435 1774 0
33 2 S112 786 584221 2560 0
33 2 S112 803 585024 3363 0
33 2 S112 749 585773 4112 0
33 2 S112 792 586565 4904 0
33 2 S112 838 587403 5742 0
33 2 S112 889 588292 6631 0
0 0 0 871 589163 -11597 0
0 0 0 805 589968 -10792 0
0 0 0 813 590781 -9979 0
0 0 0 800 591581 -9179 0
0 0 0 740 592321 -8439 0
0 0 0 708 593029 -7731 0
0 0 0 723 593752 -7008 0
0 0 0 730 594482 -6278 0
0 0 0 744 595226 -5534 0
0 0 0 754 595980 -4780 0
0 0 0 728 596708 -4052 0
0 0 0 759 597467 -3293 0
0 0 0 793 598260 -2500 0
34 1 S106 823 599083 -1677 0
34 1 S106 842 599925 -835 0
34 1 S106 807 600732 -28 0
34 2 S106 826 601558 798 0
34 2 S106 833 602391 1631 0
34 2 S106 819 603210 2450 0
34 2 S106 817 604027 3267 0
34 2 S106 778 604805 4045 0
34 2 S106 812 605617 4857 0
34 2 S106 823 606440 5680 0
34 2 S106 825 607265 6505 0
0 0 0 797 608062 -10536 0
0 0 0 798 608860 -9738 0
0 0 0 827 609687 -8911 0
0 0 0 823 610510 -8088 0
0 0 0 764 611274 -7324 0
0 0 0 790 612064 -6534 0
0 0 0 786 612850 -5748 0
0 0 0 746 613596 -5002 0
0 0 0 720 614316 -4282 0
0 0 0 748 615064 -3534 0
0 0 0 767 615831 -2767 0
35 1 S102 786 616617 -1981 0
35 1 S102 754 617371 -1227 0
35 1 S102 759 618130 -468 0
35 2 S102 778 618908 310 0
35 2 S102 790 619698 1100 0
35 2 S102 804 620502 1904 0
35 2 S102 791 621293 2695 0
35 2 S102 750 622043 3445 0
35 2 S102 780 622823 4225 0
35 2 S102 802 623625 5027 0
35 2 S102 815 624440 5842 0
35 2 S102 802 625242 6644 0
0 0 0 746 625988 -7962 0
0 0 0 761 626749 -7201 0
0 0 0 805 627554 -6396 0
0 0 0 828 628382 -5568 0
0 0 0 795 629177 -4773 0
0 0 0 741 629918 -4032 0
0 0 0 783 630701 -3249 0
0 0 0 786 631487 -2463 0
36 1 S106 785 632272 -1678 0
36 1 S106 757 633029 -921 0
36 1 S106 776 633805 -145 0
36 2 S106 829 634634 684 0
36 2 S106 850 635484 1534 0
36 2 S106 880 636364 2414 0
36 2 S106 813 637177 3227 0
36 2 S106 775 637952 4002 0
36 2 S106 814 638766 4816 0
36 2 S106 824 639590 5640 0
36 2 S106 795 640385 6435 0
0 0 0 749 641134 -11069 0
0 0 0 803 641937 -10266 0
0 0 0 791 642728 -9475 0
0 0 0 801 643529 -8674 0
0 0 0 740 644269 -7934 0
0 0 0 753 645022 -7181 0
0 0 0 779 645801 -6402 0
0 0 0 791 646592 -5611 0
0 0 0 730 647322 -4881 0
0 0 0 747 648069 -4134 0
0 0 0 764 648833 -3370 0
0 0 0 766 649599 -2604 0
37 1 S116 744 650343 -1860 0
37 1 S116 724 651067 -1136 0
37 1 S116 752 651819 -384 0
37 2 S116 759 652578 375 0
37 2 S116 785 653363 1160 0
37 2 S116 802 654165 1962 0
37 2 S116 753 654918 2715 0
37 2 S116 768 655686 3483 0
37 2 S116 792 656478 4275 0
37 2 S116 807 657285 5082 0
37 2 S116 788 658073 5870 0
37 2 S116 731 658804 6601 0
0 0 0 764 659568 -12711 0
0 0 0 777 660345 -11934 0
0 0 0 787 661132 -11147 0
0 0 0 765 661897 -10382 0
0 0 0 741 662638 -9641 0
0 0 0 792 663430 -8849 0
0 0 0 764 664194 -8085 0
0 0 0 738 664932 -7347 0
0 0 0 768 665700 -6579 0
0 0 0 784 666484 -5795 0
0 0 0 795 667279 -5000 0
0 0 0 751 668030 -4249 0
0 0 0 775 668805 -3474 0
0 0 0 803 669608 -2671 0
38 1 S102 832 670440 -1839 0
38 1 S102 824 671264 -1015 0
38 1 S102 778 672042 -237 0
38 2 S102 805 672847 568 0
38 2 S102 817 673664 1385 0
38 2 S102 817 674481 2202 0
38 2 S102 819 675300 3021 0
38 2 S102 750 676050 3771 0
38 2 S102 754 676804 4525 0
38 2 S102 789 677593 5314 0
38 2 S102 806 678399 6120 0
38 2 S102 814 679213 6934 0
0 0 0 753 679966 -9107 0
0 0 0 759 680725 -8348 0
0 0 0 787 681512 -7561 0
0 0 0 813 682325 -6748 0
0 0 0 772 683097 -5976 0
0 0 0 751 683848 -5225 0
0 0 0 793 684641 -4432 0
0 0 0 809 685450 -3623 0
0 0 0 793 686243 -2830 0
0 0 0 742 686985 -2088 0
39 1 S116 782 687767 -1306 0
39 1 S116 807 688574 -499 0
39 2 S116 827 689401 328 0
39 2 S116 820 690221 1148 0
39 2 S116 777 690998 1925 0
39 2 S116 825 691823 2750 0
39 2 S116 863 692686 3613 0
39 2 S116 897 693583 4510 0
39 2 S116 875 694458 5385 0
39 2 S116 803 695261 6188 0
39 2 S116 748 696009 6936 0
0 0 0 780 696789 -7901 0
0 0 0 789 697578 -7112 0
0 0 0 801 698379 -6311 0
0 0 0 752 699131 -5559 0
0 0 0 743 699874 -4816 0
0 0 0 777 700651 -4039 0
0 0 0 795 701446 -3244 0
0 0 0 766 702212 -2478 0
40 1 S112 745 702957 -1733 0
40 1 S112 785 703742 -948 0
40 1 S112 815 704557 -133 0
40 2 S112 812 705369 679 0
40 2 S112 762 706131 1441 0
40 2 S112 753 706884 2194 0
40 2 S112 795 707679 2989 0
40 2 S112 815 708494 3804 0
40 2 S112 768 709262 4572 0
40 2 S112 761 710023 5333 0
40 2 S112 788 710811 6121 0
40 2 S112 817 711628 6938 0
0 0 0 791 712419 -186702 0
0 0 0 748 713167 -185954 0
0 0 0 795 713962 -185159 0
0 0 0 813 714775 -184346 0
0 0 0 752 715527 -183594 0
0 0 0 701 716228 -182893 0
0 0 0 707 716935 -182186 0
0 0 0 771 717706 -181415 0
0 0 0 745 718451 -180670 0
0 0 0 775 719226 -179895 0
0 0 0 800 720026 -179095 0
0 0 0 802 720828 -178293 0
0 0 0 788 721616 -177505 0
0 0 0 778 722394 -176727 0
0 0 0 760 723154 -175967 0
0 0 0 767 723921 -175200 0
0 0 0 763 724684 -174437 0
0 0 0 726 725410 -173711 0
0 0 0 713 726123 -172998 0
0 0 0 699 726822 -172299 0
0 0 0 672 727494 -171627 0
0 0 0 656 728150 -170971 0
0 0 0 636 728786 -170335 1
0 0 0 614 729400 -169721 1
0 0 0 602 730002 -169119 1
0 0 0 595 730597 -168524 1
0 0 0 586 731183 -167938 1
0 0 0 580 731763 -167358 1
0 0 0 575 732338 -166783 1
0 0 0 568 732906 -166215 1
0 0 0 595 733501 -165620 1
0 0 0 631 734132 -164989 1
0 0 0 652 734784 -164337 0
0 0 0 678 735462 -163659 0
0 0 0 801 736263 -162858 0
0 0 0 810 737073 -162048 0
0 0 0 828 737901 -161220 0
0 0 0 749 738650 -160471 0
0 0 0 767 739417 -159704 0
0 0 0 744 740161 -158960 0
0 0 0 737 740898 -158223 0
0 0 0 727 741625 -157496 0
0 0 0 719 742344 -156777 0
0 0 0 704 743048 -156073 0
0 0 0 685 743733 -155388 0
0 0 0 685 744418 -154703 0
0 0 0 693 745111 -154010 0
0 0 0 714 745825 -153296 0
0 0 0 705 746530 -152591 0
0 0 0 698 747228 -151893 0
0 0 0 699 747927 -151194 0
0 0 0 681 748608 -150513 0
0 0 0 674 749282 -149839 0
0 0 0 681 749963 -149158 0
0 0 0 653 750616 -148505 0
0 0 0 646 751262 -147859 0
0 0 0 636 751898 -147223 1
0 0 0 634 752532 -146589 1
0 0 0 621 753153 -145968 1
0 0 0 612 753765 -145356 1
0 0 0 618 754383 -144738 1
0 0 0 631 755014 -144107 1
0 0 0 671 755685 -143436 0
0 0 0 730 756415 -142706 0
0 0 0 705 757120 -142001 0
0 0 0 692 757812 -141309 0
0 0 0 723 758535 -140586 0
0 0 0 771 759306 -139815 0
0 0 0 795 760101 -139020 0
0 0 0 752 760853 -138268 0
0 0 0 751 761604 -137517 0
0 0 0 760 762364 -136757 0
0 0 0 712 763076 -136045 0
0 0 0 714 763790 -135331 0
0 0 0 687 764477 -134644 0
0 0 0 671 765148 -133973 0
0 0 0 668 765816 -133305 0
0 0 0 637 766453 -132668 0
0 0 0 644 767097 -132024 0
0 0 0 631 767728 -131393 1
0 0 0 623 768351 -130770 1
0 0 0 629 768980 -130141 1
0 0 0 639 769619 -129502 0
0 0 0 623 770242 -128879 1
0 0 0 638 770880 -128241 0
0 0 0 670 771550 -127571 0
0 0 0 698 772248 -126873 0
0 0 0 760 773008 -126113 0
0 0 0 765 773773 -125348 0
0 0 0 717 774490 -124631 0
0 0 0 706 775196 -123925 0
0 0 0 694 775890 -123231 0
0 0 0 681 776571 -122550 0
0 0 0 678 777249 -121872 0
0 0 0 668 777917 -121204 0
0 0 0 666 778583 -120538 0
0 0 0 648 779231 -119890 0
0 0 0 641 779872 -119249 0
0 0 0 631 780503 -118618 1
0 0 0 622 781125 -117996 1
0 0 0 609 781734 -117387 1
0 0 0 598 782332 -116789 1
0 0 0 590 782922 -116199 1
0 0 0 580 783502 -115619 1
0 0 0 600 784102 -115019 1
0 0 0 615 784717 -114404 1
0 0 0 611 785328 -113793 1
0 0 0 609 785937 -113184 1
0 0 0 624 786561 -112560 1
0 0 0 656 787217 -111904 0
0 0 0 658 787875 -111246 0
0 0 0 701 788576 -110545 0
0 0 0 669 789245 -109876 0
0 0 0 690 789935 -109186 0
0 0 0 714 790649 -108472 0
0 0 0 720 791369 -107752 0
0 0 0 712 792081 -107040 0
0 0 0 671 792752 -106369 0
0 0 0 685 793437 -105684 0
0 0 0 667 794104 -105017 0
0 0 0 651 794755 -104366 0
0 0 0 649 795404 -103717 0
0 0 0 659 796063 -103058 0
0 0 0 657 796720 -102401 0
0 0 0 659 797379 -101742 0
0 0 0 669 798048 -101073 0
0 0 0 680 798728 -100393 0
0 0 0 735 799463 -99658 0
0 0 0 766 800229 -98892 0
0 0 0 795 801024 -98097 0
0 0 0 788 801812 -97309 0
0 0 0 742 802554 -96567 0
0 0 0 810 803364 -95757 0
0 0 0 821 804185 -94936 0
0 0 0 813 804998 -94123 0
0 0 0 769 805767 -93354 0
0 0 0 739 806506 -92615 0
0 0 0 724 807230 -91891 0
0 0 0 682 807912 -91209 0
0 0 0 673 808585 -90536 0
0 0 0 690 809275 -89846 0
0 0 0 728 810003 -89118 0
0 0 0 764 810767 -88354 0
0 0 0 688 811455 -87666 0
0 0 0 766 812221 -86900 0
0 0 0 896 813117 -86004 0
0 0 0 859 813976 -85145 0
0 0 0 784 814760 -84361 0
0 0 0 859 815619 -83502 0
0 0 0 899 816518 -82603 0
0 0 0 844 817362 -81759 0
0 0 0 798 818160 -80961 0
0 0 0 828 818988 -80133 0
0 0 0 816 819804 -79317 0
0 0 0 755 820559 -78562 0
0 0 0 777 821336 -77785 0
0 0 0 759 822095 -77026 0
0 0 0 831 822926 -76195 0
0 0 0 885 823811 -75310 0
0 0 0 920 824731 -74390 1
0 0 0 811 825542 -73579 0
0 0 0 804 826346 -72775 0
0 0 0 846 827192 -71929 0
0 0 0 856 828048 -71073 0
0 0 0 815 828863 -70258 0
0 0 0 744 829607 -69514 0
0 0 0 810 830417 -68704 0
0 0 0 845 831262 -67859 0
0 0 0 875 832137 -66984 0
0 0 0 783 832920 -66201 0
0 0 0 798 833718 -65403 0
0 0 0 808 834526 -64595 0
0 0 0 824 835350 -63771 0
0 0 0 765 836115 -63006 0
0 0 0 727 836842 -62279 0
0 0 0 742 837584 -61537 0
0 0 0 806 838390 -60731 0
0 0 0 830 839220 -59901 0
0 0 0 799 840019 -59102 0
0 0 0 781 840800 -58321 0
0 0 0 782 841582 -57539 0
0 0 0 727 842309 -56812 0
0 0 0 717 843026 -56095 0
0 0 0 738 843764 -55357 0
0 0 0 742 844506 -54615 0
0 0 0 748 845254 -53867 0
0 0 0 770 846024 -53097 0
0 0 0 761 846785 -52336 0
0 0 0 725 847510 -51611 0
0 0 0 735 848245 -50876 0
0 0 0 732 848977 -50144 0
0 0 0 733 849710 -49411 0
0 0 0 703 850413 -48708 0
0 0 0 728 851141 -47980 0
0 0 0 740 851881 -47240 0
0 0 0 750 852631 -46490 0
0 0 0 742 853373 -45748 0
0 0 0 751 854124 -44997 0
0 0 0 774 854898 -44223 0
0 0 0 785 855683 -43438 0
0 0 0 771 856454 -42667 0
0 0 0 712 857166 -41955 0
0 0 0 706 857872 -41249 0
0 0 0 742 858614 -40507 0
0 0 0 702 859316 -39805 0
0 0 0 681 859997 -39124 0
0 0 0 663 860660 -38461 0
0 0 0 644 861304 -37817 0
0 0 0 630 861934 -37187 1
0 0 0 653 862587 -36534 0
0 0 0 671 863258 -35863 0
0 0 0 666 863924 -35197 0
0 0 0 658 864582 -34539 0
0 0 0 651 865233 -33888 0
0 0 0 657 865890 -33231 0
0 0 0 654 866544 -32577 0
0 0 0 650 867194 -31927 0
0 0 0 668 867862 -31259 0
0 0 0 678 868540 -30581 0
0 0 0 689 869229 -29892 0
0 0 0 691 869920 -29201 0
0 0 0 689 870609 -28512 0
0 0 0 678 871287 -27834 0
0 0 0 674 871961 -27160 0
0 0 0 671 872632 -26489 0
0 0 0 660 873292 -25829 0
0 0 0 634 873926 -25195 1
0 0 0 632 874558 -24563 1
0 0 0 649 875207 -23914 0
0 0 0 721 875928 -23193 0
0 0 0 1080 877008 -22113 1
0 0 0 981 877989 -21132 1
0 0 0 974 878963 -20158 1
0 0 0 904 879867 -19254 0
0 0 0 909 880776 -18345 0
0 0 0 933 881709 -17412 1
0 0 0 910 882619 -16502 0
0 0 0 799 883418 -15703 0
0 0 0 787 884205 -14916 0
0 0 0 811 885016 -14105 0
0 0 0 797 885813 -13308 0
0 0 0 802 886615 -12506 0
0 0 0 781 887396 -11725 0
0 0 0 722 888118 -11003 0
0 0 0 740 888858 -10263 0
0 0 0 754 889612 -9509 0
0 0 0 715 890327 -8794 0
0 0 0 674 891001 -8120 0
0 0 0 687 891688 -7433 0
0 0 0 717 892405 -6716 0
0 0 0 729 893134 -5987 0
0 0 0 738 893872 -5249 0
0 0 0 719 894591 -4530 0
0 0 0 742 895333 -3788 0
0 0 0 732 896065 -3056 0
0 0 0 693 896758 -2363 0
41 1 S102 716 897474 -1647 0
41 1 S102 732 898206 -915 0
41 1 S102 737 898943 -178 0
41 2 S102 733 899676 555 0
41 2 S102 706 900382 1261 0
41 2 S102 720 901102 1981 0
41 2 S102 737 901839 2718 0
41 2 S102 766 902605 3484 0
41 2 S102 789 903394 4273 0
41 2 S102 743 904137 5016 0
41 2 S102 747 904884 5763 0
41 2 S102 787 905671 6550 0
0 0 0 793 906464 -6649 0
0 0 0 805 907269 -5844 0
0 0 0 752 908021 -5092 0
0 0 0 763 908784 -4329 0
0 0 0 768 909552 -3561 0
0 0 0 762 910314 -2799 0
0 0 0 721 911035 -2078 0
42 1 S112 754 911789 -1324 0
42 1 S112 766 912555 -558 0
42 2 S112 781 913336 223 0
42 2 S112 761 914097 984 0
42 2 S112 715 914812 1699 0
42 2 S112 737 915549 2436 0
42 2 S112 774 916323 3210 0
42 2 S112 794 917117 4004 0
42 2 S112 793 917910 4797 0
42 2 S112 752 918662 5549 0
42 2 S112 796 919458 6345 0
0 0 0 805 920263 -9876 0
0 0 0 811 921074 -9065 0
0 0 0 769 921843 -8296 0
0 0 0 736 922579 -7560 0
0 0 0 775 923354 -6785 0
0 0 0 772 924126 -6013 0
0 0 0 739 924865 -5274 0
0 0 0 729 925594 -4545 0
0 0 0 771 926365 -3774 0
0 0 0 780 927145 -2994 0
0 0 0 787 927932 -2207 0
43 1 S116 733 928665 -1474 0
43 1 S116 771 929436 -703 0
43 2 S116 790 930226 87 0
43 2 S116 810 931036 897 0
43 2 S116 805 931841 1702 0
43 2 S116 748 932589 2450 0
43 2 S116 800 933389 3250 0
43 2 S116 812 934201 4062 0
43 2 S116 843 935044 4905 0
43 2 S116 828 935872 5733 0
43 2 S116 763 936635 6496 0
0 0 0 759 937394 -8246 0
0 0 0 789 938183 -7457 0
0 0 0 794 938977 -6663 0
0 0 0 770 939747 -5893 0
0 0 0 719 940466 -5174 0
0 0 0 756 941222 -4418 0
0 0 0 771 941993 -3647 0
0 0 0 738 942731 -2909 0
0 0 0 714 943445 -2195 0
44 1 S102 748 944193 -1447 0
44 1 S102 757 944950 -690 0
44 2 S102 762 945712 72 0
44 2 S102 732 946444 804 0
44 2 S102 760 947204 1564 0
44 2 S102 775 947979 2339 0
44 2 S102 788 948767 3127 0
44 2 S102 788 949555 3915 0
44 2 S102 734 950289 4649 0
44 2 S102 759 951048 5408 0
44 2 S102 772 951820 6180 0
44 2 S102 785 952605 6965 0
0 0 0 776 953381 -9484 0
0 0 0 755 954136 -8729 0
0 0 0 744 954880 -7985 0
0 0 0 736 955616 -7249 0
0 0 0 722 956338 -6527 0
0 0 0 715 957053 -5812 0
0 0 0 703 957756 -5109 0
0 0 0 710 958466 -4399 0
0 0 0 754 959220 -3645 0
0 0 0 814 960034 -2831 0
0 0 0 814 960848 -2017 0
45 1 S116 767 961615 -1250 0
45 1 S116 740 962355 -510 0
45 2 S116 709 963064 199 0
45 2 S116 719 963783 918 0
45 2 S116 731 964514 1649 0
45 2 S116 744 965258 2393 0
45 2 S116 683 965941 3076 0
45 2 S116 689 966630 3765 0
45 2 S116 729 967359 4494 0
45 2 S116 803 968162 5297 0
45 2 S116 814 968976 6111 0
45 2 S116 743 969719 6854 0
0 0 0 830 970549 -12309 0
0 0 0 857 971406 -11452 0
0 0 0 807 972213 -10645 0
0 0 0 756 972969 -9889 0
0 0 0 805 973774 -9084 0
0 0 0 802 974576 -8282 0
0 0 0 760 975336 -7522 0
0 0 0 713 976049 -6809 0
0 0 0 745 976794 -6064 0
0 0 0 734 977528 -5330 0
0 0 0 754 978282 -4576 0
0 0 0 732 979014 -3844 0
0 0 0 733 979747 -3111 0
0 0 0 780 980527 -2331 0
46 1 S102 801 981328 -1530 0
46 1 S102 771 982099 -759 0
46 1 S102 755 982854 -4 0
46 2 S102 786 983640 782 0
46 2 S102 787 984427 1569 0
46 2 S102 807 985234 2376 0
46 2 S102 773 986007 3149 0
46 2 S102 771 986778 3920 0
46 2 S102 813 987591 4733 0
46 2 S102 838 988429 5571 0
46 2 S102 832 989261 6403 0
0 0 0 775 990036 -10528 0
0 0 0 815 990851 -9713 0
0 0 0 819 991670 -8894 0
0 0 0 826 992496 -8068 0
0 0 0 767 993263 -7301 0
0 0 0 789 994052 -6512 0
0 0 0 786 994838 -5726 0
0 0 0 765 995603 -4961 0
0 0 0 728 996331 -4233 0
0 0 0 762 997093 -3471 0
0 0 0 785 997878 -2686 0
47 1 S112 793 998671 -1893 0
47 1 S112 762 999433 -1131 0
47 1 S112 755 1000188 -376 0
47 2 S112 799 1000987 423 0
47 2 S112 823 1001810 1246 0
47 2 S112 830 1002640 2076 0
47 2 S112 803 1003443 2879 0
47 2 S112 775 1004218 3654 0
47 2 S112 805 1005023 4459 0
47 2 S112 828 1005851 5287 0
47 2 S112 820 1006671 6107 0
47 2 S112 743 1007414 6850 0
0 0 0 742 1008156 -12634 0
0 0 0 779 1008935 -11855 0
0 0 0 776 1009711 -11079 0
0 0 0 717 1010428 -10362 0
0 0 0 704 1011132 -9658 0
0 0 0 740 1011872 -8918 0
0 0 0 746 1012618 -8172 0
0 0 0 708 1013326 -7464 0
0 0 0 722 1014048 -6742 0
0 0 0 768 1014816 -5974 0
0 0 0 795 1015611 -5179 0
0 0 0 846 1016457 -4333 0
0 0 0 815 1017272 -3518 0
0 0 0 791 1018063 -2727 0
48 1 S116 827 1018890 -1900 0
48 1 S116 815 1019705 -1085 0
48 1 S116 793 1020498 -292 0
48 2 S116 752 1021250 460 0
48 2 S116 742 1021992 1202 0
48 2 S116 786 1022778 1988 0
48 2 S116 859 1023637 2847 0
48 2 S116 914 1024551 3761 1
48 2 S116 872 1025423 4633 0
48 2 S116 806 1026229 5439 0
48 2 S116 837 1027066 6276 0
0 0 0 842 1027908 -8283 0
0 0 0 802 1028710 -7481 0
0 0 0 746 1029456 -6735 0
0 0 0 770 1030226 -5965 0
0 0 0 797 1031023 -5168 0
0 0 0 787 1031810 -4381 0
0 0 0 721 1032531 -3660 0
0 0 0 742 1033273 -2918 0
0 0 0 747 1034020 -2171 0
49 1 S112 757 1034777 -1414 0
49 1 S112 730 1035507 -684 0
49 2 S112 730 1036237 46 0
49 2 S112 795 1037032 841 0
49 2 S112 844 1037876 1685 0
49 2 S112 865 1038741 2550 0
49 2 S112 830 1039571 3380 0
49 2 S112 799 1040370 4179 0
49 2 S112 824 1041194 5003 0
49 2 S112 805 1041999 5808 0
49 2 S112 745 1042744 6553 0
0 0 0 734 1043478 -11579 0
0 0 0 756 1044234 -10823 0
0 0 0 770 1045004 -10053 0
0 0 0 752 1045756 -9301 0
0 0 0 724 1046480 -8577 0
0 0 0 751 1047231 -7826 0
0 0 0 742 1047973 -7084 0
0 0 0 701 1048674 -6383 0
0 0 0 716 1049390 -5667 0
0 0 0 703 1050093 -4964 0
0 0 0 707 1050800 -4257 0
0 0 0 709 1051509 -3548 0
0 0 0 690 1052199 -2858 0
0 0 0 701 1052900 -2157 0
50 1 S106 714 1053614 -1443 0
50 1 S106 730 1054344 -713 0
50 2 S106 740 1055084 27 0
50 2 S106 743 1055827 770 0
50 2 S106 711 1056538 1481 0
50 2 S106 739 1057277 2220 0
50 2 S106 750 1058027 2970 0
50 2 S106 799 1058826 3769 0
50 2 S106 766 1059592 4535 0
50 2 S106 815 1060407 5350 0
50 2 S106 860 1061267 6210 0
0 0 0 873 1062140 -7490 0
0 0 0 859 1062999 -6631 0
0 0 0 792 1063791 -5839 0
0 0 0 778 1064569 -5061 0
0 0 0 803 1065372 -4258 0
0 0 0 804 1066176 -3454 0
0 0 0 787 1066963 -2667 0
51 1 S112 749 1067712 -1918 0
51 1 S112 801 1068513 -1117 0
51 1 S112 850 1069363 -267 0
51 2 S112 885 1070248 618 0
51 2 S112 829 1071077 1447 0
51 2 S112 846 1071923 2293 0
51 2 S112 878 1072801 3171 0
51 2 S112 910 1073711 4081 0
51 2 S112 863 1074574 4944 0
51 2 S112 811 1075385 5755 0
51 2 S112 829 1076214 6584 0
0 0 0 843 1077057 -7427 0
0 0 0 831 1077888 -6596 0
0 0 0 741 1078629 -5855 0
0 0 0 741 1079370 -5114 0
0 0 0 754 1080124 -4360 0
0 0 0 755 1080879 -3605 0
0 0 0 693 1081572 -2912 0
0 0 0 719 1082291 -2193 0
52 1 S116 741 1083032 -1452 0
52 1 S116 791 1083823 -661 0
52 2 S116 827 1084650 166 0
52 2 S116 760 1085410 926 0
52 2 S116 797 1086207 1723 0
52 2 S116 833 1087040 2556 0
52 2 S116 858 1087898 3414 0
52 2 S116 802 1088700 4216 0
52 2 S116 769 1089469 4985 0
52 2 S116 766 1090235 5751 0
52 2 S116 773 1091008 6524 0
0 0 0 734 1091742 -9718 0
0 0 0 702 1092444 -9016 0
0 0 0 741 1093185 -8275 0
0 0 0 767 1093952 -7508 0
0 0 0 784 1094736 -6724 0
0 0 0 728 1095464 -5996 0
0 0 0 805 1096269 -5191 0
0 0 0 879 1097148 -4312 0
0 0 0 900 1098048 -3412 0
0 0 0 839 1098887 -2573 0
53 1 S106 843 1099730 -1730 0
53 1 S106 888 1100618 -842 0
53 2 S106 907 1101525 65 0
53 2 S106 872 1102397 937 0
53 2 S106 785 1103182 1722 0
53 2 S106 818 1104000 2540 0
53 2 S106 853 1104853 3393 0
53 2 S106 863 1105716 4256 0
53 2 S106 807 1106523 5063 0
53 2 S106 814 1107337 5877 0
53 2 S106 870 1108207 6747 0
0 0 0 900 1109107 -8318 0
0 0 0 874 1109981 -7444 0
0 0 0 779 1110760 -6665 0
0 0 0 814 1111574 -5851 0
0 0 0 860 1112434 -4991 0
0 0 0 830 1113264 -4161 0
0 0 0 761 1114025 -3400 0
0 0 0 819 1114844 -2581 0
54 1 S102 843 1115687 -1738 0
54 1 S102 861 1116548 -877 0
54 1 S102 796 1117344 -81 0
54 2 S102 821 1118165 740 0
54 2 S102 885 1119050 1625 0
54 2 S102 919 1119969 2544 1
54 2 S102 878 1120847 3422 0
54 2 S102 808 1121655 4230 0
54 2 S102 866 1122521 5096 0
54 2 S102 908 1123429 6004 0
54 2 S102 915 1124344 6919 1
0 0 0 865 1125209 -10834 0
0 0 0 775 1125984 -10059 0
0 0 0 830 1126814 -9229 0
0 0 0 832 1127646 -8397 0
0 0 0 780 1128426 -7617 0
0 0 0 778 1129204 -6839 0
0 0 0 840 1130044 -5999 0
0 0 0 872 1130916 -5127 0
0 0 0 848 1131764 -4279 0
0 0 0 829 1132593 -3450 0
0 0 0 876 1133469 -2574 0
55 1 S106 895 1134364 -1679 0
55 1 S106 879 1135243 -800 0
55 1 S106 798 1136041 -2 0
55 2 S106 810 1136851 808 0
55 2 S106 840 1137691 1648 0
55 2 S106 851 1138542 2499 0
55 2 S106 878 1139420 3377 0
55 2 S106 819 1140239 4196 0
55 2 S106 849 1141088 5045 0
55 2 S106 875 1141963 5920 0
55 2 S106 875 1142838 6795 0
0 0 0 809 1143647 -7349 0
0 0 0 810 1144457 -6539 0
0 0 0 830 1145287 -5709 0
0 0 0 862 1146149 -4847 0
0 0 0 765 1146914 -4082 0
0 0 0 784 1147698 -3298 0
0 0 0 807 1148505 -2491 0
56 1 S116 828 1149333 -1663 0
56 1 S116 775 1150108 -888 0
56 1 S116 775 1150883 -113 0
56 2 S116 823 1151706 710 0
56 2 S116 860 1152566 1570 0
56 2 S116 888 1153454 2458 0
56 2 S116 840 1154294 3298 0
56 2 S116 816 1155110 4114 0
56 2 S116 852 1155962 4966 0
56 2 S116 870 1156832 5836 0
56 2 S116 873 1157705 6709 0
0 0 0 800 1158505 -7163 0
0 0 0 800 1159305 -6363 0
0 0 0 830 1160135 -5533 0
0 0 0 848 1160983 -4685 0
0 0 0 769 1161752 -3916 0
0 0 0 765 1162517 -3151 0
0 0 0 815 1163332 -2336 0
57 1 S106 837 1164169 -1499 0
57 1 S106 793 1164962 -706 0
57 2 S106 812 1165774 106 0
57 2 S106 874 1166648 980 0
57 2 S106 853 1167501 1833 0
57 2 S106 835 1168336 2668 0
57 2 S106 768 1169104 3436 0
57 2 S106 781 1169885 4217 0
57 2 S106 820 1170705 5037 0
57 2 S106 880 1171585 5917 0
57 2 S106 871 1172456 6788 0
0 0 0 806 1173262 -8670 0
0 0 0 847 1174109 -7823 0
0 0 0 867 1174976 -6956 0
0 0 0 788 1175764 -6168 0
0 0 0 754 1176518 -5414 0
0 0 0 798 1177316 -4616 0
0 0 0 813 1178129 -3803 0
0 0 0 825 1178954 -2978 0
0 0 0 760 1179714 -2218 0
58 1 S102 779 1180493 -1439 0
58 1 S102 814 1181307 -625 0
58 2 S102 830 1182137 205 0
58 2 S102 825 1182962 1030 0
58 2 S102 774 1183736 1804 0
58 2 S102 798 1184534 2602 0
58 2 S102 845 1185379 3447 0
58 2 S102 856 1186235 4303 0
58 2 S102 809 1187044 5112 0
58 2 S102 774 1187818 5886 0
58 2 S102 823 1188641 6709 0
0 0 0 851 1189492 -7460 0
0 0 0 823 1190315 -6637 0
0 0 0 763 1191078 -5874 0
0 0 0 824 1191902 -5050 0
0 0 0 836 1192738 -4214 0
0 0 0 786 1193524 -3428 0
0 0 0 775 1194299 -2653 0
59 1 S112 819 1195118 -1834 0
59 1 S112 814 1195932 -1020 0
59 1 S112 786 1196718 -234 0
59 2 S112 749 1197467 515 0
59 2 S112 801 1198268 1316 0
59 2 S112 844 1199112 2160 0
59 2 S112 867 1199979 3027 0
59 2 S112 790 1200769 3817 0
59 2 S112 819 1201588 4636 0
59 2 S112 850 1202438 5486 0
59 2 S112 866 1203304 6352 0
0 0 0 799 1204103 -10389 0
0 0 0 818 1204921 -9571 0
0 0 0 856 1205777 -8715 0
0 0 0 867 1206644 -7848 0
0 0 0 790 1207434 -7058 0
0 0 0 795 1208229 -6263 0
0 0 0 807 1209036 -5456 0
0 0 0 749 1209785 -4707 0
0 0 0 731 1210516 -3976 0
0 0 0 771 1211287 -3205 0
0 0 0 821 1212108 -2384 0
60 1 S102 845 1212953 -1539 0
60 1 S102 791 1213744 -748 0
60 2 S102 798 1214542 50 0
60 2 S102 830 1215372 880 0
60 2 S102 825 1216197 1705 0
60 2 S102 789 1216986 2494 0
60 2 S102 744 1217730 3238 0
60 2 S102 790 1218520 4028 0
60 2 S102 820 1219340 4848 0
60 2 S102 856 1220196 5704 0
60 2 S102 821 1221017 6525 0
0 0 0 785 1221802 -11722 0
0 0 0 833 1222635 -10889 0
0 0 0 842 1223477 -10047 0
0 0 0 787 1224264 -9260 0
0 0 0 802 1225066 -8458 0
0 0 0 827 1225893 -7631 0
0 0 0 834 1226727 -6797 0
0 0 0 782 1227509 -6015 0
0 0 0 786 1228295 -5229 0
0 0 0 800 1229095 -4429 0
0 0 0 830 1229925 -3599 0
0 0 0 850 1230775 -2749 0
61 1 S106 849 1231624 -1900 0
61 1 S106 793 1232417 -1107 0
61 1 S106 837 1233254 -270 0
61 2 S106 862 1234116 592 0
61 2 S106 875 1234991 1467 0
61 2 S106 867 1235858 2334 0
61 2 S106 798 1236656 3132 0
61 2 S106 825 1237481 3957 0
61 2 S106 874 1238355 4831 0
61 2 S106 902 1239257 5733 0
61 2 S106 882 1240139 6615 0
0 0 0 806 1240945 -7516 0
0 0 0 840 1241785 -6676 0
0 0 0 876 1242661 -5800 0
0 0 0 849 1243510 -4951 0
0 0 0 756 1244266 -4195 0
0 0 0 788 1245054 -3407 0
0 0 0 806 1245860 -2601 0
62 1 S112 826 1246686 -1775 0
62 1 S112 790 1247476 -985 0
62 1 S112 775 1248251 -210 0
62 2 S112 824 1249075 614 0
62 2 S112 832 1249907 1446 0
62 2 S112 835 1250742 2281 0
62 2 S112 755 1251497 3036 0
62 2 S112 786 1252283 3822 0
62 2 S112 791 1253074 4613 0
62 2 S112 788 1253862 5401 0
62 2 S112 733 1254595 6134 0
62 2 S112 760 1255355 6894 0
0 0 0 781 1256136 -11506 0
0 0 0 807 1256943 -10699 0
0 0 0 741 1257684 -9958 0
0 0 0 775 1258459 -9183 0
0 0 0 784 1259243 -8399 0
0 0 0 753 1259996 -7646 0
0 0 0 695 1260691 -6951 0
0 0 0 696 1261387 -6255 0
0 0 0 709 1262096 -5546 0
0 0 0 734 1262830 -4812 0
0 0 0 760 1263590 -4052 0
0 0 0 799 1264389 -3253 0
0 0 0 825 1265214 -2428 0
63 1 S102 825 1266039 -1603 0
63 1 S102 815 1266854 -788 0
63 2 S102 796 1267650 8 0
63 2 S102 785 1268435 793 0
63 2 S102 779 1269214 1572 0
63 2 S102 763 1269977 2335 0
63 2 S102 765 1270742 3100 0
63 2 S102 767 1271509 3867 0
63 2 S102 775 1272284 4642 0
63 2 S102 782 1273066 5424 0
63 2 S102 813 1273879 6237 0
0 0 0 831 1274710 -9477 0
0 0 0 838 1275548 -8639 0
0 0 0 787 1276335 -7852 0
0 0 0 783 1277118 -7069 0
0 0 0 803 1277921 -6266 0
0 0 0 821 1278742 -5445 0
0 0 0 773 1279515 -4672 0
0 0 0 751 1280266 -3921 0
0 0 0 788 1281054 -3133 0
0 0 0 813 1281867 -2320 0
64 1 S112 817 1282684 -1503 0
64 1 S112 758 1283442 -745 0
64 2 S112 780 1284222 35 0
64 2 S112 789 1285011 824 0
64 2 S112 815 1285826 1639 0
64 2 S112 803 1286629 2442 0
64 2 S112 754 1287383 3196 0
64 2 S112 791 1288174 3987 0
64 2 S112 837 1289011 4824 0
64 2 S112 842 1289853 5666 0
64 2 S112 842 1290695 6508 0
0 0 0 794 1291489 -7403 0
0 0 0 813 1292302 -6590 0
0 0 0 809 1293111 -5781 0
0 0 0 774 1293885 -5007 0
0 0 0 732 1294617 -4275 0
0 0 0 756 1295373 -3519 0
0 0 0 779 1296152 -2740 0
65 1 S106 813 1296965 -1927 0
65 1 S106 751 1297716 -1176 0
65 1 S106 764 1298480 -412 0
65 2 S106 785 1299265 373 0
65 2 S106 791 1300056 1164 0
65 2 S106 742 1300798 1906 0
65 2 S106 757 1301555 2663 0
65 2 S106 780 1302335 3443 0
65 2 S106 792 1303127 4235 0
65 2 S106 810 1303937 5045 0
65 2 S106 754 1304691 5799 0
65 2 S106 772 1305463 6571 0
0 0 0 812 1306275 -6908 0
0 0 0 819 1307094 -6089 0
0 0 0 803 1307897 -5286 0
0 0 0 751 1308648 -4535 0
0 0 0 783 1309431 -3752 0
0 0 0 809 1310240 -2943 0
0 0 0 822 1311062 -2121 0
66 1 S116 808 1311870 -1313 0
66 1 S116 776 1312646 -537 0
66 2 S116 817 1313463 280 0
66 2 S116 851 1314314 1131 0
66 2 S116 862 1315176 1993 0
66 2 S116 866 1316042 2859 0
66 2 S116 788 1316830 3647 0
66 2 S116 811 1317641 4458 0
66 2 S116 823 1318464 5281 0
66 2 S116 822 1319286 6103 0
66 2 S116 779 1320065 6882 0
0 0 0 757 1320822 -12056 0
0 0 0 793 1321615 -11263 0
0 0 0 802 1322417 -10461 0
0 0 0 780 1323197 -9681 0
0 0 0 765 1323962 -8916 0
0 0 0 794 1324756 -8122 0
0 0 0 798 1325554 -7324 0
0 0 0 747 1326301 -6577 0
0 0 0 751 1327052 -5826 0
0 0 0 773 1327825 -5053 0
0 0 0 787 1328612 -4266 0
0 0 0 762 1329374 -3504 0
0 0 0 736 1330110 -2768 0
67 1 S102 769 1330879 -1999 0
67 1 S102 788 1331667 -1211 0
67 1 S102 803 1332470 -408 0
67 2 S102 767 1333237 359 0
67 2 S102 783 1334020 1142 0
67 2 S102 814 1334834 1956 0
67 2 S102 820 1335654 2776 0
67 2 S102 800 1336454 3576 0
67 2 S102 752 1337206 4328 0
67 2 S102 791 1337997 5119 0
67 2 S102 803 1338800 5922 0
67 2 S102 808 1339608 6730 0
0 0 0 776 1340384 -8160 0
0 0 0 748 1341132 -7412 0
0 0 0 778 1341910 -6634 0
0 0 0 805 1342715 -5829 0
0 0 0 799 1343514 -5030 0
0 0 0 749 1344263 -4281 0
0 0 0 797 1345060 -3484 0
0 0 0 816 1345876 -2668 0
68 1 S106 795 1346671 -1873 0
68 1 S106 753 1347424 -1120 0
68 1 S106 788 1348212 -332 0
68 2 S106 807 1349019 475 0
68 2 S106 799 1349818 1274 0
68 2 S106 742 1350560 2016 0
68 2 S106 754 1351314 2770 0
68 2 S106 786 1352100 3556 0
68 2 S106 806 1352906 4362 0
68 2 S106 808 1353714 5170 0
68 2 S106 769 1354483 5939 0
68 2 S106 795 1355278 6734 0
0 0 0 840 1356118 -12039 0
0 0 0 823 1356941 -11216 0
0 0 0 780 1357721 -10436 0
0 0 0 743 1358464 -9693 0
0 0 0 784 1359248 -8909 0
0 0 0 797 1360045 -8112 0
0 0 0 811 1360856 -7301 0
0 0 0 767 1361623 -6534 0
0 0 0 761 1362384 -5773 0
0 0 0 800 1363184 -4973 0
0 0 0 819 1364003 -4154 0
0 0 0 825 1364828 -3329 0
0 0 0 774 1365602 -2555 0
69 1 S102 796 1366398 -1759 0
69 1 S102 823 1367221 -936 0
69 1 S102 847 1368068 -89 0
69 2 S102 817 1368885 728 0
69 2 S102 791 1369676 1519 0
69 2 S102 819 1370495 2338 0
69 2 S102 833 1371328 3171 0
69 2 S102 788 1372116 3959 0
69 2 S102 767 1372883 4726 0
69 2 S102 809 1373692 5535 0
69 2 S102 821 1374513 6356 0
0 0 0 812 1375325 -11201 0
0 0 0 774 1376099 -10427 0
0 0 0 777 1376876 -9650 0
0 0 0 809 1377685 -8841 0
0 0 0 810 1378495 -8031 0
0 0 0 759 1379254 -7272 0
0 0 0 793 1380047 -6479 0
0 0 0 787 1380834 -5692 0
0 0 0 746 1381580 -4946 0
0 0 0 720 1382300 -4226 0
0 0 0 738 1383038 -3488 0
0 0 0 758 1383796 -2730 0
70 1 S112 742 1384538 -1988 0
70 1 S112 708 1385246 -1280 0
70 1 S112 728 1385974 -552 0
70 2 S112 752 1386726 200 0
70 2 S112 771 1387497 971 0
70 2 S112 756 1388253 1727 0
70 2 S112 780 1389033 2507 0
70 2 S112 794 1389827 3301 0
70 2 S112 745 1390572 4046 0
70 2 S112 754 1391326 4800 0
70 2 S112 776 1392102 5576 0
70 2 S112 790 1392892 6366 0
0 0 0 739 1393631 -11811 0
0 0 0 752 1394383 -11059 0
0 0 0 766 1395149 -10293 0
0 0 0 764 1395913 -9529 0
0 0 0 716 1396629 -8813 0
0 0 0 691 1397320 -8122 0
0 0 0 700 1398020 -7422 0
0 0 0 756 1398776 -6666 0
0 0 0 778 1399554 -5888 0
0 0 0 795 1400349 -5093 0
0 0 0 820 1401169 -4273 0
0 0 0 832 1402001 -3441 0
0 0 0 846 1402847 -2595 0
71 1 S116 847 1403694 -1748 0
71 1 S116 823 1404517 -925 0
71 1 S116 824 1405341 -101 0
71 2 S116 802 1406143 701 0
71 2 S116 798 1406941 1499 0
71 2 S116 809 1407750 2308 0
71 2 S116 831 1408581 3139 0
71 2 S116 844 1409425 3983 0
71 2 S116 850 1410275 4833 0
71 2 S116 851 1411126 5684 0
71 2 S116 836 1411962 6520 0
0 0 0 775 1412737 -10974 0
0 0 0 822 1413559 -10152 0
0 0 0 819 1414378 -9333 0
0 0 0 797 1415175 -8536 0
0 0 0 797 1415972 -7739 0
0 0 0 921 1416893 -6818 1
0 0 0 900 1417793 -5918 0
0 0 0 848 1418641 -5070 0
0 0 0 776 1419417 -4294 0
0 0 0 813 1420230 -3481 0
0 0 0 810 1421040 -2671 0
72 1 S102 801 1421841 -1870 0
72 1 S102 741 1422582 -1129 0
72 1 S102 754 1423336 -375 0
72 2 S102 770 1424106 395 0
72 2 S102 786 1424892 1181 0
72 2 S102 790 1425682 1971 0
72 2 S102 751 1426433 2722 0
72 2 S102 801 1427234 3523 0
72 2 S102 824 1428058 4347 0
72 2 S102 844 1428902 5191 0
72 2 S102 783 1429685 5974 0
72 2 S102 826 1430511 6800 0
0 0 0 814 1431325 -7124 0
0 0 0 794 1432119 -6330 0
0 0 0 728 1432847 -5602 0
0 0 0 749 1433596 -4853 0
0 0 0 763 1434359 -4090 0
0 0 0 780 1435139 -3310 0
0 0 0 735 1435874 -2575 0
73 1 S116 740 1436614 -1835 0
73 1 S116 798 1437412 -1037 0
73 1 S116 834 1438246 -203 0
73 2 S116 825 1439071 622 0
73 2 S116 796 1439867 1418 0
73 2 S116 857 1440724 2275 0
73 2 S116 877 1441601 3152 0
73 2 S116 908 1442509 4060 0
73 2 S116 851 1443360 4911 0
73 2 S116 843 1444203 5754 0
73 2 S116 859 1445062 6613 0
0 0 0 859 1445921 -10333 0
0 0 0 819 1446740 -9514 0
0 0 0 744 1447484 -8770 0
0 0 0 780 1448264 -7990 0
0 0 0 799 1449063 -7191 0
0 0 0 804 1449867 -6387 0
0 0 0 744 1450611 -5643 0
0 0 0 776 1451387 -4867 0
0 0 0 803 1452190 -4064 0
0 0 0 810 1453000 -3254 0
0 0 0 759 1453759 -2495 0
74 1 S106 793 1454552 -1702 0
74 1 S106 809 1455361 -893 0
74 1 S106 809 1456170 -84 0
74 2 S106 765 1456935 681 0
74 2 S106 782 1457717 1463 0
74 2 S106 797 1458514 2260 0
74 2 S106 802 1459316 3062 0
74 2 S106 805 1460121 3867 0
74 2 S106 759 1460880 4626 0
74 2 S106 767 1461647 5393 0
74 2 S106 809 1462456 6202 0
0 0 0 836 1463292 -7419 0
0 0 0 827 1464119 -6592 0
0 0 0 760 1464879 -5832 0
0 0 0 777 1465656 -5055 0
0 0 0 787 1466443 -4268 0
0 0 0 796 1467239 -3472 0
0 0 0 753 1467992 -2719 0
75 1 S112 763 1468755 -1956 0
75 1 S112 796 1469551 -1160 0
75 1 S112 820 1470371 -340 0
75 2 S112 804 1471175 464 0
75 2 S112 776 1471951 1240 0
75 2 S112 834 1472785 2074 0
75 2 S112 850 1473635 2924 0
75 2 S112 839 1474474 3763 0
75 2 S112 773 1475247 4536 0
75 2 S112 798 1476045 5334 0
75 2 S112 793 1476838 6127 0
75 2 S112 722 1477560 6849 0
0 0 0 699 1478259 -7074 0
0 0 0 724 1478983 -6350 0
0 0 0 744 1479727 -5606 0
0 0 0 733 1480460 -4873 0
0 0 0 705 1481165 -4168 0
0 0 0 739 1481904 -3429 0
0 0 0 734 1482638 -2695 0
76 1 S116 737 1483375 -1958 0
76 1 S116 783 1484158 -1175 0
76 1 S116 793 1484951 -382 0
76 2 S116 833 1485784 451 0
76 2 S116 869 1486653 1320 0
76 2 S116 887 1487540 2207 0
76 2 S116 843 1488383 3050 0
76 2 S116 809 1489192 3859 0
76 2 S116 782 1489974 4641 0
76 2 S116 797 1490771 5438 0
76 2 S116 810 1491581 6248 0
0 0 0 804 1492385 -8614 0
0 0 0 821 1493206 -7793 0
0 0 0 744 1493950 -7049 0
0 0 0 764 1494714 -6285 0
0 0 0 801 1495515 -5484 0
0 0 0 830 1496345 -4654 0
0 0 0 760 1497105 -3894 0
0 0 0 773 1497878 -3121 0
0 0 0 803 1498681 -2318 0
77 1 S106 842 1499523 -1476 0
77 1 S106 854 1500377 -622 0
77 2 S106 809 1501186 187 0
77 2 S106 835 1502021 1022 0
77 2 S106 830 1502851 1852 0
77 2 S106 811 1503662 2663 0
77 2 S106 752 1504414 3415 0
77 2 S106 759 1505173 4174 0
77 2 S106 780 1505953 4954 0
77 2 S106 805 1506758 5759 0
77 2 S106 798 1507556 6557 0
0 0 0 750 1508306 -10963 0
0 0 0 787 1509093 -10176 0
0 0 0 808 1509901 -9368 0
0 0 0 812 1510713 -8556 0
0 0 0 789 1511502 -7767 0
0 0 0 795 1512297 -6972 0
0 0 0 817 1513114 -6155 0
0 0 0 806 1513920 -5349 0
0 0 0 751 1514671 -4598 0
0 0 0 756 1515427 -3842 0
0 0 0 776 1516203 -3066 0
0 0 0 788 1516991 -2278 0
78 1 S112 782 1517773 -1496 0
78 1 S112 743 1518516 -753 0
78 2 S112 791 1519307 38 0
78 2 S112 848 1520155 886 0
78 2 S112 837 1520992 1723 0
78 2 S112 801 1521793 2524 0
78 2 S112 734 1522527 3258 0
78 2 S112 760 1523287 4018 0
78 2 S112 767 1524054 4785 0
78 2 S112 731 1524785 5516 0
78 2 S112 776 1525561 6292 0
0 0 0 799 1526360 -12836 0
0 0 0 770 1527130 -12066 0
0 0 0 780 1527910 -11286 0
0 0 0 806 1528716 -10480 0
0 0 0 792 1529508 -9688 0
0 0 0 769 1530277 -8919 0
0 0 0 787 1531064 -8132 0
0 0 0 748 1531812 -7384 0
0 0 0 751 1532563 -6633 0
0 0 0 767 1533330 -5866 0
0 0 0 743 1534073 -5123 0
0 0 0 778 1534851 -4345 0
0 0 0 814 1535665 -3531 0
0 0 0 830 1536495 -2701 0
79 1 S102 790 1537285 -1911 0
79 1 S102 821 1538106 -1090 0
79 1 S102 891 1538997 -199 0
79 2 S102 905 1539902 706 0
79 2 S102 845 1540747 1551 0
79 2 S102 823 1541570 2374 0
79 2 S102 838 1542408 3212 0
79 2 S102 848 1543256 4060 0
79 2 S102 807 1544063 4867 0
79 2 S102 761 1544824 5628 0
79 2 S102 813 1545637 6441 0
0 0 0 846 1546483 -10568 0
0 0 0 908 1547391 -9660 0
0 0 0 860 1548251 -8800 0
0 0 0 806 1549057 -7994 0
0 0 0 876 1549933 -7118 0
0 0 0 897 1550830 -6221 0
0 0 0 810 1551640 -5411 0
0 0 0 776 1552416 -4635 0
0 0 0 790 1553206 -3845 0
0 0 0 792 1553998 -3053 0
0 0 0 797 1554795 -2256 0
80 1 S116 743 1555538 -1513 0
80 1 S116 769 1556307 -744 0
80 2 S116 812 1557119 68 0
80 2 S116 859 1557978 927 0
80 2 S116 890 1558868 1817 0
80 2 S116 816 1559684 2633 0
80 2 S116 834 1560518 3467 0
80 2 S116 848 1561366 4315 0
80 2 S116 855 1562221 5170 0
80 2 S116 804 1563025 5974 0
80 2 S116 763 1563788 6737 0
