T_0019
BeatCount Mean SD BeatCountNoOutliers MeanNoOutliers SDNoOutliers
2018 756,477205153617 41,6190281712371 1995 755,586466165414 39,377202056824

Trial TrialStatus Trialtype IBI AbsPosition RelPosition Outlier
0 0 0 731 1099 -15046 0
0 0 0 705 1804 -14341 0
0 0 0 716 2520 -13625 0
0 0 0 738 3258 -12887 0
0 0 0 789 4047 -12098 0
0 0 0 822 4869 -11276 0
0 0 0 813 5682 -10463 0
0 0 0 770 6452 -9693 0
0 0 0 815 7267 -8878 0
0 0 0 808 8075 -8070 0
0 0 0 777 8852 -7293 0
0 0 0 753 9605 -6540 0
0 0 0 721 10326 -5819 0
0 0 0 737 11063 -5082 0
0 0 0 746 11809 -4336 0
0 0 0 771 12580 -3565 0
0 0 0 783 13363 -2782 0
0 0 0 732 14095 -2050 0
1 1 S112 781 14876 -1269 0
1 1 S112 807 15683 -462 0
1 2 S112 817 16500 355 0
1 2 S112 807 17307 1162 0
1 2 S112 748 18055 1910 0
1 2 S112 733 18788 2643 0
1 2 S112 761 19549 3404 0
1 2 S112 752 20301 4156 0
1 2 S112 763 21064 4919 0
1 2 S112 741 21805 5660 0
1 2 S112 719 22524 6379 0
0 0 0 753 23277 -11535 0
0 0 0 764 24041 -10771 0
0 0 0 714 24755 -10057 0
0 0 0 678 25433 -9379 0
0 0 0 669 26102 -8710 0
0 0 0 667 26769 -8043 0
0 0 0 693 27462 -7350 0
0 0 0 740 28202 -6610 0
0 0 0 785 28987 -5825 0
0 0 0 784 29771 -5041 0
0 0 0 734 30505 -4307 0
0 0 0 764 31269 -3543 0
0 0 0 792 32061 -2751 0
2 1 S102 791 32852 -1960 0
2 1 S102 794 33646 -1166 0
2 1 S102 752 34398 -414 0
2 2 S102 742 35140 328 0
2 2 S102 767 35907 1095 0
2 2 S102 770 36677 1865 0
2 2 S102 757 37434 2622 0
2 2 S102 738 38172 3360 0
2 2 S102 718 38890 4078 0
2 2 S102 759 39649 4837 0
2 2 S102 791 40440 5628 0
2 2 S102 819 41259 6447 0
0 0 0 825 42084 -8958 0
0 0 0 749 42833 -8209 0
0 0 0 736 43569 -7473 0
0 0 0 727 44296 -6746 0
0 0 0 727 45023 -6019 0
0 0 0 720 45743 -5299 0
0 0 0 703 46446 -4596 0
0 0 0 739 47185 -3857 0
0 0 0 791 47976 -3066 0
0 0 0 830 48806 -2236 0
3 1 S116 791 49597 -1445 0
3 1 S116 831 50428 -614 0
3 2 S116 820 51248 206 0
3 2 S116 812 52060 1018 0
3 2 S116 792 52852 1810 0
3 2 S116 729 53581 2539 0
3 2 S116 752 54333 3291 0
3 2 S116 768 55101 4059 0
3 2 S116 795 55896 4854 0
3 2 S116 796 56692 5650 0
3 2 S116 756 57448 6406 0
0 0 0 777 58225 -11385 0
0 0 0 808 59033 -10577 0
0 0 0 773 59806 -9804 0
0 0 0 762 60568 -9042 0
0 0 0 717 61285 -8325 0
0 0 0 678 61963 -7647 0
0 0 0 677 62640 -6970 0
0 0 0 701 63341 -6269 0
0 0 0 755 64096 -5514 0
0 0 0 797 64893 -4717 0
0 0 0 784 65677 -3933 0
0 0 0 740 66417 -3193 0
0 0 0 780 67197 -2413 0
4 1 S106 795 67992 -1618 0
4 1 S106 797 68789 -821 0
4 1 S106 784 69573 -37 0
4 2 S106 741 70314 704 0
4 2 S106 763 71077 1467 0
4 2 S106 764 71841 2231 0
4 2 S106 777 72618 3008 0
4 2 S106 765 73383 3773 0
4 2 S106 756 74139 4529 0
4 2 S106 815 74954 5344 0
4 2 S106 824 75778 6168 0
4 2 S106 830 76608 6998 0
0 0 0 753 77361 -6805 0
0 0 0 757 78118 -6048 0
0 0 0 749 78867 -5299 0
0 0 0 737 79604 -4562 0
0 0 0 708 80312 -3854 0
0 0 0 745 81057 -3109 0
0 0 0 786 81843 -2323 0
5 1 S116 829 82672 -1494 0
5 1 S116 769 83441 -725 0
5 2 S116 808 84249 83 0
5 2 S116 839 85088 922 0
5 2 S116 838 85926 1760 0
5 2 S116 775 86701 2535 0
5 2 S116 786 87487 3321 0
5 2 S116 799 88286 4120 0
5 2 S116 785 89071 4905 0
5 2 S116 781 89852 5686 0
5 2 S116 732 90584 6418 0
0 0 0 777 91361 -9698 0
0 0 0 793 92154 -8905 0
0 0 0 750 92904 -8155 0
0 0 0 701 93605 -7454 0
0 0 0 712 94317 -6742 0
0 0 0 715 95032 -6027 0
0 0 0 737 95769 -5290 0
0 0 0 703 96472 -4587 0
0 0 0 717 97189 -3870 0
0 0 0 777 97966 -3093 0
0 0 0 778 98744 -2315 0
6 1 S106 731 99475 -1584 0
6 1 S106 780 100255 -804 0
6 2 S106 812 101067 8 0
6 2 S106 777 101844 785 0
6 2 S106 782 102626 1567 0
6 2 S106 771 103397 2338 0
6 2 S106 740 104137 3078 0
6 2 S106 762 104899 3840 0
6 2 S106 766 105665 4606 0
6 2 S106 780 106445 5386 0
6 2 S106 782 107227 6168 0
6 2 S106 755 107982 6923 0
0 0 0 794 108776 -10122 0
0 0 0 771 109547 -9351 0
0 0 0 773 110320 -8578 0
0 0 0 737 111057 -7841 0
0 0 0 716 111773 -7125 0
0 0 0 743 112516 -6382 0
0 0 0 773 113289 -5609 0
0 0 0 810 114099 -4799 0
0 0 0 792 114891 -4007 0
0 0 0 754 115645 -3253 0
0 0 0 803 116448 -2450 0
7 1 S102 810 117258 -1640 0
7 1 S102 824 118082 -816 0
7 2 S102 819 118901 3 0
7 2 S102 765 119666 768 0
7 2 S102 783 120449 1551 0
7 2 S102 792 121241 2343 0
7 2 S102 799 122040 3142 0
7 2 S102 795 122835 3937 0
7 2 S102 748 123583 4685 0
7 2 S102 797 124380 5482 0
7 2 S102 810 125190 6292 0
0 0 0 824 126014 -8882 0
0 0 0 814 126828 -8068 0
0 0 0 741 127569 -7327 0
0 0 0 769 128338 -6558 0
0 0 0 767 129105 -5791 0
0 0 0 794 129899 -4997 0
0 0 0 751 130650 -4246 0
0 0 0 780 131430 -3466 0
0 0 0 798 132228 -2668 0
8 1 S112 818 133046 -1850 0
8 1 S112 819 133865 -1031 0
8 1 S112 770 134635 -261 0
8 2 S112 798 135433 537 0
8 2 S112 808 136241 1345 0
8 2 S112 808 137049 2153 0
8 2 S112 743 137792 2896 0
8 2 S112 719 138511 3615 0
8 2 S112 739 139250 4354 0
8 2 S112 758 140008 5112 0
8 2 S112 809 140817 5921 0
8 2 S112 832 141649 6753 0
0 0 0 766 142415 -6705 0
0 0 0 716 143131 -5989 0
0 0 0 702 143833 -5287 0
0 0 0 709 144542 -4578 0
0 0 0 724 145266 -3854 0
0 0 0 735 146001 -3119 0
0 0 0 697 146698 -2422 0
9 1 S116 742 147440 -1680 0
9 1 S116 779 148219 -901 0
9 1 S116 781 149000 -120 0
9 2 S116 801 149801 681 0
9 2 S116 794 150595 1475 0
9 2 S116 766 151361 2241 0
9 2 S116 741 152102 2982 0
9 2 S116 762 152864 3744 0
9 2 S116 772 153636 4516 0
9 2 S116 784 154420 5300 0
9 2 S116 796 155216 6096 0
9 2 S116 787 156003 6883 0
0 0 0 763 156766 -11021 0
0 0 0 735 157501 -10286 0
0 0 0 755 158256 -9531 0
0 0 0 764 159020 -8767 0
0 0 0 726 159746 -8041 0
0 0 0 707 160453 -7334 0
0 0 0 733 161186 -6601 0
0 0 0 777 161963 -5824 0
0 0 0 810 162773 -5014 0
0 0 0 812 163585 -4202 0
0 0 0 782 164367 -3420 0
0 0 0 778 165145 -2642 0
10 1 S102 793 165938 -1849 0
10 1 S102 810 166748 -1039 0
10 1 S102 795 167543 -244 0
10 2 S102 784 168327 540 0
10 2 S102 786 169113 1326 0
10 2 S102 750 169863 2076 0
10 2 S102 790 170653 2866 0
10 2 S102 825 171478 3691 0
10 2 S102 823 172301 4514 0
10 2 S102 812 173113 5326 0
10 2 S102 756 173869 6082 0
10 2 S102 785 174654 6867 0
0 0 0 789 175443 -10581 0
0 0 0 768 176211 -9813 0
0 0 0 716 176927 -9097 0
0 0 0 713 177640 -8384 0
0 0 0 715 178355 -7669 0
0 0 0 758 179113 -6911 0
0 0 0 728 179841 -6183 0
0 0 0 692 180533 -5491 0
0 0 0 700 181233 -4791 0
0 0 0 746 181979 -4045 0
0 0 0 724 182703 -3321 0
0 0 0 763 183466 -2558 0
11 1 S112 780 184246 -1778 0
11 1 S112 774 185020 -1004 0
11 1 S112 789 185809 -215 0
11 2 S112 736 186545 521 0
11 2 S112 744 187289 1265 0
11 2 S112 769 188058 2034 0
11 2 S112 808 188866 2842 0
11 2 S112 824 189690 3666 0
11 2 S112 802 190492 4468 0
11 2 S112 798 191290 5266 0
11 2 S112 837 192127 6103 0
11 2 S112 860 192987 6963 0
0 0 0 880 193867 -6696 1
0 0 0 767 194634 -5929 0
0 0 0 724 195358 -5205 0
0 0 0 721 196079 -4484 0
0 0 0 729 196808 -3755 0
0 0 0 751 197559 -3004 0
0 0 0 781 198340 -2223 0
12 1 S116 747 199087 -1476 0
12 1 S116 813 199900 -663 0
12 2 S116 864 200764 201 1
12 2 S116 851 201615 1052 0
12 2 S116 847 202462 1899 0
12 2 S116 821 203283 2720 0
12 2 S116 778 204061 3498 0
12 2 S116 788 204849 4286 0
12 2 S116 789 205638 5075 0
12 2 S116 800 206438 5875 0
12 2 S116 801 207239 6676 0
0 0 0 800 208039 -11009 0
0 0 0 809 208848 -10200 0
0 0 0 757 209605 -9443 0
0 0 0 710 210315 -8733 0
0 0 0 720 211035 -8013 0
0 0 0 736 211771 -7277 0
0 0 0 772 212543 -6505 0
0 0 0 815 213358 -5690 0
0 0 0 813 214171 -4877 0
0 0 0 793 214964 -4084 0
0 0 0 759 215723 -3325 0
0 0 0 800 216523 -2525 0
13 1 S112 830 217353 -1695 0
13 1 S112 840 218193 -855 0
13 1 S112 838 219031 -17 0
13 2 S112 830 219861 813 0
13 2 S112 780 220641 1593 0
13 2 S112 728 221369 2321 0
13 2 S112 736 222105 3057 0
13 2 S112 736 222841 3793 0
13 2 S112 748 223589 4541 0
13 2 S112 757 224346 5298 0
13 2 S112 735 225081 6033 0
13 2 S112 797 225878 6830 0
0 0 0 834 226712 -10307 0
0 0 0 806 227518 -9501 0
0 0 0 756 228274 -8745 0
0 0 0 715 228989 -8030 0
0 0 0 725 229714 -7305 0
0 0 0 737 230451 -6568 0
0 0 0 758 231209 -5810 0
0 0 0 788 231997 -5022 0
0 0 0 758 232755 -4264 0
0 0 0 802 233557 -3462 0
0 0 0 805 234362 -2657 0
14 1 S106 827 235189 -1830 0
14 1 S106 827 236016 -1003 0
14 1 S106 789 236805 -214 0
14 2 S106 749 237554 535 0
14 2 S106 777 238331 1312 0
14 2 S106 783 239114 2095 0
14 2 S106 798 239912 2893 0
14 2 S106 789 240701 3682 0
14 2 S106 768 241469 4450 0
14 2 S106 799 242268 5249 0
14 2 S106 800 243068 6049 0
14 2 S106 792 243860 6841 0
0 0 0 779 244639 -10202 0
0 0 0 727 245366 -9475 0
0 0 0 750 246116 -8725 0
0 0 0 731 246847 -7994 0
0 0 0 733 247580 -7261 0
0 0 0 733 248313 -6528 0
0 0 0 791 249104 -5737 0
0 0 0 826 249930 -4911 0
0 0 0 839 250769 -4072 0
0 0 0 776 251545 -3296 0
0 0 0 796 252341 -2500 0
15 1 S116 823 253164 -1677 0
15 1 S116 835 253999 -842 0
15 1 S116 816 254815 -26 0
15 2 S116 775 255590 749 0
15 2 S116 788 256378 1537 0
15 2 S116 781 257159 2318 0
15 2 S116 807 257966 3125 0
15 2 S116 775 258741 3900 0
15 2 S116 732 259473 4632 0
15 2 S116 754 260227 5386 0
15 2 S116 778 261005 6164 0
15 2 S116 785 261790 6949 0
0 0 0 762 262552 -8917 0
0 0 0 708 263260 -8209 0
0 0 0 714 263974 -7495 0
0 0 0 701 264675 -6794 0
0 0 0 666 265341 -6128 0
0 0 0 661 266002 -5467 0
0 0 0 716 266718 -4751 0
0 0 0 700 267418 -4051 0
0 0 0 738 268156 -3313 0
0 0 0 775 268931 -2538 0
16 1 S116 782 269713 -1756 0
16 1 S116 776 270489 -980 0
16 1 S116 738 271227 -242 0
16 2 S116 780 272007 538 0
16 2 S116 794 272801 1332 0
16 2 S116 802 273603 2134 0
16 2 S116 781 274384 2915 0
16 2 S116 741 275125 3656 0
16 2 S116 756 275881 4412 0
16 2 S116 772 276653 5184 0
16 2 S116 809 277462 5993 0
16 2 S116 814 278276 6807 0
0 0 0 774 279050 -9130 0
0 0 0 801 279851 -8329 0
0 0 0 759 280610 -7570 0
0 0 0 710 281320 -6860 0
0 0 0 713 282033 -6147 0
0 0 0 735 282768 -5412 0
0 0 0 758 283526 -4654 0
0 0 0 796 284322 -3858 0
0 0 0 754 285076 -3104 0
0 0 0 775 285851 -2329 0
17 1 S106 799 286650 -1530 0
17 1 S106 823 287473 -707 0
17 2 S106 781 288254 74 0
17 2 S106 753 289007 827 0
17 2 S106 790 289797 1617 0
17 2 S106 784 290581 2401 0
17 2 S106 783 291364 3184 0
17 2 S106 744 292108 3928 0
17 2 S106 791 292899 4719 0
17 2 S106 781 293680 5500 0
17 2 S106 774 294454 6274 0
17 2 S106 730 295184 7004 0
0 0 0 758 295942 -10689 0
0 0 0 756 296698 -9933 0
0 0 0 768 297466 -9165 0
0 0 0 718 298184 -8447 0
0 0 0 728 298912 -7719 0
0 0 0 759 299671 -6960 0
0 0 0 792 300463 -6168 0
0 0 0 814 301277 -5354 0
0 0 0 767 302044 -4587 0
0 0 0 802 302846 -3785 0
0 0 0 806 303652 -2979 0
0 0 0 810 304462 -2169 0
18 1 S102 820 305282 -1349 0
18 1 S102 771 306053 -578 0
18 2 S102 773 306826 195 0
18 2 S102 785 307611 980 0
18 2 S102 786 308397 1766 0
18 2 S102 765 309162 2531 0
18 2 S102 727 309889 3258 0
18 2 S102 772 310661 4030 0
18 2 S102 768 311429 4798 0
18 2 S102 781 312210 5579 0
18 2 S102 762 312972 6341 0
0 0 0 761 313733 -6891 0
0 0 0 810 314543 -6081 0
0 0 0 773 315316 -5308 0
0 0 0 745 316061 -4563 0
0 0 0 707 316768 -3856 0
0 0 0 726 317494 -3130 0
0 0 0 748 318242 -2382 0
19 1 S106 771 319013 -1611 0
19 1 S106 743 319756 -868 0
19 1 S106 767 320523 -101 0
19 2 S106 810 321333 709 0
19 2 S106 831 322164 1540 0
19 2 S106 802 322966 2342 0
19 2 S106 757 323723 3099 0
19 2 S106 791 324514 3890 0
19 2 S106 774 325288 4664 0
19 2 S106 804 326092 5468 0
19 2 S106 764 326856 6232 0
19 2 S106 732 327588 6964 0
0 0 0 764 328352 -10077 0
0 0 0 758 329110 -9319 0
0 0 0 747 329857 -8572 0
0 0 0 715 330572 -7857 0
0 0 0 764 331336 -7093 0
0 0 0 793 332129 -6300 0
0 0 0 800 332929 -5500 0
0 0 0 758 333687 -4742 0
0 0 0 752 334439 -3990 0
0 0 0 783 335222 -3207 0
0 0 0 805 336027 -2402 0
20 1 S112 787 336814 -1615 0
20 1 S112 739 337553 -876 0
20 1 S112 783 338336 -93 0
20 2 S112 801 339137 708 0
20 2 S112 795 339932 1503 0
20 2 S112 768 340700 2271 0
20 2 S112 735 341435 3006 0
20 2 S112 761 342196 3767 0
20 2 S112 776 342972 4543 0
20 2 S112 771 343743 5314 0
20 2 S112 728 344471 6042 0
20 2 S112 713 345184 6755 0
0 0 0 762 345946 -8663 0
0 0 0 763 346709 -7900 0
0 0 0 748 347457 -7152 0
0 0 0 700 348157 -6452 0
0 0 0 688 348845 -5764 0
0 0 0 696 349541 -5068 0
0 0 0 688 350229 -4380 0
0 0 0 664 350893 -3716 0
0 0 0 699 351592 -3017 0
0 0 0 788 352380 -2229 0
21 1 S106 756 353136 -1473 0
21 1 S106 745 353881 -728 0
21 2 S106 772 354653 44 0
21 2 S106 807 355460 851 0
21 2 S106 783 356243 1634 0
21 2 S106 742 356985 2376 0
21 2 S106 758 357743 3134 0
21 2 S106 771 358514 3905 0
21 2 S106 776 359290 4681 0
21 2 S106 768 360058 5449 0
21 2 S106 727 360785 6176 0
21 2 S106 762 361547 6938 0
0 0 0 769 362316 -9651 0
0 0 0 782 363098 -8869 0
0 0 0 727 363825 -8142 0
0 0 0 749 364574 -7393 0
0 0 0 766 365340 -6627 0
0 0 0 807 366147 -5820 0
0 0 0 756 366903 -5064 0
0 0 0 751 367654 -4313 0
0 0 0 780 368434 -3533 0
0 0 0 788 369222 -2745 0
22 1 S116 770 369992 -1975 0
22 1 S116 737 370729 -1238 0
22 1 S116 763 371492 -475 0
22 2 S116 775 372267 300 0
22 2 S116 810 373077 1110 0
22 2 S116 812 373889 1922 0
22 2 S116 758 374647 2680 0
22 2 S116 770 375417 3450 0
22 2 S116 780 376197 4230 0
22 2 S116 790 376987 5020 0
22 2 S116 749 377736 5769 0
22 2 S116 728 378464 6497 0
0 0 0 752 379216 -8732 0
0 0 0 760 379976 -7972 0
0 0 0 754 380730 -7218 0
0 0 0 712 381442 -6506 0
0 0 0 715 382157 -5791 0
0 0 0 733 382890 -5058 0
0 0 0 775 383665 -4283 0
0 0 0 770 384435 -3513 0
0 0 0 727 385162 -2786 0
0 0 0 751 385913 -2035 0
23 1 S112 771 386684 -1264 0
23 1 S112 771 387455 -493 0
23 2 S112 765 388220 272 0
23 2 S112 730 388950 1002 0
23 2 S112 759 389709 1761 0
23 2 S112 755 390464 2516 0
23 2 S112 743 391207 3259 0
23 2 S112 702 391909 3961 0
23 2 S112 695 392604 4656 0
23 2 S112 711 393315 5367 0
23 2 S112 746 394061 6113 0
23 2 S112 778 394839 6891 0
0 0 0 798 395637 -8293 0
0 0 0 723 396360 -7570 0
0 0 0 695 397055 -6875 0
0 0 0 695 397750 -6180 0
0 0 0 692 398442 -5488 0
0 0 0 690 399132 -4798 0
0 0 0 663 399795 -4135 0
0 0 0 672 400467 -3463 0
0 0 0 718 401185 -2745 0
24 1 S106 756 401941 -1989 0
24 1 S106 754 402695 -1235 0
24 1 S106 714 403409 -521 0
24 2 S106 746 404155 225 0
24 2 S106 758 404913 983 0
24 2 S106 766 405679 1749 0
24 2 S106 754 406433 2503 0
24 2 S106 731 407164 3234 0
24 2 S106 780 407944 4014 0
24 2 S106 786 408730 4800 0
24 2 S106 790 409520 5590 0
24 2 S106 784 410304 6374 0
0 0 0 733 411037 -8560 0
0 0 0 771 411808 -7789 0
0 0 0 745 412553 -7044 0
0 0 0 736 413289 -6308 0
0 0 0 711 414000 -5597 0
0 0 0 757 414757 -4840 0
0 0 0 796 415553 -4044 0
0 0 0 822 416375 -3222 0
0 0 0 812 417187 -2410 0
25 1 S102 772 417959 -1638 0
25 1 S102 806 418765 -832 0
25 1 S102 805 419570 -27 0
25 2 S102 815 420385 788 0
25 2 S102 777 421162 1565 0
25 2 S102 733 421895 2298 0
25 2 S102 766 422661 3064 0
25 2 S102 771 423432 3835 0
25 2 S102 764 424196 4599 0
25 2 S102 731 424927 5330 0
25 2 S102 771 425698 6101 0
25 2 S102 775 426473 6876 0
0 0 0 786 427259 -6380 0
0 0 0 754 428013 -5626 0
0 0 0 716 428729 -4910 0
0 0 0 727 429456 -4183 0
0 0 0 735 430191 -3448 0
0 0 0 733 430924 -2715 0
0 0 0 713 431637 -2002 0
26 1 S116 748 432385 -1254 0
26 1 S116 769 433154 -485 0
26 2 S116 762 433916 277 0
26 2 S116 731 434647 1008 0
26 2 S116 762 435409 1770 0
26 2 S116 766 436175 2536 0
26 2 S116 738 436913 3274 0
26 2 S116 726 437639 4000 0
26 2 S116 763 438402 4763 0
26 2 S116 789 439191 5552 0
26 2 S116 771 439962 6323 0
0 0 0 727 440689 -7671 0
0 0 0 737 441426 -6934 0
0 0 0 735 442161 -6199 0
0 0 0 740 442901 -5459 0
0 0 0 706 443607 -4753 0
0 0 0 709 444316 -4044 0
0 0 0 741 445057 -3303 0
0 0 0 781 445838 -2522 0
27 1 S106 779 446617 -1743 0
27 1 S106 742 447359 -1001 0
27 1 S106 770 448129 -231 0
27 2 S106 796 448925 565 0
27 2 S106 803 449728 1368 0
27 2 S106 778 450506 2146 0
27 2 S106 742 451248 2888 0
27 2 S106 783 452031 3671 0
27 2 S106 787 452818 4458 0
27 2 S106 788 453606 5246 0
27 2 S106 762 454368 6008 0
27 2 S106 727 455095 6735 0
0 0 0 752 455847 -6456 0
0 0 0 754 456601 -5702 0
0 0 0 756 457357 -4946 0
0 0 0 716 458073 -4230 0
0 0 0 736 458809 -3494 0
0 0 0 747 459556 -2747 0
28 1 S102 769 460325 -1978 0
28 1 S102 756 461081 -1222 0
28 1 S102 722 461803 -500 0
28 2 S102 760 462563 260 0
28 2 S102 774 463337 1034 0
28 2 S102 780 464117 1814 0
28 2 S102 740 464857 2554 0
28 2 S102 737 465594 3291 0
28 2 S102 761 466355 4052 0
28 2 S102 771 467126 4823 0
28 2 S102 755 467881 5578 0
28 2 S102 718 468599 6296 0
0 0 0 739 469338 -12494 0
0 0 0 745 470083 -11749 0
0 0 0 741 470824 -11008 0
0 0 0 707 471531 -10301 0
0 0 0 735 472266 -9566 0
0 0 0 757 473023 -8809 0
0 0 0 740 473763 -8069 0
0 0 0 718 474481 -7351 0
0 0 0 725 475206 -6626 0
0 0 0 748 475954 -5878 0
0 0 0 764 476718 -5114 0
0 0 0 784 477502 -4330 0
0 0 0 731 478233 -3599 0
0 0 0 749 478982 -2850 0
0 0 0 761 479743 -2089 0
29 1 S112 753 480496 -1336 0
29 1 S112 729 481225 -607 0
29 2 S112 736 481961 129 0
29 2 S112 756 482717 885 0
29 2 S112 775 483492 1660 0
29 2 S112 797 484289 2457 0
29 2 S112 744 485033 3201 0
29 2 S112 708 485741 3909 0
29 2 S112 725 486466 4634 0
29 2 S112 746 487212 5380 0
29 2 S112 782 487994 6162 0
29 2 S112 815 488809 6977 0
0 0 0 768 489577 -6081 0
0 0 0 724 490301 -5357 0
0 0 0 739 491040 -4618 0
0 0 0 748 491788 -3870 0
0 0 0 772 492560 -3098 0
0 0 0 779 493339 -2319 0
30 1 S112 760 494099 -1559 0
30 1 S112 745 494844 -814 0
30 1 S112 779 495623 -35 0
30 2 S112 817 496440 782 0
30 2 S112 806 497246 1588 0
30 2 S112 777 498023 2365 0
30 2 S112 761 498784 3126 0
30 2 S112 782 499566 3908 0
30 2 S112 800 500366 4708 0
30 2 S112 825 501191 5533 0
30 2 S112 820 502011 6353 0
0 0 0 804 502815 -9405 0
0 0 0 759 503574 -8646 0
0 0 0 712 504286 -7934 0
0 0 0 691 504977 -7243 0
0 0 0 686 505663 -6557 0
0 0 0 700 506363 -5857 0
0 0 0 730 507093 -5127 0
0 0 0 732 507825 -4395 0
0 0 0 688 508513 -3707 0
0 0 0 751 509264 -2956 0
0 0 0 804 510068 -2152 0
31 1 S106 798 510866 -1354 0
31 1 S106 738 511604 -616 0
31 2 S106 741 512345 125 0
31 2 S106 759 513104 884 0
31 2 S106 771 513875 1655 0
31 2 S106 788 514663 2443 0
31 2 S106 787 515450 3230 0
31 2 S106 791 516241 4021 0
31 2 S106 732 516973 4753 0
31 2 S106 763 517736 5516 0
31 2 S106 750 518486 6266 0
0 0 0 765 519251 -9680 0
0 0 0 777 520028 -8903 0
0 0 0 759 520787 -8144 0
0 0 0 739 521526 -7405 0
0 0 0 759 522285 -6646 0
0 0 0 759 523044 -5887 0
0 0 0 754 523798 -5133 0
0 0 0 751 524549 -4382 0
0 0 0 722 525271 -3660 0
0 0 0 757 526028 -2903 0
0 0 0 771 526799 -2132 0
32 1 S102 794 527593 -1338 0
32 1 S102 808 528401 -530 0
32 2 S102 811 529212 281 0
32 2 S102 761 529973 1042 0
32 2 S102 770 530743 1812 0
32 2 S102 773 531516 2585 0
32 2 S102 778 532294 3363 0
32 2 S102 763 533057 4126 0
32 2 S102 726 533783 4852 0
32 2 S102 728 534511 5580 0
32 2 S102 743 535254 6323 0
0 0 0 761 536015 -11103 0
0 0 0 761 536776 -10342 0
0 0 0 707 537483 -9635 0
0 0 0 722 538205 -8913 0
0 0 0 729 538934 -8184 0
0 0 0 750 539684 -7434 0
0 0 0 772 540456 -6662 0
0 0 0 730 541186 -5932 0
0 0 0 761 541947 -5171 0
0 0 0 776 542723 -4395 0
0 0 0 785 543508 -3610 0
0 0 0 765 544273 -2845 0
0 0 0 730 545003 -2115 0
33 1 S112 757 545760 -1358 0
33 1 S112 768 546528 -590 0
33 2 S112 766 547294 176 0
33 2 S112 765 548059 941 0
33 2 S112 732 548791 1673 0
33 2 S112 705 549496 2378 0
33 2 S112 694 550190 3072 0
33 2 S112 707 550897 3779 0
33 2 S112 735 551632 4514 0
33 2 S112 821 552453 5335 0
33 2 S112 806 553259 6141 0
33 2 S112 748 554007 6889 0
0 0 0 720 554727 -10527 0
0 0 0 740 555467 -9787 0
0 0 0 727 556194 -9060 0
0 0 0 718 556912 -8342 0
0 0 0 692 557604 -7650 0
0 0 0 664 558268 -6986 0
0 0 0 670 558938 -6316 0
0 0 0 701 559639 -5615 0
0 0 0 739 560378 -4876 0
0 0 0 765 561143 -4111 0
0 0 0 739 561882 -3372 0
0 0 0 730 562612 -2642 0
34 1 S106 753 563365 -1889 0
34 1 S106 760 564125 -1129 0
34 1 S106 757 564882 -372 0
34 2 S106 751 565633 379 0
34 2 S106 759 566392 1138 0
34 2 S106 732 567124 1870 0
34 2 S106 747 567871 2617 0
34 2 S106 769 568640 3386 0
34 2 S106 788 569428 4174 0
34 2 S106 781 570209 4955 0
34 2 S106 773 570982 5728 0
34 2 S106 737 571719 6465 0
0 0 0 767 572486 -9363 0
0 0 0 768 573254 -8595 0
0 0 0 748 574002 -7847 0
0 0 0 710 574712 -7137 0
0 0 0 720 575432 -6417 0
0 0 0 729 576161 -5688 0
0 0 0 767 576928 -4921 0
0 0 0 744 577672 -4177 0
0 0 0 757 578429 -3420 0
0 0 0 780 579209 -2640 0
35 1 S102 823 580032 -1817 0
35 1 S102 760 580792 -1057 0
35 1 S102 789 581581 -268 0
35 2 S102 790 582371 522 0
35 2 S102 795 583166 1317 0
35 2 S102 762 583928 2079 0
35 2 S102 723 584651 2802 0
35 2 S102 745 585396 3547 0
35 2 S102 753 586149 4300 0
35 2 S102 768 586917 5068 0
35 2 S102 782 587699 5850 0
35 2 S102 740 588439 6590 0
0 0 0 773 589212 -6696 0
0 0 0 787 589999 -5909 0
0 0 0 787 590786 -5122 0
0 0 0 721 591507 -4401 0
0 0 0 741 592248 -3660 0
0 0 0 744 592992 -2916 0
0 0 0 758 593750 -2158 0
36 1 S106 738 594488 -1420 0
36 1 S106 737 595225 -683 0
36 2 S106 763 595988 80 0
36 2 S106 767 596755 847 0
36 2 S106 780 597535 1627 0
36 2 S106 745 598280 2372 0
36 2 S106 754 599034 3126 0
36 2 S106 750 599784 3876 0
36 2 S106 766 600550 4642 0
36 2 S106 762 601312 5404 0
36 2 S106 726 602038 6130 0
36 2 S106 766 602804 6896 0
0 0 0 767 603571 -9529 0
0 0 0 746 604317 -8783 0
0 0 0 705 605022 -8078 0
0 0 0 708 605730 -7370 0
0 0 0 710 606440 -6660 0
0 0 0 716 607156 -5944 0
0 0 0 705 607861 -5239 0
0 0 0 675 608536 -4564 0
0 0 0 674 609210 -3890 0
0 0 0 697 609907 -3193 0
0 0 0 697 610604 -2496 0
37 1 S116 722 611326 -1774 0
37 1 S116 733 612059 -1041 0
37 1 S116 748 612807 -293 0
37 2 S116 707 613514 414 0
37 2 S116 728 614242 1142 0
37 2 S116 750 614992 1892 0
37 2 S116 744 615736 2636 0
37 2 S116 720 616456 3356 0
37 2 S116 706 617162 4062 0
37 2 S116 746 617908 4808 0
37 2 S116 761 618669 5569 0
37 2 S116 781 619450 6350 0
0 0 0 745 620195 -11655 0
0 0 0 731 620926 -10924 0
0 0 0 737 621663 -10187 0
0 0 0 723 622386 -9464 0
0 0 0 689 623075 -8775 0
0 0 0 688 623763 -8087 0
0 0 0 700 624463 -7387 0
0 0 0 724 625187 -6663 0
0 0 0 755 625942 -5908 0
0 0 0 722 626664 -5186 0
0 0 0 758 627422 -4428 0
0 0 0 777 628199 -3651 0
0 0 0 797 628996 -2854 0
0 0 0 757 629753 -2097 0
38 1 S102 738 630491 -1359 0
38 1 S102 754 631245 -605 0
38 2 S102 777 632022 172 0
38 2 S102 778 632800 950 0
38 2 S102 769 633569 1719 0
38 2 S102 726 634295 2445 0
38 2 S102 749 635044 3194 0
38 2 S102 755 635799 3949 0
38 2 S102 761 636560 4710 0
38 2 S102 750 637310 5460 0
38 2 S102 726 638036 6186 0
38 2 S102 761 638797 6947 0
0 0 0 764 639561 -9282 0
0 0 0 757 640318 -8525 0
0 0 0 718 641036 -7807 0
0 0 0 726 641762 -7081 0
0 0 0 724 642486 -6357 0
0 0 0 704 643190 -5653 0
0 0 0 677 643867 -4976 0
0 0 0 663 644530 -4313 0
0 0 0 676 645206 -3637 0
0 0 0 709 645915 -2928 0
0 0 0 697 646612 -2231 0
39 1 S116 737 647349 -1494 0
39 1 S116 756 648105 -738 0
39 2 S116 793 648898 55 0
39 2 S116 779 649677 834 0
39 2 S116 745 650422 1579 0
39 2 S116 786 651208 2365 0
39 2 S116 776 651984 3141 0
39 2 S116 766 652750 3907 0
39 2 S116 719 653469 4626 0
39 2 S116 716 654185 5342 0
39 2 S116 737 654922 6079 0
39 2 S116 807 655729 6886 0
0 0 0 832 656561 -7351 0
0 0 0 741 657302 -6610 0
0 0 0 721 658023 -5889 0
0 0 0 735 658758 -5154 0
0 0 0 742 659500 -4412 0
0 0 0 749 660249 -3663 0
0 0 0 733 660982 -2930 0
0 0 0 756 661738 -2174 0
40 1 S112 766 662504 -1408 0
40 1 S112 781 663285 -627 0
40 2 S112 755 664040 128 0
40 2 S112 736 664776 864 0
40 2 S112 756 665532 1620 0
40 2 S112 748 666280 2368 0
40 2 S112 760 667040 3128 0
40 2 S112 755 667795 3883 0
40 2 S112 738 668533 4621 0
40 2 S112 787 669320 5408 0
40 2 S112 812 670132 6220 0
0 0 0 827 670959 -187849 0
0 0 0 800 671759 -187049 0
0 0 0 722 672481 -186327 0
0 0 0 718 673199 -185609 0
0 0 0 709 673908 -184900 0
0 0 0 718 674626 -184182 0
0 0 0 715 675341 -183467 0
0 0 0 696 676037 -182771 0
0 0 0 714 676751 -182057 0
0 0 0 701 677452 -181356 0
0 0 0 689 678141 -180667 0
0 0 0 681 678822 -179986 0
0 0 0 681 679503 -179305 0
0 0 0 688 680191 -178617 0
0 0 0 685 680876 -177932 0
0 0 0 664 681540 -177268 0
0 0 0 660 682200 -176608 0
0 0 0 660 682860 -175948 0
0 0 0 657 683517 -175291 0
0 0 0 660 684177 -174631 0
0 0 0 665 684842 -173966 0
0 0 0 680 685522 -173286 0
0 0 0 682 686204 -172604 0
0 0 0 675 686879 -171929 0
0 0 0 666 687545 -171263 0
0 0 0 670 688215 -170593 0
0 0 0 662 688877 -169931 0
0 0 0 673 689550 -169258 0
0 0 0 679 690229 -168579 0
0 0 0 689 690918 -167890 0
0 0 0 694 691612 -167196 0
0 0 0 676 692288 -166520 0
0 0 0 658 692946 -165862 0
0 0 0 651 693597 -165211 0
0 0 0 654 694251 -164557 0
0 0 0 632 694883 -163925 1
0 0 0 638 695521 -163287 1
0 0 0 632 696153 -162655 1
0 0 0 632 696785 -162023 1
0 0 0 636 697421 -161387 1
0 0 0 676 698097 -160711 0
0 0 0 722 698819 -159989 0
0 0 0 708 699527 -159281 0
0 0 0 704 700231 -158577 0
0 0 0 678 700909 -157899 0
0 0 0 666 701575 -157233 0
0 0 0 655 702230 -156578 0
0 0 0 653 702883 -155925 0
0 0 0 668 703551 -155257 0
0 0 0 705 704256 -154552 0
0 0 0 745 705001 -153807 0
0 0 0 757 705758 -153050 0
0 0 0 710 706468 -152340 0
0 0 0 722 707190 -151618 0
0 0 0 709 707899 -150909 0
0 0 0 709 708608 -150200 0
0 0 0 683 709291 -149517 0
0 0 0 667 709958 -148850 0
0 0 0 664 710622 -148186 0
0 0 0 663 711285 -147523 0
0 0 0 653 711938 -146870 0
0 0 0 662 712600 -146208 0
0 0 0 696 713296 -145512 0
0 0 0 701 713997 -144811 0
0 0 0 697 714694 -144114 0
0 0 0 723 715417 -143391 0
0 0 0 780 716197 -142611 0
0 0 0 769 716966 -141842 0
0 0 0 801 717767 -141041 0
0 0 0 765 718532 -140276 0
0 0 0 702 719234 -139574 0
0 0 0 693 719927 -138881 0
0 0 0 672 720599 -138209 0
0 0 0 653 721252 -137556 0
0 0 0 659 721911 -136897 0
0 0 0 784 722695 -136113 0
0 0 0 805 723500 -135308 0
0 0 0 760 724260 -134548 0
0 0 0 749 725009 -133799 0
0 0 0 824 725833 -132975 0
0 0 0 820 726653 -132155 0
0 0 0 828 727481 -131327 0
0 0 0 793 728274 -130534 0
0 0 0 736 729010 -129798 0
0 0 0 761 729771 -129037 0
0 0 0 798 730569 -128239 0
0 0 0 836 731405 -127403 0
0 0 0 896 732301 -126507 1
0 0 0 856 733157 -125651 0
0 0 0 818 733975 -124833 0
0 0 0 894 734869 -123939 1
0 0 0 905 735774 -123034 1
0 0 0 876 736650 -122158 1
0 0 0 815 737465 -121343 0
0 0 0 780 738245 -120563 0
0 0 0 814 739059 -119749 0
0 0 0 814 739873 -118935 0
0 0 0 803 740676 -118132 0
0 0 0 722 741398 -117410 0
0 0 0 699 742097 -116711 0
0 0 0 696 742793 -116015 0
0 0 0 738 743531 -115277 0
0 0 0 869 744400 -114408 1
0 0 0 934 745334 -113474 1
0 0 0 948 746282 -112526 1
0 0 0 894 747176 -111632 1
0 0 0 848 748024 -110784 0
0 0 0 800 748824 -109984 0
0 0 0 748 749572 -109236 0
0 0 0 755 750327 -108481 0
0 0 0 727 751054 -107754 0
0 0 0 709 751763 -107045 0
0 0 0 684 752447 -106361 0
0 0 0 675 753122 -105686 0
0 0 0 708 753830 -104978 0
0 0 0 722 754552 -104256 0
0 0 0 741 755293 -103515 0
0 0 0 780 756073 -102735 0
0 0 0 803 756876 -101932 0
0 0 0 764 757640 -101168 0
0 0 0 749 758389 -100419 0
0 0 0 747 759136 -99672 0
0 0 0 735 759871 -98937 0
0 0 0 738 760609 -98199 0
0 0 0 752 761361 -97447 0
0 0 0 737 762098 -96710 0
0 0 0 725 762823 -95985 0
0 0 0 777 763600 -95208 0
0 0 0 813 764413 -94395 0
0 0 0 830 765243 -93565 0
0 0 0 836 766079 -92729 0
0 0 0 761 766840 -91968 0
0 0 0 783 767623 -91185 0
0 0 0 787 768410 -90398 0
0 0 0 805 769215 -89593 0
0 0 0 787 770002 -88806 0
0 0 0 742 770744 -88064 0
0 0 0 717 771461 -87347 0
0 0 0 730 772191 -86617 0
0 0 0 765 772956 -85852 0
0 0 0 767 773723 -85085 0
0 0 0 752 774475 -84333 0
0 0 0 781 775256 -83552 0
0 0 0 776 776032 -82776 0
0 0 0 761 776793 -82015 0
0 0 0 738 777531 -81277 0
0 0 0 734 778265 -80543 0
0 0 0 724 778989 -79819 0
0 0 0 722 779711 -79097 0
0 0 0 719 780430 -78378 0
0 0 0 704 781134 -77674 0
0 0 0 691 781825 -76983 0
0 0 0 680 782505 -76303 0
0 0 0 678 783183 -75625 0
0 0 0 662 783845 -74963 0
0 0 0 655 784500 -74308 0
0 0 0 650 785150 -73658 0
0 0 0 650 785800 -73008 0
0 0 0 657 786457 -72351 0
0 0 0 686 787143 -71665 0
0 0 0 690 787833 -70975 0
0 0 0 689 788522 -70286 0
0 0 0 668 789190 -69618 0
0 0 0 680 789870 -68938 0
0 0 0 702 790572 -68236 0
0 0 0 722 791294 -67514 0
0 0 0 739 792033 -66775 0
0 0 0 750 792783 -66025 0
0 0 0 750 793533 -65275 0
0 0 0 750 794283 -64525 0
0 0 0 746 795029 -63779 0
0 0 0 736 795765 -63043 0
0 0 0 718 796483 -62325 0
0 0 0 728 797211 -61597 0
0 0 0 754 797965 -60843 0
0 0 0 782 798747 -60061 0
0 0 0 761 799508 -59300 0
0 0 0 793 800301 -58507 0
0 0 0 756 801057 -57751 0
0 0 0 751 801808 -57000 0
0 0 0 746 802554 -56254 0
0 0 0 703 803257 -55551 0
0 0 0 692 803949 -54859 0
0 0 0 696 804645 -54163 0
0 0 0 684 805329 -53479 0
0 0 0 672 806001 -52807 0
0 0 0 667 806668 -52140 0
0 0 0 688 807356 -51452 0
0 0 0 734 808090 -50718 0
0 0 0 821 808911 -49897 0
0 0 0 871 809782 -49026 1
0 0 0 863 810645 -48163 0
0 0 0 854 811499 -47309 0
0 0 0 845 812344 -46464 0
0 0 0 827 813171 -45637 0
0 0 0 760 813931 -44877 0
0 0 0 762 814693 -44115 0
0 0 0 763 815456 -43352 0
0 0 0 785 816241 -42567 0
0 0 0 797 817038 -41770 0
0 0 0 795 817833 -40975 0
0 0 0 752 818585 -40223 0
0 0 0 765 819350 -39458 0
0 0 0 783 820133 -38675 0
0 0 0 787 820920 -37888 0
0 0 0 797 821717 -37091 0
0 0 0 777 822494 -36314 0
0 0 0 746 823240 -35568 0
0 0 0 784 824024 -34784 0
0 0 0 772 824796 -34012 0
0 0 0 780 825576 -33232 0
0 0 0 760 826336 -32472 0
0 0 0 731 827067 -31741 0
0 0 0 753 827820 -30988 0
0 0 0 762 828582 -30226 0
0 0 0 776 829358 -29450 0
0 0 0 779 830137 -28671 0
0 0 0 743 830880 -27928 0
0 0 0 761 831641 -27167 0
0 0 0 781 832422 -26386 0
0 0 0 779 833201 -25607 0
0 0 0 752 833953 -24855 0
0 0 0 721 834674 -24134 0
0 0 0 738 835412 -23396 0
0 0 0 749 836161 -22647 0
0 0 0 771 836932 -21876 0
0 0 0 742 837674 -21134 0
0 0 0 732 838406 -20402 0
0 0 0 759 839165 -19643 0
0 0 0 758 839923 -18885 0
0 0 0 775 840698 -18110 0
0 0 0 716 841414 -17394 0
0 0 0 721 842135 -16673 0
0 0 0 729 842864 -15944 0
0 0 0 765 843629 -15179 0
0 0 0 786 844415 -14393 0
0 0 0 783 845198 -13610 0
0 0 0 760 845958 -12850 0
0 0 0 748 846706 -12102 0
0 0 0 711 847417 -11391 0
0 0 0 706 848123 -10685 0
0 0 0 709 848832 -9976 0
0 0 0 713 849545 -9263 0
0 0 0 726 850271 -8537 0
0 0 0 726 850997 -7811 0
0 0 0 705 851702 -7106 0
0 0 0 753 852455 -6353 0
0 0 0 745 853200 -5608 0
0 0 0 739 853939 -4869 0
0 0 0 728 854667 -4141 0
0 0 0 706 855373 -3435 0
0 0 0 707 856080 -2728 0
0 0 0 718 856798 -2010 0
41 1 S102 719 857517 -1291 0
41 1 S102 705 858222 -586 0
41 2 S102 740 858962 154 0
41 2 S102 775 859737 929 0
41 2 S102 782 860519 1711 0
41 2 S102 764 861283 2475 0
41 2 S102 741 862024 3216 0
41 2 S102 789 862813 4005 0
41 2 S102 806 863619 4811 0
41 2 S102 811 864430 5622 0
41 2 S102 797 865227 6419 0
0 0 0 742 865969 -7776 0
0 0 0 758 866727 -7018 0
0 0 0 723 867450 -6295 0
0 0 0 691 868141 -5604 0
0 0 0 674 868815 -4930 0
0 0 0 674 869489 -4256 0
0 0 0 692 870181 -3564 0
0 0 0 782 870963 -2782 0
0 0 0 766 871729 -2016 0
42 1 S112 705 872434 -1311 0
42 1 S112 728 873162 -583 0
42 2 S112 788 873950 205 0
42 2 S112 746 874696 951 0
42 2 S112 752 875448 1703 0
42 2 S112 771 876219 2474 0
42 2 S112 785 877004 3259 0
42 2 S112 764 877768 4023 0
42 2 S112 724 878492 4747 0
42 2 S112 750 879242 5497 0
42 2 S112 764 880006 6261 0
0 0 0 796 880802 -9837 0
0 0 0 820 881622 -9017 0
0 0 0 725 882347 -8292 0
0 0 0 701 883048 -7591 0
0 0 0 696 883744 -6895 0
0 0 0 696 884440 -6199 0
0 0 0 710 885150 -5489 0
0 0 0 740 885890 -4749 0
0 0 0 773 886663 -3976 0
0 0 0 744 887407 -3232 0
0 0 0 806 888213 -2426 0
43 1 S116 859 889072 -1567 0
43 1 S116 839 889911 -728 0
43 2 S116 795 890706 67 0
43 2 S116 872 891578 939 1
43 2 S116 853 892431 1792 0
43 2 S116 836 893267 2628 0
43 2 S116 825 894092 3453 0
43 2 S116 781 894873 4234 0
43 2 S116 782 895655 5016 0
43 2 S116 800 896455 5816 0
43 2 S116 806 897261 6622 0
0 0 0 794 898055 -7454 0
0 0 0 781 898836 -6673 0
0 0 0 713 899549 -5960 0
0 0 0 727 900276 -5233 0
0 0 0 720 900996 -4513 0
0 0 0 732 901728 -3781 0
0 0 0 756 902484 -3025 0
0 0 0 752 903236 -2273 0
44 1 S102 726 903962 -1547 0
44 1 S102 763 904725 -784 0
44 2 S102 786 905511 2 0
44 2 S102 803 906314 805 0
44 2 S102 789 907103 1594 0
44 2 S102 736 907839 2330 0
44 2 S102 757 908596 3087 0
44 2 S102 763 909359 3850 0
44 2 S102 769 910128 4619 0
44 2 S102 769 910897 5388 0
44 2 S102 737 911634 6125 0
44 2 S102 745 912379 6870 0
0 0 0 767 913146 -8511 0
0 0 0 764 913910 -7747 0
0 0 0 786 914696 -6961 0
0 0 0 717 915413 -6244 0
0 0 0 741 916154 -5503 0
0 0 0 746 916900 -4757 0
0 0 0 758 917658 -3999 0
0 0 0 762 918420 -3237 0
0 0 0 726 919146 -2511 0
45 1 S116 747 919893 -1764 0
45 1 S116 768 920661 -996 0
45 1 S116 819 921480 -177 0
45 2 S116 801 922281 624 0
45 2 S116 747 923028 1371 0
45 2 S116 751 923779 2122 0
45 2 S116 777 924556 2899 0
45 2 S116 784 925340 3683 0
45 2 S116 797 926137 4480 0
45 2 S116 752 926889 5232 0
45 2 S116 782 927671 6014 0
45 2 S116 820 928491 6834 0
0 0 0 819 929310 -11064 0
0 0 0 754 930064 -10310 0
0 0 0 714 930778 -9596 0
0 0 0 731 931509 -8865 0
0 0 0 718 932227 -8147 0
0 0 0 716 932943 -7431 0
0 0 0 685 933628 -6746 0
0 0 0 735 934363 -6011 0
0 0 0 787 935150 -5224 0
0 0 0 743 935893 -4481 0
0 0 0 788 936681 -3693 0
0 0 0 822 937503 -2871 0
0 0 0 836 938339 -2035 0
46 1 S102 838 939177 -1197 0
46 1 S102 796 939973 -401 0
46 2 S102 831 940804 430 0
46 2 S102 824 941628 1254 0
46 2 S102 820 942448 2074 0
46 2 S102 784 943232 2858 0
46 2 S102 740 943972 3598 0
46 2 S102 766 944738 4364 0
46 2 S102 803 945541 5167 0
46 2 S102 863 946404 6030 0
46 2 S102 865 947269 6895 1
0 0 0 772 948041 -8795 0
0 0 0 777 948818 -8018 0
0 0 0 754 949572 -7264 0
0 0 0 758 950330 -6506 0
0 0 0 724 951054 -5782 0
0 0 0 761 951815 -5021 0
0 0 0 785 952600 -4236 0
0 0 0 830 953430 -3406 0
0 0 0 772 954202 -2634 0
47 1 S112 815 955017 -1819 0
47 1 S112 818 955835 -1001 0
47 1 S112 812 956647 -189 0
47 2 S112 771 957418 582 0
47 2 S112 756 958174 1338 0
47 2 S112 807 958981 2145 0
47 2 S112 864 959845 3009 1
47 2 S112 845 960690 3854 0
47 2 S112 849 961539 4703 0
47 2 S112 845 962384 5548 0
47 2 S112 753 963137 6301 0
0 0 0 735 963872 -10902 0
0 0 0 739 964611 -10163 0
0 0 0 737 965348 -9426 0
0 0 0 701 966049 -8725 0
0 0 0 686 966735 -8039 0
0 0 0 705 967440 -7334 0
0 0 0 817 968257 -6517 0
0 0 0 899 969156 -5618 1
0 0 0 872 970028 -4746 1
0 0 0 846 970874 -3900 0
0 0 0 775 971649 -3125 0
0 0 0 826 972475 -2299 0
48 1 S116 835 973310 -1464 0
48 1 S116 825 974135 -639 0
48 2 S116 801 974936 162 0
48 2 S116 743 975679 905 0
48 2 S116 773 976452 1678 0
48 2 S116 771 977223 2449 0
48 2 S116 805 978028 3254 0
48 2 S116 818 978846 4072 0
48 2 S116 782 979628 4854 0
48 2 S116 751 980379 5605 0
48 2 S116 792 981171 6397 0
0 0 0 791 981962 -7218 0
0 0 0 799 982761 -6419 0
0 0 0 717 983478 -5702 0
0 0 0 722 984200 -4980 0
0 0 0 708 984908 -4272 0
0 0 0 726 985634 -3546 0
0 0 0 737 986371 -2809 0
0 0 0 713 987084 -2096 0
49 1 S112 763 987847 -1333 0
49 1 S112 796 988643 -537 0
49 2 S112 817 989460 280 0
49 2 S112 807 990267 1087 0
49 2 S112 746 991013 1833 0
49 2 S112 733 991746 2566 0
49 2 S112 763 992509 3329 0
49 2 S112 788 993297 4117 0
49 2 S112 795 994092 4912 0
49 2 S112 785 994877 5697 0
49 2 S112 754 995631 6451 0
0 0 0 739 996370 -10649 0
0 0 0 764 997134 -9885 0
0 0 0 741 997875 -9144 0
0 0 0 703 998578 -8441 0
0 0 0 702 999280 -7739 0
0 0 0 701 999981 -7038 0
0 0 0 694 1000675 -6344 0
0 0 0 681 1001356 -5663 0
0 0 0 721 1002077 -4942 0
0 0 0 763 1002840 -4179 0
0 0 0 722 1003562 -3457 0
0 0 0 760 1004322 -2697 0
50 1 S106 756 1005078 -1941 0
50 1 S106 759 1005837 -1182 0
50 1 S106 726 1006563 -456 0
50 2 S106 745 1007308 289 0
50 2 S106 776 1008084 1065 0
50 2 S106 786 1008870 1851 0
50 2 S106 750 1009620 2601 0
50 2 S106 796 1010416 3397 0
50 2 S106 810 1011226 4207 0
50 2 S106 798 1012024 5005 0
50 2 S106 778 1012802 5783 0
50 2 S106 812 1013614 6595 0
0 0 0 789 1014403 -7503 0
0 0 0 765 1015168 -6738 0
0 0 0 715 1015883 -6023 0
0 0 0 735 1016618 -5288 0
0 0 0 744 1017362 -4544 0
0 0 0 796 1018158 -3748 0
0 0 0 799 1018957 -2949 0
0 0 0 789 1019746 -2160 0
51 1 S112 822 1020568 -1338 0
51 1 S112 850 1021418 -488 0
51 2 S112 783 1022201 295 0
51 2 S112 778 1022979 1073 0
51 2 S112 809 1023788 1882 0
51 2 S112 842 1024630 2724 0
51 2 S112 838 1025468 3562 0
51 2 S112 819 1026287 4381 0
51 2 S112 782 1027069 5163 0
51 2 S112 838 1027907 6001 0
51 2 S112 827 1028734 6828 0
0 0 0 859 1029593 -6504 0
0 0 0 766 1030359 -5738 0
0 0 0 715 1031074 -5023 0
0 0 0 697 1031771 -4326 0
0 0 0 693 1032464 -3633 0
0 0 0 732 1033196 -2901 0
0 0 0 861 1034057 -2040 0
52 1 S116 906 1034963 -1134 1
52 1 S116 897 1035860 -237 1
52 2 S116 770 1036630 533 0
52 2 S116 830 1037460 1363 0
52 2 S116 844 1038304 2207 0
52 2 S116 841 1039145 3048 0
52 2 S116 810 1039955 3858 0
52 2 S116 801 1040756 4659 0
52 2 S116 801 1041557 5460 0
52 2 S116 791 1042348 6251 0
52 2 S116 745 1043093 6996 0
0 0 0 742 1043835 -8774 0
0 0 0 723 1044558 -8051 0
0 0 0 709 1045267 -7342 0
0 0 0 680 1045947 -6662 0
0 0 0 677 1046624 -5985 0
0 0 0 693 1047317 -5292 0
0 0 0 731 1048048 -4561 0
0 0 0 769 1048817 -3792 0
0 0 0 808 1049625 -2984 0
0 0 0 816 1050441 -2168 0
53 1 S106 801 1051242 -1367 0
53 1 S106 787 1052029 -580 0
53 2 S106 766 1052795 186 0
53 2 S106 784 1053579 970 0
53 2 S106 789 1054368 1759 0
53 2 S106 771 1055139 2530 0
53 2 S106 738 1055877 3268 0
53 2 S106 762 1056639 4030 0
53 2 S106 777 1057416 4807 0
53 2 S106 791 1058207 5598 0
53 2 S106 799 1059006 6397 0
0 0 0 748 1059754 -6284 0
0 0 0 768 1060522 -5516 0
0 0 0 764 1061286 -4752 0
0 0 0 797 1062083 -3955 0
0 0 0 821 1062904 -3134 0
0 0 0 856 1063760 -2278 0
54 1 S102 844 1064604 -1434 0
54 1 S102 773 1065377 -661 0
54 2 S102 780 1066157 119 0
54 2 S102 777 1066934 896 0
54 2 S102 780 1067714 1676 0
54 2 S102 798 1068512 2474 0
54 2 S102 748 1069260 3222 0
54 2 S102 742 1070002 3964 0
54 2 S102 769 1070771 4733 0
54 2 S102 803 1071574 5536 0
54 2 S102 818 1072392 6354 0
0 0 0 827 1073219 -10956 0
0 0 0 777 1073996 -10179 0
0 0 0 761 1074757 -9418 0
0 0 0 755 1075512 -8663 0
0 0 0 742 1076254 -7921 0
0 0 0 711 1076965 -7210 0
0 0 0 734 1077699 -6476 0
0 0 0 757 1078456 -5719 0
0 0 0 797 1079253 -4922 0
0 0 0 794 1080047 -4128 0
0 0 0 765 1080812 -3363 0
0 0 0 802 1081614 -2561 0
55 1 S106 787 1082401 -1774 0
55 1 S106 805 1083206 -969 0
55 1 S106 759 1083965 -210 0
55 2 S106 752 1084717 542 0
55 2 S106 772 1085489 1314 0
55 2 S106 769 1086258 2083 0
55 2 S106 765 1087023 2848 0
55 2 S106 746 1087769 3594 0
55 2 S106 800 1088569 4394 0
55 2 S106 809 1089378 5203 0
55 2 S106 810 1090188 6013 0
55 2 S106 753 1090941 6766 0
0 0 0 779 1091720 -6447 0
0 0 0 755 1092475 -5692 0
0 0 0 754 1093229 -4938 0
0 0 0 717 1093946 -4221 0
0 0 0 729 1094675 -3492 0
0 0 0 737 1095412 -2755 0
56 1 S116 763 1096175 -1992 0
56 1 S116 769 1096944 -1223 0
56 1 S116 735 1097679 -488 0
56 2 S116 771 1098450 283 0
56 2 S116 770 1099220 1053 0
56 2 S116 799 1100019 1852 0
56 2 S116 771 1100790 2623 0
56 2 S116 746 1101536 3369 0
56 2 S116 773 1102309 4142 0
56 2 S116 777 1103086 4919 0
56 2 S116 793 1103879 5712 0
56 2 S116 731 1104610 6443 0
0 0 0 734 1105344 -6981 0
0 0 0 763 1106107 -6218 0
0 0 0 733 1106840 -5485 0
0 0 0 703 1107543 -4782 0
0 0 0 717 1108260 -4065 0
0 0 0 725 1108985 -3340 0
0 0 0 738 1109723 -2602 0
57 1 S106 716 1110439 -1886 0
57 1 S106 745 1111184 -1141 0
57 1 S106 770 1111954 -371 0
57 2 S106 788 1112742 417 0
57 2 S106 782 1113524 1199 0
57 2 S106 753 1114277 1952 0
57 2 S106 742 1115019 2694 0
57 2 S106 756 1115775 3450 0
57 2 S106 771 1116546 4221 0
57 2 S106 771 1117317 4992 0
57 2 S106 729 1118046 5721 0
57 2 S106 760 1118806 6481 0
0 0 0 782 1119588 -7956 0
0 0 0 796 1120384 -7160 0
0 0 0 755 1121139 -6405 0
0 0 0 718 1121857 -5687 0
0 0 0 742 1122599 -4945 0
0 0 0 744 1123343 -4201 0
0 0 0 780 1124123 -3421 0
0 0 0 780 1124903 -2641 0
58 1 S102 754 1125657 -1887 0
58 1 S102 782 1126439 -1105 0
58 1 S102 792 1127231 -313 0
58 2 S102 796 1128027 483 0
58 2 S102 775 1128802 1258 0
58 2 S102 737 1129539 1995 0
58 2 S102 763 1130302 2758 0
58 2 S102 757 1131059 3515 0
58 2 S102 755 1131814 4270 0
58 2 S102 740 1132554 5010 0
58 2 S102 746 1133300 5756 0
58 2 S102 755 1134055 6511 0
0 0 0 770 1134825 -6993 0
0 0 0 746 1135571 -6247 0
0 0 0 727 1136298 -5520 0
0 0 0 752 1137050 -4768 0
0 0 0 756 1137806 -4012 0
0 0 0 739 1138545 -3273 0
0 0 0 730 1139275 -2543 0
59 1 S112 765 1140040 -1778 0
59 1 S112 786 1140826 -992 0
59 1 S112 812 1141638 -180 0
59 2 S112 749 1142387 569 0
59 2 S112 774 1143161 1343 0
59 2 S112 792 1143953 2135 0
59 2 S112 787 1144740 2922 0
59 2 S112 757 1145497 3679 0
59 2 S112 742 1146239 4421 0
59 2 S112 776 1147015 5197 0
59 2 S112 781 1147796 5978 0
59 2 S112 792 1148588 6770 0
0 0 0 749 1149337 -9225 0
0 0 0 764 1150101 -8461 0
0 0 0 754 1150855 -7707 0
0 0 0 744 1151599 -6963 0
0 0 0 707 1152306 -6256 0
0 0 0 728 1153034 -5528 0
0 0 0 746 1153780 -4782 0
0 0 0 766 1154546 -4016 0
0 0 0 739 1155285 -3277 0
0 0 0 784 1156069 -2493 0
60 1 S102 785 1156854 -1708 0
60 1 S102 779 1157633 -929 0
60 1 S102 741 1158374 -188 0
60 2 S102 785 1159159 597 0
60 2 S102 782 1159941 1379 0
60 2 S102 768 1160709 2147 0
60 2 S102 731 1161440 2878 0
60 2 S102 746 1162186 3624 0
60 2 S102 746 1162932 4370 0
60 2 S102 764 1163696 5134 0
60 2 S102 734 1164430 5868 0
60 2 S102 721 1165151 6589 0
0 0 0 748 1165899 -11048 0
0 0 0 767 1166666 -10281 0
0 0 0 756 1167422 -9525 0
0 0 0 712 1168134 -8813 0
0 0 0 729 1168863 -8084 0
0 0 0 715 1169578 -7369 0
0 0 0 703 1170281 -6666 0
0 0 0 680 1170961 -5986 0
0 0 0 692 1171653 -5294 0
0 0 0 693 1172346 -4601 0
0 0 0 697 1173043 -3904 0
0 0 0 737 1173780 -3167 0
0 0 0 786 1174566 -2381 0
61 1 S106 790 1175356 -1591 0
61 1 S106 776 1176132 -815 0
61 1 S106 724 1176856 -91 0
61 2 S106 748 1177604 657 0
61 2 S106 749 1178353 1406 0
61 2 S106 776 1179129 2182 0
61 2 S106 809 1179938 2991 0
61 2 S106 767 1180705 3758 0
61 2 S106 790 1181495 4548 0
61 2 S106 811 1182306 5359 0
61 2 S106 850 1183156 6209 0
61 2 S106 815 1183971 7024 0
0 0 0 757 1184728 -7322 0
0 0 0 755 1185483 -6567 0
0 0 0 745 1186228 -5822 0
0 0 0 748 1186976 -5074 0
0 0 0 706 1187682 -4368 0
0 0 0 726 1188408 -3642 0
0 0 0 761 1189169 -2881 0
0 0 0 787 1189956 -2094 0
62 1 S112 750 1190706 -1344 0
62 1 S112 751 1191457 -593 0
62 2 S112 772 1192229 179 0
62 2 S112 802 1193031 981 0
62 2 S112 774 1193805 1755 0
62 2 S112 723 1194528 2478 0
62 2 S112 727 1195255 3205 0
62 2 S112 745 1196000 3950 0
62 2 S112 787 1196787 4737 0
62 2 S112 778 1197565 5515 0
62 2 S112 733 1198298 6248 0
62 2 S112 733 1199031 6981 0
0 0 0 774 1199805 -10863 0
0 0 0 770 1200575 -10093 0
0 0 0 733 1201308 -9360 0
0 0 0 724 1202032 -8636 0
0 0 0 721 1202753 -7915 0
0 0 0 705 1203458 -7210 0
0 0 0 685 1204143 -6525 0
0 0 0 711 1204854 -5814 0
0 0 0 749 1205603 -5065 0
0 0 0 718 1206321 -4347 0
0 0 0 752 1207073 -3595 0
0 0 0 750 1207823 -2845 0
0 0 0 760 1208583 -2085 0
63 1 S102 734 1209317 -1351 0
63 1 S102 710 1210027 -641 0
63 2 S102 748 1210775 107 0
63 2 S102 784 1211559 891 0
63 2 S102 806 1212365 1697 0
63 2 S102 817 1213182 2514 0
63 2 S102 768 1213950 3282 0
63 2 S102 814 1214764 4096 0
63 2 S102 809 1215573 4905 0
63 2 S102 791 1216364 5696 0
63 2 S102 761 1217125 6457 0
0 0 0 739 1217864 -8918 0
0 0 0 752 1218616 -8166 0
0 0 0 755 1219371 -7411 0
0 0 0 738 1220109 -6673 0
0 0 0 708 1220817 -5965 0
0 0 0 736 1221553 -5229 0
0 0 0 751 1222304 -4478 0
0 0 0 766 1223070 -3712 0
0 0 0 731 1223801 -2981 0
0 0 0 786 1224587 -2195 0
64 1 S112 806 1225393 -1389 0
64 1 S112 786 1226179 -603 0
64 2 S112 745 1226924 142 0
64 2 S112 737 1227661 879 0
64 2 S112 765 1228426 1644 0
64 2 S112 782 1229208 2426 0
64 2 S112 725 1229933 3151 0
64 2 S112 721 1230654 3872 0
64 2 S112 754 1231408 4626 0
64 2 S112 774 1232182 5400 0
64 2 S112 796 1232978 6196 0
64 2 S112 762 1233740 6958 0
0 0 0 724 1234464 -6410 0
0 0 0 735 1235199 -5675 0
0 0 0 716 1235915 -4959 0
0 0 0 698 1236613 -4261 0
0 0 0 712 1237325 -3549 0
0 0 0 742 1238067 -2807 0
0 0 0 785 1238852 -2022 0
65 1 S106 739 1239591 -1283 0
65 1 S106 734 1240325 -549 0
65 2 S106 754 1241079 205 0
65 2 S106 757 1241836 962 0
65 2 S106 761 1242597 1723 0
65 2 S106 717 1243314 2440 0
65 2 S106 745 1244059 3185 0
65 2 S106 758 1244817 3943 0
65 2 S106 792 1245609 4735 0
65 2 S106 768 1246377 5503 0
65 2 S106 735 1247112 6238 0
65 2 S106 773 1247885 7011 0
0 0 0 788 1248673 -6723 0
0 0 0 758 1249431 -5965 0
0 0 0 721 1250152 -5244 0
0 0 0 734 1250886 -4510 0
0 0 0 710 1251596 -3800 0
0 0 0 697 1252293 -3103 0
0 0 0 674 1252967 -2429 0
66 1 S116 657 1253624 -1772 0
66 1 S116 699 1254323 -1073 0
66 1 S116 728 1255051 -345 0
66 2 S116 747 1255798 402 0
66 2 S116 716 1256514 1118 0
66 2 S116 753 1257267 1871 0
66 2 S116 772 1258039 2643 0
66 2 S116 788 1258827 3431 0
66 2 S116 824 1259651 4255 0
66 2 S116 764 1260415 5019 0
66 2 S116 807 1261222 5826 0
66 2 S116 772 1261994 6598 0
0 0 0 773 1262767 -11131 0
0 0 0 735 1263502 -10396 0
0 0 0 702 1264204 -9694 0
0 0 0 708 1264912 -8986 0
0 0 0 731 1265643 -8255 0
0 0 0 778 1266421 -7477 0
0 0 0 798 1267219 -6679 0
0 0 0 762 1267981 -5917 0
0 0 0 799 1268780 -5118 0
0 0 0 833 1269613 -4285 0
0 0 0 843 1270456 -3442 0
0 0 0 778 1271234 -2664 0
67 1 S102 786 1272020 -1878 0
67 1 S102 782 1272802 -1096 0
67 1 S102 767 1273569 -329 0
67 2 S102 762 1274331 433 0
67 2 S102 736 1275067 1169 0
67 2 S102 779 1275846 1948 0
67 2 S102 782 1276628 2730 0
67 2 S102 800 1277428 3530 0
67 2 S102 758 1278186 4288 0
67 2 S102 773 1278959 5061 0
67 2 S102 794 1279753 5855 0
67 2 S102 797 1280550 6652 0
0 0 0 775 1281325 -6731 0
0 0 0 739 1282064 -5992 0
0 0 0 750 1282814 -5242 0
0 0 0 740 1283554 -4502 0
0 0 0 736 1284290 -3766 0
0 0 0 719 1285009 -3047 0
0 0 0 746 1285755 -2301 0
68 1 S106 758 1286513 -1543 0
68 1 S106 768 1287281 -775 0
68 1 S106 731 1288012 -44 0
68 2 S106 758 1288770 714 0
68 2 S106 775 1289545 1489 0
68 2 S106 792 1290337 2281 0
68 2 S106 767 1291104 3048 0
68 2 S106 746 1291850 3794 0
68 2 S106 763 1292613 4557 0
68 2 S106 751 1293364 5308 0
68 2 S106 759 1294123 6067 0
68 2 S106 717 1294840 6784 0
0 0 0 746 1295586 -9827 0
0 0 0 741 1296327 -9086 0
0 0 0 719 1297046 -8367 0
0 0 0 703 1297749 -7664 0
0 0 0 753 1298502 -6911 0
0 0 0 772 1299274 -6139 0
0 0 0 776 1300050 -5363 0
0 0 0 745 1300795 -4618 0
0 0 0 794 1301589 -3824 0
0 0 0 808 1302397 -3016 0
0 0 0 809 1303206 -2207 0
69 1 S102 753 1303959 -1454 0
69 1 S102 764 1304723 -690 0
69 2 S102 782 1305505 92 0
69 2 S102 824 1306329 916 0
69 2 S102 772 1307101 1688 0
69 2 S102 738 1307839 2426 0
69 2 S102 754 1308593 3180 0
69 2 S102 752 1309345 3932 0
69 2 S102 751 1310096 4683 0
69 2 S102 725 1310821 5408 0
69 2 S102 743 1311564 6151 0
69 2 S102 778 1312342 6929 0
0 0 0 799 1313141 -9050 0
0 0 0 748 1313889 -8302 0
0 0 0 730 1314619 -7572 0
0 0 0 738 1315357 -6834 0
0 0 0 734 1316091 -6100 0
0 0 0 720 1316811 -5380 0
0 0 0 736 1317547 -4644 0
0 0 0 741 1318288 -3903 0
0 0 0 753 1319041 -3150 0
0 0 0 718 1319759 -2432 0
70 1 S112 739 1320498 -1693 0
70 1 S112 746 1321244 -947 0
70 1 S112 747 1321991 -200 0
70 2 S112 716 1322707 516 0
70 2 S112 746 1323453 1262 0
70 2 S112 752 1324205 2014 0
70 2 S112 751 1324956 2765 0
70 2 S112 715 1325671 3480 0
70 2 S112 745 1326416 4225 0
70 2 S112 748 1327164 4973 0
70 2 S112 769 1327933 5742 0
70 2 S112 737 1328670 6479 0
0 0 0 717 1329387 -11786 0
0 0 0 745 1330132 -11041 0
0 0 0 715 1330847 -10326 0
0 0 0 689 1331536 -9637 0
0 0 0 675 1332211 -8962 0
0 0 0 674 1332885 -8288 0
0 0 0 684 1333569 -7604 0
0 0 0 688 1334257 -6916 0
0 0 0 691 1334948 -6225 0
0 0 0 666 1335614 -5559 0
0 0 0 695 1336309 -4864 0
0 0 0 746 1337055 -4118 0
0 0 0 773 1337828 -3345 0
0 0 0 729 1338557 -2616 0
71 1 S116 754 1339311 -1862 0
71 1 S116 767 1340078 -1095 0
71 1 S116 762 1340840 -333 0
71 2 S116 779 1341619 446 0
71 2 S116 775 1342394 1221 0
71 2 S116 775 1343169 1996 0
71 2 S116 766 1343935 2762 0
71 2 S116 722 1344657 3484 0
71 2 S116 737 1345394 4221 0
71 2 S116 743 1346137 4964 0
71 2 S116 790 1346927 5754 0
71 2 S116 804 1347731 6558 0
0 0 0 811 1348542 -9242 0
0 0 0 752 1349294 -8490 0
0 0 0 710 1350004 -7780 0
0 0 0 714 1350718 -7066 0
0 0 0 724 1351442 -6342 0
0 0 0 749 1352191 -5593 0
0 0 0 781 1352972 -4812 0
0 0 0 788 1353760 -4024 0
0 0 0 803 1354563 -3221 0
0 0 0 786 1355349 -2435 0
72 1 S102 742 1356091 -1693 0
72 1 S102 767 1356858 -926 0
72 1 S102 786 1357644 -140 0
72 2 S102 773 1358417 633 0
72 2 S102 781 1359198 1414 0
72 2 S102 735 1359933 2149 0
72 2 S102 725 1360658 2874 0
72 2 S102 764 1361422 3638 0
72 2 S102 780 1362202 4418 0
72 2 S102 798 1363000 5216 0
72 2 S102 789 1363789 6005 0
72 2 S102 798 1364587 6803 0
0 0 0 776 1365363 -6994 0
0 0 0 751 1366114 -6243 0
0 0 0 723 1366837 -5520 0
0 0 0 725 1367562 -4795 0
0 0 0 715 1368277 -4080 0
0 0 0 721 1368998 -3359 0
0 0 0 729 1369727 -2630 0
73 1 S116 698 1370425 -1932 0
73 1 S116 733 1371158 -1199 0
73 1 S116 747 1371905 -452 0
73 2 S116 784 1372689 332 0
73 2 S116 800 1373489 1132 0
73 2 S116 805 1374294 1937 0
73 2 S116 765 1375059 2702 0
73 2 S116 745 1375804 3447 0
73 2 S116 786 1376590 4233 0
73 2 S116 788 1377378 5021 0
73 2 S116 799 1378177 5820 0
73 2 S116 787 1378964 6607 0
0 0 0 752 1379716 -9799 0
0 0 0 784 1380500 -9015 0
0 0 0 753 1381253 -8262 0
0 0 0 739 1381992 -7523 0
0 0 0 714 1382706 -6809 0
0 0 0 723 1383429 -6086 0
0 0 0 735 1384164 -5351 0
0 0 0 765 1384929 -4586 0
0 0 0 727 1385656 -3859 0
0 0 0 763 1386419 -3096 0
0 0 0 777 1387196 -2319 0
74 1 S106 808 1388004 -1511 0
74 1 S106 753 1388757 -758 0
74 1 S106 736 1389493 -22 0
74 2 S106 756 1390249 734 0
74 2 S106 768 1391017 1502 0
74 2 S106 789 1391806 2291 0
74 2 S106 768 1392574 3059 0
74 2 S106 755 1393329 3814 0
74 2 S106 795 1394124 4609 0
74 2 S106 803 1394927 5412 0
74 2 S106 796 1395723 6208 0
74 2 S106 770 1396493 6978 0
0 0 0 742 1397235 -5742 0
0 0 0 760 1397995 -4982 0
0 0 0 737 1398732 -4245 0
0 0 0 732 1399464 -3513 0
0 0 0 715 1400179 -2798 0
0 0 0 752 1400931 -2046 0
75 1 S112 784 1401715 -1262 0
75 1 S112 810 1402525 -452 0
75 2 S112 798 1403323 346 0
75 2 S112 756 1404079 1102 0
75 2 S112 799 1404878 1901 0
75 2 S112 788 1405666 2689 0
75 2 S112 803 1406469 3492 0
75 2 S112 764 1407233 4256 0
75 2 S112 764 1407997 5020 0
75 2 S112 778 1408775 5798 0
75 2 S112 797 1409572 6595 0
0 0 0 797 1410369 -6982 0
0 0 0 743 1411112 -6239 0
0 0 0 719 1411831 -5520 0
0 0 0 725 1412556 -4795 0
0 0 0 725 1413281 -4070 0
0 0 0 735 1414016 -3335 0
0 0 0 738 1414754 -2597 0
76 1 S116 762 1415516 -1835 0
76 1 S116 813 1416329 -1022 0
76 1 S116 830 1417159 -192 0
76 2 S116 835 1417994 643 0
76 2 S116 786 1418780 1429 0
76 2 S116 809 1419589 2238 0
76 2 S116 791 1420380 3029 0
76 2 S116 811 1421191 3840 0
76 2 S116 801 1421992 4641 0
76 2 S116 755 1422747 5396 0
76 2 S116 791 1423538 6187 0
76 2 S116 780 1424318 6967 0
0 0 0 790 1425108 -7080 0
0 0 0 738 1425846 -6342 0
0 0 0 736 1426582 -5606 0
0 0 0 757 1427339 -4849 0
0 0 0 732 1428071 -4117 0
0 0 0 727 1428798 -3390 0
0 0 0 704 1429502 -2686 0
77 1 S106 724 1430226 -1962 0
77 1 S106 719 1430945 -1243 0
77 1 S106 684 1431629 -559 0
77 2 S106 685 1432314 126 0
77 2 S106 741 1433055 867 0
77 2 S106 720 1433775 1587 0
77 2 S106 708 1434483 2295 0
77 2 S106 730 1435213 3025 0
77 2 S106 746 1435959 3771 0
77 2 S106 745 1436704 4516 0
77 2 S106 714 1437418 5230 0
77 2 S106 736 1438154 5966 0
77 2 S106 750 1438904 6716 0
0 0 0 789 1439693 -8725 0
0 0 0 749 1440442 -7976 0
0 0 0 715 1441157 -7261 0
0 0 0 720 1441877 -6541 0
0 0 0 717 1442594 -5824 0
0 0 0 718 1443312 -5106 0
0 0 0 698 1444010 -4408 0
0 0 0 745 1444755 -3663 0
0 0 0 761 1445516 -2902 0
0 0 0 773 1446289 -2129 0
78 1 S112 771 1447060 -1358 0
78 1 S112 736 1447796 -622 0
78 2 S112 775 1448571 153 0
78 2 S112 782 1449353 935 0
78 2 S112 772 1450125 1707 0
78 2 S112 727 1450852 2434 0
78 2 S112 761 1451613 3195 0
78 2 S112 751 1452364 3946 0
78 2 S112 745 1453109 4691 0
78 2 S112 713 1453822 5404 0
78 2 S112 720 1454542 6124 0
78 2 S112 772 1455314 6896 0
0 0 0 800 1456114 -10690 0
0 0 0 760 1456874 -9930 0
0 0 0 717 1457591 -9213 0
0 0 0 746 1458337 -8467 0
0 0 0 760 1459097 -7707 0
0 0 0 767 1459864 -6940 0
0 0 0 764 1460628 -6176 0
0 0 0 739 1461367 -5437 0
0 0 0 783 1462150 -4654 0
0 0 0 791 1462941 -3863 0
0 0 0 805 1463746 -3058 0
0 0 0 762 1464508 -2296 0
79 1 S102 752 1465260 -1544 0
79 1 S102 774 1466034 -770 0
79 2 S102 775 1466809 5 0
79 2 S102 778 1467587 783 0
79 2 S102 754 1468341 1537 0
79 2 S102 736 1469077 2273 0
79 2 S102 748 1469825 3021 0
79 2 S102 753 1470578 3774 0
79 2 S102 761 1471339 4535 0
79 2 S102 723 1472062 5258 0
79 2 S102 752 1472814 6010 0
79 2 S102 757 1473571 6767 0
0 0 0 771 1474342 -8642 0
0 0 0 735 1475077 -7907 0
0 0 0 724 1475801 -7183 0
0 0 0 735 1476536 -6448 0
0 0 0 728 1477264 -5720 0
0 0 0 735 1477999 -4985 0
0 0 0 710 1478709 -4275 0
0 0 0 731 1479440 -3544 0
0 0 0 727 1480167 -2817 0
0 0 0 744 1480911 -2073 0
80 1 S116 710 1481621 -1363 0
80 1 S116 727 1482348 -636 0
80 2 S116 740 1483088 104 0
80 2 S116 747 1483835 851 0
80 2 S116 757 1484592 1608 0
80 2 S116 721 1485313 2329 0
80 2 S116 736 1486049 3065 0
80 2 S116 758 1486807 3823 0
80 2 S116 791 1487598 4614 0
80 2 S116 816 1488414 5430 0
80 2 S116 762 1489176 6192 0
80 2 S116 767 1489943 6959 0
