T_0075
BeatCount Mean SD BeatCountNoOutliers MeanNoOutliers SDNoOutliers
1920 818,9453125 72,704321198281 1885 820,987267904509 65,6121240781116

Trial TrialStatus Trialtype IBI AbsPosition RelPosition Outlier
0 0 0 805 858 -15099 0
0 0 0 840 1698 -14259 0
0 0 0 793 2491 -13466 0
0 0 0 845 3336 -12621 0
0 0 0 896 4232 -11725 0
0 0 0 925 5157 -10800 0
0 0 0 958 6115 -9842 0
0 0 0 979 7094 -8863 0
0 0 0 945 8039 -7918 0
0 0 0 915 8954 -7003 0
0 0 0 914 9868 -6089 0
0 0 0 896 10764 -5193 0
0 0 0 832 11596 -4361 0
0 0 0 840 12436 -3521 0
0 0 0 821 13257 -2700 0
1 1 S112 833 14090 -1867 0
1 1 S112 777 14867 -1090 0
1 1 S112 808 15675 -282 0
1 2 S112 811 16486 529 0
1 2 S112 771 17257 1300 0
1 2 S112 764 18021 2064 0
1 2 S112 814 18835 2878 0
1 2 S112 862 19697 3740 0
1 2 S112 861 20558 4601 0
1 2 S112 905 21463 5506 0
1 2 S112 915 22378 6421 0
0 0 0 868 23246 -11113 0
0 0 0 884 24130 -10229 0
0 0 0 875 25005 -9354 0
0 0 0 845 25850 -8509 0
0 0 0 820 26670 -7689 0
0 0 0 784 27454 -6905 0
0 0 0 721 28175 -6184 0
0 0 0 718 28893 -5466 0
0 0 0 682 29575 -4784 0
0 0 0 728 30303 -4056 0
0 0 0 750 31053 -3306 0
0 0 0 808 31861 -2498 0
2 1 S102 795 32656 -1703 0
2 1 S102 839 33495 -864 0
2 1 S102 860 34355 -4 0
2 2 S102 836 35191 832 0
2 2 S102 867 36058 1699 0
2 2 S102 866 36924 2565 0
2 2 S102 836 37760 3401 0
2 2 S102 820 38580 4221 0
2 2 S102 823 39403 5044 0
2 2 S102 838 40241 5882 0
2 2 S102 810 41051 6692 0
0 0 0 865 41916 -9121 0
0 0 0 897 42813 -8224 0
0 0 0 912 43725 -7312 0
0 0 0 892 44617 -6420 0
0 0 0 893 45510 -5527 0
0 0 0 853 46363 -4674 0
0 0 0 832 47195 -3842 0
0 0 0 816 48011 -3026 0
0 0 0 830 48841 -2196 0
3 1 S116 810 49651 -1386 0
3 1 S116 866 50517 -520 0
3 2 S116 892 51409 372 0
3 2 S116 902 52311 1274 0
3 2 S116 900 53211 2174 0
3 2 S116 907 54118 3081 0
3 2 S116 895 55013 3976 0
3 2 S116 832 55845 4808 0
3 2 S116 849 56694 5657 0
3 2 S116 848 57542 6505 0
0 0 0 832 58374 -11048 0
0 0 0 825 59199 -10223 0
0 0 0 839 60038 -9384 0
0 0 0 855 60893 -8529 0
0 0 0 795 61688 -7734 0
0 0 0 837 62525 -6897 0
0 0 0 842 63367 -6055 0
0 0 0 785 64152 -5270 0
0 0 0 826 64978 -4444 0
0 0 0 841 65819 -3603 0
0 0 0 866 66685 -2737 0
4 1 S106 820 67505 -1917 0
4 1 S106 853 68358 -1064 0
4 1 S106 866 69224 -198 0
4 2 S106 842 70066 644 0
4 2 S106 849 70915 1493 0
4 2 S106 863 71778 2356 0
4 2 S106 858 72636 3214 0
4 2 S106 794 73430 4008 0
4 2 S106 823 74253 4831 0
4 2 S106 828 75081 5659 0
4 2 S106 807 75888 6466 0
0 0 0 844 76732 -6384 0
0 0 0 859 77591 -5525 0
0 0 0 875 78466 -4650 0
0 0 0 817 79283 -3833 0
0 0 0 853 80136 -2980 0
0 0 0 851 80987 -2129 0
5 1 S116 817 81804 -1312 0
5 1 S116 840 82644 -472 0
5 2 S116 842 83486 370 0
5 2 S116 871 84357 1241 0
5 2 S116 830 85187 2071 0
5 2 S116 879 86066 2950 0
5 2 S116 906 86972 3856 0
5 2 S116 894 87866 4750 0
5 2 S116 879 88745 5629 0
5 2 S116 905 89650 6534 0
0 0 0 908 90558 -8639 0
0 0 0 860 91418 -7779 0
0 0 0 876 92294 -6903 0
0 0 0 858 93152 -6045 0
0 0 0 816 93968 -5229 0
0 0 0 835 94803 -4394 0
0 0 0 825 95628 -3569 0
0 0 0 820 96448 -2749 0
6 1 S106 823 97271 -1926 0
6 1 S106 865 98136 -1061 0
6 1 S106 889 99025 -172 0
6 2 S106 839 99864 667 0
6 2 S106 875 100739 1542 0
6 2 S106 890 101629 2432 0
6 2 S106 888 102517 3320 0
6 2 S106 872 103389 4192 0
6 2 S106 890 104279 5082 0
6 2 S106 901 105180 5983 0
6 2 S106 841 106021 6824 0
0 0 0 869 106890 -10511 0
0 0 0 867 107757 -9644 0
0 0 0 844 108601 -8800 0
0 0 0 843 109444 -7957 0
0 0 0 865 110309 -7092 0
0 0 0 839 111148 -6253 0
0 0 0 818 111966 -5435 0
0 0 0 837 112803 -4598 0
0 0 0 841 113644 -3757 0
0 0 0 797 114441 -2960 0
0 0 0 832 115273 -2128 0
7 1 S102 837 116110 -1291 0
7 1 S102 786 116896 -505 0
7 2 S102 817 117713 312 0
7 2 S102 816 118529 1128 0
7 2 S102 812 119341 1940 0
7 2 S102 807 120148 2747 0
7 2 S102 847 120995 3594 0
7 2 S102 865 121860 4459 0
7 2 S102 829 122689 5288 0
7 2 S102 867 123556 6155 0
0 0 0 875 124431 -8305 0
0 0 0 849 125280 -7456 0
0 0 0 867 126147 -6589 0
0 0 0 851 126998 -5738 0
0 0 0 803 127801 -4935 0
0 0 0 828 128629 -4107 0
0 0 0 824 129453 -3283 0
0 0 0 829 130282 -2454 0
8 1 S112 814 131096 -1640 0
8 1 S112 853 131949 -787 0
8 2 S112 870 132819 83 0
8 2 S112 839 133658 922 0
8 2 S112 887 134545 1809 0
8 2 S112 889 135434 2698 0
8 2 S112 851 136285 3549 0
8 2 S112 798 137083 4347 0
8 2 S112 825 137908 5172 0
8 2 S112 819 138727 5991 0
8 2 S112 780 139507 6771 0
0 0 0 802 140309 -7364 0
0 0 0 824 141133 -6540 0
0 0 0 868 142001 -5672 0
0 0 0 818 142819 -4854 0
0 0 0 837 143656 -4017 0
0 0 0 826 144482 -3191 0
0 0 0 767 145249 -2424 0
9 1 S116 779 146028 -1645 0
9 1 S116 777 146805 -868 0
9 1 S116 777 147582 -91 0
9 2 S116 777 148359 686 0
9 2 S116 811 149170 1497 0
9 2 S116 847 150017 2344 0
9 2 S116 817 150834 3161 0
9 2 S116 836 151670 3997 0
9 2 S116 844 152514 4841 0
9 2 S116 856 153370 5697 0
9 2 S116 819 154189 6516 0
0 0 0 850 155039 -12047 0
0 0 0 850 155889 -11197 0
0 0 0 867 156756 -10330 0
0 0 0 832 157588 -9498 0
0 0 0 861 158449 -8637 0
0 0 0 859 159308 -7778 0
0 0 0 794 160102 -6984 0
0 0 0 813 160915 -6171 0
0 0 0 816 161731 -5355 0
0 0 0 798 162529 -4557 0
0 0 0 815 163344 -3742 0
0 0 0 823 164167 -2919 0
0 0 0 840 165007 -2079 0
10 1 S102 810 165817 -1269 0
10 1 S102 841 166658 -428 0
10 2 S102 858 167516 430 0
10 2 S102 851 168367 1281 0
10 2 S102 821 169188 2102 0
10 2 S102 842 170030 2944 0
10 2 S102 854 170884 3798 0
10 2 S102 821 171705 4619 0
10 2 S102 841 172546 5460 0
10 2 S102 827 173373 6287 0
0 0 0 827 174200 -12034 0
0 0 0 797 174997 -11237 0
0 0 0 830 175827 -10407 0
0 0 0 851 176678 -9556 0
0 0 0 817 177495 -8739 0
0 0 0 846 178341 -7893 0
0 0 0 848 179189 -7045 0
0 0 0 812 180001 -6233 0
0 0 0 837 180838 -5396 0
0 0 0 839 181677 -4557 0
0 0 0 814 182491 -3743 0
0 0 0 779 183270 -2964 0
0 0 0 815 184085 -2149 0
11 1 S112 832 184917 -1317 0
11 1 S112 822 185739 -495 0
11 2 S112 860 186599 365 0
11 2 S112 881 187480 1246 0
11 2 S112 875 188355 2121 0
11 2 S112 841 189196 2962 0
11 2 S112 846 190042 3808 0
11 2 S112 835 190877 4643 0
11 2 S112 790 191667 5433 0
11 2 S112 777 192444 6210 0
11 2 S112 804 193248 7014 0
0 0 0 814 194062 -5734 0
0 0 0 777 194839 -4957 0
0 0 0 801 195640 -4156 0
0 0 0 808 196448 -3348 0
0 0 0 748 197196 -2600 0
12 1 S116 778 197974 -1822 0
12 1 S116 792 198766 -1030 0
12 1 S116 804 199570 -226 0
12 2 S116 757 200327 531 0
12 2 S116 797 201124 1328 0
12 2 S116 814 201938 2142 0
12 2 S116 794 202732 2936 0
12 2 S116 828 203560 3764 0
12 2 S116 845 204405 4609 0
12 2 S116 875 205280 5484 0
12 2 S116 834 206114 6318 0
0 0 0 865 206979 -12081 0
0 0 0 870 207849 -11211 0
0 0 0 861 208710 -10350 0
0 0 0 822 209532 -9528 0
0 0 0 843 210375 -8685 0
0 0 0 846 211221 -7839 0
0 0 0 803 212024 -7036 0
0 0 0 840 212864 -6196 0
0 0 0 842 213706 -5354 0
0 0 0 818 214524 -4536 0
0 0 0 849 215373 -3687 0
0 0 0 858 216231 -2829 0
13 1 S112 853 217084 -1976 0
13 1 S112 851 217935 -1125 0
13 1 S112 877 218812 -248 0
13 2 S112 885 219697 637 0
13 2 S112 852 220549 1489 0
13 2 S112 867 221416 2356 0
13 2 S112 866 222282 3222 0
13 2 S112 865 223147 4087 0
13 2 S112 816 223963 4903 0
13 2 S112 859 224822 5762 0
13 2 S112 867 225689 6629 0
0 0 0 895 226584 -11989 0
0 0 0 806 227390 -11183 0
0 0 0 824 228214 -10359 0
0 0 0 827 229041 -9532 0
0 0 0 835 229876 -8697 0
0 0 0 784 230660 -7913 0
0 0 0 797 231457 -7116 0
0 0 0 803 232260 -6313 0
0 0 0 752 233012 -5561 0
0 0 0 778 233790 -4783 0
0 0 0 789 234579 -3994 0
0 0 0 806 235385 -3188 0
0 0 0 772 236157 -2416 0
14 1 S106 803 236960 -1613 0
14 1 S106 811 237771 -802 0
14 2 S106 812 238583 10 0
14 2 S106 807 239390 817 0
14 2 S106 826 240216 1643 0
14 2 S106 827 241043 2470 0
14 2 S106 784 241827 3254 0
14 2 S106 829 242656 4083 0
14 2 S106 836 243492 4919 0
14 2 S106 836 244328 5755 0
14 2 S106 812 245140 6567 0
0 0 0 852 245992 -10917 0
0 0 0 875 246867 -10042 0
0 0 0 857 247724 -9185 0
0 0 0 841 248565 -8344 0
0 0 0 830 249395 -7514 0
0 0 0 814 250209 -6700 0
0 0 0 779 250988 -5921 0
0 0 0 794 251782 -5127 0
0 0 0 813 252595 -4314 0
0 0 0 808 253403 -3506 0
0 0 0 830 254233 -2676 0
15 1 S116 835 255068 -1841 0
15 1 S116 818 255886 -1023 0
15 1 S116 774 256660 -249 0
15 2 S116 802 257462 553 0
15 2 S116 833 258295 1386 0
15 2 S116 835 259130 2221 0
15 2 S116 867 259997 3088 0
15 2 S116 887 260884 3975 0
15 2 S116 876 261760 4851 0
15 2 S116 841 262601 5692 0
15 2 S116 856 263457 6548 0
0 0 0 851 264308 -10058 0
0 0 0 805 265113 -9253 0
0 0 0 835 265948 -8418 0
0 0 0 839 266787 -7579 0
0 0 0 811 267598 -6768 0
0 0 0 809 268407 -5959 0
0 0 0 805 269212 -5154 0
0 0 0 820 270032 -4334 0
0 0 0 799 270831 -3535 0
0 0 0 833 271664 -2702 0
16 1 S116 844 272508 -1858 0
16 1 S116 805 273313 -1053 0
16 1 S116 821 274134 -232 0
16 2 S116 840 274974 608 0
16 2 S116 836 275810 1444 0
16 2 S116 791 276601 2235 0
16 2 S116 841 277442 3076 0
16 2 S116 863 278305 3939 0
16 2 S116 857 279162 4796 0
16 2 S116 856 280018 5652 0
16 2 S116 882 280900 6534 0
0 0 0 904 281804 -9853 0
0 0 0 848 282652 -9005 0
0 0 0 879 283531 -8126 0
0 0 0 873 284404 -7253 0
0 0 0 821 285225 -6432 0
0 0 0 833 286058 -5599 0
0 0 0 820 286878 -4779 0
0 0 0 801 287679 -3978 0
0 0 0 787 288466 -3191 0
0 0 0 809 289275 -2382 0
17 1 S106 830 290105 -1552 0
17 1 S106 801 290906 -751 0
17 2 S106 833 291739 82 0
17 2 S106 849 292588 931 0
17 2 S106 829 293417 1760 0
17 2 S106 809 294226 2569 0
17 2 S106 842 295068 3411 0
17 2 S106 836 295904 4247 0
17 2 S106 815 296719 5062 0
17 2 S106 869 297588 5931 0
17 2 S106 877 298465 6808 0
0 0 0 836 299301 -10377 0
0 0 0 858 300159 -9519 0
0 0 0 850 301009 -8669 0
0 0 0 825 301834 -7844 0
0 0 0 824 302658 -7020 0
0 0 0 822 303480 -6198 0
0 0 0 827 304307 -5371 0
0 0 0 797 305104 -4574 0
0 0 0 835 305939 -3739 0
0 0 0 843 306782 -2896 0
0 0 0 815 307597 -2081 0
18 1 S102 846 308443 -1235 0
18 1 S102 859 309302 -376 0
18 2 S102 839 310141 463 0
18 2 S102 823 310964 1286 0
18 2 S102 832 311796 2118 0
18 2 S102 827 312623 2945 0
18 2 S102 786 313409 3731 0
18 2 S102 811 314220 4542 0
18 2 S102 813 315033 5355 0
18 2 S102 806 315839 6161 0
18 2 S102 820 316659 6981 0
0 0 0 841 317500 -6270 0
0 0 0 848 318348 -5422 0
0 0 0 805 319153 -4617 0
0 0 0 830 319983 -3787 0
0 0 0 820 320803 -2967 0
0 0 0 786 321589 -2181 0
19 1 S106 807 322396 -1374 0
19 1 S106 825 323221 -549 0
19 2 S106 817 324038 268 0
19 2 S106 791 324829 1059 0
19 2 S106 819 325648 1878 0
19 2 S106 820 326468 2698 0
19 2 S106 789 327257 3487 0
19 2 S106 812 328069 4299 0
19 2 S106 809 328878 5108 0
19 2 S106 794 329672 5902 0
19 2 S106 759 330431 6661 0
0 0 0 793 331224 -10384 0
0 0 0 801 332025 -9583 0
0 0 0 793 332818 -8790 0
0 0 0 795 333613 -7995 0
0 0 0 824 334437 -7171 0
0 0 0 818 335255 -6353 0
0 0 0 783 336038 -5570 0
0 0 0 818 336856 -4752 0
0 0 0 817 337673 -3935 0
0 0 0 768 338441 -3167 0
0 0 0 789 339230 -2378 0
20 1 S112 786 340016 -1592 0
20 1 S112 759 340775 -833 0
20 1 S112 782 341557 -51 0
20 2 S112 813 342370 762 0
20 2 S112 819 343189 1581 0
20 2 S112 772 343961 2353 0
20 2 S112 820 344781 3173 0
20 2 S112 839 345620 4012 0
20 2 S112 843 346463 4855 0
20 2 S112 827 347290 5682 0
20 2 S112 836 348126 6518 0
0 0 0 831 348957 -10589 0
0 0 0 781 349738 -9808 0
0 0 0 805 350543 -9003 0
0 0 0 819 351362 -8184 0
0 0 0 805 352167 -7379 0
0 0 0 819 352986 -6560 0
0 0 0 799 353785 -5761 0
0 0 0 772 354557 -4989 0
0 0 0 764 355321 -4225 0
0 0 0 786 356107 -3439 0
0 0 0 809 356916 -2630 0
21 1 S106 781 357697 -1849 0
21 1 S106 824 358521 -1025 0
21 1 S106 839 359360 -186 0
21 2 S106 852 360212 666 0
21 2 S106 820 361032 1486 0
21 2 S106 841 361873 2327 0
21 2 S106 844 362717 3171 0
21 2 S106 813 363530 3984 0
21 2 S106 844 364374 4828 0
21 2 S106 861 365235 5689 0
21 2 S106 865 366100 6554 0
0 0 0 813 366913 -11085 0
0 0 0 854 367767 -10231 0
0 0 0 853 368620 -9378 0
0 0 0 830 369450 -8548 0
0 0 0 805 370255 -7743 0
0 0 0 800 371055 -6943 0
0 0 0 778 371833 -6165 0
0 0 0 741 372574 -5424 0
0 0 0 772 373346 -4652 0
0 0 0 792 374138 -3860 0
0 0 0 785 374923 -3075 0
0 0 0 827 375750 -2248 0
22 1 S116 859 376609 -1389 0
22 1 S116 880 377489 -509 0
22 2 S116 851 378340 342 0
22 2 S116 853 379193 1195 0
22 2 S116 864 380057 2059 0
22 2 S116 863 380920 2922 0
22 2 S116 828 381748 3750 0
22 2 S116 859 382607 4609 0
22 2 S116 872 383479 5481 0
22 2 S116 839 384318 6320 0
0 0 0 854 385172 -10283 0
0 0 0 876 386048 -9407 0
0 0 0 862 386910 -8545 0
0 0 0 813 387723 -7732 0
0 0 0 835 388558 -6897 0
0 0 0 797 389355 -6100 0
0 0 0 729 390084 -5371 0
0 0 0 743 390827 -4628 0
0 0 0 732 391559 -3896 0
0 0 0 699 392258 -3197 0
0 0 0 650 392908 -2547 0
23 1 S112 685 393593 -1862 0
23 1 S112 715 394308 -1147 0
23 1 S112 743 395051 -404 0
23 2 S112 754 395805 350 0
23 2 S112 824 396629 1174 0
23 2 S112 855 397484 2029 0
23 2 S112 831 398315 2860 0
23 2 S112 762 399077 3622 0
23 2 S112 772 399849 4394 0
23 2 S112 768 400617 5162 0
23 2 S112 753 401370 5915 0
23 2 S112 722 402092 6637 0
0 0 0 772 402864 -9170 0
0 0 0 809 403673 -8361 0
0 0 0 857 404530 -7504 0
0 0 0 850 405380 -6654 0
0 0 0 888 406268 -5766 0
0 0 0 876 407144 -4890 0
0 0 0 841 407985 -4049 0
0 0 0 848 408833 -3201 0
0 0 0 840 409673 -2361 0
24 1 S106 767 410440 -1594 0
24 1 S106 772 411212 -822 0
24 1 S106 770 411982 -52 0
24 2 S106 790 412772 738 0
24 2 S106 791 413563 1529 0
24 2 S106 850 414413 2379 0
24 2 S106 869 415282 3248 0
24 2 S106 857 416139 4105 0
24 2 S106 887 417026 4992 0
24 2 S106 878 417904 5870 0
24 2 S106 849 418753 6719 0
0 0 0 833 419586 -7650 0
0 0 0 826 420412 -6824 0
0 0 0 822 421234 -6002 0
0 0 0 767 422001 -5235 0
0 0 0 792 422793 -4443 0
0 0 0 799 423592 -3644 0
0 0 0 823 424415 -2821 0
0 0 0 808 425223 -2013 0
25 1 S102 837 426060 -1176 0
25 1 S102 850 426910 -326 0
25 2 S102 838 427748 512 0
25 2 S102 834 428582 1346 0
25 2 S102 847 429429 2193 0
25 2 S102 859 430288 3052 0
25 2 S102 808 431096 3860 0
25 2 S102 832 431928 4692 0
25 2 S102 831 432759 5523 0
25 2 S102 816 433575 6339 0
0 0 0 791 434366 -6017 0
0 0 0 830 435196 -5187 0
0 0 0 849 436045 -4338 0
0 0 0 810 436855 -3528 0
0 0 0 837 437692 -2691 0
26 1 S116 825 438517 -1866 0
26 1 S116 793 439310 -1073 0
26 1 S116 770 440080 -303 0
26 2 S116 802 440882 499 0
26 2 S116 821 441703 1320 0
26 2 S116 828 442531 2148 0
26 2 S116 804 443335 2952 0
26 2 S116 860 444195 3812 0
26 2 S116 898 445093 4710 0
26 2 S116 859 445952 5569 0
26 2 S116 893 446845 6462 0
0 0 0 895 447740 -7447 0
0 0 0 871 448611 -6576 0
0 0 0 842 449453 -5734 0
0 0 0 839 450292 -4895 0
0 0 0 818 451110 -4077 0
0 0 0 763 451873 -3314 0
0 0 0 792 452665 -2522 0
27 1 S106 803 453468 -1719 0
27 1 S106 787 454255 -932 0
27 1 S106 814 455069 -118 0
27 2 S106 810 455879 692 0
27 2 S106 826 456705 1518 0
27 2 S106 820 457525 2338 0
27 2 S106 869 458394 3207 0
27 2 S106 891 459285 4098 0
27 2 S106 873 460158 4971 0
27 2 S106 910 461068 5881 0
27 2 S106 920 461988 6801 0
0 0 0 883 462871 -7171 0
0 0 0 890 463761 -6281 0
0 0 0 884 464645 -5397 0
0 0 0 842 465487 -4555 0
0 0 0 807 466294 -3748 0
0 0 0 822 467116 -2926 0
0 0 0 832 467948 -2094 0
28 1 S102 799 468747 -1295 0
28 1 S102 835 469582 -460 0
28 2 S102 840 470422 380 0
28 2 S102 805 471227 1185 0
28 2 S102 826 472053 2011 0
28 2 S102 839 472892 2850 0
28 2 S102 840 473732 3690 0
28 2 S102 797 474529 4487 0
28 2 S102 833 475362 5320 0
28 2 S102 838 476200 6158 0
28 2 S102 820 477020 6978 0
0 0 0 847 477867 -10063 0
0 0 0 850 478717 -9213 0
0 0 0 828 479545 -8385 0
0 0 0 794 480339 -7591 0
0 0 0 820 481159 -6771 0
0 0 0 821 481980 -5950 0
0 0 0 776 482756 -5174 0
0 0 0 819 483575 -4355 0
0 0 0 839 484414 -3516 0
0 0 0 825 485239 -2691 0
29 1 S112 865 486104 -1826 0
29 1 S112 873 486977 -953 0
29 1 S112 874 487851 -79 0
29 2 S112 854 488705 775 0
29 2 S112 858 489563 1633 0
29 2 S112 806 490369 2439 0
29 2 S112 790 491159 3229 0
29 2 S112 827 491986 4056 0
29 2 S112 842 492828 4898 0
29 2 S112 819 493647 5717 0
29 2 S112 860 494507 6577 0
0 0 0 881 495388 -7512 0
0 0 0 878 496266 -6634 0
0 0 0 872 497138 -5762 0
0 0 0 868 498006 -4894 0
0 0 0 817 498823 -4077 0
0 0 0 756 499579 -3321 0
0 0 0 755 500334 -2566 0
30 1 S112 746 501080 -1820 0
30 1 S112 701 501781 -1119 0
30 1 S112 658 502439 -461 0
30 2 S112 648 503087 187 0
30 2 S112 639 503726 826 0
30 2 S112 679 504405 1505 0
30 2 S112 802 505207 2307 0
30 2 S112 898 506105 3205 0
30 2 S112 929 507034 4134 0
30 2 S112 934 507968 5068 0
30 2 S112 918 508886 5986 0
30 2 S112 903 509789 6889 0
0 0 0 876 510665 -9311 0
0 0 0 841 511506 -8470 0
0 0 0 800 512306 -7670 0
0 0 0 757 513063 -6913 0
0 0 0 727 513790 -6186 0
0 0 0 698 514488 -5488 0
0 0 0 681 515169 -4807 0
0 0 0 659 515828 -4148 0
0 0 0 645 516473 -3503 0
0 0 0 615 517088 -2888 1
0 0 0 630 517718 -2258 1
31 1 S106 649 518367 -1609 0
31 1 S106 764 519131 -845 0
31 1 S106 803 519934 -42 0
31 2 S106 828 520762 786 0
31 2 S106 904 521666 1690 0
31 2 S106 930 522596 2620 0
31 2 S106 908 523504 3528 0
31 2 S106 840 524344 4368 0
31 2 S106 776 525120 5144 0
31 2 S106 723 525843 5867 0
31 2 S106 691 526534 6558 0
0 0 0 673 527207 -9978 0
0 0 0 662 527869 -9316 0
0 0 0 718 528587 -8598 0
0 0 0 780 529367 -7818 0
0 0 0 761 530128 -7057 0
0 0 0 770 530898 -6287 0
0 0 0 750 531648 -5537 0
0 0 0 691 532339 -4846 0
0 0 0 698 533037 -4148 0
0 0 0 699 533736 -3449 0
0 0 0 716 534452 -2733 0
0 0 0 696 535148 -2037 0
32 1 S102 756 535904 -1281 0
32 1 S102 787 536691 -494 0
32 2 S102 819 537510 325 0
32 2 S102 799 538309 1124 0
32 2 S102 847 539156 1971 0
32 2 S102 869 540025 2840 0
32 2 S102 836 540861 3676 0
32 2 S102 859 541720 4535 0
32 2 S102 851 542571 5386 0
32 2 S102 823 543394 6209 0
32 2 S102 803 544197 7012 0
0 0 0 805 545002 -10452 0
0 0 0 808 545810 -9644 0
0 0 0 785 546595 -8859 0
0 0 0 778 547373 -8081 0
0 0 0 780 548153 -7301 0
0 0 0 798 548951 -6503 0
0 0 0 758 549709 -5745 0
0 0 0 807 550516 -4938 0
0 0 0 817 551333 -4121 0
0 0 0 854 552187 -3267 0
0 0 0 814 553001 -2453 0
33 1 S112 831 553832 -1622 0
33 1 S112 820 554652 -802 0
33 2 S112 820 555472 18 0
33 2 S112 809 556281 827 0
33 2 S112 835 557116 1662 0
33 2 S112 843 557959 2505 0
33 2 S112 788 558747 3293 0
33 2 S112 821 559568 4114 0
33 2 S112 833 560401 4947 0
33 2 S112 843 561244 5790 0
33 2 S112 819 562063 6609 0
0 0 0 847 562910 -10747 0
0 0 0 850 563760 -9897 0
0 0 0 803 564563 -9094 0
0 0 0 810 565373 -8284 0
0 0 0 789 566162 -7495 0
0 0 0 747 566909 -6748 0
0 0 0 751 567660 -5997 0
0 0 0 770 568430 -5227 0
0 0 0 776 569206 -4451 0
0 0 0 757 569963 -3694 0
0 0 0 801 570764 -2893 0
0 0 0 818 571582 -2075 0
34 1 S106 826 572408 -1249 0
34 1 S106 797 573205 -452 0
34 2 S106 795 574000 343 0
34 2 S106 751 574751 1094 0
34 2 S106 705 575456 1799 0
34 2 S106 684 576140 2483 0
34 2 S106 665 576805 3148 0
34 2 S106 709 577514 3857 0
34 2 S106 736 578250 4593 0
34 2 S106 809 579059 5402 0
34 2 S106 784 579843 6186 0
34 2 S106 831 580674 7017 0
0 0 0 853 581527 -9256 0
0 0 0 855 582382 -8401 0
0 0 0 823 583205 -7578 0
0 0 0 833 584038 -6745 0
0 0 0 802 584840 -5943 0
0 0 0 718 585558 -5225 0
0 0 0 725 586283 -4500 0
0 0 0 718 587001 -3782 0
0 0 0 683 587684 -3099 0
0 0 0 755 588439 -2344 0
35 1 S102 896 589335 -1448 0
35 1 S102 952 590287 -496 0
35 2 S102 931 591218 435 0
35 2 S102 962 592180 1397 0
35 2 S102 940 593120 2337 0
35 2 S102 890 594010 3227 0
35 2 S102 881 594891 4108 0
35 2 S102 847 595738 4955 0
35 2 S102 776 596514 5731 0
35 2 S102 786 597300 6517 0
0 0 0 774 598074 -7182 0
0 0 0 796 598870 -6386 0
0 0 0 775 599645 -5611 0
0 0 0 776 600421 -4835 0
0 0 0 811 601232 -4024 0
0 0 0 818 602050 -3206 0
0 0 0 768 602818 -2438 0
36 1 S106 817 603635 -1621 0
36 1 S106 834 604469 -787 0
36 2 S106 822 605291 35 0
36 2 S106 802 606093 837 0
36 2 S106 820 606913 1657 0
36 2 S106 825 607738 2482 0
36 2 S106 820 608558 3302 0
36 2 S106 813 609371 4115 0
36 2 S106 848 610219 4963 0
36 2 S106 865 611084 5828 0
36 2 S106 866 611950 6694 0
0 0 0 863 612813 -8574 0
0 0 0 862 613675 -7712 0
0 0 0 843 614518 -6869 0
0 0 0 777 615295 -6092 0
0 0 0 798 616093 -5294 0
0 0 0 792 616885 -4502 0
0 0 0 718 617603 -3784 0
0 0 0 706 618309 -3078 0
0 0 0 735 619044 -2343 0
37 1 S116 754 619798 -1589 0
37 1 S116 728 620526 -861 0
37 1 S116 748 621274 -113 0
37 2 S116 802 622076 689 0
37 2 S116 829 622905 1518 0
37 2 S116 734 623639 2252 0
37 2 S116 697 624336 2949 0
37 2 S116 710 625046 3659 0
37 2 S116 716 625762 4375 0
37 2 S116 737 626499 5112 0
37 2 S116 718 627217 5830 0
37 2 S116 717 627934 6547 0
0 0 0 725 628659 -11180 0
0 0 0 728 629387 -10452 0
0 0 0 719 630106 -9733 0
0 0 0 676 630782 -9057 0
0 0 0 683 631465 -8374 0
0 0 0 674 632139 -7700 0
0 0 0 676 632815 -7024 0
0 0 0 657 633472 -6367 0
0 0 0 632 634104 -5735 0
0 0 0 616 634720 -5119 1
0 0 0 614 635334 -4505 1
0 0 0 641 635975 -3864 0
0 0 0 710 636685 -3154 0
0 0 0 770 637455 -2384 0
38 1 S102 805 638260 -1579 0
38 1 S102 885 639145 -694 0
38 2 S102 836 639981 142 0
38 2 S102 809 640790 951 0
38 2 S102 817 641607 1768 0
38 2 S102 799 642406 2567 0
38 2 S102 771 643177 3338 0
38 2 S102 747 643924 4085 0
38 2 S102 728 644652 4813 0
38 2 S102 681 645333 5494 0
38 2 S102 688 646021 6182 0
38 2 S102 691 646712 6873 0
0 0 0 728 647440 -9160 0
0 0 0 760 648200 -8400 0
0 0 0 792 648992 -7608 0
0 0 0 858 649850 -6750 0
0 0 0 895 650745 -5855 0
0 0 0 822 651567 -5033 0
0 0 0 853 652420 -4180 0
0 0 0 881 653301 -3299 0
0 0 0 846 654147 -2453 0
39 1 S116 871 655018 -1582 0
39 1 S116 875 655893 -707 0
39 2 S116 871 656764 164 0
39 2 S116 821 657585 985 0
39 2 S116 832 658417 1817 0
39 2 S116 853 659270 2670 0
39 2 S116 868 660138 3538 0
39 2 S116 832 660970 4370 0
39 2 S116 862 661832 5232 0
39 2 S116 860 662692 6092 0
39 2 S116 847 663539 6939 0
0 0 0 826 664365 -6078 0
0 0 0 844 665209 -5234 0
0 0 0 863 666072 -4371 0
0 0 0 808 666880 -3563 0
0 0 0 846 667726 -2717 0
40 1 S112 842 668568 -1875 0
40 1 S112 848 669416 -1027 0
40 1 S112 813 670229 -214 0
40 2 S112 835 671064 621 0
40 2 S112 853 671917 1474 0
40 2 S112 812 672729 2286 0
40 2 S112 840 673569 3126 0
40 2 S112 836 674405 3962 0
40 2 S112 847 675252 4809 0
40 2 S112 801 676053 5610 0
40 2 S112 830 676883 6440 0
0 0 0 841 677724 -187334 0
0 0 0 835 678559 -186499 0
0 0 0 820 679379 -185679 0
0 0 0 839 680218 -184840 0
0 0 0 768 680986 -184072 0
0 0 0 747 681733 -183325 0
0 0 0 727 682460 -182598 0
0 0 0 676 683136 -181922 0
0 0 0 666 683802 -181256 0
0 0 0 676 684478 -180580 0
0 0 0 653 685131 -179927 0
0 0 0 639 685770 -179288 0
0 0 0 642 686412 -178646 0
0 0 0 691 687103 -177955 0
0 0 0 757 687860 -177198 0
0 0 0 779 688639 -176419 0
0 0 0 763 689402 -175656 0
0 0 0 718 690120 -174938 0
0 0 0 673 690793 -174265 0
0 0 0 621 691414 -173644 1
0 0 0 628 692042 -173016 1
0 0 0 614 692656 -172402 1
0 0 0 603 693259 -171799 1
0 0 0 606 693865 -171193 1
0 0 0 631 694496 -170562 1
0 0 0 684 695180 -169878 0
0 0 0 730 695910 -169148 0
0 0 0 759 696669 -168389 0
0 0 0 774 697443 -167615 0
0 0 0 751 698194 -166864 0
0 0 0 1468 699662 -165396 1
0 0 0 670 700332 -164726 0
0 0 0 1337 701669 -163389 1
0 0 0 651 702320 -162738 0
0 0 0 629 702949 -162109 1
0 0 0 609 703558 -161500 1
0 0 0 610 704168 -160890 1
0 0 0 604 704772 -160286 1
0 0 0 599 705371 -159687 1
0 0 0 605 705976 -159082 1
0 0 0 689 706665 -158393 0
0 0 0 797 707462 -157596 0
0 0 0 805 708267 -156791 0
0 0 0 752 709019 -156039 0
0 0 0 707 709726 -155332 0
0 0 0 665 710391 -154667 0
0 0 0 651 711042 -154016 0
0 0 0 633 711675 -153383 0
0 0 0 626 712301 -152757 1
0 0 0 623 712924 -152134 1
0 0 0 628 713552 -151506 1
0 0 0 629 714181 -150877 1
0 0 0 656 714837 -150221 0
0 0 0 732 715569 -149489 0
0 0 0 880 716449 -148609 0
0 0 0 796 717245 -147813 0
0 0 0 700 717945 -147113 0
0 0 0 675 718620 -146438 0
0 0 0 667 719287 -145771 0
0 0 0 701 719988 -145070 0
0 0 0 798 720786 -144272 0
0 0 0 972 721758 -143300 0
0 0 0 884 722642 -142416 0
0 0 0 916 723558 -141500 0
0 0 0 925 724483 -140575 0
0 0 0 803 725286 -139772 0
0 0 0 719 726005 -139053 0
0 0 0 684 726689 -138369 0
0 0 0 659 727348 -137710 0
0 0 0 643 727991 -137067 0
0 0 0 639 728630 -136428 0
0 0 0 629 729259 -135799 1
0 0 0 628 729887 -135171 1
0 0 0 644 730531 -134527 0
0 0 0 806 731337 -133721 0
0 0 0 872 732209 -132849 0
0 0 0 896 733105 -131953 0
0 0 0 777 733882 -131176 0
0 0 0 743 734625 -130433 0
0 0 0 697 735322 -129736 0
0 0 0 688 736010 -129048 0
0 0 0 701 736711 -128347 0
0 0 0 735 737446 -127612 0
0 0 0 766 738212 -126846 0
0 0 0 779 738991 -126067 0
0 0 0 736 739727 -125331 0
0 0 0 758 740485 -124573 0
0 0 0 768 741253 -123805 0
0 0 0 835 742088 -122970 0
0 0 0 752 742840 -122218 0
0 0 0 719 743559 -121499 0
0 0 0 686 744245 -120813 0
0 0 0 747 744992 -120066 0
0 0 0 920 745912 -119146 0
0 0 0 1020 746932 -118126 1
0 0 0 881 747813 -117245 0
0 0 0 942 748755 -116303 0
0 0 0 906 749661 -115397 0
0 0 0 795 750456 -114602 0
0 0 0 797 751253 -113805 0
0 0 0 823 752076 -112982 0
0 0 0 844 752920 -112138 0
0 0 0 778 753698 -111360 0
0 0 0 831 754529 -110529 0
0 0 0 834 755363 -109695 0
0 0 0 822 756185 -108873 0
0 0 0 799 756984 -108074 0
0 0 0 834 757818 -107240 0
0 0 0 882 758700 -106358 0
0 0 0 862 759562 -105496 0
0 0 0 851 760413 -104645 0
0 0 0 876 761289 -103769 0
0 0 0 895 762184 -102874 0
0 0 0 824 763008 -102050 0
0 0 0 866 763874 -101184 0
0 0 0 878 764752 -100306 0
0 0 0 841 765593 -99465 0
0 0 0 866 766459 -98599 0
0 0 0 901 767360 -97698 0
0 0 0 892 768252 -96806 0
0 0 0 849 769101 -95957 0
0 0 0 910 770011 -95047 0
0 0 0 923 770934 -94124 0
0 0 0 877 771811 -93247 0
0 0 0 912 772723 -92335 0
0 0 0 918 773641 -91417 0
0 0 0 872 774513 -90545 0
0 0 0 905 775418 -89640 0
0 0 0 908 776326 -88732 0
0 0 0 842 777168 -87890 0
0 0 0 894 778062 -86996 0
0 0 0 909 778971 -86087 0
0 0 0 863 779834 -85224 0
0 0 0 909 780743 -84315 0
0 0 0 916 781659 -83399 0
0 0 0 884 782543 -82515 0
0 0 0 917 783460 -81598 0
0 0 0 901 784361 -80697 0
0 0 0 825 785186 -79872 0
0 0 0 817 786003 -79055 0
0 0 0 794 786797 -78261 0
0 0 0 760 787557 -77501 0
0 0 0 793 788350 -76708 0
0 0 0 927 789277 -75781 0
0 0 0 971 790248 -74810 0
0 0 0 884 791132 -73926 0
0 0 0 946 792078 -72980 0
0 0 0 899 792977 -72081 0
0 0 0 774 793751 -71307 0
0 0 0 724 794475 -70583 0
0 0 0 709 795184 -69874 0
0 0 0 708 795892 -69166 0
0 0 0 731 796623 -68435 0
0 0 0 690 797313 -67745 0
0 0 0 706 798019 -67039 0
0 0 0 743 798762 -66296 0
0 0 0 782 799544 -65514 0
0 0 0 798 800342 -64716 0
0 0 0 788 801130 -63928 0
0 0 0 796 801926 -63132 0
0 0 0 811 802737 -62321 0
0 0 0 757 803494 -61564 0
0 0 0 688 804182 -60876 0
0 0 0 651 804833 -60225 0
0 0 0 620 805453 -59605 1
0 0 0 640 806093 -58965 0
0 0 0 634 806727 -58331 0
0 0 0 610 807337 -57721 1
0 0 0 662 807999 -57059 0
0 0 0 676 808675 -56383 0
0 0 0 695 809370 -55688 0
0 0 0 763 810133 -54925 0
0 0 0 906 811039 -54019 0
0 0 0 832 811871 -53187 0
0 0 0 748 812619 -52439 0
0 0 0 843 813462 -51596 0
0 0 0 843 814305 -50753 0
0 0 0 863 815168 -49890 0
0 0 0 873 816041 -49017 0
0 0 0 870 816911 -48147 0
0 0 0 839 817750 -47308 0
0 0 0 801 818551 -46507 0
0 0 0 723 819274 -45784 0
0 0 0 701 819975 -45083 0
0 0 0 680 820655 -44403 0
0 0 0 677 821332 -43726 0
0 0 0 640 821972 -43086 0
0 0 0 642 822614 -42444 0
0 0 0 607 823221 -41837 1
0 0 0 607 823828 -41230 1
0 0 0 624 824452 -40606 1
0 0 0 646 825098 -39960 0
0 0 0 781 825879 -39179 0
0 0 0 958 826837 -38221 0
0 0 0 927 827764 -37294 0
0 0 0 903 828667 -36391 0
0 0 0 930 829597 -35461 0
0 0 0 919 830516 -34542 0
0 0 0 815 831331 -33727 0
0 0 0 785 832116 -32942 0
0 0 0 739 832855 -32203 0
0 0 0 678 833533 -31525 0
0 0 0 651 834184 -30874 0
0 0 0 647 834831 -30227 0
0 0 0 737 835568 -29490 0
0 0 0 869 836437 -28621 0
0 0 0 815 837252 -27806 0
0 0 0 766 838018 -27040 0
0 0 0 819 838837 -26221 0
0 0 0 869 839706 -25352 0
0 0 0 936 840642 -24416 0
0 0 0 930 841572 -23486 0
0 0 0 818 842390 -22668 0
0 0 0 797 843187 -21871 0
0 0 0 758 843945 -21113 0
0 0 0 733 844678 -20380 0
0 0 0 731 845409 -19649 0
0 0 0 697 846106 -18952 0
0 0 0 702 846808 -18250 0
0 0 0 703 847511 -17547 0
0 0 0 792 848303 -16755 0
0 0 0 914 849217 -15841 0
0 0 0 914 850131 -14927 0
0 0 0 880 851011 -14047 0
0 0 0 896 851907 -13151 0
0 0 0 888 852795 -12263 0
0 0 0 842 853637 -11421 0
0 0 0 762 854399 -10659 0
0 0 0 750 855149 -9909 0
0 0 0 682 855831 -9227 0
0 0 0 700 856531 -8527 0
0 0 0 765 857296 -7762 0
0 0 0 810 858106 -6952 0
0 0 0 771 858877 -6181 0
0 0 0 792 859669 -5389 0
0 0 0 750 860419 -4639 0
0 0 0 719 861138 -3920 0
0 0 0 703 861841 -3217 0
0 0 0 717 862558 -2500 0
41 1 S102 729 863287 -1771 0
41 1 S102 765 864052 -1006 0
41 1 S102 755 864807 -251 0
41 2 S102 774 865581 523 0
41 2 S102 830 866411 1353 0
41 2 S102 849 867260 2202 0
41 2 S102 794 868054 2996 0
41 2 S102 784 868838 3780 0
41 2 S102 773 869611 4553 0
41 2 S102 795 870406 5348 0
41 2 S102 800 871206 6148 0
41 2 S102 792 871998 6940 0
0 0 0 839 872837 -6677 0
0 0 0 885 873722 -5792 0
0 0 0 910 874632 -4882 0
0 0 0 874 875506 -4008 0
0 0 0 886 876392 -3122 0
0 0 0 862 877254 -2260 0
42 1 S112 807 878061 -1453 0
42 1 S112 846 878907 -607 0
42 2 S112 866 879773 259 0
42 2 S112 882 880655 1141 0
42 2 S112 877 881532 2018 0
42 2 S112 912 882444 2930 0
42 2 S112 923 883367 3853 0
42 2 S112 867 884234 4720 0
42 2 S112 888 885122 5608 0
42 2 S112 874 885996 6482 0
0 0 0 850 886846 -9562 0
0 0 0 811 887657 -8751 0
0 0 0 836 888493 -7915 0
0 0 0 856 889349 -7059 0
0 0 0 815 890164 -6244 0
0 0 0 820 890984 -5424 0
0 0 0 821 891805 -4603 0
0 0 0 824 892629 -3779 0
0 0 0 780 893409 -2999 0
0 0 0 829 894238 -2170 0
43 1 S116 858 895096 -1312 0
43 1 S116 864 895960 -448 0
43 2 S116 838 896798 390 0
43 2 S116 879 897677 1269 0
43 2 S116 912 898589 2181 0
43 2 S116 907 899496 3088 0
43 2 S116 875 900371 3963 0
43 2 S116 883 901254 4846 0
43 2 S116 886 902140 5732 0
43 2 S116 863 903003 6595 0
0 0 0 849 903852 -7078 0
0 0 0 860 904712 -6218 0
0 0 0 852 905564 -5366 0
0 0 0 808 906372 -4558 0
0 0 0 812 907184 -3746 0
0 0 0 784 907968 -2962 0
0 0 0 758 908726 -2204 0
44 1 S102 714 909440 -1490 0
44 1 S102 709 910149 -781 0
44 1 S102 764 910913 -17 0
44 2 S102 814 911727 797 0
44 2 S102 829 912556 1626 0
44 2 S102 812 913368 2438 0
44 2 S102 844 914212 3282 0
44 2 S102 850 915062 4132 0
44 2 S102 821 915883 4953 0
44 2 S102 811 916694 5764 0
44 2 S102 825 917519 6589 0
0 0 0 834 918353 -8907 0
0 0 0 821 919174 -8086 0
0 0 0 806 919980 -7280 0
0 0 0 827 920807 -6453 0
0 0 0 847 921654 -5606 0
0 0 0 819 922473 -4787 0
0 0 0 832 923305 -3955 0
0 0 0 819 924124 -3136 0
0 0 0 777 924901 -2359 0
45 1 S116 720 925621 -1639 0
45 1 S116 700 926321 -939 0
45 1 S116 674 926995 -265 0
45 2 S116 662 927657 397 0
45 2 S116 651 928308 1048 0
45 2 S116 678 928986 1726 0
45 2 S116 793 929779 2519 0
45 2 S116 951 930730 3470 0
45 2 S116 834 931564 4304 0
45 2 S116 833 932397 5137 0
45 2 S116 783 933180 5920 0
45 2 S116 782 933962 6702 0
0 0 0 772 934734 -10779 0
0 0 0 718 935452 -10061 0
0 0 0 693 936145 -9368 0
0 0 0 701 936846 -8667 0
0 0 0 705 937551 -7962 0
0 0 0 676 938227 -7286 0
0 0 0 666 938893 -6620 0
0 0 0 693 939586 -5927 0
0 0 0 686 940272 -5241 0
0 0 0 702 940974 -4539 0
0 0 0 789 941763 -3750 0
0 0 0 761 942524 -2989 0
0 0 0 847 943371 -2142 0
46 1 S102 904 944275 -1238 0
46 1 S102 887 945162 -351 0
46 2 S102 877 946039 526 0
46 2 S102 872 946911 1398 0
46 2 S102 858 947769 2256 0
46 2 S102 783 948552 3039 0
46 2 S102 807 949359 3846 0
46 2 S102 816 950175 4662 0
46 2 S102 823 950998 5485 0
46 2 S102 774 951772 6259 0
0 0 0 828 952600 -9657 0
0 0 0 870 953470 -8787 0
0 0 0 875 954345 -7912 0
0 0 0 881 955226 -7031 0
0 0 0 879 956105 -6152 0
0 0 0 841 956946 -5311 0
0 0 0 820 957766 -4491 0
0 0 0 838 958604 -3653 0
0 0 0 841 959445 -2812 0
0 0 0 782 960227 -2030 0
47 1 S112 817 961044 -1213 0
47 1 S112 837 961881 -376 0
47 2 S112 856 962737 480 0
47 2 S112 818 963555 1298 0
47 2 S112 859 964414 2157 0
47 2 S112 894 965308 3051 0
47 2 S112 894 966202 3945 0
47 2 S112 884 967086 4829 0
47 2 S112 866 967952 5695 0
47 2 S112 808 968760 6503 0
0 0 0 809 969569 -11173 0
0 0 0 796 970365 -10377 0
0 0 0 821 971186 -9556 0
0 0 0 772 971958 -8784 0
0 0 0 769 972727 -8015 0
0 0 0 852 973579 -7163 0
0 0 0 908 974487 -6255 0
0 0 0 873 975360 -5382 0
0 0 0 916 976276 -4466 0
0 0 0 920 977196 -3546 0
0 0 0 853 978049 -2693 0
48 1 S116 848 978897 -1845 0
48 1 S116 829 979726 -1016 0
48 1 S116 818 980544 -198 0
48 2 S116 746 981290 548 0
48 2 S116 744 982034 1292 0
48 2 S116 805 982839 2097 0
48 2 S116 902 983741 2999 0
48 2 S116 894 984635 3893 0
48 2 S116 939 985574 4832 0
48 2 S116 953 986527 5785 0
48 2 S116 933 987460 6718 0
0 0 0 945 988405 -7075 0
0 0 0 917 989322 -6158 0
0 0 0 858 990180 -5300 0
0 0 0 845 991025 -4455 0
0 0 0 797 991822 -3658 0
0 0 0 764 992586 -2894 0
0 0 0 719 993305 -2175 0
49 1 S112 681 993986 -1494 0
49 1 S112 753 994739 -741 0
49 2 S112 842 995581 101 0
49 2 S112 938 996519 1039 0
49 2 S112 908 997427 1947 0
49 2 S112 943 998370 2890 0
49 2 S112 937 999307 3827 0
49 2 S112 866 1000173 4693 0
49 2 S112 877 1001050 5570 0
49 2 S112 870 1001920 6440 0
0 0 0 828 1002748 -11914 0
0 0 0 808 1003556 -11106 0
0 0 0 852 1004408 -10254 0
0 0 0 883 1005291 -9371 0
0 0 0 837 1006128 -8534 0
0 0 0 872 1007000 -7662 0
0 0 0 872 1007872 -6790 0
0 0 0 837 1008709 -5953 0
0 0 0 830 1009539 -5123 0
0 0 0 833 1010372 -4290 0
0 0 0 837 1011209 -3453 0
0 0 0 787 1011996 -2666 0
50 1 S106 824 1012820 -1842 0
50 1 S106 836 1013656 -1006 0
50 1 S106 842 1014498 -164 0
50 2 S106 831 1015329 667 0
50 2 S106 861 1016190 1528 0
50 2 S106 882 1017072 2410 0
50 2 S106 854 1017926 3264 0
50 2 S106 880 1018806 4144 0
50 2 S106 888 1019694 5032 0
50 2 S106 889 1020583 5921 0
50 2 S106 855 1021438 6776 0
0 0 0 884 1022322 -7741 0
0 0 0 888 1023210 -6853 0
0 0 0 876 1024086 -5977 0
0 0 0 832 1024918 -5145 0
0 0 0 843 1025761 -4302 0
0 0 0 835 1026596 -3467 0
0 0 0 790 1027386 -2677 0
51 1 S112 841 1028227 -1836 0
51 1 S112 866 1029093 -970 0
51 1 S112 848 1029941 -122 0
51 2 S112 888 1030829 766 0
51 2 S112 903 1031732 1669 0
51 2 S112 878 1032610 2547 0
51 2 S112 849 1033459 3396 0
51 2 S112 845 1034304 4241 0
51 2 S112 847 1035151 5088 0
51 2 S112 793 1035944 5881 0
51 2 S112 830 1036774 6711 0
0 0 0 864 1037638 -7777 0
0 0 0 879 1038517 -6898 0
0 0 0 850 1039367 -6048 0
0 0 0 880 1040247 -5168 0
0 0 0 871 1041118 -4297 0
0 0 0 820 1041938 -3477 0
0 0 0 833 1042771 -2644 0
52 1 S116 826 1043597 -1818 0
52 1 S116 798 1044395 -1020 0
52 1 S116 812 1045207 -208 0
52 2 S116 840 1046047 632 0
52 2 S116 852 1046899 1484 0
52 2 S116 830 1047729 2314 0
52 2 S116 880 1048609 3194 0
52 2 S116 884 1049493 4078 0
52 2 S116 873 1050366 4951 0
52 2 S116 859 1051225 5810 0
52 2 S116 864 1052089 6674 0
0 0 0 872 1052961 -9546 0
0 0 0 831 1053792 -8715 0
0 0 0 847 1054639 -7868 0
0 0 0 852 1055491 -7016 0
0 0 0 824 1056315 -6192 0
0 0 0 801 1057116 -5391 0
0 0 0 809 1057925 -4582 0
0 0 0 823 1058748 -3759 0
0 0 0 744 1059492 -3015 0
0 0 0 758 1060250 -2257 0
53 1 S106 791 1061041 -1466 0
53 1 S106 835 1061876 -631 0
53 2 S106 813 1062689 182 0
53 2 S106 853 1063542 1035 0
53 2 S106 875 1064417 1910 0
53 2 S106 853 1065270 2763 0
53 2 S106 861 1066131 3624 0
53 2 S106 850 1066981 4474 0
53 2 S106 846 1067827 5320 0
53 2 S106 813 1068640 6133 0
53 2 S106 836 1069476 6969 0
0 0 0 849 1070325 -5196 0
0 0 0 845 1071170 -4351 0
0 0 0 804 1071974 -3547 0
0 0 0 842 1072816 -2705 0
54 1 S102 857 1073673 -1848 0
54 1 S102 859 1074532 -989 0
54 1 S102 853 1075385 -136 0
54 2 S102 866 1076251 730 0
54 2 S102 859 1077110 1589 0
54 2 S102 819 1077929 2408 0
54 2 S102 850 1078779 3258 0
54 2 S102 858 1079637 4116 0
54 2 S102 860 1080497 4976 0
54 2 S102 856 1081353 5832 0
54 2 S102 905 1082258 6737 0
0 0 0 899 1083157 -11512 0
0 0 0 837 1083994 -10675 0
0 0 0 842 1084836 -9833 0
0 0 0 841 1085677 -8992 0
0 0 0 792 1086469 -8200 0
0 0 0 780 1087249 -7420 0
0 0 0 813 1088062 -6607 0
0 0 0 797 1088859 -5810 0
0 0 0 776 1089635 -5034 0
0 0 0 828 1090463 -4206 0
0 0 0 847 1091310 -3359 0
0 0 0 813 1092123 -2546 0
55 1 S106 846 1092969 -1700 0
55 1 S106 844 1093813 -856 0
55 1 S106 810 1094623 -46 0
55 2 S106 782 1095405 736 0
55 2 S106 798 1096203 1534 0
55 2 S106 810 1097013 2344 0
55 2 S106 782 1097795 3126 0
55 2 S106 800 1098595 3926 0
55 2 S106 814 1099409 4740 0
55 2 S106 794 1100203 5534 0
55 2 S106 773 1100976 6307 0
0 0 0 808 1101784 -8005 0
0 0 0 836 1102620 -7169 0
0 0 0 810 1103430 -6359 0
0 0 0 834 1104264 -5525 0
0 0 0 844 1105108 -4681 0
0 0 0 805 1105913 -3876 0
0 0 0 793 1106706 -3083 0
0 0 0 804 1107510 -2279 0
56 1 S116 811 1108321 -1468 0
56 1 S116 764 1109085 -704 0
56 2 S116 803 1109888 99 0
56 2 S116 822 1110710 921 0
56 2 S116 862 1111572 1783 0
56 2 S116 861 1112433 2644 0
56 2 S116 905 1113338 3549 0
56 2 S116 919 1114257 4468 0
56 2 S116 882 1115139 5350 0
56 2 S116 904 1116043 6254 0
0 0 0 899 1116942 -8364 0
0 0 0 887 1117829 -7477 0
0 0 0 837 1118666 -6640 0
0 0 0 845 1119511 -5795 0
0 0 0 862 1120373 -4933 0
0 0 0 816 1121189 -4117 0
0 0 0 859 1122048 -3258 0
0 0 0 867 1122915 -2391 0
57 1 S106 838 1123753 -1553 0
57 1 S106 876 1124629 -677 0
57 2 S106 873 1125502 196 0
57 2 S106 846 1126348 1042 0
57 2 S106 874 1127222 1916 0
57 2 S106 875 1128097 2791 0
57 2 S106 860 1128957 3651 0
57 2 S106 839 1129796 4490 0
57 2 S106 868 1130664 5358 0
57 2 S106 891 1131555 6249 0
0 0 0 851 1132406 -9761 0
0 0 0 873 1133279 -8888 0
0 0 0 883 1134162 -8005 0
0 0 0 873 1135035 -7132 0
0 0 0 858 1135893 -6274 0
0 0 0 872 1136765 -5402 0
0 0 0 852 1137617 -4550 0
0 0 0 821 1138438 -3729 0
0 0 0 829 1139267 -2900 0
0 0 0 795 1140062 -2105 0
58 1 S102 765 1140827 -1340 0
58 1 S102 843 1141670 -497 0
58 2 S102 890 1142560 393 0
58 2 S102 892 1143452 1285 0
58 2 S102 856 1144308 2141 0
58 2 S102 884 1145192 3025 0
58 2 S102 883 1146075 3908 0
58 2 S102 839 1146914 4747 0
58 2 S102 857 1147771 5604 0
58 2 S102 867 1148638 6471 0
0 0 0 838 1149476 -8009 0
0 0 0 812 1150288 -7197 0
0 0 0 830 1151118 -6367 0
0 0 0 852 1151970 -5515 0
0 0 0 827 1152797 -4688 0
0 0 0 830 1153627 -3858 0
0 0 0 851 1154478 -3007 0
0 0 0 843 1155321 -2164 0
59 1 S112 834 1156155 -1330 0
59 1 S112 869 1157024 -461 0
59 2 S112 878 1157902 417 0
59 2 S112 852 1158754 1269 0
59 2 S112 884 1159638 2153 0
59 2 S112 894 1160532 3047 0
59 2 S112 869 1161401 3916 0
59 2 S112 831 1162232 4747 0
59 2 S112 860 1163092 5607 0
59 2 S112 861 1163953 6468 0
0 0 0 815 1164768 -9229 0
0 0 0 822 1165590 -8407 0
0 0 0 844 1166434 -7563 0
0 0 0 834 1167268 -6729 0
0 0 0 782 1168050 -5947 0
0 0 0 790 1168840 -5157 0
0 0 0 759 1169599 -4398 0
0 0 0 716 1170315 -3682 0
0 0 0 694 1171009 -2988 0
0 0 0 640 1171649 -2348 0
60 1 S102 675 1172324 -1673 0
60 1 S102 686 1173010 -987 0
60 1 S102 727 1173737 -260 0
60 2 S102 706 1174443 446 0
60 2 S102 765 1175208 1211 0
60 2 S102 808 1176016 2019 0
60 2 S102 816 1176832 2835 0
60 2 S102 769 1177601 3604 0
60 2 S102 781 1178382 4385 0
60 2 S102 776 1179158 5161 0
60 2 S102 752 1179910 5913 0
60 2 S102 718 1180628 6631 0
0 0 0 750 1181378 -10474 0
0 0 0 771 1182149 -9703 0
0 0 0 792 1182941 -8911 0
0 0 0 769 1183710 -8142 0
0 0 0 830 1184540 -7312 0
0 0 0 861 1185401 -6451 0
0 0 0 860 1186261 -5591 0
0 0 0 865 1187126 -4726 0
0 0 0 876 1188002 -3850 0
0 0 0 869 1188871 -2981 0
0 0 0 825 1189696 -2156 0
61 1 S106 852 1190548 -1304 0
61 1 S106 853 1191401 -451 0
61 2 S106 822 1192223 371 0
61 2 S106 846 1193069 1217 0
61 2 S106 885 1193954 2102 0
61 2 S106 915 1194869 3017 0
61 2 S106 890 1195759 3907 0
61 2 S106 938 1196697 4845 0
61 2 S106 940 1197637 5785 0
61 2 S106 877 1198514 6662 0
0 0 0 890 1199404 -8016 0
0 0 0 883 1200287 -7133 0
0 0 0 830 1201117 -6303 0
0 0 0 866 1201983 -5437 0
0 0 0 877 1202860 -4560 0
0 0 0 822 1203682 -3738 0
0 0 0 829 1204511 -2909 0
0 0 0 831 1205342 -2078 0
62 1 S112 752 1206094 -1326 0
62 1 S112 754 1206848 -572 0
62 2 S112 865 1207713 293 0
62 2 S112 951 1208664 1244 0
62 2 S112 905 1209569 2149 0
62 2 S112 942 1210511 3091 0
62 2 S112 922 1211433 4013 0
62 2 S112 842 1212275 4855 0
62 2 S112 847 1213122 5702 0
62 2 S112 855 1213977 6557 0
0 0 0 858 1214835 -10638 0
0 0 0 829 1215664 -9809 0
0 0 0 865 1216529 -8944 0
0 0 0 867 1217396 -8077 0
0 0 0 833 1218229 -7244 0
0 0 0 873 1219102 -6371 0
0 0 0 894 1219996 -5477 0
0 0 0 851 1220847 -4626 0
0 0 0 885 1221732 -3741 0
0 0 0 897 1222629 -2844 0
63 1 S102 861 1223490 -1983 0
63 1 S102 879 1224369 -1104 0
63 1 S102 899 1225268 -205 0
63 2 S102 913 1226181 708 0
63 2 S102 860 1227041 1568 0
63 2 S102 895 1227936 2463 0
63 2 S102 909 1228845 3372 0
63 2 S102 889 1229734 4261 0
63 2 S102 874 1230608 5135 0
63 2 S102 896 1231504 6031 0
63 2 S102 901 1232405 6932 0
0 0 0 851 1233256 -9144 0
0 0 0 883 1234139 -8261 0
0 0 0 896 1235035 -7365 0
0 0 0 850 1235885 -6515 0
0 0 0 890 1236775 -5625 0
0 0 0 901 1237676 -4724 0
0 0 0 834 1238510 -3890 0
0 0 0 866 1239376 -3024 0
0 0 0 872 1240248 -2152 0
64 1 S112 841 1241089 -1311 0
64 1 S112 882 1241971 -429 0
64 2 S112 896 1242867 467 0
64 2 S112 862 1243729 1329 0
64 2 S112 779 1244508 2108 0
64 2 S112 733 1245241 2841 0
64 2 S112 732 1245973 3573 0
64 2 S112 790 1246763 4363 0
64 2 S112 965 1247728 5328 0
64 2 S112 1012 1248740 6340 1
0 0 0 1009 1249749 -6826 1
0 0 0 985 1250734 -5841 0
0 0 0 932 1251666 -4909 0
0 0 0 867 1252533 -4042 0
0 0 0 823 1253356 -3219 0
0 0 0 795 1254151 -2424 0
65 1 S106 755 1254906 -1669 0
65 1 S106 730 1255636 -939 0
65 1 S106 752 1256388 -187 0
65 2 S106 765 1257153 578 0
65 2 S106 772 1257925 1350 0
65 2 S106 815 1258740 2165 0
65 2 S106 845 1259585 3010 0
65 2 S106 867 1260452 3877 0
65 2 S106 823 1261275 4700 0
65 2 S106 861 1262136 5561 0
65 2 S106 871 1263007 6432 0
0 0 0 872 1263879 -7102 0
0 0 0 850 1264729 -6252 0
0 0 0 860 1265589 -5392 0
0 0 0 855 1266444 -4537 0
0 0 0 812 1267256 -3725 0
0 0 0 840 1268096 -2885 0
0 0 0 847 1268943 -2038 0
66 1 S116 804 1269747 -1234 0
66 1 S116 846 1270593 -388 0
66 2 S116 881 1271474 493 0
66 2 S116 905 1272379 1398 0
66 2 S116 881 1273260 2279 0
66 2 S116 924 1274184 3203 0
66 2 S116 942 1275126 4145 0
66 2 S116 916 1276042 5061 0
66 2 S116 917 1276959 5978 0
66 2 S116 914 1277873 6892 0
0 0 0 897 1278770 -10995 0
0 0 0 872 1279642 -10123 0
0 0 0 881 1280523 -9242 0
0 0 0 862 1281385 -8380 0
0 0 0 806 1282191 -7574 0
0 0 0 840 1283031 -6734 0
0 0 0 864 1283895 -5870 0
0 0 0 853 1284748 -5017 0
0 0 0 864 1285612 -4153 0
0 0 0 898 1286510 -3255 0
0 0 0 887 1287397 -2368 0
67 1 S102 916 1288313 -1452 0
67 1 S102 924 1289237 -528 0
67 2 S102 917 1290154 389 0
67 2 S102 880 1291034 1269 0
67 2 S102 905 1291939 2174 0
67 2 S102 902 1292841 3076 0
67 2 S102 893 1293734 3969 0
67 2 S102 929 1294663 4898 0
67 2 S102 936 1295599 5834 0
67 2 S102 885 1296484 6719 0
0 0 0 906 1297390 -7876 0
0 0 0 907 1298297 -6969 0
0 0 0 847 1299144 -6122 0
0 0 0 883 1300027 -5239 0
0 0 0 873 1300900 -4366 0
0 0 0 769 1301669 -3597 0
0 0 0 812 1302481 -2785 0
68 1 S106 805 1303286 -1980 0
68 1 S106 743 1304029 -1237 0
68 1 S106 794 1304823 -443 0
68 2 S106 849 1305672 406 0
68 2 S106 854 1306526 1260 0
68 2 S106 855 1307381 2115 0
68 2 S106 865 1308246 2980 0
68 2 S106 859 1309105 3839 0
68 2 S106 791 1309896 4630 0
68 2 S106 804 1310700 5434 0
68 2 S106 798 1311498 6232 0
68 2 S106 790 1312288 7022 0
0 0 0 794 1313082 -11249 0
0 0 0 824 1313906 -10425 0
0 0 0 840 1314746 -9585 0
0 0 0 808 1315554 -8777 0
0 0 0 757 1316311 -8020 0
0 0 0 762 1317073 -7258 0
0 0 0 736 1317809 -6522 0
0 0 0 699 1318508 -5823 0
0 0 0 765 1319273 -5058 0
0 0 0 813 1320086 -4245 0
0 0 0 895 1320981 -3350 0
0 0 0 910 1321891 -2440 0
69 1 S102 853 1322744 -1587 0
69 1 S102 851 1323595 -736 0
69 2 S102 838 1324433 102 0
69 2 S102 781 1325214 883 0
69 2 S102 760 1325974 1643 0
69 2 S102 749 1326723 2392 0
69 2 S102 754 1327477 3146 0
69 2 S102 761 1328238 3907 0
69 2 S102 737 1328975 4644 0
69 2 S102 783 1329758 5427 0
69 2 S102 831 1330589 6258 0
0 0 0 868 1331457 -8706 0
0 0 0 859 1332316 -7847 0
0 0 0 894 1333210 -6953 0
0 0 0 896 1334106 -6057 0
0 0 0 845 1334951 -5212 0
0 0 0 857 1335808 -4355 0
0 0 0 862 1336670 -3493 0
0 0 0 848 1337518 -2645 0
70 1 S112 866 1338384 -1779 0
70 1 S112 908 1339292 -871 0
70 2 S112 926 1340218 55 0
70 2 S112 918 1341136 973 0
70 2 S112 941 1342077 1914 0
70 2 S112 927 1343004 2841 0
70 2 S112 830 1343834 3671 0
70 2 S112 808 1344642 4479 0
70 2 S112 823 1345465 5302 0
70 2 S112 869 1346334 6171 0
0 0 0 862 1347196 -12364 0
0 0 0 891 1348087 -11473 0
0 0 0 911 1348998 -10562 0
0 0 0 902 1349900 -9660 0
0 0 0 852 1350752 -8808 0
0 0 0 818 1351570 -7990 0
0 0 0 770 1352340 -7220 0
0 0 0 696 1353036 -6524 0
0 0 0 708 1353744 -5816 0
0 0 0 699 1354443 -5117 0
0 0 0 698 1355141 -4419 0
0 0 0 660 1355801 -3759 0
0 0 0 668 1356469 -3091 0
0 0 0 659 1357128 -2432 0
71 1 S116 626 1357754 -1806 1
71 1 S116 626 1358380 -1180 1
71 1 S116 640 1359020 -540 0
71 2 S116 644 1359664 104 0
71 2 S116 641 1360305 745 0
71 2 S116 646 1360951 1391 0
71 2 S116 677 1361628 2068 0
71 2 S116 687 1362315 2755 0
71 2 S116 697 1363012 3452 0
71 2 S116 700 1363712 4152 0
71 2 S116 703 1364415 4855 0
71 2 S116 681 1365096 5536 0
71 2 S116 699 1365795 6235 0
71 2 S116 712 1366507 6947 0
0 0 0 727 1367234 -8755 0
0 0 0 751 1367985 -8004 0
0 0 0 740 1368725 -7264 0
0 0 0 770 1369495 -6494 0
0 0 0 748 1370243 -5746 0
0 0 0 713 1370956 -5033 0
0 0 0 784 1371740 -4249 0
0 0 0 852 1372592 -3397 0
0 0 0 792 1373384 -2605 0
72 1 S102 821 1374205 -1784 0
72 1 S102 841 1375046 -943 0
72 1 S102 859 1375905 -84 0
72 2 S102 775 1376680 691 0
72 2 S102 798 1377478 1489 0
72 2 S102 813 1378291 2302 0
72 2 S102 838 1379129 3140 0
72 2 S102 789 1379918 3929 0
72 2 S102 832 1380750 4761 0
72 2 S102 854 1381604 5615 0
72 2 S102 877 1382481 6492 0
0 0 0 818 1383299 -6915 0
0 0 0 851 1384150 -6064 0
0 0 0 852 1385002 -5212 0
0 0 0 826 1385828 -4386 0
0 0 0 779 1386607 -3607 0
0 0 0 815 1387422 -2792 0
73 1 S116 851 1388273 -1941 0
73 1 S116 843 1389116 -1098 0
73 1 S116 878 1389994 -220 0
73 2 S116 898 1390892 678 0
73 2 S116 911 1391803 1589 0
73 2 S116 890 1392693 2479 0
73 2 S116 920 1393613 3399 0
73 2 S116 942 1394555 4341 0
73 2 S116 893 1395448 5234 0
73 2 S116 898 1396346 6132 0
0 0 0 912 1397258 -10462 0
0 0 0 925 1398183 -9537 0
0 0 0 850 1399033 -8687 0
0 0 0 890 1399923 -7797 0
0 0 0 907 1400830 -6890 0
0 0 0 852 1401682 -6038 0
0 0 0 852 1402534 -5186 0
0 0 0 874 1403408 -4312 0
0 0 0 905 1404313 -3407 0
0 0 0 848 1405161 -2559 0
74 1 S106 885 1406046 -1674 0
74 1 S106 906 1406952 -768 0
74 2 S106 909 1407861 141 0
74 2 S106 860 1408721 1001 0
74 2 S106 889 1409610 1890 0
74 2 S106 886 1410496 2776 0
74 2 S106 873 1411369 3649 0
74 2 S106 905 1412274 4554 0
74 2 S106 912 1413186 5466 0
74 2 S106 930 1414116 6396 0
0 0 0 906 1415022 -7569 0
0 0 0 922 1415944 -6647 0
0 0 0 912 1416856 -5735 0
0 0 0 873 1417729 -4862 0
0 0 0 846 1418575 -4016 0
0 0 0 852 1419427 -3164 0
0 0 0 858 1420285 -2306 0
75 1 S112 829 1421114 -1477 0
75 1 S112 902 1422016 -575 0
75 2 S112 957 1422973 382 0
75 2 S112 950 1423923 1332 0
75 2 S112 965 1424888 2297 0
75 2 S112 958 1425846 3255 0
75 2 S112 919 1426765 4174 0
75 2 S112 855 1427620 5029 0
75 2 S112 862 1428482 5891 0
75 2 S112 851 1429333 6742 0
0 0 0 809 1430142 -7055 0
0 0 0 834 1430976 -6221 0
0 0 0 860 1431836 -5361 0
0 0 0 878 1432714 -4483 0
0 0 0 799 1433513 -3684 0
0 0 0 843 1434356 -2841 0
76 1 S116 853 1435209 -1988 0
76 1 S116 859 1436068 -1129 0
76 1 S116 819 1436887 -310 0
76 2 S116 837 1437724 527 0
76 2 S116 857 1438581 1384 0
76 2 S116 825 1439406 2209 0
76 2 S116 837 1440243 3046 0
76 2 S116 861 1441104 3907 0
76 2 S116 900 1442004 4807 0
76 2 S116 872 1442876 5679 0
76 2 S116 881 1443757 6560 0
0 0 0 884 1444641 -7161 0
0 0 0 898 1445539 -6263 0
0 0 0 872 1446411 -5391 0
0 0 0 867 1447278 -4524 0
0 0 0 877 1448155 -3647 0
0 0 0 883 1449038 -2764 0
77 1 S106 837 1449875 -1927 0
77 1 S106 866 1450741 -1061 0
77 1 S106 881 1451622 -180 0
77 2 S106 879 1452501 699 0
77 2 S106 891 1453392 1590 0
77 2 S106 911 1454303 2501 0
77 2 S106 916 1455219 3417 0
77 2 S106 873 1456092 4290 0
77 2 S106 898 1456990 5188 0
77 2 S106 910 1457900 6098 0
77 2 S106 870 1458770 6968 0
0 0 0 887 1459657 -9105 0
0 0 0 864 1460521 -8241 0
0 0 0 831 1461352 -7410 0
0 0 0 753 1462105 -6657 0
0 0 0 717 1462822 -5940 0
0 0 0 681 1463503 -5259 0
0 0 0 711 1464214 -4548 0
0 0 0 842 1465056 -3706 0
0 0 0 1051 1466107 -2655 1
78 1 S112 1000 1467107 -1655 0
78 1 S112 943 1468050 -712 0
78 2 S112 943 1468993 231 0
78 2 S112 933 1469926 1164 0
78 2 S112 907 1470833 2071 0
78 2 S112 864 1471697 2935 0
78 2 S112 790 1472487 3725 0
78 2 S112 753 1473240 4478 0
78 2 S112 738 1473978 5216 0
78 2 S112 756 1474734 5972 0
78 2 S112 799 1475533 6771 0
0 0 0 801 1476334 -11096 0
0 0 0 847 1477181 -10249 0
0 0 0 873 1478054 -9376 0
0 0 0 892 1478946 -8484 0
0 0 0 809 1479755 -7675 0
0 0 0 847 1480602 -6828 0
0 0 0 864 1481466 -5964 0
0 0 0 892 1482358 -5072 0
0 0 0 836 1483194 -4236 0
0 0 0 860 1484054 -3376 0
0 0 0 852 1484906 -2524 0
79 1 S102 852 1485758 -1672 0
79 1 S102 831 1486589 -841 0
79 2 S102 859 1487448 18 0
79 2 S102 850 1488298 868 0
79 2 S102 848 1489146 1716 0
79 2 S102 803 1489949 2519 0
79 2 S102 839 1490788 3358 0
79 2 S102 854 1491642 4212 0
79 2 S102 888 1492530 5100 0
79 2 S102 904 1493434 6004 0
79 2 S102 947 1494381 6951 0
0 0 0 953 1495334 -8740 0
0 0 0 882 1496216 -7858 0
0 0 0 901 1497117 -6957 0
0 0 0 849 1497966 -6108 0
0 0 0 757 1498723 -5351 0
0 0 0 758 1499481 -4593 0
0 0 0 764 1500245 -3829 0
0 0 0 720 1500965 -3109 0
0 0 0 742 1501707 -2367 0
80 1 S116 795 1502502 -1572 0
80 1 S116 899 1503401 -673 0
80 2 S116 903 1504304 230 0
80 2 S116 914 1505218 1144 0
80 2 S116 932 1506150 2076 0
80 2 S116 906 1507056 2982 0
80 2 S116 844 1507900 3826 0
80 2 S116 841 1508741 4667 0
80 2 S116 818 1509559 5485 0
80 2 S116 805 1510364 6290 0
