T_0082
BeatCount Mean SD BeatCountNoOutliers MeanNoOutliers SDNoOutliers
2580 762,228682170543 51,8234658064181 2526 760,338875692795 43,4371160325649

Trial TrialStatus Trialtype IBI AbsPosition RelPosition Outlier
0 0 0 743 1505 -14407 0
0 0 0 737 2242 -13670 0
0 0 0 710 2952 -12960 0
0 0 0 697 3649 -12263 0
0 0 0 694 4343 -11569 0
0 0 0 695 5038 -10874 0
0 0 0 701 5739 -10173 0
0 0 0 682 6421 -9491 0
0 0 0 665 7086 -8826 0
0 0 0 671 7757 -8155 0
0 0 0 667 8424 -7488 0
0 0 0 683 9107 -6805 0
0 0 0 666 9773 -6139 0
0 0 0 689 10462 -5450 0
0 0 0 715 11177 -4735 0
0 0 0 748 11925 -3987 0
0 0 0 751 12676 -3236 0
0 0 0 708 13384 -2528 0
1 1 S112 734 14118 -1794 0
1 1 S112 721 14839 -1073 0
1 1 S112 723 15562 -350 0
1 2 S112 702 16264 352 0
1 2 S112 698 16962 1050 0
1 2 S112 718 17680 1768 0
1 2 S112 719 18399 2487 0
1 2 S112 704 19103 3191 0
1 2 S112 682 19785 3873 0
1 2 S112 714 20499 4587 0
1 2 S112 721 21220 5308 0
1 2 S112 738 21958 6046 0
1 2 S112 700 22658 6746 0
0 0 0 712 23370 -11491 0
0 0 0 728 24098 -10763 0
0 0 0 739 24837 -10024 0
0 0 0 695 25532 -9329 0
0 0 0 729 26261 -8600 0
0 0 0 752 27013 -7848 0
0 0 0 769 27782 -7079 0
0 0 0 775 28557 -6304 0
0 0 0 740 29297 -5564 0
0 0 0 710 30007 -4854 0
0 0 0 713 30720 -4141 0
0 0 0 717 31437 -3424 0
0 0 0 713 32150 -2711 0
0 0 0 687 32837 -2024 0
2 1 S102 707 33544 -1317 0
2 1 S102 741 34285 -576 0
2 2 S102 768 35053 192 0
2 2 S102 758 35811 950 0
2 2 S102 746 36557 1696 0
2 2 S102 764 37321 2460 0
2 2 S102 780 38101 3240 0
2 2 S102 760 38861 4000 0
2 2 S102 748 39609 4748 0
2 2 S102 782 40391 5530 0
2 2 S102 792 41183 6322 0
0 0 0 763 41946 -10256 0
0 0 0 768 42714 -9488 0
0 0 0 770 43484 -8718 0
0 0 0 778 44262 -7940 0
0 0 0 739 45001 -7201 0
0 0 0 767 45768 -6434 0
0 0 0 778 46546 -5656 0
0 0 0 765 47311 -4891 0
0 0 0 756 48067 -4135 0
0 0 0 768 48835 -3367 0
0 0 0 783 49618 -2584 0
3 1 S116 738 50356 -1846 0
3 1 S116 762 51118 -1084 0
3 1 S116 764 51882 -320 0
3 2 S116 769 52651 449 0
3 2 S116 759 53410 1208 0
3 2 S116 778 54188 1986 0
3 2 S116 771 54959 2757 0
3 2 S116 750 55709 3507 0
3 2 S116 741 56450 4248 0
3 2 S116 750 57200 4998 0
3 2 S116 770 57970 5768 0
3 2 S116 772 58742 6540 0
0 0 0 730 59472 -11762 0
0 0 0 748 60220 -11014 0
0 0 0 758 60978 -10256 0
0 0 0 759 61737 -9497 0
0 0 0 730 62467 -8767 0
0 0 0 747 63214 -8020 0
0 0 0 755 63969 -7265 0
0 0 0 738 64707 -6527 0
0 0 0 717 65424 -5810 0
0 0 0 733 66157 -5077 0
0 0 0 763 66920 -4314 0
0 0 0 773 67693 -3541 0
0 0 0 729 68422 -2812 0
0 0 0 752 69174 -2060 0
4 1 S106 756 69930 -1304 0
4 1 S106 750 70680 -554 0
4 2 S106 720 71400 166 0
4 2 S106 744 72144 910 0
4 2 S106 765 72909 1675 0
4 2 S106 763 73672 2438 0
4 2 S106 746 74418 3184 0
4 2 S106 776 75194 3960 0
4 2 S106 808 76002 4768 0
4 2 S106 812 76814 5580 0
4 2 S106 744 77558 6324 0
0 0 0 762 78320 -9144 0
0 0 0 758 79078 -8386 0
0 0 0 773 79851 -7613 0
0 0 0 750 80601 -6863 0
0 0 0 763 81364 -6100 0
0 0 0 803 82167 -5297 0
0 0 0 823 82990 -4474 0
0 0 0 760 83750 -3714 0
0 0 0 777 84527 -2937 0
0 0 0 793 85320 -2144 0
5 1 S116 775 86095 -1369 0
5 1 S116 739 86834 -630 0
5 2 S116 757 87591 127 0
5 2 S116 773 88364 900 0
5 2 S116 780 89144 1680 0
5 2 S116 751 89895 2431 0
5 2 S116 739 90634 3170 0
5 2 S116 746 91380 3916 0
5 2 S116 754 92134 4670 0
5 2 S116 739 92873 5409 0
5 2 S116 745 93618 6154 0
5 2 S116 775 94393 6929 0
0 0 0 814 95207 -9681 0
0 0 0 778 95985 -8903 0
0 0 0 765 96750 -8138 0
0 0 0 796 97546 -7342 0
0 0 0 801 98347 -6541 0
0 0 0 745 99092 -5796 0
0 0 0 732 99824 -5064 0
0 0 0 748 100572 -4316 0
0 0 0 748 101320 -3568 0
0 0 0 731 102051 -2837 0
0 0 0 696 102747 -2141 0
6 1 S106 713 103460 -1428 0
6 1 S106 730 104190 -698 0
6 2 S106 740 104930 42 0
6 2 S106 731 105661 773 0
6 2 S106 757 106418 1530 0
6 2 S106 769 107187 2299 0
6 2 S106 789 107976 3088 0
6 2 S106 775 108751 3863 0
6 2 S106 755 109506 4618 0
6 2 S106 769 110275 5387 0
6 2 S106 777 111052 6164 0
6 2 S106 755 111807 6919 0
0 0 0 747 112554 -11299 0
0 0 0 759 113313 -10540 0
0 0 0 760 114073 -9780 0
0 0 0 725 114798 -9055 0
0 0 0 738 115536 -8317 0
0 0 0 758 116294 -7559 0
0 0 0 756 117050 -6803 0
0 0 0 727 117777 -6076 0
0 0 0 747 118524 -5329 0
0 0 0 766 119290 -4563 0
0 0 0 747 120037 -3816 0
0 0 0 745 120782 -3071 0
0 0 0 785 121567 -2286 0
7 1 S102 809 122376 -1477 0
7 1 S102 798 123174 -679 0
7 2 S102 765 123939 86 0
7 2 S102 779 124718 865 0
7 2 S102 779 125497 1644 0
7 2 S102 769 126266 2413 0
7 2 S102 735 127001 3148 0
7 2 S102 757 127758 3905 0
7 2 S102 778 128536 4683 0
7 2 S102 768 129304 5451 0
7 2 S102 744 130048 6195 0
7 2 S102 778 130826 6973 0
0 0 0 793 131619 -9012 0
0 0 0 761 132380 -8251 0
0 0 0 739 133119 -7512 0
0 0 0 748 133867 -6764 0
0 0 0 745 134612 -6019 0
0 0 0 702 135314 -5317 0
0 0 0 708 136022 -4609 0
0 0 0 716 136738 -3893 0
0 0 0 747 137485 -3146 0
0 0 0 742 138227 -2404 0
8 1 S112 710 138937 -1694 0
8 1 S112 731 139668 -963 0
8 1 S112 750 140418 -213 0
8 2 S112 767 141185 554 0
8 2 S112 760 141945 1314 0
8 2 S112 774 142719 2088 0
8 2 S112 781 143500 2869 0
8 2 S112 780 144280 3649 0
8 2 S112 727 145007 4376 0
8 2 S112 753 145760 5129 0
8 2 S112 755 146515 5884 0
8 2 S112 788 147303 6672 0
0 0 0 764 148067 -7899 0
0 0 0 730 148797 -7169 0
0 0 0 743 149540 -6426 0
0 0 0 750 150290 -5676 0
0 0 0 712 151002 -4964 0
0 0 0 711 151713 -4253 0
0 0 0 727 152440 -3526 0
0 0 0 750 153190 -2776 0
0 0 0 737 153927 -2039 0
9 1 S116 739 154666 -1300 0
9 1 S116 739 155405 -561 0
9 2 S116 748 156153 187 0
9 2 S116 712 156865 899 0
9 2 S116 735 157600 1634 0
9 2 S116 741 158341 2375 0
9 2 S116 756 159097 3131 0
9 2 S116 741 159838 3872 0
9 2 S116 713 160551 4585 0
9 2 S116 725 161276 5310 0
9 2 S116 733 162009 6043 0
9 2 S116 760 162769 6803 0
0 0 0 727 163496 -12182 0
0 0 0 762 164258 -11420 0
0 0 0 791 165049 -10629 0
0 0 0 783 165832 -9846 0
0 0 0 772 166604 -9074 0
0 0 0 788 167392 -8286 0
0 0 0 801 168193 -7485 0
0 0 0 762 168955 -6723 0
0 0 0 743 169698 -5980 0
0 0 0 763 170461 -5217 0
0 0 0 779 171240 -4438 0
0 0 0 796 172036 -3642 0
0 0 0 759 172795 -2883 0
0 0 0 775 173570 -2108 0
10 1 S102 789 174359 -1319 0
10 1 S102 821 175180 -498 0
10 2 S102 822 176002 324 0
10 2 S102 778 176780 1102 0
10 2 S102 789 177569 1891 0
10 2 S102 786 178355 2677 0
10 2 S102 763 179118 3440 0
10 2 S102 728 179846 4168 0
10 2 S102 754 180600 4922 0
10 2 S102 771 181371 5693 0
10 2 S102 777 182148 6470 0
0 0 0 752 182900 -11677 0
0 0 0 795 183695 -10882 0
0 0 0 802 184497 -10080 0
0 0 0 758 185255 -9322 0
0 0 0 767 186022 -8555 0
0 0 0 778 186800 -7777 0
0 0 0 750 187550 -7027 0
0 0 0 713 188263 -6314 0
0 0 0 728 188991 -5586 0
0 0 0 729 189720 -4857 0
0 0 0 729 190449 -4128 0
0 0 0 694 191143 -3434 0
0 0 0 705 191848 -2729 0
0 0 0 718 192566 -2011 0
11 1 S112 739 193305 -1272 0
11 1 S112 735 194040 -537 0
11 2 S112 722 194762 185 0
11 2 S112 754 195516 939 0
11 2 S112 783 196299 1722 0
11 2 S112 823 197122 2545 0
11 2 S112 776 197898 3321 0
11 2 S112 789 198687 4110 0
11 2 S112 794 199481 4904 0
11 2 S112 786 200267 5690 0
11 2 S112 756 201023 6446 0
0 0 0 771 201794 -8184 0
0 0 0 789 202583 -7395 0
0 0 0 748 203331 -6647 0
0 0 0 740 204071 -5907 0
0 0 0 763 204834 -5144 0
0 0 0 774 205608 -4370 0
0 0 0 751 206359 -3619 0
0 0 0 774 207133 -2845 0
0 0 0 793 207926 -2052 0
12 1 S116 810 208736 -1242 0
12 1 S116 758 209494 -484 0
12 2 S116 790 210284 306 0
12 2 S116 800 211084 1106 0
12 2 S116 812 211896 1918 0
12 2 S116 767 212663 2685 0
12 2 S116 767 213430 3452 0
12 2 S116 767 214197 4219 0
12 2 S116 761 214958 4980 0
12 2 S116 728 215686 5708 0
12 2 S116 749 216435 6457 0
0 0 0 779 217214 -12144 0
0 0 0 813 218027 -11331 0
0 0 0 768 218795 -10563 0
0 0 0 784 219579 -9779 0
0 0 0 805 220384 -8974 0
0 0 0 784 221168 -8190 0
0 0 0 739 221907 -7451 0
0 0 0 766 222673 -6685 0
0 0 0 772 223445 -5913 0
0 0 0 752 224197 -5161 0
0 0 0 711 224908 -4450 0
0 0 0 719 225627 -3731 0
0 0 0 713 226340 -3018 0
0 0 0 726 227066 -2292 0
13 1 S112 698 227764 -1594 0
13 1 S112 736 228500 -858 0
13 1 S112 749 229249 -109 0
13 2 S112 764 230013 655 0
13 2 S112 745 230758 1400 0
13 2 S112 778 231536 2178 0
13 2 S112 796 232332 2974 0
13 2 S112 794 233126 3768 0
13 2 S112 744 233870 4512 0
13 2 S112 761 234631 5273 0
13 2 S112 766 235397 6039 0
13 2 S112 781 236178 6820 0
0 0 0 742 236920 -10426 0
0 0 0 744 237664 -9682 0
0 0 0 754 238418 -8928 0
0 0 0 739 239157 -8189 0
0 0 0 713 239870 -7476 0
0 0 0 728 240598 -6748 0
0 0 0 740 241338 -6008 0
0 0 0 750 242088 -5258 0
0 0 0 708 242796 -4550 0
0 0 0 727 243523 -3823 0
0 0 0 735 244258 -3088 0
0 0 0 742 245000 -2346 0
14 1 S106 707 245707 -1639 0
14 1 S106 730 246437 -909 0
14 1 S106 729 247166 -180 0
14 2 S106 759 247925 579 0
14 2 S106 785 248710 1364 0
14 2 S106 760 249470 2124 0
14 2 S106 787 250257 2911 0
14 2 S106 795 251052 3706 0
14 2 S106 787 251839 4493 0
14 2 S106 730 252569 5223 0
14 2 S106 738 253307 5961 0
14 2 S106 743 254050 6704 0
0 0 0 755 254805 -10578 0
0 0 0 721 255526 -9857 0
0 0 0 736 256262 -9121 0
0 0 0 747 257009 -8374 0
0 0 0 769 257778 -7605 0
0 0 0 728 258506 -6877 0
0 0 0 765 259271 -6112 0
0 0 0 787 260058 -5325 0
0 0 0 764 260822 -4561 0
0 0 0 726 261548 -3835 0
0 0 0 744 262292 -3091 0
0 0 0 750 263042 -2341 0
15 1 S116 751 263793 -1590 0
15 1 S116 729 264522 -861 0
15 1 S116 732 265254 -129 0
15 2 S116 728 265982 599 0
15 2 S116 735 266717 1334 0
15 2 S116 714 267431 2048 0
15 2 S116 740 268171 2788 0
15 2 S116 761 268932 3549 0
15 2 S116 795 269727 4344 0
15 2 S116 773 270500 5117 0
15 2 S116 784 271284 5901 0
15 2 S116 800 272084 6701 0
0 0 0 807 272891 -10646 0
0 0 0 763 273654 -9883 0
0 0 0 770 274424 -9113 0
0 0 0 787 275211 -8326 0
0 0 0 749 275960 -7577 0
0 0 0 760 276720 -6817 0
0 0 0 763 277483 -6054 0
0 0 0 784 278267 -5270 0
0 0 0 742 279009 -4528 0
0 0 0 742 279751 -3786 0
0 0 0 764 280515 -3022 0
0 0 0 783 281298 -2239 0
16 1 S116 756 282054 -1483 0
16 1 S116 771 282825 -712 0
16 2 S116 784 283609 72 0
16 2 S116 805 284414 877 0
16 2 S116 775 285189 1652 0
16 2 S116 733 285922 2385 0
16 2 S116 753 286675 3138 0
16 2 S116 771 287446 3909 0
16 2 S116 796 288242 4705 0
16 2 S116 773 289015 5478 0
16 2 S116 782 289797 6260 0
0 0 0 812 290609 -10700 0
0 0 0 819 291428 -9881 0
0 0 0 767 292195 -9114 0
0 0 0 772 292967 -8342 0
0 0 0 783 293750 -7559 0
0 0 0 761 294511 -6798 0
0 0 0 717 295228 -6081 0
0 0 0 733 295961 -5348 0
0 0 0 743 296704 -4605 0
0 0 0 757 297461 -3848 0
0 0 0 725 298186 -3123 0
0 0 0 730 298916 -2393 0
17 1 S106 737 299653 -1656 0
17 1 S106 751 300404 -905 0
17 1 S106 738 301142 -167 0
17 2 S106 725 301867 558 0
17 2 S106 754 302621 1312 0
17 2 S106 784 303405 2096 0
17 2 S106 771 304176 2867 0
17 2 S106 761 304937 3628 0
17 2 S106 771 305708 4399 0
17 2 S106 792 306500 5191 0
17 2 S106 793 307293 5984 0
17 2 S106 740 308033 6724 0
0 0 0 756 308789 -12563 0
0 0 0 770 309559 -11793 0
0 0 0 770 310329 -11023 0
0 0 0 728 311057 -10295 0
0 0 0 756 311813 -9539 0
0 0 0 782 312595 -8757 0
0 0 0 778 313373 -7979 0
0 0 0 745 314118 -7234 0
0 0 0 769 314887 -6465 0
0 0 0 792 315679 -5673 0
0 0 0 761 316440 -4912 0
0 0 0 763 317203 -4149 0
0 0 0 774 317977 -3375 0
0 0 0 767 318744 -2608 0
18 1 S102 740 319484 -1868 0
18 1 S102 762 320246 -1106 0
18 1 S102 761 321007 -345 0
18 2 S102 760 321767 415 0
18 2 S102 727 322494 1142 0
18 2 S102 754 323248 1896 0
18 2 S102 757 324005 2653 0
18 2 S102 757 324762 3410 0
18 2 S102 729 325491 4139 0
18 2 S102 756 326247 4895 0
18 2 S102 774 327021 5669 0
18 2 S102 775 327796 6444 0
0 0 0 760 328556 -6805 0
0 0 0 785 329341 -6020 0
0 0 0 795 330136 -5225 0
0 0 0 754 330890 -4471 0
0 0 0 766 331656 -3705 0
0 0 0 751 332407 -2954 0
0 0 0 750 333157 -2204 0
19 1 S106 715 333872 -1489 0
19 1 S106 735 334607 -754 0
19 1 S106 739 335346 -15 0
19 2 S106 753 336099 738 0
19 2 S106 741 336840 1479 0
19 2 S106 756 337596 2235 0
19 2 S106 772 338368 3007 0
19 2 S106 765 339133 3772 0
19 2 S106 764 339897 4536 0
19 2 S106 778 340675 5314 0
19 2 S106 796 341471 6110 0
19 2 S106 799 342270 6909 0
0 0 0 751 343021 -12118 0
0 0 0 765 343786 -11353 0
0 0 0 763 344549 -10590 0
0 0 0 743 345292 -9847 0
0 0 0 723 346015 -9124 0
0 0 0 743 346758 -8381 0
0 0 0 759 347517 -7622 0
0 0 0 753 348270 -6869 0
0 0 0 750 349020 -6119 0
0 0 0 770 349790 -5349 0
0 0 0 794 350584 -4555 0
0 0 0 782 351366 -3773 0
0 0 0 772 352138 -3001 0
0 0 0 779 352917 -2222 0
20 1 S112 779 353696 -1443 0
20 1 S112 740 354436 -703 0
20 2 S112 747 355183 44 0
20 2 S112 748 355931 792 0
20 2 S112 751 356682 1543 0
20 2 S112 718 357400 2261 0
20 2 S112 734 358134 2995 0
20 2 S112 767 358901 3762 0
20 2 S112 797 359698 4559 0
20 2 S112 765 360463 5324 0
20 2 S112 803 361266 6127 0
20 2 S112 813 362079 6940 0
0 0 0 790 362869 -10871 0
0 0 0 773 363642 -10098 0
0 0 0 777 364419 -9321 0
0 0 0 757 365176 -8564 0
0 0 0 729 365905 -7835 0
0 0 0 754 366659 -7081 0
0 0 0 766 367425 -6315 0
0 0 0 752 368177 -5563 0
0 0 0 734 368911 -4829 0
0 0 0 758 369669 -4071 0
0 0 0 771 370440 -3300 0
0 0 0 785 371225 -2515 0
21 1 S106 761 371986 -1754 0
21 1 S106 767 372753 -987 0
21 1 S106 774 373527 -213 0
21 2 S106 774 374301 561 0
21 2 S106 760 375061 1321 0
21 2 S106 774 375835 2095 0
21 2 S106 783 376618 2878 0
21 2 S106 759 377377 3637 0
21 2 S106 758 378135 4395 0
21 2 S106 781 378916 5176 0
21 2 S106 799 379715 5975 0
21 2 S106 784 380499 6759 0
0 0 0 775 381274 -11978 0
0 0 0 782 382056 -11196 0
0 0 0 801 382857 -10395 0
0 0 0 740 383597 -9655 0
0 0 0 754 384351 -8901 0
0 0 0 757 385108 -8144 0
0 0 0 765 385873 -7379 0
0 0 0 724 386597 -6655 0
0 0 0 732 387329 -5923 0
0 0 0 737 388066 -5186 0
0 0 0 749 388815 -4437 0
0 0 0 726 389541 -3711 0
0 0 0 727 390268 -2984 0
0 0 0 730 390998 -2254 0
22 1 S116 740 391738 -1514 0
22 1 S116 715 392453 -799 0
22 1 S116 717 393170 -82 0
22 2 S116 725 393895 643 0
22 2 S116 762 394657 1405 0
22 2 S116 769 395426 2174 0
22 2 S116 718 396144 2892 0
22 2 S116 754 396898 3646 0
22 2 S116 794 397692 4440 0
22 2 S116 801 398493 5241 0
22 2 S116 749 399242 5990 0
22 2 S116 763 400005 6753 0
0 0 0 778 400783 -10242 0
0 0 0 772 401555 -9470 0
0 0 0 715 402270 -8755 0
0 0 0 719 402989 -8036 0
0 0 0 723 403712 -7313 0
0 0 0 727 404439 -6586 0
0 0 0 688 405127 -5898 0
0 0 0 670 405797 -5228 0
0 0 0 677 406474 -4551 0
0 0 0 712 407186 -3839 0
0 0 0 833 408019 -3006 0
0 0 0 894 408913 -2112 0
23 1 S112 865 409778 -1247 0
23 1 S112 819 410597 -428 0
23 2 S112 816 411413 388 0
23 2 S112 815 412228 1203 0
23 2 S112 817 413045 2020 0
23 2 S112 796 413841 2816 0
23 2 S112 735 414576 3551 0
23 2 S112 740 415316 4291 0
23 2 S112 753 416069 5044 0
23 2 S112 789 416858 5833 0
23 2 S112 796 417654 6629 0
0 0 0 772 418426 -9376 0
0 0 0 799 419225 -8577 0
0 0 0 806 420031 -7771 0
0 0 0 800 420831 -6971 0
0 0 0 753 421584 -6218 0
0 0 0 783 422367 -5435 0
0 0 0 778 423145 -4657 0
0 0 0 778 423923 -3879 0
0 0 0 725 424648 -3154 0
0 0 0 740 425388 -2414 0
24 1 S106 741 426129 -1673 0
24 1 S106 768 426897 -905 0
24 1 S106 733 427630 -172 0
24 2 S106 745 428375 573 0
24 2 S106 755 429130 1328 0
24 2 S106 763 429893 2091 0
24 2 S106 737 430630 2828 0
24 2 S106 746 431376 3574 0
24 2 S106 765 432141 4339 0
24 2 S106 783 432924 5122 0
24 2 S106 751 433675 5873 0
24 2 S106 763 434438 6636 0
0 0 0 767 435205 -10535 0
0 0 0 761 435966 -9774 0
0 0 0 729 436695 -9045 0
0 0 0 725 437420 -8320 0
0 0 0 728 438148 -7592 0
0 0 0 757 438905 -6835 0
0 0 0 728 439633 -6107 0
0 0 0 730 440363 -5377 0
0 0 0 757 441120 -4620 0
0 0 0 805 441925 -3815 0
0 0 0 767 442692 -3048 0
0 0 0 787 443479 -2261 0
25 1 S102 804 444283 -1457 0
25 1 S102 816 445099 -641 0
25 2 S102 759 445858 118 0
25 2 S102 771 446629 889 0
25 2 S102 772 447401 1661 0
25 2 S102 760 448161 2421 0
25 2 S102 721 448882 3142 0
25 2 S102 722 449604 3864 0
25 2 S102 720 450324 4584 0
25 2 S102 736 451060 5320 0
25 2 S102 704 451764 6024 0
25 2 S102 744 452508 6768 0
0 0 0 785 453293 -6853 0
0 0 0 803 454096 -6050 0
0 0 0 755 454851 -5295 0
0 0 0 786 455637 -4509 0
0 0 0 789 456426 -3720 0
0 0 0 747 457173 -2973 0
0 0 0 748 457921 -2225 0
26 1 S116 768 458689 -1457 0
26 1 S116 754 459443 -703 0
26 2 S116 743 460186 40 0
26 2 S116 713 460899 753 0
26 2 S116 725 461624 1478 0
26 2 S116 729 462353 2207 0
26 2 S116 731 463084 2938 0
26 2 S116 713 463797 3651 0
26 2 S116 752 464549 4403 0
26 2 S116 783 465332 5186 0
26 2 S116 797 466129 5983 0
26 2 S116 764 466893 6747 0
0 0 0 801 467694 -9047 0
0 0 0 801 468495 -8246 0
0 0 0 784 469279 -7462 0
0 0 0 744 470023 -6718 0
0 0 0 751 470774 -5967 0
0 0 0 773 471547 -5194 0
0 0 0 782 472329 -4412 0
0 0 0 782 473111 -3630 0
0 0 0 784 473895 -2846 0
0 0 0 809 474704 -2037 0
27 1 S106 773 475477 -1264 0
27 1 S106 750 476227 -514 0
27 2 S106 755 476982 241 0
27 2 S106 762 477744 1003 0
27 2 S106 735 478479 1738 0
27 2 S106 739 479218 2477 0
27 2 S106 751 479969 3228 0
27 2 S106 757 480726 3985 0
27 2 S106 730 481456 4715 0
27 2 S106 729 482185 5444 0
27 2 S106 737 482922 6181 0
27 2 S106 761 483683 6942 0
0 0 0 742 484425 -6657 0
0 0 0 728 485153 -5929 0
0 0 0 730 485883 -5199 0
0 0 0 727 486610 -4472 0
0 0 0 691 487301 -3781 0
0 0 0 697 487998 -3084 0
0 0 0 707 488705 -2377 0
28 1 S102 725 489430 -1652 0
28 1 S102 691 490121 -961 0
28 1 S102 720 490841 -241 0
28 2 S102 731 491572 490 0
28 2 S102 767 492339 1257 0
28 2 S102 751 493090 2008 0
28 2 S102 723 493813 2731 0
28 2 S102 751 494564 3482 0
28 2 S102 766 495330 4248 0
28 2 S102 739 496069 4987 0
28 2 S102 750 496819 5737 0
28 2 S102 746 497565 6483 0
0 0 0 753 498318 -10867 0
0 0 0 720 499038 -10147 0
0 0 0 720 499758 -9427 0
0 0 0 721 500479 -8706 0
0 0 0 708 501187 -7998 0
0 0 0 685 501872 -7313 0
0 0 0 694 502566 -6619 0
0 0 0 720 503286 -5899 0
0 0 0 752 504038 -5147 0
0 0 0 756 504794 -4391 0
0 0 0 754 505548 -3637 0
0 0 0 770 506318 -2867 0
0 0 0 783 507101 -2084 0
29 1 S112 741 507842 -1343 0
29 1 S112 734 508576 -609 0
29 2 S112 732 509308 123 0
29 2 S112 723 510031 846 0
29 2 S112 696 510727 1542 0
29 2 S112 705 511432 2247 0
29 2 S112 716 512148 2963 0
29 2 S112 740 512888 3703 0
29 2 S112 701 513589 4404 0
29 2 S112 728 514317 5132 0
29 2 S112 752 515069 5884 0
29 2 S112 802 515871 6686 0
0 0 0 742 516613 -8156 0
0 0 0 768 517381 -7388 0
0 0 0 775 518156 -6613 0
0 0 0 756 518912 -5857 0
0 0 0 755 519667 -5102 0
0 0 0 766 520433 -4336 0
0 0 0 772 521205 -3564 0
0 0 0 718 521923 -2846 0
0 0 0 681 522604 -2165 0
30 1 S112 678 523282 -1487 0
30 1 S112 667 523949 -820 0
30 1 S112 701 524650 -119 0
30 2 S112 784 525434 665 0
30 2 S112 862 526296 1527 0
30 2 S112 862 527158 2389 0
30 2 S112 853 528011 3242 0
30 2 S112 855 528866 4097 0
30 2 S112 814 529680 4911 0
30 2 S112 810 530490 5721 0
30 2 S112 822 531312 6543 0
0 0 0 801 532113 -11091 0
0 0 0 767 532880 -10324 0
0 0 0 764 533644 -9560 0
0 0 0 755 534399 -8805 0
0 0 0 764 535163 -8041 0
0 0 0 729 535892 -7312 0
0 0 0 747 536639 -6565 0
0 0 0 725 537364 -5840 0
0 0 0 714 538078 -5126 0
0 0 0 700 538778 -4426 0
0 0 0 702 539480 -3724 0
0 0 0 685 540165 -3039 0
0 0 0 684 540849 -2355 0
31 1 S106 702 541551 -1653 0
31 1 S106 704 542255 -949 0
31 1 S106 703 542958 -246 0
31 2 S106 681 543639 435 0
31 2 S106 681 544320 1116 0
31 2 S106 700 545020 1816 0
31 2 S106 711 545731 2527 0
31 2 S106 712 546443 3239 0
31 2 S106 687 547130 3926 0
31 2 S106 680 547810 4606 0
31 2 S106 693 548503 5299 0
31 2 S106 698 549201 5997 0
31 2 S106 700 549901 6697 0
0 0 0 671 550572 -9824 0
0 0 0 696 551268 -9128 0
0 0 0 715 551983 -8413 0
0 0 0 745 552728 -7668 0
0 0 0 705 553433 -6963 0
0 0 0 753 554186 -6210 0
0 0 0 791 554977 -5419 0
0 0 0 763 555740 -4656 0
0 0 0 748 556488 -3908 0
0 0 0 773 557261 -3135 0
0 0 0 785 558046 -2350 0
32 1 S102 735 558781 -1615 0
32 1 S102 759 559540 -856 0
32 1 S102 780 560320 -76 0
32 2 S102 780 561100 704 0
32 2 S102 740 561840 1444 0
32 2 S102 747 562587 2191 0
32 2 S102 745 563332 2936 0
32 2 S102 734 564066 3670 0
32 2 S102 708 564774 4378 0
32 2 S102 717 565491 5095 0
32 2 S102 716 566207 5811 0
32 2 S102 707 566914 6518 0
0 0 0 677 567591 -10826 0
0 0 0 692 568283 -10134 0
0 0 0 686 568969 -9448 0
0 0 0 695 569664 -8753 0
0 0 0 700 570364 -8053 0
0 0 0 732 571096 -7321 0
0 0 0 800 571896 -6521 0
0 0 0 828 572724 -5693 0
0 0 0 813 573537 -4880 0
0 0 0 775 574312 -4105 0
0 0 0 764 575076 -3341 0
0 0 0 759 575835 -2582 0
33 1 S112 745 576580 -1837 0
33 1 S112 740 577320 -1097 0
33 1 S112 720 578040 -377 0
33 2 S112 702 578742 325 0
33 2 S112 709 579451 1034 0
33 2 S112 731 580182 1765 0
33 2 S112 758 580940 2523 0
33 2 S112 703 581643 3226 0
33 2 S112 714 582357 3940 0
33 2 S112 749 583106 4689 0
33 2 S112 820 583926 5509 0
33 2 S112 764 584690 6273 0
0 0 0 803 585493 -11541 0
0 0 0 868 586361 -10673 0
0 0 0 841 587202 -9832 0
0 0 0 759 587961 -9073 0
0 0 0 780 588741 -8293 0
0 0 0 770 589511 -7523 0
0 0 0 714 590225 -6809 0
0 0 0 729 590954 -6080 0
0 0 0 735 591689 -5345 0
0 0 0 742 592431 -4603 0
0 0 0 703 593134 -3900 0
0 0 0 734 593868 -3166 0
0 0 0 751 594619 -2415 0
34 1 S106 768 595387 -1647 0
34 1 S106 733 596120 -914 0
34 1 S106 749 596869 -165 0
34 2 S106 752 597621 587 0
34 2 S106 769 598390 1356 0
34 2 S106 723 599113 2079 0
34 2 S106 732 599845 2811 0
34 2 S106 738 600583 3549 0
34 2 S106 748 601331 4297 0
34 2 S106 734 602065 5031 0
34 2 S106 749 602814 5780 0
34 2 S106 774 603588 6554 0
0 0 0 781 604369 -8630 0
0 0 0 744 605113 -7886 0
0 0 0 756 605869 -7130 0
0 0 0 761 606630 -6369 0
0 0 0 746 607376 -5623 0
0 0 0 722 608098 -4901 0
0 0 0 755 608853 -4146 0
0 0 0 789 609642 -3357 0
0 0 0 807 610449 -2550 0
35 1 S102 757 611206 -1793 0
35 1 S102 773 611979 -1020 0
35 1 S102 781 612760 -239 0
35 2 S102 769 613529 530 0
35 2 S102 744 614273 1274 0
35 2 S102 761 615034 2035 0
35 2 S102 770 615804 2805 0
35 2 S102 748 616552 3553 0
35 2 S102 740 617292 4293 0
35 2 S102 762 618054 5055 0
35 2 S102 766 618820 5821 0
35 2 S102 720 619540 6541 0
0 0 0 720 620260 -6814 0
0 0 0 729 620989 -6085 0
0 0 0 744 621733 -5341 0
0 0 0 705 622438 -4636 0
0 0 0 718 623156 -3918 0
0 0 0 711 623867 -3207 0
0 0 0 689 624556 -2518 0
36 1 S106 665 625221 -1853 0
36 1 S106 658 625879 -1195 0
36 1 S106 661 626540 -534 0
36 2 S106 667 627207 133 0
36 2 S106 691 627898 824 0
36 2 S106 727 628625 1551 0
36 2 S106 715 629340 2266 0
36 2 S106 724 630064 2990 0
36 2 S106 739 630803 3729 0
36 2 S106 772 631575 4501 0
36 2 S106 776 632351 5277 0
36 2 S106 788 633139 6065 0
36 2 S106 802 633941 6867 0
0 0 0 792 634733 -9284 0
0 0 0 757 635490 -8527 0
0 0 0 763 636253 -7764 0
0 0 0 772 637025 -6992 0
0 0 0 721 637746 -6271 0
0 0 0 731 638477 -5540 0
0 0 0 741 639218 -4799 0
0 0 0 749 639967 -4050 0
0 0 0 707 640674 -3343 0
0 0 0 738 641412 -2605 0
37 1 S116 764 642176 -1841 0
37 1 S116 822 642998 -1019 0
37 1 S116 761 643759 -258 0
37 2 S116 778 644537 520 0
37 2 S116 790 645327 1310 0
37 2 S116 786 646113 2096 0
37 2 S116 735 646848 2831 0
37 2 S116 741 647589 3572 0
37 2 S116 743 648332 4315 0
37 2 S116 745 649077 5060 0
37 2 S116 721 649798 5781 0
37 2 S116 746 650544 6527 0
0 0 0 789 651333 -11982 0
0 0 0 827 652160 -11155 0
0 0 0 741 652901 -10414 0
0 0 0 799 653700 -9615 0
0 0 0 810 654510 -8805 0
0 0 0 761 655271 -8044 0
0 0 0 767 656038 -7277 0
0 0 0 804 656842 -6473 0
0 0 0 818 657660 -5655 0
0 0 0 763 658423 -4892 0
0 0 0 798 659221 -4094 0
0 0 0 798 660019 -3296 0
0 0 0 808 660827 -2488 0
38 1 S102 751 661578 -1737 0
38 1 S102 774 662352 -963 0
38 1 S102 810 663162 -153 0
38 2 S102 828 663990 675 0
38 2 S102 778 664768 1453 0
38 2 S102 801 665569 2254 0
38 2 S102 808 666377 3062 0
38 2 S102 788 667165 3850 0
38 2 S102 781 667946 4631 0
38 2 S102 804 668750 5435 0
38 2 S102 833 669583 6268 0
0 0 0 789 670372 -9902 0
0 0 0 810 671182 -9092 0
0 0 0 821 672003 -8271 0
0 0 0 783 672786 -7488 0
0 0 0 791 673577 -6697 0
0 0 0 791 674368 -5906 0
0 0 0 779 675147 -5127 0
0 0 0 730 675877 -4397 0
0 0 0 751 676628 -3646 0
0 0 0 769 677397 -2877 0
0 0 0 798 678195 -2079 0
39 1 S116 747 678942 -1332 0
39 1 S116 779 679721 -553 0
39 2 S116 797 680518 244 0
39 2 S116 785 681303 1029 0
39 2 S116 747 682050 1776 0
39 2 S116 772 682822 2548 0
39 2 S116 801 683623 3349 0
39 2 S116 838 684461 4187 0
39 2 S116 802 685263 4989 0
39 2 S116 835 686098 5824 0
39 2 S116 836 686934 6660 0
0 0 0 784 687718 -7974 0
0 0 0 756 688474 -7218 0
0 0 0 761 689235 -6457 0
0 0 0 746 689981 -5711 0
0 0 0 714 690695 -4997 0
0 0 0 747 691442 -4250 0
0 0 0 763 692205 -3487 0
0 0 0 756 692961 -2731 0
40 1 S112 748 693709 -1983 0
40 1 S112 796 694505 -1187 0
40 1 S112 830 695335 -357 0
40 2 S112 768 696103 411 0
40 2 S112 793 696896 1204 0
40 2 S112 797 697693 2001 0
40 2 S112 778 698471 2779 0
40 2 S112 730 699201 3509 0
40 2 S112 745 699946 4254 0
40 2 S112 748 700694 5002 0
40 2 S112 724 701418 5726 0
40 2 S112 710 702128 6436 0
0 0 0 727 702855 -188910 0
0 0 0 736 703591 -188174 0
0 0 0 707 704298 -187467 0
0 0 0 723 705021 -186744 0
0 0 0 752 705773 -185992 0
0 0 0 793 706566 -185199 0
0 0 0 757 707323 -184442 0
0 0 0 781 708104 -183661 0
0 0 0 814 708918 -182847 0
0 0 0 783 709701 -182064 0
0 0 0 700 710401 -181364 0
0 0 0 675 711076 -180689 0
0 0 0 658 711734 -180031 0
0 0 0 678 712412 -179353 0
0 0 0 665 713077 -178688 0
0 0 0 668 713745 -178020 0
0 0 0 685 714430 -177335 0
0 0 0 701 715131 -176634 0
0 0 0 707 715838 -175927 0
0 0 0 706 716544 -175221 0
0 0 0 702 717246 -174519 0
0 0 0 688 717934 -173831 0
0 0 0 677 718611 -173154 0
0 0 0 666 719277 -172488 0
0 0 0 658 719935 -171830 0
0 0 0 651 720586 -171179 0
0 0 0 629 721215 -170550 0
0 0 0 630 721845 -169920 0
0 0 0 630 722475 -169290 0
0 0 0 635 723110 -168655 0
0 0 0 657 723767 -167998 0
0 0 0 697 724464 -167301 0
0 0 0 706 725170 -166595 0
0 0 0 706 725876 -165889 0
0 0 0 773 726649 -165116 0
0 0 0 888 727537 -164228 0
0 0 0 915 728452 -163313 1
0 0 0 831 729283 -162482 0
0 0 0 823 730106 -161659 0
0 0 0 808 730914 -160851 0
0 0 0 755 731669 -160096 0
0 0 0 738 732407 -159358 0
0 0 0 742 733149 -158616 0
0 0 0 765 733914 -157851 0
0 0 0 733 734647 -157118 0
0 0 0 737 735384 -156381 0
0 0 0 776 736160 -155605 0
0 0 0 791 736951 -154814 0
0 0 0 716 737667 -154098 0
0 0 0 739 738406 -153359 0
0 0 0 752 739158 -152607 0
0 0 0 714 739872 -151893 0
0 0 0 712 740584 -151181 0
0 0 0 730 741314 -150451 0
0 0 0 744 742058 -149707 0
0 0 0 707 742765 -149000 0
0 0 0 740 743505 -148260 0
0 0 0 757 744262 -147503 0
0 0 0 741 745003 -146762 0
0 0 0 692 745695 -146070 0
0 0 0 706 746401 -145364 0
0 0 0 699 747100 -144665 0
0 0 0 684 747784 -143981 0
0 0 0 675 748459 -143306 0
0 0 0 704 749163 -142602 0
0 0 0 749 749912 -141853 0
0 0 0 743 750655 -141110 0
0 0 0 727 751382 -140383 0
0 0 0 755 752137 -139628 0
0 0 0 765 752902 -138863 0
0 0 0 721 753623 -138142 0
0 0 0 727 754350 -137415 0
0 0 0 731 755081 -136684 0
0 0 0 732 755813 -135952 0
0 0 0 700 756513 -135252 0
0 0 0 713 757226 -134539 0
0 0 0 728 757954 -133811 0
0 0 0 743 758697 -133068 0
0 0 0 708 759405 -132360 0
0 0 0 741 760146 -131619 0
0 0 0 749 760895 -130870 0
0 0 0 733 761628 -130137 0
0 0 0 701 762329 -129436 0
0 0 0 720 763049 -128716 0
0 0 0 738 763787 -127978 0
0 0 0 730 764517 -127248 0
0 0 0 706 765223 -126542 0
0 0 0 729 765952 -125813 0
0 0 0 782 766734 -125031 0
0 0 0 793 767527 -124238 0
0 0 0 759 768286 -123479 0
0 0 0 793 769079 -122686 0
0 0 0 778 769857 -121908 0
0 0 0 740 770597 -121168 0
0 0 0 750 771347 -120418 0
0 0 0 749 772096 -119669 0
0 0 0 726 772822 -118943 0
0 0 0 713 773535 -118230 0
0 0 0 723 774258 -117507 0
0 0 0 734 774992 -116773 0
0 0 0 719 775711 -116054 0
0 0 0 736 776447 -115318 0
0 0 0 747 777194 -114571 0
0 0 0 763 777957 -113808 0
0 0 0 739 778696 -113069 0
0 0 0 754 779450 -112315 0
0 0 0 769 780219 -111546 0
0 0 0 766 780985 -110780 0
0 0 0 724 781709 -110056 0
0 0 0 732 782441 -109324 0
0 0 0 735 783176 -108589 0
0 0 0 755 783931 -107834 0
0 0 0 729 784660 -107105 0
0 0 0 741 785401 -106364 0
0 0 0 744 786145 -105620 0
0 0 0 751 786896 -104869 0
0 0 0 721 787617 -104148 0
0 0 0 732 788349 -103416 0
0 0 0 751 789100 -102665 0
0 0 0 778 789878 -101887 0
0 0 0 799 790677 -101088 0
0 0 0 801 791478 -100287 0
0 0 0 768 792246 -99519 0
0 0 0 766 793012 -98753 0
0 0 0 760 793772 -97993 0
0 0 0 756 794528 -97237 0
0 0 0 739 795267 -96498 0
0 0 0 744 796011 -95754 0
0 0 0 749 796760 -95005 0
0 0 0 745 797505 -94260 0
0 0 0 732 798237 -93528 0
0 0 0 752 798989 -92776 0
0 0 0 775 799764 -92001 0
0 0 0 804 800568 -91197 0
0 0 0 756 801324 -90441 0
0 0 0 797 802121 -89644 0
0 0 0 818 802939 -88826 0
0 0 0 783 803722 -88043 0
0 0 0 757 804479 -87286 0
0 0 0 751 805230 -86535 0
0 0 0 747 805977 -85788 0
0 0 0 702 806679 -85086 0
0 0 0 699 807378 -84387 0
0 0 0 711 808089 -83676 0
0 0 0 730 808819 -82946 0
0 0 0 714 809533 -82232 0
0 0 0 721 810254 -81511 0
0 0 0 744 810998 -80767 0
0 0 0 756 811754 -80011 0
0 0 0 733 812487 -79278 0
0 0 0 742 813229 -78536 0
0 0 0 765 813994 -77771 0
0 0 0 776 814770 -76995 0
0 0 0 731 815501 -76264 0
0 0 0 757 816258 -75507 0
0 0 0 767 817025 -74740 0
0 0 0 757 817782 -73983 0
0 0 0 727 818509 -73256 0
0 0 0 754 819263 -72502 0
0 0 0 760 820023 -71742 0
0 0 0 754 820777 -70988 0
0 0 0 723 821500 -70265 0
0 0 0 754 822254 -69511 0
0 0 0 756 823010 -68755 0
0 0 0 754 823764 -68001 0
0 0 0 748 824512 -67253 0
0 0 0 759 825271 -66494 0
0 0 0 778 826049 -65716 0
0 0 0 754 826803 -64962 0
0 0 0 738 827541 -64224 0
0 0 0 760 828301 -63464 0
0 0 0 788 829089 -62676 0
0 0 0 767 829856 -61909 0
0 0 0 779 830635 -61130 0
0 0 0 796 831431 -60334 0
0 0 0 791 832222 -59543 0
0 0 0 731 832953 -58812 0
0 0 0 730 833683 -58082 0
0 0 0 713 834396 -57369 0
0 0 0 663 835059 -56706 0
0 0 0 658 835717 -56048 0
0 0 0 670 836387 -55378 0
0 0 0 671 837058 -54707 0
0 0 0 675 837733 -54032 0
0 0 0 669 838402 -53363 0
0 0 0 668 839070 -52695 0
0 0 0 687 839757 -52008 0
0 0 0 712 840469 -51296 0
0 0 0 707 841176 -50589 0
0 0 0 685 841861 -49904 0
0 0 0 680 842541 -49224 0
0 0 0 650 843191 -48574 0
0 0 0 651 843842 -47923 0
0 0 0 633 844475 -47290 0
0 0 0 623 845098 -46667 1
0 0 0 611 845709 -46056 1
0 0 0 610 846319 -45446 1
0 0 0 608 846927 -44838 1
0 0 0 610 847537 -44228 1
0 0 0 607 848144 -43621 1
0 0 0 607 848751 -43014 1
0 0 0 599 849350 -42415 1
0 0 0 598 849948 -41817 1
0 0 0 600 850548 -41217 1
0 0 0 602 851150 -40615 1
0 0 0 604 851754 -40011 1
0 0 0 613 852367 -39398 1
0 0 0 623 852990 -38775 1
0 0 0 623 853613 -38152 1
0 0 0 630 854243 -37522 0
0 0 0 694 854937 -36828 0
0 0 0 784 855721 -36044 0
0 0 0 811 856532 -35233 0
0 0 0 821 857353 -34412 0
0 0 0 849 858202 -33563 0
0 0 0 812 859014 -32751 0
0 0 0 738 859752 -32013 0
0 0 0 768 860520 -31245 0
0 0 0 817 861337 -30428 0
0 0 0 901 862238 -29527 1
0 0 0 849 863087 -28678 0
0 0 0 772 863859 -27906 0
0 0 0 778 864637 -27128 0
0 0 0 772 865409 -26356 0
0 0 0 747 866156 -25609 0
0 0 0 698 866854 -24911 0
0 0 0 699 867553 -24212 0
0 0 0 716 868269 -23496 0
0 0 0 752 869021 -22744 0
0 0 0 748 869769 -21996 0
0 0 0 701 870470 -21295 0
0 0 0 737 871207 -20558 0
0 0 0 769 871976 -19789 0
0 0 0 798 872774 -18991 0
0 0 0 749 873523 -18242 0
0 0 0 755 874278 -17487 0
0 0 0 757 875035 -16730 0
0 0 0 730 875765 -16000 0
0 0 0 674 876439 -15326 0
0 0 0 676 877115 -14650 0
0 0 0 685 877800 -13965 0
0 0 0 675 878475 -13290 0
0 0 0 654 879129 -12636 0
0 0 0 652 879781 -11984 0
0 0 0 656 880437 -11328 0
0 0 0 640 881077 -10688 0
0 0 0 636 881713 -10052 0
0 0 0 636 882349 -9416 0
0 0 0 638 882987 -8778 0
0 0 0 628 883615 -8150 1
0 0 0 634 884249 -7516 0
0 0 0 648 884897 -6868 0
0 0 0 645 885542 -6223 0
0 0 0 693 886235 -5530 0
0 0 0 793 887028 -4737 0
0 0 0 962 887990 -3775 1
0 0 0 868 888858 -2907 0
0 0 0 799 889657 -2108 0
41 1 S102 768 890425 -1340 0
41 1 S102 780 891205 -560 0
41 2 S102 777 891982 217 0
41 2 S102 791 892773 1008 0
41 2 S102 776 893549 1784 0
41 2 S102 735 894284 2519 0
41 2 S102 727 895011 3246 0
41 2 S102 733 895744 3979 0
41 2 S102 729 896473 4708 0
41 2 S102 689 897162 5397 0
41 2 S102 679 897841 6076 0
41 2 S102 696 898537 6772 0
0 0 0 726 899263 -6262 0
0 0 0 768 900031 -5494 0
0 0 0 716 900747 -4778 0
0 0 0 760 901507 -4018 0
0 0 0 815 902322 -3203 0
0 0 0 780 903102 -2423 0
42 1 S112 755 903857 -1668 0
42 1 S112 778 904635 -890 0
42 1 S112 807 905442 -83 0
42 2 S112 784 906226 701 0
42 2 S112 774 907000 1475 0
42 2 S112 806 907806 2281 0
42 2 S112 812 908618 3093 0
42 2 S112 778 909396 3871 0
42 2 S112 772 910168 4643 0
42 2 S112 794 910962 5437 0
42 2 S112 816 911778 6253 0
42 2 S112 756 912534 7009 0
0 0 0 725 913259 -8115 0
0 0 0 746 914005 -7369 0
0 0 0 771 914776 -6598 0
0 0 0 742 915518 -5856 0
0 0 0 776 916294 -5080 0
0 0 0 833 917127 -4247 0
0 0 0 855 917982 -3392 0
0 0 0 799 918781 -2593 0
43 1 S116 831 919612 -1762 0
43 1 S116 851 920463 -911 0
43 1 S116 852 921315 -59 0
43 2 S116 782 922097 723 0
43 2 S116 793 922890 1516 0
43 2 S116 797 923687 2313 0
43 2 S116 812 924499 3125 0
43 2 S116 778 925277 3903 0
43 2 S116 796 926073 4699 0
43 2 S116 843 926916 5542 0
43 2 S116 899 927815 6441 1
0 0 0 901 928716 -8043 1
0 0 0 840 929556 -7203 0
0 0 0 824 930380 -6379 0
0 0 0 813 931193 -5566 0
0 0 0 760 931953 -4806 0
0 0 0 754 932707 -4052 0
0 0 0 762 933469 -3290 0
0 0 0 796 934265 -2494 0
44 1 S102 752 935017 -1742 0
44 1 S102 779 935796 -963 0
44 1 S102 792 936588 -171 0
44 2 S102 791 937379 620 0
44 2 S102 759 938138 1379 0
44 2 S102 770 938908 2149 0
44 2 S102 767 939675 2916 0
44 2 S102 764 940439 3680 0
44 2 S102 729 941168 4409 0
44 2 S102 730 941898 5139 0
44 2 S102 731 942629 5870 0
44 2 S102 746 943375 6616 0
0 0 0 737 944112 -8678 0
0 0 0 729 944841 -7949 0
0 0 0 763 945604 -7186 0
0 0 0 774 946378 -6412 0
0 0 0 747 947125 -5665 0
0 0 0 733 947858 -4932 0
0 0 0 771 948629 -4161 0
0 0 0 788 949417 -3373 0
0 0 0 770 950187 -2603 0
45 1 S116 730 950917 -1873 0
45 1 S116 745 951662 -1128 0
45 1 S116 728 952390 -400 0
45 2 S116 730 953120 330 0
45 2 S116 736 953856 1066 0
45 2 S116 755 954611 1821 0
45 2 S116 788 955399 2609 0
45 2 S116 780 956179 3389 0
45 2 S116 808 956987 4197 0
45 2 S116 825 957812 5022 0
45 2 S116 827 958639 5849 0
45 2 S116 826 959465 6675 0
0 0 0 839 960304 -12612 0
0 0 0 874 961178 -11738 0
0 0 0 816 961994 -10922 0
0 0 0 790 962784 -10132 0
0 0 0 819 963603 -9313 0
0 0 0 830 964433 -8483 0
0 0 0 778 965211 -7705 0
0 0 0 797 966008 -6908 0
0 0 0 819 966827 -6089 0
0 0 0 803 967630 -5286 0
0 0 0 749 968379 -4537 0
0 0 0 764 969143 -3773 0
0 0 0 768 969911 -3005 0
0 0 0 761 970672 -2244 0
46 1 S102 722 971394 -1522 0
46 1 S102 731 972125 -791 0
46 1 S102 745 972870 -46 0
46 2 S102 768 973638 722 0
46 2 S102 760 974398 1482 0
46 2 S102 762 975160 2244 0
46 2 S102 772 975932 3016 0
46 2 S102 774 976706 3790 0
46 2 S102 726 977432 4516 0
46 2 S102 717 978149 5233 0
46 2 S102 727 978876 5960 0
46 2 S102 752 979628 6712 0
0 0 0 767 980395 -9066 0
0 0 0 732 981127 -8334 0
0 0 0 745 981872 -7589 0
0 0 0 755 982627 -6834 0
0 0 0 743 983370 -6091 0
0 0 0 722 984092 -5369 0
0 0 0 745 984837 -4624 0
0 0 0 759 985596 -3865 0
0 0 0 769 986365 -3096 0
0 0 0 722 987087 -2374 0
47 1 S112 740 987827 -1634 0
47 1 S112 730 988557 -904 0
47 1 S112 740 989297 -164 0
47 2 S112 709 990006 545 0
47 2 S112 742 990748 1287 0
47 2 S112 783 991531 2070 0
47 2 S112 787 992318 2857 0
47 2 S112 682 993000 3539 0
47 2 S112 706 993706 4245 0
47 2 S112 726 994432 4971 0
47 2 S112 784 995216 5755 0
47 2 S112 688 995904 6443 0
0 0 0 708 996612 -11052 0
0 0 0 740 997352 -10312 0
0 0 0 804 998156 -9508 0
0 0 0 828 998984 -8680 0
0 0 0 800 999784 -7880 0
0 0 0 747 1000531 -7133 0
0 0 0 757 1001288 -6376 0
0 0 0 785 1002073 -5591 0
0 0 0 780 1002853 -4811 0
0 0 0 744 1003597 -4067 0
0 0 0 752 1004349 -3315 0
0 0 0 751 1005100 -2564 0
48 1 S116 761 1005861 -1803 0
48 1 S116 804 1006665 -999 0
48 1 S116 739 1007404 -260 0
48 2 S116 788 1008192 528 0
48 2 S116 876 1009068 1404 0
48 2 S116 953 1010021 2357 1
48 2 S116 944 1010965 3301 1
48 2 S116 919 1011884 4220 1
48 2 S116 881 1012765 5101 0
48 2 S116 862 1013627 5963 0
48 2 S116 873 1014500 6836 0
0 0 0 882 1015382 -8463 0
0 0 0 855 1016237 -7608 0
0 0 0 786 1017023 -6822 0
0 0 0 796 1017819 -6026 0
0 0 0 826 1018645 -5200 0
0 0 0 851 1019496 -4349 0
0 0 0 799 1020295 -3550 0
0 0 0 800 1021095 -2750 0
49 1 S112 836 1021931 -1914 0
49 1 S112 847 1022778 -1067 0
49 1 S112 816 1023594 -251 0
49 2 S112 831 1024425 580 0
49 2 S112 858 1025283 1438 0
49 2 S112 857 1026140 2295 0
49 2 S112 804 1026944 3099 0
49 2 S112 788 1027732 3887 0
49 2 S112 811 1028543 4698 0
49 2 S112 817 1029360 5515 0
49 2 S112 787 1030147 6302 0
0 0 0 769 1030916 -13536 0
0 0 0 787 1031703 -12749 0
0 0 0 797 1032500 -11952 0
0 0 0 761 1033261 -11191 0
0 0 0 776 1034037 -10415 0
0 0 0 827 1034864 -9588 0
0 0 0 894 1035758 -8694 0
0 0 0 790 1036548 -7904 0
0 0 0 806 1037354 -7098 0
0 0 0 830 1038184 -6268 0
0 0 0 814 1038998 -5454 0
0 0 0 764 1039762 -4690 0
0 0 0 781 1040543 -3909 0
0 0 0 779 1041322 -3130 0
0 0 0 746 1042068 -2384 0
50 1 S106 737 1042805 -1647 0
50 1 S106 753 1043558 -894 0
50 1 S106 774 1044332 -120 0
50 2 S106 790 1045122 670 0
50 2 S106 766 1045888 1436 0
50 2 S106 778 1046666 2214 0
50 2 S106 815 1047481 3029 0
50 2 S106 811 1048292 3840 0
50 2 S106 817 1049109 4657 0
50 2 S106 800 1049909 5457 0
50 2 S106 762 1050671 6219 0
50 2 S106 770 1051441 6989 0
0 0 0 777 1052218 -6657 0
0 0 0 780 1052998 -5877 0
0 0 0 764 1053762 -5113 0
0 0 0 744 1054506 -4369 0
0 0 0 767 1055273 -3602 0
0 0 0 807 1056080 -2795 0
51 1 S112 817 1056897 -1978 0
51 1 S112 778 1057675 -1200 0
51 1 S112 812 1058487 -388 0
51 2 S112 833 1059320 445 0
51 2 S112 842 1060162 1287 0
51 2 S112 786 1060948 2073 0
51 2 S112 796 1061744 2869 0
51 2 S112 796 1062540 3665 0
51 2 S112 774 1063314 4439 0
51 2 S112 739 1064053 5178 0
51 2 S112 753 1064806 5931 0
51 2 S112 768 1065574 6699 0
0 0 0 757 1066331 -7183 0
0 0 0 739 1067070 -6444 0
0 0 0 773 1067843 -5671 0
0 0 0 797 1068640 -4874 0
0 0 0 765 1069405 -4109 0
0 0 0 736 1070141 -3373 0
0 0 0 759 1070900 -2614 0
52 1 S116 781 1071681 -1833 0
52 1 S116 780 1072461 -1053 0
52 1 S116 774 1073235 -279 0
52 2 S116 808 1074043 529 0
52 2 S116 844 1074887 1373 0
52 2 S116 842 1075729 2215 0
52 2 S116 797 1076526 3012 0
52 2 S116 813 1077339 3825 0
52 2 S116 821 1078160 4646 0
52 2 S116 809 1078969 5455 0
52 2 S116 755 1079724 6210 0
52 2 S116 766 1080490 6976 0
0 0 0 782 1081272 -9284 0
0 0 0 793 1082065 -8491 0
0 0 0 759 1082824 -7732 0
0 0 0 798 1083622 -6934 0
0 0 0 822 1084444 -6112 0
0 0 0 796 1085240 -5316 0
0 0 0 749 1085989 -4567 0
0 0 0 782 1086771 -3785 0
0 0 0 785 1087556 -3000 0
0 0 0 770 1088326 -2230 0
53 1 S106 736 1089062 -1494 0
53 1 S106 752 1089814 -742 0
53 2 S106 761 1090575 19 0
53 2 S106 759 1091334 778 0
53 2 S106 732 1092066 1510 0
53 2 S106 738 1092804 2248 0
53 2 S106 745 1093549 2993 0
53 2 S106 772 1094321 3765 0
53 2 S106 764 1095085 4529 0
53 2 S106 740 1095825 5269 0
53 2 S106 758 1096583 6027 0
53 2 S106 780 1097363 6807 0
0 0 0 767 1098130 -6551 0
0 0 0 736 1098866 -5815 0
0 0 0 749 1099615 -5066 0
0 0 0 746 1100361 -4320 0
0 0 0 726 1101087 -3594 0
0 0 0 692 1101779 -2902 0
0 0 0 683 1102462 -2219 0
54 1 S102 656 1103118 -1563 0
54 1 S102 651 1103769 -912 0
54 1 S102 692 1104461 -220 0
54 2 S102 837 1105298 617 0
54 2 S102 901 1106199 1518 1
54 2 S102 926 1107125 2444 1
54 2 S102 883 1108008 3327 0
54 2 S102 868 1108876 4195 0
54 2 S102 832 1109708 5027 0
54 2 S102 798 1110506 5825 0
54 2 S102 775 1111281 6600 0
0 0 0 750 1112031 -10356 0
0 0 0 722 1112753 -9634 0
0 0 0 701 1113454 -8933 0
0 0 0 660 1114114 -8273 0
0 0 0 656 1114770 -7617 0
0 0 0 653 1115423 -6964 0
0 0 0 659 1116082 -6305 0
0 0 0 677 1116759 -5628 0
0 0 0 706 1117465 -4922 0
0 0 0 803 1118268 -4119 0
0 0 0 840 1119108 -3279 0
0 0 0 786 1119894 -2493 0
55 1 S106 840 1120734 -1653 0
55 1 S106 868 1121602 -785 0
55 2 S106 844 1122446 59 0
55 2 S106 804 1123250 863 0
55 2 S106 815 1124065 1678 0
55 2 S106 798 1124863 2476 0
55 2 S106 764 1125627 3240 0
55 2 S106 736 1126363 3976 0
55 2 S106 742 1127105 4718 0
55 2 S106 745 1127850 5463 0
55 2 S106 750 1128600 6213 0
55 2 S106 716 1129316 6929 0
0 0 0 740 1130056 -7334 0
0 0 0 750 1130806 -6584 0
0 0 0 761 1131567 -5823 0
0 0 0 727 1132294 -5096 0
0 0 0 740 1133034 -4356 0
0 0 0 735 1133769 -3621 0
0 0 0 711 1134480 -2910 0
0 0 0 697 1135177 -2213 0
56 1 S116 692 1135869 -1521 0
56 1 S116 683 1136552 -838 0
56 1 S116 685 1137237 -153 0
56 2 S116 693 1137930 540 0
56 2 S116 707 1138637 1247 0
56 2 S116 699 1139336 1946 0
56 2 S116 685 1140021 2631 0
56 2 S116 700 1140721 3331 0
56 2 S116 710 1141431 4041 0
56 2 S116 721 1142152 4762 0
56 2 S116 696 1142848 5458 0
56 2 S116 706 1143554 6164 0
56 2 S116 721 1144275 6885 0
0 0 0 743 1145018 -6746 0
0 0 0 703 1145721 -6043 0
0 0 0 718 1146439 -5325 0
0 0 0 730 1147169 -4595 0
0 0 0 734 1147903 -3861 0
0 0 0 694 1148597 -3167 0
0 0 0 707 1149304 -2460 0
57 1 S106 717 1150021 -1743 0
57 1 S106 726 1150747 -1017 0
57 1 S106 692 1151439 -325 0
57 2 S106 695 1152134 370 0
57 2 S106 709 1152843 1079 0
57 2 S106 721 1153564 1800 0
57 2 S106 718 1154282 2518 0
57 2 S106 690 1154972 3208 0
57 2 S106 704 1155676 3912 0
57 2 S106 720 1156396 4632 0
57 2 S106 726 1157122 5358 0
57 2 S106 712 1157834 6070 0
57 2 S106 705 1158539 6775 0
0 0 0 723 1159262 -9511 0
0 0 0 742 1160004 -8769 0
0 0 0 723 1160727 -8046 0
0 0 0 719 1161446 -7327 0
0 0 0 743 1162189 -6584 0
0 0 0 748 1162937 -5836 0
0 0 0 719 1163656 -5117 0
0 0 0 730 1164386 -4387 0
0 0 0 747 1165133 -3640 0
0 0 0 749 1165882 -2891 0
0 0 0 730 1166612 -2161 0
58 1 S102 739 1167351 -1422 0
58 1 S102 747 1168098 -675 0
58 2 S102 739 1168837 64 0
58 2 S102 727 1169564 791 0
58 2 S102 745 1170309 1536 0
58 2 S102 754 1171063 2290 0
58 2 S102 740 1171803 3030 0
58 2 S102 711 1172514 3741 0
58 2 S102 717 1173231 4458 0
58 2 S102 731 1173962 5189 0
58 2 S102 754 1174716 5943 0
58 2 S102 747 1175463 6690 0
0 0 0 778 1176241 -7503 0
0 0 0 781 1177022 -6722 0
0 0 0 750 1177772 -5972 0
0 0 0 756 1178528 -5216 0
0 0 0 759 1179287 -4457 0
0 0 0 749 1180036 -3708 0
0 0 0 707 1180743 -3001 0
0 0 0 703 1181446 -2298 0
59 1 S112 709 1182155 -1589 0
59 1 S112 745 1182900 -844 0
59 1 S112 777 1183677 -67 0
59 2 S112 731 1184408 664 0
59 2 S112 753 1185161 1417 0
59 2 S112 766 1185927 2183 0
59 2 S112 779 1186706 2962 0
59 2 S112 743 1187449 3705 0
59 2 S112 759 1188208 4464 0
59 2 S112 758 1188966 5222 0
59 2 S112 755 1189721 5977 0
59 2 S112 724 1190445 6701 0
0 0 0 734 1191179 -9276 0
0 0 0 728 1191907 -8548 0
0 0 0 723 1192630 -7825 0
0 0 0 712 1193342 -7113 0
0 0 0 717 1194059 -6396 0
0 0 0 736 1194795 -5660 0
0 0 0 745 1195540 -4915 0
0 0 0 700 1196240 -4215 0
0 0 0 721 1196961 -3494 0
0 0 0 751 1197712 -2743 0
60 1 S102 760 1198472 -1983 0
60 1 S102 727 1199199 -1256 0
60 1 S102 728 1199927 -528 0
60 2 S102 720 1200647 192 0
60 2 S102 718 1201365 910 0
60 2 S102 691 1202056 1601 0
60 2 S102 708 1202764 2309 0
60 2 S102 718 1203482 3027 0
60 2 S102 758 1204240 3785 0
60 2 S102 744 1204984 4529 0
60 2 S102 739 1205723 5268 0
60 2 S102 769 1206492 6037 0
60 2 S102 794 1207286 6831 0
0 0 0 778 1208064 -11389 0
0 0 0 760 1208824 -10629 0
0 0 0 762 1209586 -9867 0
0 0 0 755 1210341 -9112 0
0 0 0 713 1211054 -8399 0
0 0 0 721 1211775 -7678 0
0 0 0 721 1212496 -6957 0
0 0 0 704 1213200 -6253 0
0 0 0 680 1213880 -5573 0
0 0 0 693 1214573 -4880 0
0 0 0 711 1215284 -4169 0
0 0 0 748 1216032 -3421 0
0 0 0 763 1216795 -2658 0
61 1 S106 747 1217542 -1911 0
61 1 S106 766 1218308 -1145 0
61 1 S106 778 1219086 -367 0
61 2 S106 756 1219842 389 0
61 2 S106 724 1220566 1113 0
61 2 S106 740 1221306 1853 0
61 2 S106 757 1222063 2610 0
61 2 S106 773 1222836 3383 0
61 2 S106 739 1223575 4122 0
61 2 S106 750 1224325 4872 0
61 2 S106 782 1225107 5654 0
61 2 S106 798 1225905 6452 0
0 0 0 767 1226672 -8083 0
0 0 0 778 1227450 -7305 0
0 0 0 787 1228237 -6518 0
0 0 0 792 1229029 -5726 0
0 0 0 738 1229767 -4988 0
0 0 0 752 1230519 -4236 0
0 0 0 740 1231259 -3496 0
0 0 0 718 1231977 -2778 0
0 0 0 698 1232675 -2080 0
62 1 S112 707 1233382 -1373 0
62 1 S112 710 1234092 -663 0
62 2 S112 724 1234816 61 0
62 2 S112 693 1235509 754 0
62 2 S112 720 1236229 1474 0
62 2 S112 743 1236972 2217 0
62 2 S112 747 1237719 2964 0
62 2 S112 731 1238450 3695 0
62 2 S112 762 1239212 4457 0
62 2 S112 771 1239983 5228 0
62 2 S112 758 1240741 5986 0
62 2 S112 740 1241481 6726 0
0 0 0 745 1242226 -11628 0
0 0 0 749 1242975 -10879 0
0 0 0 702 1243677 -10177 0
0 0 0 708 1244385 -9469 0
0 0 0 708 1245093 -8761 0
0 0 0 714 1245807 -8047 0
0 0 0 689 1246496 -7358 0
0 0 0 705 1247201 -6653 0
0 0 0 723 1247924 -5930 0
0 0 0 750 1248674 -5180 0
0 0 0 728 1249402 -4452 0
0 0 0 745 1250147 -3707 0
0 0 0 761 1250908 -2946 0
0 0 0 790 1251698 -2156 0
63 1 S102 754 1252452 -1402 0
63 1 S102 757 1253209 -645 0
63 2 S102 785 1253994 140 0
63 2 S102 809 1254803 949 0
63 2 S102 772 1255575 1721 0
63 2 S102 760 1256335 2481 0
63 2 S102 774 1257109 3255 0
63 2 S102 786 1257895 4041 0
63 2 S102 746 1258641 4787 0
63 2 S102 752 1259393 5539 0
63 2 S102 764 1260157 6303 0
0 0 0 766 1260923 -8912 0
0 0 0 734 1261657 -8178 0
0 0 0 741 1262398 -7437 0
0 0 0 758 1263156 -6679 0
0 0 0 761 1263917 -5918 0
0 0 0 728 1264645 -5190 0
0 0 0 757 1265402 -4433 0
0 0 0 780 1266182 -3653 0
0 0 0 811 1266993 -2842 0
0 0 0 759 1267752 -2083 0
64 1 S112 768 1268520 -1315 0
64 1 S112 768 1269288 -547 0
64 2 S112 753 1270041 206 0
64 2 S112 742 1270783 948 0
64 2 S112 758 1271541 1706 0
64 2 S112 766 1272307 2472 0
64 2 S112 782 1273089 3254 0
64 2 S112 751 1273840 4005 0
64 2 S112 761 1274601 4766 0
64 2 S112 770 1275371 5536 0
64 2 S112 779 1276150 6315 0
0 0 0 753 1276903 -7471 0
0 0 0 748 1277651 -6723 0
0 0 0 746 1278397 -5977 0
0 0 0 749 1279146 -5228 0
0 0 0 710 1279856 -4518 0
0 0 0 726 1280582 -3792 0
0 0 0 742 1281324 -3050 0
0 0 0 768 1282092 -2282 0
65 1 S106 737 1282829 -1545 0
65 1 S106 757 1283586 -788 0
65 1 S106 762 1284348 -26 0
65 2 S106 774 1285122 748 0
65 2 S106 739 1285861 1487 0
65 2 S106 755 1286616 2242 0
65 2 S106 758 1287374 3000 0
65 2 S106 768 1288142 3768 0
65 2 S106 734 1288876 4502 0
65 2 S106 732 1289608 5234 0
65 2 S106 747 1290355 5981 0
65 2 S106 761 1291116 6742 0
0 0 0 797 1291913 -6951 0
0 0 0 752 1292665 -6199 0
0 0 0 750 1293415 -5449 0
0 0 0 754 1294169 -4695 0
0 0 0 751 1294920 -3944 0
0 0 0 722 1295642 -3222 0
0 0 0 743 1296385 -2479 0
66 1 S116 759 1297144 -1720 0
66 1 S116 771 1297915 -949 0
66 1 S116 741 1298656 -208 0
66 2 S116 767 1299423 559 0
66 2 S116 768 1300191 1327 0
66 2 S116 782 1300973 2109 0
66 2 S116 740 1301713 2849 0
66 2 S116 746 1302459 3595 0
66 2 S116 753 1303212 4348 0
66 2 S116 763 1303975 5111 0
66 2 S116 751 1304726 5862 0
66 2 S116 734 1305460 6596 0
0 0 0 762 1306222 -12387 0
0 0 0 784 1307006 -11603 0
0 0 0 781 1307787 -10822 0
0 0 0 732 1308519 -10090 0
0 0 0 760 1309279 -9330 0
0 0 0 777 1310056 -8553 0
0 0 0 740 1310796 -7813 0
0 0 0 727 1311523 -7086 0
0 0 0 753 1312276 -6333 0
0 0 0 773 1313049 -5560 0
0 0 0 754 1313803 -4806 0
0 0 0 726 1314529 -4080 0
0 0 0 732 1315261 -3348 0
0 0 0 724 1315985 -2624 0
67 1 S102 730 1316715 -1894 0
67 1 S102 700 1317415 -1194 0
67 1 S102 722 1318137 -472 0
67 2 S102 738 1318875 266 0
67 2 S102 761 1319636 1027 0
67 2 S102 728 1320364 1755 0
67 2 S102 754 1321118 2509 0
67 2 S102 778 1321896 3287 0
67 2 S102 789 1322685 4076 0
67 2 S102 750 1323435 4826 0
67 2 S102 796 1324231 5622 0
67 2 S102 809 1325040 6431 0
0 0 0 780 1325820 -7709 0
0 0 0 732 1326552 -6977 0
0 0 0 743 1327295 -6234 0
0 0 0 763 1328058 -5471 0
0 0 0 741 1328799 -4730 0
0 0 0 727 1329526 -4003 0
0 0 0 749 1330275 -3254 0
0 0 0 775 1331050 -2479 0
68 1 S106 784 1331834 -1695 0
68 1 S106 730 1332564 -965 0
68 1 S106 745 1333309 -220 0
68 2 S106 783 1334092 563 0
68 2 S106 796 1334888 1359 0
68 2 S106 780 1335668 2139 0
68 2 S106 738 1336406 2877 0
68 2 S106 755 1337161 3632 0
68 2 S106 765 1337926 4397 0
68 2 S106 759 1338685 5156 0
68 2 S106 718 1339403 5874 0
68 2 S106 723 1340126 6597 0
0 0 0 726 1340852 -10632 0
0 0 0 728 1341580 -9904 0
0 0 0 694 1342274 -9210 0
0 0 0 707 1342981 -8503 0
0 0 0 725 1343706 -7778 0
0 0 0 744 1344450 -7034 0
0 0 0 708 1345158 -6326 0
0 0 0 741 1345899 -5585 0
0 0 0 745 1346644 -4840 0
0 0 0 730 1347374 -4110 0
0 0 0 709 1348083 -3401 0
0 0 0 727 1348810 -2674 0
69 1 S102 725 1349535 -1949 0
69 1 S102 714 1350249 -1235 0
69 1 S102 691 1350940 -544 0
69 2 S102 695 1351635 151 0
69 2 S102 692 1352327 843 0
69 2 S102 678 1353005 1521 0
69 2 S102 660 1353665 2181 0
69 2 S102 682 1354347 2863 0
69 2 S102 698 1355045 3561 0
69 2 S102 736 1355781 4297 0
69 2 S102 730 1356511 5027 0
69 2 S102 744 1357255 5771 0
69 2 S102 767 1358022 6538 0
0 0 0 773 1358795 -8853 0
0 0 0 734 1359529 -8119 0
0 0 0 740 1360269 -7379 0
0 0 0 737 1361006 -6642 0
0 0 0 739 1361745 -5903 0
0 0 0 710 1362455 -5193 0
0 0 0 730 1363185 -4463 0
0 0 0 749 1363934 -3714 0
0 0 0 758 1364692 -2956 0
0 0 0 735 1365427 -2221 0
70 1 S112 764 1366191 -1457 0
70 1 S112 776 1366967 -681 0
70 2 S112 791 1367758 110 0
70 2 S112 743 1368501 853 0
70 2 S112 772 1369273 1625 0
70 2 S112 778 1370051 2403 0
70 2 S112 768 1370819 3171 0
70 2 S112 751 1371570 3922 0
70 2 S112 795 1372365 4717 0
70 2 S112 815 1373180 5532 0
70 2 S112 762 1373942 6294 0
0 0 0 765 1374707 -11077 0
0 0 0 767 1375474 -10310 0
0 0 0 757 1376231 -9553 0
0 0 0 717 1376948 -8836 0
0 0 0 731 1377679 -8105 0
0 0 0 749 1378428 -7356 0
0 0 0 778 1379206 -6578 0
0 0 0 737 1379943 -5841 0
0 0 0 763 1380706 -5078 0
0 0 0 773 1381479 -4305 0
0 0 0 779 1382258 -3526 0
0 0 0 741 1382999 -2785 0
0 0 0 746 1383745 -2039 0
71 1 S116 748 1384493 -1291 0
71 1 S116 755 1385248 -536 0
71 2 S116 728 1385976 192 0
71 2 S116 745 1386721 937 0
71 2 S116 775 1387496 1712 0
71 2 S116 805 1388301 2517 0
71 2 S116 764 1389065 3281 0
71 2 S116 796 1389861 4077 0
71 2 S116 825 1390686 4902 0
71 2 S116 830 1391516 5732 0
71 2 S116 782 1392298 6514 0
0 0 0 777 1393075 -10631 0
0 0 0 788 1393863 -9843 0
0 0 0 772 1394635 -9071 0
0 0 0 729 1395364 -8342 0
0 0 0 730 1396094 -7612 0
0 0 0 750 1396844 -6862 0
0 0 0 768 1397612 -6094 0
0 0 0 764 1398376 -5330 0
0 0 0 732 1399108 -4598 0
0 0 0 759 1399867 -3839 0
0 0 0 780 1400647 -3059 0
0 0 0 765 1401412 -2294 0
72 1 S102 715 1402127 -1579 0
72 1 S102 735 1402862 -844 0
72 1 S102 742 1403604 -102 0
72 2 S102 760 1404364 658 0
72 2 S102 777 1405141 1435 0
72 2 S102 750 1405891 2185 0
72 2 S102 738 1406629 2923 0
72 2 S102 736 1407365 3659 0
72 2 S102 742 1408107 4401 0
72 2 S102 756 1408863 5157 0
72 2 S102 724 1409587 5881 0
72 2 S102 725 1410312 6606 0
0 0 0 725 1411037 -6727 0
0 0 0 739 1411776 -5988 0
0 0 0 716 1412492 -5272 0
0 0 0 723 1413215 -4549 0
0 0 0 745 1413960 -3804 0
0 0 0 790 1414750 -3014 0
0 0 0 766 1415516 -2248 0
73 1 S116 770 1416286 -1478 0
73 1 S116 773 1417059 -705 0
73 2 S116 792 1417851 87 0
73 2 S116 749 1418600 836 0
73 2 S116 776 1419376 1612 0
73 2 S116 785 1420161 2397 0
73 2 S116 790 1420951 3187 0
73 2 S116 744 1421695 3931 0
73 2 S116 749 1422444 4680 0
73 2 S116 755 1423199 5435 0
73 2 S116 761 1423960 6196 0
73 2 S116 733 1424693 6929 0
0 0 0 750 1425443 -9894 0
0 0 0 761 1426204 -9133 0
0 0 0 759 1426963 -8374 0
0 0 0 720 1427683 -7654 0
0 0 0 746 1428429 -6908 0
0 0 0 757 1429186 -6151 0
0 0 0 769 1429955 -5382 0
0 0 0 726 1430681 -4656 0
0 0 0 752 1431433 -3904 0
0 0 0 760 1432193 -3144 0
0 0 0 754 1432947 -2390 0
74 1 S106 712 1433659 -1678 0
74 1 S106 734 1434393 -944 0
74 1 S106 734 1435127 -210 0
74 2 S106 738 1435865 528 0
74 2 S106 704 1436569 1232 0
74 2 S106 726 1437295 1958 0
74 2 S106 738 1438033 2696 0
74 2 S106 766 1438799 3462 0
74 2 S106 734 1439533 4196 0
74 2 S106 751 1440284 4947 0
74 2 S106 787 1441071 5734 0
74 2 S106 810 1441881 6544 0
0 0 0 757 1442638 -8631 0
0 0 0 789 1443427 -7842 0
0 0 0 786 1444213 -7056 0
0 0 0 747 1444960 -6309 0
0 0 0 734 1445694 -5575 0
0 0 0 750 1446444 -4825 0
0 0 0 741 1447185 -4084 0
0 0 0 737 1447922 -3347 0
0 0 0 706 1448628 -2641 0
75 1 S112 717 1449345 -1924 0
75 1 S112 718 1450063 -1206 0
75 1 S112 719 1450782 -487 0
75 2 S112 699 1451481 212 0
75 2 S112 724 1452205 936 0
75 2 S112 772 1452977 1708 0
75 2 S112 800 1453777 2508 0
75 2 S112 705 1454482 3213 0
75 2 S112 721 1455203 3934 0
75 2 S112 743 1455946 4677 0
75 2 S112 777 1456723 5454 0
75 2 S112 787 1457510 6241 0
75 2 S112 730 1458240 6971 0
0 0 0 707 1458947 -7027 0
0 0 0 704 1459651 -6323 0
0 0 0 705 1460356 -5618 0
0 0 0 725 1461081 -4893 0
0 0 0 716 1461797 -4177 0
0 0 0 740 1462537 -3437 0
0 0 0 768 1463305 -2669 0
76 1 S116 813 1464118 -1856 0
76 1 S116 803 1464921 -1053 0
76 1 S116 745 1465666 -308 0
76 2 S116 781 1466447 473 0
76 2 S116 813 1467260 1286 0
76 2 S116 849 1468109 2135 0
76 2 S116 852 1468961 2987 0
76 2 S116 812 1469773 3799 0
76 2 S116 810 1470583 4609 0
76 2 S116 800 1471383 5409 0
76 2 S116 760 1472143 6169 0
76 2 S116 761 1472904 6930 0
0 0 0 767 1473671 -7920 0
0 0 0 773 1474444 -7147 0
0 0 0 734 1475178 -6413 0
0 0 0 750 1475928 -5663 0
0 0 0 782 1476710 -4881 0
0 0 0 804 1477514 -4077 0
0 0 0 755 1478269 -3322 0
0 0 0 780 1479049 -2542 0
77 1 S106 796 1479845 -1746 0
77 1 S106 775 1480620 -971 0
77 1 S106 763 1481383 -208 0
77 2 S106 781 1482164 573 0
77 2 S106 794 1482958 1367 0
77 2 S106 777 1483735 2144 0
77 2 S106 767 1484502 2911 0
77 2 S106 785 1485287 3696 0
77 2 S106 801 1486088 4497 0
77 2 S106 776 1486864 5273 0
77 2 S106 752 1487616 6025 0
77 2 S106 772 1488388 6797 0
0 0 0 792 1489180 -10481 0
0 0 0 799 1489979 -9682 0
0 0 0 738 1490717 -8944 0
0 0 0 757 1491474 -8187 0
0 0 0 774 1492248 -7413 0
0 0 0 753 1493001 -6660 0
0 0 0 753 1493754 -5907 0
0 0 0 767 1494521 -5140 0
0 0 0 775 1495296 -4365 0
0 0 0 704 1496000 -3661 0
0 0 0 716 1496716 -2945 0
0 0 0 733 1497449 -2212 0
78 1 S112 735 1498184 -1477 0
78 1 S112 718 1498902 -759 0
78 2 S112 765 1499667 6 0
78 2 S112 783 1500450 789 0
78 2 S112 777 1501227 1566 0
78 2 S112 741 1501968 2307 0
78 2 S112 756 1502724 3063 0
78 2 S112 751 1503475 3814 0
78 2 S112 727 1504202 4541 0
78 2 S112 690 1504892 5231 0
78 2 S112 699 1505591 5930 0
78 2 S112 709 1506300 6639 0
0 0 0 726 1507026 -10341 0
0 0 0 691 1507717 -9650 0
0 0 0 734 1508451 -8916 0
0 0 0 770 1509221 -8146 0
0 0 0 811 1510032 -7335 0
0 0 0 766 1510798 -6569 0
0 0 0 834 1511632 -5735 0
0 0 0 889 1512521 -4846 0
0 0 0 829 1513350 -4017 0
0 0 0 784 1514134 -3233 0
0 0 0 805 1514939 -2428 0
79 1 S102 805 1515744 -1623 0
79 1 S102 769 1516513 -854 0
79 1 S102 750 1517263 -104 0
79 2 S102 753 1518016 649 0
79 2 S102 773 1518789 1422 0
79 2 S102 771 1519560 2193 0
79 2 S102 742 1520302 2935 0
79 2 S102 766 1521068 3701 0
79 2 S102 808 1521876 4509 0
79 2 S102 809 1522685 5318 0
79 2 S102 790 1523475 6108 0
79 2 S102 802 1524277 6910 0
0 0 0 817 1525094 -9680 0
0 0 0 755 1525849 -8925 0
0 0 0 779 1526628 -8146 0
0 0 0 795 1527423 -7351 0
0 0 0 779 1528202 -6572 0
0 0 0 738 1528940 -5834 0
0 0 0 760 1529700 -5074 0
0 0 0 788 1530488 -4286 0
0 0 0 751 1531239 -3535 0
0 0 0 734 1531973 -2801 0
0 0 0 754 1532727 -2047 0
80 1 S116 759 1533486 -1288 0
80 1 S116 734 1534220 -554 0
80 2 S116 756 1534976 202 0
80 2 S116 775 1535751 977 0
80 2 S116 798 1536549 1775 0
80 2 S116 758 1537307 2533 0
80 2 S116 760 1538067 3293 0
80 2 S116 781 1538848 4074 0
80 2 S116 793 1539641 4867 0
80 2 S116 784 1540425 5651 0
80 2 S116 802 1541227 6453 0
