T_0028
BeatCount Mean SD BeatCountNoOutliers MeanNoOutliers SDNoOutliers
2040 736,739705882353 54,2659192049863 1994 736,858074222668 47,9252364160331

Trial TrialStatus Trialtype IBI AbsPosition RelPosition Outlier
0 0 0 712 1423 -15363 0
0 0 0 719 2142 -14644 0
0 0 0 749 2891 -13895 0
0 0 0 750 3641 -13145 0
0 0 0 734 4375 -12411 0
0 0 0 792 5167 -11619 0
0 0 0 768 5935 -10851 0
0 0 0 745 6680 -10106 0
0 0 0 732 7412 -9374 0
0 0 0 702 8114 -8672 0
0 0 0 699 8813 -7973 0
0 0 0 704 9517 -7269 0
0 0 0 729 10246 -6540 0
0 0 0 739 10985 -5801 0
0 0 0 734 11719 -5067 0
0 0 0 712 12431 -4355 0
0 0 0 703 13134 -3652 0
0 0 0 702 13836 -2950 0
0 0 0 694 14530 -2256 0
1 1 S112 699 15229 -1557 0
1 1 S112 693 15922 -864 0
1 1 S112 695 16617 -169 0
1 2 S112 685 17302 516 0
1 2 S112 693 17995 1209 0
1 2 S112 721 18716 1930 0
1 2 S112 758 19474 2688 0
1 2 S112 786 20260 3474 0
1 2 S112 766 21026 4240 0
1 2 S112 763 21789 5003 0
1 2 S112 757 22546 5760 0
1 2 S112 756 23302 6516 0
0 0 0 749 24051 -11900 0
0 0 0 742 24793 -11158 0
0 0 0 765 25558 -10393 0
0 0 0 803 26361 -9590 0
0 0 0 804 27165 -8786 0
0 0 0 762 27927 -8024 0
0 0 0 734 28661 -7290 0
0 0 0 710 29371 -6580 0
0 0 0 693 30064 -5887 0
0 0 0 684 30748 -5203 0
0 0 0 680 31428 -4523 0
0 0 0 671 32099 -3852 0
0 0 0 675 32774 -3177 0
0 0 0 691 33465 -2486 0
2 1 S102 721 34186 -1765 0
2 1 S102 761 34947 -1004 0
2 1 S102 772 35719 -232 0
2 2 S102 778 36497 546 0
2 2 S102 771 37268 1317 0
2 2 S102 763 38031 2080 0
2 2 S102 735 38766 2815 0
2 2 S102 719 39485 3534 0
2 2 S102 713 40198 4247 0
2 2 S102 713 40911 4960 0
2 2 S102 729 41640 5689 0
2 2 S102 730 42370 6419 0
0 0 0 767 43137 -8447 0
0 0 0 783 43920 -7664 0
0 0 0 859 44779 -6805 0
0 0 0 821 45600 -5984 0
0 0 0 809 46409 -5175 0
0 0 0 787 47196 -4388 0
0 0 0 767 47963 -3621 0
0 0 0 736 48699 -2885 0
0 0 0 743 49442 -2142 0
3 1 S116 744 50186 -1398 0
3 1 S116 734 50920 -664 0
3 2 S116 727 51647 63 0
3 2 S116 747 52394 810 0
3 2 S116 759 53153 1569 0
3 2 S116 811 53964 2380 0
3 2 S116 817 54781 3197 0
3 2 S116 807 55588 4004 0
3 2 S116 792 56380 4796 0
3 2 S116 764 57144 5560 0
3 2 S116 740 57884 6300 0
0 0 0 749 58633 -11105 0
0 0 0 753 59386 -10352 0
0 0 0 779 60165 -9573 0
0 0 0 803 60968 -8770 0
0 0 0 798 61766 -7972 0
0 0 0 761 62527 -7211 0
0 0 0 749 63276 -6462 0
0 0 0 769 64045 -5693 0
0 0 0 786 64831 -4907 0
0 0 0 784 65615 -4123 0
0 0 0 753 66368 -3370 0
0 0 0 768 67136 -2602 0
4 1 S106 779 67915 -1823 0
4 1 S106 758 68673 -1065 0
4 1 S106 741 69414 -324 0
4 2 S106 737 70151 413 0
4 2 S106 743 70894 1156 0
4 2 S106 743 71637 1899 0
4 2 S106 728 72365 2627 0
4 2 S106 737 73102 3364 0
4 2 S106 743 73845 4107 0
4 2 S106 799 74644 4906 0
4 2 S106 806 75450 5712 0
4 2 S106 776 76226 6488 0
0 0 0 772 76998 -7544 0
0 0 0 804 77802 -6740 0
0 0 0 849 78651 -5891 0
0 0 0 844 79495 -5047 0
0 0 0 811 80306 -4236 0
0 0 0 753 81059 -3483 0
0 0 0 734 81793 -2749 0
0 0 0 748 82541 -2001 0
5 1 S116 751 83292 -1250 0
5 1 S116 759 84051 -491 0
5 2 S116 750 84801 259 0
5 2 S116 801 85602 1060 0
5 2 S116 858 86460 1918 0
5 2 S116 882 87342 2800 1
5 2 S116 872 88214 3672 0
5 2 S116 839 89053 4511 0
5 2 S116 834 89887 5345 0
5 2 S116 814 90701 6159 0
5 2 S116 781 91482 6940 0
0 0 0 758 92240 -8267 0
0 0 0 771 93011 -7496 0
0 0 0 834 93845 -6662 0
0 0 0 793 94638 -5869 0
0 0 0 773 95411 -5096 0
0 0 0 778 96189 -4318 0
0 0 0 806 96995 -3512 0
0 0 0 787 97782 -2725 0
6 1 S106 774 98556 -1951 0
6 1 S106 776 99332 -1175 0
6 1 S106 775 100107 -400 0
6 2 S106 765 100872 365 0
6 2 S106 777 101649 1142 0
6 2 S106 789 102438 1931 0
6 2 S106 787 103225 2718 0
6 2 S106 772 103997 3490 0
6 2 S106 789 104786 4279 0
6 2 S106 792 105578 5071 0
6 2 S106 802 106380 5873 0
6 2 S106 775 107155 6648 0
0 0 0 777 107932 -10414 0
0 0 0 786 108718 -9628 0
0 0 0 778 109496 -8850 0
0 0 0 750 110246 -8100 0
0 0 0 731 110977 -7369 0
0 0 0 718 111695 -6651 0
0 0 0 707 112402 -5944 0
0 0 0 726 113128 -5218 0
0 0 0 778 113906 -4440 0
0 0 0 809 114715 -3631 0
0 0 0 778 115493 -2853 0
0 0 0 777 116270 -2076 0
7 1 S102 773 117043 -1303 0
7 1 S102 770 117813 -533 0
7 2 S102 760 118573 227 0
7 2 S102 774 119347 1001 0
7 2 S102 756 120103 1757 0
7 2 S102 760 120863 2517 0
7 2 S102 742 121605 3259 0
7 2 S102 749 122354 4008 0
7 2 S102 747 123101 4755 0
7 2 S102 756 123857 5511 0
7 2 S102 748 124605 6259 0
7 2 S102 750 125355 7009 0
0 0 0 779 126134 -7978 0
0 0 0 838 126972 -7140 0
0 0 0 839 127811 -6301 0
0 0 0 776 128587 -5525 0
0 0 0 767 129354 -4758 0
0 0 0 753 130107 -4005 0
0 0 0 732 130839 -3273 0
0 0 0 719 131558 -2554 0
8 1 S112 722 132280 -1832 0
8 1 S112 713 132993 -1119 0
8 1 S112 719 133712 -400 0
8 2 S112 705 134417 305 0
8 2 S112 731 135148 1036 0
8 2 S112 781 135929 1817 0
8 2 S112 813 136742 2630 0
8 2 S112 811 137553 3441 0
8 2 S112 821 138374 4262 0
8 2 S112 817 139191 5079 0
8 2 S112 799 139990 5878 0
8 2 S112 755 140745 6633 0
0 0 0 752 141497 -8099 0
0 0 0 747 142244 -7352 0
0 0 0 740 142984 -6612 0
0 0 0 729 143713 -5883 0
0 0 0 761 144474 -5122 0
0 0 0 750 145224 -4372 0
0 0 0 719 145943 -3653 0
0 0 0 706 146649 -2947 0
0 0 0 697 147346 -2250 0
9 1 S116 716 148062 -1534 0
9 1 S116 739 148801 -795 0
9 1 S116 755 149556 -40 0
9 2 S116 757 150313 717 0
9 2 S116 780 151093 1497 0
9 2 S116 767 151860 2264 0
9 2 S116 775 152635 3039 0
9 2 S116 780 153415 3819 0
9 2 S116 765 154180 4584 0
9 2 S116 739 154919 5323 0
9 2 S116 735 155654 6058 0
9 2 S116 724 156378 6782 0
0 0 0 713 157091 -11321 0
0 0 0 705 157796 -10616 0
0 0 0 733 158529 -9883 0
0 0 0 782 159311 -9101 0
0 0 0 793 160104 -8308 0
0 0 0 758 160862 -7550 0
0 0 0 772 161634 -6778 0
0 0 0 791 162425 -5987 0
0 0 0 764 163189 -5223 0
0 0 0 764 163953 -4459 0
0 0 0 744 164697 -3715 0
0 0 0 739 165436 -2976 0
0 0 0 711 166147 -2265 0
10 1 S102 708 166855 -1557 0
10 1 S102 697 167552 -860 0
10 1 S102 705 168257 -155 0
10 2 S102 698 168955 543 0
10 2 S102 696 169651 1239 0
10 2 S102 716 170367 1955 0
10 2 S102 779 171146 2734 0
10 2 S102 832 171978 3566 0
10 2 S102 805 172783 4371 0
10 2 S102 803 173586 5174 0
10 2 S102 807 174393 5981 0
10 2 S102 785 175178 6766 0
0 0 0 756 175934 -10947 0
0 0 0 751 176685 -10196 0
0 0 0 747 177432 -9449 0
0 0 0 726 178158 -8723 0
0 0 0 730 178888 -7993 0
0 0 0 728 179616 -7265 0
0 0 0 710 180326 -6555 0
0 0 0 706 181032 -5849 0
0 0 0 719 181751 -5130 0
0 0 0 752 182503 -4378 0
0 0 0 790 183293 -3588 0
0 0 0 750 184043 -2838 0
0 0 0 772 184815 -2066 0
11 1 S112 795 185610 -1271 0
11 1 S112 780 186390 -491 0
11 2 S112 748 187138 257 0
11 2 S112 748 187886 1005 0
11 2 S112 742 188628 1747 0
11 2 S112 731 189359 2478 0
11 2 S112 722 190081 3200 0
11 2 S112 718 190799 3918 0
11 2 S112 716 191515 4634 0
11 2 S112 713 192228 5347 0
11 2 S112 732 192960 6079 0
11 2 S112 763 193723 6842 0
0 0 0 776 194499 -7037 0
0 0 0 764 195263 -6273 0
0 0 0 777 196040 -5496 0
0 0 0 783 196823 -4713 0
0 0 0 753 197576 -3960 0
0 0 0 718 198294 -3242 0
0 0 0 716 199010 -2526 0
12 1 S116 716 199726 -1810 0
12 1 S116 724 200450 -1086 0
12 1 S116 716 201166 -370 0
12 2 S116 718 201884 348 0
12 2 S116 738 202622 1086 0
12 2 S116 779 203401 1865 0
12 2 S116 787 204188 2652 0
12 2 S116 775 204963 3427 0
12 2 S116 792 205755 4219 0
12 2 S116 794 206549 5013 0
12 2 S116 761 207310 5774 0
12 2 S116 745 208055 6519 0
0 0 0 748 208803 -11251 0
0 0 0 760 209563 -10491 0
0 0 0 772 210335 -9719 0
0 0 0 765 211100 -8954 0
0 0 0 757 211857 -8197 0
0 0 0 753 212610 -7444 0
0 0 0 733 213343 -6711 0
0 0 0 742 214085 -5969 0
0 0 0 739 214824 -5230 0
0 0 0 759 215583 -4471 0
0 0 0 734 216317 -3737 0
0 0 0 731 217048 -3006 0
0 0 0 727 217775 -2279 0
13 1 S112 739 218514 -1540 0
13 1 S112 726 219240 -814 0
13 1 S112 716 219956 -98 0
13 2 S112 727 220683 629 0
13 2 S112 762 221445 1391 0
13 2 S112 845 222290 2236 0
13 2 S112 823 223113 3059 0
13 2 S112 803 223916 3862 0
13 2 S112 796 224712 4658 0
13 2 S112 772 225484 5430 0
13 2 S112 746 226230 6176 0
13 2 S112 751 226981 6927 0
0 0 0 747 227728 -11076 0
0 0 0 768 228496 -10308 0
0 0 0 787 229283 -9521 0
0 0 0 794 230077 -8727 0
0 0 0 799 230876 -7928 0
0 0 0 780 231656 -7148 0
0 0 0 746 232402 -6402 0
0 0 0 742 233144 -5660 0
0 0 0 730 233874 -4930 0
0 0 0 697 234571 -4233 0
0 0 0 684 235255 -3549 0
0 0 0 684 235939 -2865 0
0 0 0 704 236643 -2161 0
14 1 S106 719 237362 -1442 0
14 1 S106 713 238075 -729 0
14 2 S106 733 238808 4 0
14 2 S106 741 239549 745 0
14 2 S106 741 240290 1486 0
14 2 S106 723 241013 2209 0
14 2 S106 724 241737 2933 0
14 2 S106 727 242464 3660 0
14 2 S106 729 243193 4389 0
14 2 S106 715 243908 5104 0
14 2 S106 716 244624 5820 0
14 2 S106 717 245341 6537 0
0 0 0 733 246074 -11298 0
0 0 0 741 246815 -10557 0
0 0 0 736 247551 -9821 0
0 0 0 762 248313 -9059 0
0 0 0 744 249057 -8315 0
0 0 0 716 249773 -7599 0
0 0 0 699 250472 -6900 0
0 0 0 705 251177 -6195 0
0 0 0 705 251882 -5490 0
0 0 0 712 252594 -4778 0
0 0 0 712 253306 -4066 0
0 0 0 713 254019 -3353 0
0 0 0 733 254752 -2620 0
15 1 S116 739 255491 -1881 0
15 1 S116 758 256249 -1123 0
15 1 S116 726 256975 -397 0
15 2 S116 726 257701 329 0
15 2 S116 723 258424 1052 0
15 2 S116 735 259159 1787 0
15 2 S116 736 259895 2523 0
15 2 S116 726 260621 3249 0
15 2 S116 749 261370 3998 0
15 2 S116 753 262123 4751 0
15 2 S116 748 262871 5499 0
15 2 S116 748 263619 6247 0
15 2 S116 738 264357 6985 0
0 0 0 731 265088 -8746 0
0 0 0 737 265825 -8009 0
0 0 0 745 266570 -7264 0
0 0 0 740 267310 -6524 0
0 0 0 721 268031 -5803 0
0 0 0 726 268757 -5077 0
0 0 0 720 269477 -4357 0
0 0 0 707 270184 -3650 0
0 0 0 704 270888 -2946 0
0 0 0 709 271597 -2237 0
16 1 S116 714 272311 -1523 0
16 1 S116 707 273018 -816 0
16 1 S116 707 273725 -109 0
16 2 S116 717 274442 608 0
16 2 S116 735 275177 1343 0
16 2 S116 741 275918 2084 0
16 2 S116 720 276638 2804 0
16 2 S116 709 277347 3513 0
16 2 S116 710 278057 4223 0
16 2 S116 705 278762 4928 0
16 2 S116 703 279465 5631 0
16 2 S116 692 280157 6323 0
16 2 S116 681 280838 7004 0
0 0 0 682 281520 -7683 0
0 0 0 713 282233 -6970 0
0 0 0 736 282969 -6234 0
0 0 0 716 283685 -5518 0
0 0 0 718 284403 -4800 0
0 0 0 715 285118 -4085 0
0 0 0 723 285841 -3362 0
0 0 0 706 286547 -2656 0
17 1 S106 684 287231 -1972 0
17 1 S106 682 287913 -1290 0
17 1 S106 675 288588 -615 0
17 2 S106 679 289267 64 0
17 2 S106 672 289939 736 0
17 2 S106 686 290625 1422 0
17 2 S106 717 291342 2139 0
17 2 S106 752 292094 2891 0
17 2 S106 773 292867 3664 0
17 2 S106 776 293643 4440 0
17 2 S106 775 294418 5215 0
17 2 S106 763 295181 5978 0
17 2 S106 735 295916 6713 0
0 0 0 723 296639 -10733 0
0 0 0 713 297352 -10020 0
0 0 0 715 298067 -9305 0
0 0 0 703 298770 -8602 0
0 0 0 692 299462 -7910 0
0 0 0 686 300148 -7224 0
0 0 0 697 300845 -6527 0
0 0 0 686 301531 -5841 0
0 0 0 688 302219 -5153 0
0 0 0 701 302920 -4452 0
0 0 0 726 303646 -3726 0
0 0 0 739 304385 -2987 0
0 0 0 726 305111 -2261 0
18 1 S102 738 305849 -1523 0
18 1 S102 742 306591 -781 0
18 1 S102 733 307324 -48 0
18 2 S102 717 308041 669 0
18 2 S102 722 308763 1391 0
18 2 S102 711 309474 2102 0
18 2 S102 713 310187 2815 0
18 2 S102 705 310892 3520 0
18 2 S102 720 311612 4240 0
18 2 S102 725 312337 4965 0
18 2 S102 741 313078 5706 0
18 2 S102 732 313810 6438 0
0 0 0 718 314528 -7549 0
0 0 0 725 315253 -6824 0
0 0 0 746 315999 -6078 0
0 0 0 756 316755 -5322 0
0 0 0 760 317515 -4562 0
0 0 0 742 318257 -3820 0
0 0 0 726 318983 -3094 0
0 0 0 708 319691 -2386 0
19 1 S106 706 320397 -1680 0
19 1 S106 706 321103 -974 0
19 1 S106 704 321807 -270 0
19 2 S106 693 322500 423 0
19 2 S106 688 323188 1111 0
19 2 S106 706 323894 1817 0
19 2 S106 764 324658 2581 0
19 2 S106 849 325507 3430 0
19 2 S106 831 326338 4261 0
19 2 S106 797 327135 5058 0
19 2 S106 811 327946 5869 0
19 2 S106 793 328739 6662 0
0 0 0 777 329516 -10765 0
0 0 0 739 330255 -10026 0
0 0 0 740 330995 -9286 0
0 0 0 733 331728 -8553 0
0 0 0 712 332440 -7841 0
0 0 0 703 333143 -7138 0
0 0 0 698 333841 -6440 0
0 0 0 711 334552 -5729 0
0 0 0 716 335268 -5013 0
0 0 0 742 336010 -4271 0
0 0 0 764 336774 -3507 0
0 0 0 797 337571 -2710 0
20 1 S112 792 338363 -1918 0
20 1 S112 765 339128 -1153 0
20 1 S112 765 339893 -388 0
20 2 S112 765 340658 377 0
20 2 S112 757 341415 1134 0
20 2 S112 736 342151 1870 0
20 2 S112 720 342871 2590 0
20 2 S112 722 343593 3312 0
20 2 S112 737 344330 4049 0
20 2 S112 742 345072 4791 0
20 2 S112 743 345815 5534 0
20 2 S112 764 346579 6298 0
0 0 0 768 347347 -9827 0
0 0 0 762 348109 -9065 0
0 0 0 758 348867 -8307 0
0 0 0 769 349636 -7538 0
0 0 0 780 350416 -6758 0
0 0 0 736 351152 -6022 0
0 0 0 722 351874 -5300 0
0 0 0 717 352591 -4583 0
0 0 0 724 353315 -3859 0
0 0 0 713 354028 -3146 0
0 0 0 716 354744 -2430 0
21 1 S106 729 355473 -1701 0
21 1 S106 760 356233 -941 0
21 1 S106 746 356979 -195 0
21 2 S106 751 357730 556 0
21 2 S106 755 358485 1311 0
21 2 S106 758 359243 2069 0
21 2 S106 737 359980 2806 0
21 2 S106 708 360688 3514 0
21 2 S106 701 361389 4215 0
21 2 S106 690 362079 4905 0
21 2 S106 692 362771 5597 0
21 2 S106 717 363488 6314 0
0 0 0 726 364214 -11528 0
0 0 0 723 364937 -10805 0
0 0 0 772 365709 -10033 0
0 0 0 831 366540 -9202 0
0 0 0 834 367374 -8368 0
0 0 0 772 368146 -7596 0
0 0 0 771 368917 -6825 0
0 0 0 758 369675 -6067 0
0 0 0 745 370420 -5322 0
0 0 0 719 371139 -4603 0
0 0 0 708 371847 -3895 0
0 0 0 701 372548 -3194 0
0 0 0 694 373242 -2500 0
22 1 S116 678 373920 -1822 0
22 1 S116 692 374612 -1130 0
22 1 S116 708 375320 -422 0
22 2 S116 715 376035 293 0
22 2 S116 724 376759 1017 0
22 2 S116 732 377491 1749 0
22 2 S116 781 378272 2530 0
22 2 S116 802 379074 3332 0
22 2 S116 813 379887 4145 0
22 2 S116 755 380642 4900 0
22 2 S116 750 381392 5650 0
22 2 S116 726 382118 6376 0
0 0 0 734 382852 -9650 0
0 0 0 714 383566 -8936 0
0 0 0 746 384312 -8190 0
0 0 0 795 385107 -7395 0
0 0 0 839 385946 -6556 0
0 0 0 765 386711 -5791 0
0 0 0 744 387455 -5047 0
0 0 0 718 388173 -4329 0
0 0 0 699 388872 -3630 0
0 0 0 679 389551 -2951 0
0 0 0 670 390221 -2281 0
23 1 S112 670 390891 -1611 0
23 1 S112 683 391574 -928 0
23 1 S112 679 392253 -249 0
23 2 S112 669 392922 420 0
23 2 S112 672 393594 1092 0
23 2 S112 671 394265 1763 0
23 2 S112 670 394935 2433 0
23 2 S112 662 395597 3095 0
23 2 S112 650 396247 3745 0
23 2 S112 652 396899 4397 0
23 2 S112 653 397552 5050 0
23 2 S112 659 398211 5709 0
23 2 S112 668 398879 6377 0
0 0 0 678 399557 -8927 0
0 0 0 710 400267 -8217 0
0 0 0 789 401056 -7428 0
0 0 0 802 401858 -6626 0
0 0 0 795 402653 -5831 0
0 0 0 780 403433 -5051 0
0 0 0 768 404201 -4283 0
0 0 0 739 404940 -3544 0
0 0 0 732 405672 -2812 0
0 0 0 718 406390 -2094 0
24 1 S106 701 407091 -1393 0
24 1 S106 690 407781 -703 0
24 1 S106 696 408477 -7 0
24 2 S106 706 409183 699 0
24 2 S106 717 409900 1416 0
24 2 S106 706 410606 2122 0
24 2 S106 692 411298 2814 0
24 2 S106 642 411940 3456 0
24 2 S106 690 412630 4146 0
24 2 S106 682 413312 4828 0
24 2 S106 751 414063 5579 0
24 2 S106 809 414872 6388 0
0 0 0 799 415671 -8546 0
0 0 0 789 416460 -7757 0
0 0 0 745 417205 -7012 0
0 0 0 720 417925 -6292 0
0 0 0 704 418629 -5588 0
0 0 0 702 419331 -4886 0
0 0 0 702 420033 -4184 0
0 0 0 695 420728 -3489 0
0 0 0 698 421426 -2791 0
0 0 0 720 422146 -2071 0
25 1 S102 748 422894 -1323 0
25 1 S102 779 423673 -544 0
25 2 S102 762 424435 218 0
25 2 S102 767 425202 985 0
25 2 S102 745 425947 1730 0
25 2 S102 716 426663 2446 0
25 2 S102 717 427380 3163 0
25 2 S102 732 428112 3895 0
25 2 S102 761 428873 4656 0
25 2 S102 788 429661 5444 0
25 2 S102 777 430438 6221 0
25 2 S102 756 431194 6977 0
0 0 0 769 431963 -6445 0
0 0 0 781 432744 -5664 0
0 0 0 797 433541 -4867 0
0 0 0 749 434290 -4118 0
0 0 0 718 435008 -3400 0
0 0 0 731 435739 -2669 0
26 1 S116 716 436455 -1953 0
26 1 S116 718 437173 -1235 0
26 1 S116 707 437880 -528 0
26 2 S116 730 438610 202 0
26 2 S116 746 439356 948 0
26 2 S116 769 440125 1717 0
26 2 S116 763 440888 2480 0
26 2 S116 731 441619 3211 0
26 2 S116 736 442355 3947 0
26 2 S116 729 443084 4676 0
26 2 S116 738 443822 5414 0
26 2 S116 771 444593 6185 0
26 2 S116 749 445342 6934 0
0 0 0 752 446094 -6787 0
0 0 0 757 446851 -6030 0
0 0 0 777 447628 -5253 0
0 0 0 760 448388 -4493 0
0 0 0 745 449133 -3748 0
0 0 0 732 449865 -3016 0
0 0 0 700 450565 -2316 0
27 1 S106 697 451262 -1619 0
27 1 S106 694 451956 -925 0
27 1 S106 701 452657 -224 0
27 2 S106 705 453362 481 0
27 2 S106 694 454056 1175 0
27 2 S106 701 454757 1876 0
27 2 S106 719 455476 2595 0
27 2 S106 744 456220 3339 0
27 2 S106 770 456990 4109 0
27 2 S106 751 457741 4860 0
27 2 S106 761 458502 5621 0
27 2 S106 742 459244 6363 0
0 0 0 724 459968 -7734 0
0 0 0 706 460674 -7028 0
0 0 0 705 461379 -6323 0
0 0 0 719 462098 -5604 0
0 0 0 741 462839 -4863 0
0 0 0 746 463585 -4117 0
0 0 0 738 464323 -3379 0
0 0 0 729 465052 -2650 0
28 1 S102 726 465778 -1924 0
28 1 S102 744 466522 -1180 0
28 1 S102 764 467286 -416 0
28 2 S102 758 468044 342 0
28 2 S102 731 468775 1073 0
28 2 S102 738 469513 1811 0
28 2 S102 744 470257 2555 0
28 2 S102 740 470997 3295 0
28 2 S102 731 471728 4026 0
28 2 S102 715 472443 4741 0
28 2 S102 722 473165 5463 0
28 2 S102 725 473890 6188 0
28 2 S102 728 474618 6916 0
0 0 0 717 475335 -10935 0
0 0 0 728 476063 -10207 0
0 0 0 741 476804 -9466 0
0 0 0 759 477563 -8707 0
0 0 0 732 478295 -7975 0
0 0 0 721 479016 -7254 0
0 0 0 712 479728 -6542 0
0 0 0 723 480451 -5819 0
0 0 0 715 481166 -5104 0
0 0 0 718 481884 -4386 0
0 0 0 740 482624 -3646 0
0 0 0 774 483398 -2872 0
0 0 0 786 484184 -2086 0
29 1 S112 780 484964 -1306 0
29 1 S112 781 485745 -525 0
29 2 S112 775 486520 250 0
29 2 S112 757 487277 1007 0
29 2 S112 728 488005 1735 0
29 2 S112 726 488731 2461 0
29 2 S112 703 489434 3164 0
29 2 S112 705 490139 3869 0
29 2 S112 720 490859 4589 0
29 2 S112 738 491597 5327 0
29 2 S112 733 492330 6060 0
29 2 S112 746 493076 6806 0
0 0 0 817 493893 -7248 0
0 0 0 867 494760 -6381 0
0 0 0 831 495591 -5550 0
0 0 0 874 496465 -4676 0
0 0 0 814 497279 -3862 0
0 0 0 755 498034 -3107 0
0 0 0 727 498761 -2380 0
30 1 S112 702 499463 -1678 0
30 1 S112 684 500147 -994 0
30 1 S112 668 500815 -326 0
30 2 S112 670 501485 344 0
30 2 S112 695 502180 1039 0
30 2 S112 741 502921 1780 0
30 2 S112 817 503738 2597 0
30 2 S112 815 504553 3412 0
30 2 S112 848 505401 4260 0
30 2 S112 893 506294 5153 1
30 2 S112 847 507141 6000 0
30 2 S112 817 507958 6817 0
0 0 0 777 508735 -9166 0
0 0 0 758 509493 -8408 0
0 0 0 726 510219 -7682 0
0 0 0 741 510960 -6941 0
0 0 0 735 511695 -6206 0
0 0 0 718 512413 -5488 0
0 0 0 721 513134 -4767 0
0 0 0 736 513870 -4031 0
0 0 0 782 514652 -3249 0
0 0 0 790 515442 -2459 0
31 1 S106 756 516198 -1703 0
31 1 S106 773 516971 -930 0
31 1 S106 799 517770 -131 0
31 2 S106 786 518556 655 0
31 2 S106 773 519329 1428 0
31 2 S106 767 520096 2195 0
31 2 S106 765 520861 2960 0
31 2 S106 750 521611 3710 0
31 2 S106 726 522337 4436 0
31 2 S106 727 523064 5163 0
31 2 S106 725 523789 5888 0
31 2 S106 718 524507 6606 0
0 0 0 706 525213 -7957 0
0 0 0 717 525930 -7240 0
0 0 0 739 526669 -6501 0
0 0 0 747 527416 -5754 0
0 0 0 739 528155 -5015 0
0 0 0 730 528885 -4285 0
0 0 0 729 529614 -3556 0
0 0 0 752 530366 -2804 0
0 0 0 735 531101 -2069 0
32 1 S102 728 531829 -1341 0
32 1 S102 738 532567 -603 0
32 2 S102 770 533337 167 0
32 2 S102 770 534107 937 0
32 2 S102 730 534837 1667 0
32 2 S102 731 535568 2398 0
32 2 S102 715 536283 3113 0
32 2 S102 692 536975 3805 0
32 2 S102 691 537666 4496 0
32 2 S102 697 538363 5193 0
32 2 S102 723 539086 5916 0
32 2 S102 738 539824 6654 0
0 0 0 713 540537 -10438 0
0 0 0 737 541274 -9701 0
0 0 0 756 542030 -8945 0
0 0 0 761 542791 -8184 0
0 0 0 731 543522 -7453 0
0 0 0 716 544238 -6737 0
0 0 0 710 544948 -6027 0
0 0 0 709 545657 -5318 0
0 0 0 707 546364 -4611 0
0 0 0 696 547060 -3915 0
0 0 0 703 547763 -3212 0
0 0 0 711 548474 -2501 0
33 1 S112 723 549197 -1778 0
33 1 S112 717 549914 -1061 0
33 1 S112 715 550629 -346 0
33 2 S112 708 551337 362 0
33 2 S112 722 552059 1084 0
33 2 S112 740 552799 1824 0
33 2 S112 735 553534 2559 0
33 2 S112 764 554298 3323 0
33 2 S112 791 555089 4114 0
33 2 S112 791 555880 4905 0
33 2 S112 750 556630 5655 0
33 2 S112 743 557373 6398 0
0 0 0 743 558116 -12654 0
0 0 0 759 558875 -11895 0
0 0 0 741 559616 -11154 0
0 0 0 757 560373 -10397 0
0 0 0 767 561140 -9630 0
0 0 0 800 561940 -8830 0
0 0 0 738 562678 -8092 0
0 0 0 727 563405 -7365 0
0 0 0 713 564118 -6652 0
0 0 0 704 564822 -5948 0
0 0 0 711 565533 -5237 0
0 0 0 725 566258 -4512 0
0 0 0 741 566999 -3771 0
0 0 0 737 567736 -3034 0
0 0 0 756 568492 -2278 0
34 1 S106 775 569267 -1503 0
34 1 S106 782 570049 -721 0
34 2 S106 756 570805 35 0
34 2 S106 725 571530 760 0
34 2 S106 713 572243 1473 0
34 2 S106 710 572953 2183 0
34 2 S106 704 573657 2887 0
34 2 S106 700 574357 3587 0
34 2 S106 706 575063 4293 0
34 2 S106 709 575772 5002 0
34 2 S106 720 576492 5722 0
34 2 S106 726 577218 6448 0
0 0 0 743 577961 -8956 0
0 0 0 782 578743 -8174 0
0 0 0 808 579551 -7366 0
0 0 0 782 580333 -6584 0
0 0 0 760 581093 -5824 0
0 0 0 734 581827 -5090 0
0 0 0 705 582532 -4385 0
0 0 0 699 583231 -3686 0
0 0 0 695 583926 -2991 0
0 0 0 697 584623 -2294 0
35 1 S102 699 585322 -1595 0
35 1 S102 727 586049 -868 0
35 1 S102 737 586786 -131 0
35 2 S102 782 587568 651 0
35 2 S102 787 588355 1438 0
35 2 S102 791 589146 2229 0
35 2 S102 772 589918 3001 0
35 2 S102 743 590661 3744 0
35 2 S102 729 591390 4473 0
35 2 S102 701 592091 5174 0
35 2 S102 680 592771 5854 0
35 2 S102 673 593444 6527 0
0 0 0 674 594118 -6095 0
0 0 0 682 594800 -5413 0
0 0 0 704 595504 -4709 0
0 0 0 710 596214 -3999 0
0 0 0 696 596910 -3303 0
0 0 0 693 597603 -2610 0
36 1 S106 699 598302 -1911 0
36 1 S106 732 599034 -1179 0
36 1 S106 756 599790 -423 0
36 2 S106 743 600533 320 0
36 2 S106 709 601242 1029 0
36 2 S106 709 601951 1738 0
36 2 S106 713 602664 2451 0
36 2 S106 737 603401 3188 0
36 2 S106 781 604182 3969 0
36 2 S106 800 604982 4769 0
36 2 S106 816 605798 5585 0
36 2 S106 846 606644 6431 0
0 0 0 859 607503 -7995 0
0 0 0 826 608329 -7169 0
0 0 0 804 609133 -6365 0
0 0 0 788 609921 -5577 0
0 0 0 741 610662 -4836 0
0 0 0 722 611384 -4114 0
0 0 0 707 612091 -3407 0
0 0 0 694 612785 -2713 0
0 0 0 674 613459 -2039 0
37 1 S116 670 614129 -1369 0
37 1 S116 670 614799 -699 0
37 1 S116 669 615468 -30 0
37 2 S116 677 616145 647 0
37 2 S116 674 616819 1321 0
37 2 S116 687 617506 2008 0
37 2 S116 704 618210 2712 0
37 2 S116 733 618943 3445 0
37 2 S116 769 619712 4214 0
37 2 S116 747 620459 4961 0
37 2 S116 746 621205 5707 0
37 2 S116 735 621940 6442 0
0 0 0 736 622676 -10495 0
0 0 0 715 623391 -9780 0
0 0 0 719 624110 -9061 0
0 0 0 706 624816 -8355 0
0 0 0 703 625519 -7652 0
0 0 0 694 626213 -6958 0
0 0 0 709 626922 -6249 0
0 0 0 697 627619 -5552 0
0 0 0 702 628321 -4850 0
0 0 0 693 629014 -4157 0
0 0 0 696 629710 -3461 0
0 0 0 716 630426 -2745 0
38 1 S102 754 631180 -1991 0
38 1 S102 764 631944 -1227 0
38 1 S102 736 632680 -491 0
38 2 S102 724 633404 233 0
38 2 S102 722 634126 955 0
38 2 S102 703 634829 1658 0
38 2 S102 687 635516 2345 0
38 2 S102 670 636186 3015 0
38 2 S102 666 636852 3681 0
38 2 S102 662 637514 4343 0
38 2 S102 680 638194 5023 0
38 2 S102 721 638915 5744 0
38 2 S102 720 639635 6464 0
0 0 0 714 640349 -8837 0
0 0 0 764 641113 -8073 0
0 0 0 898 642011 -7175 1
0 0 0 898 642909 -6277 1
0 0 0 824 643733 -5453 0
0 0 0 801 644534 -4652 0
0 0 0 782 645316 -3870 0
0 0 0 753 646069 -3117 0
0 0 0 717 646786 -2400 0
39 1 S116 703 647489 -1697 0
39 1 S116 691 648180 -1006 0
39 1 S116 681 648861 -325 0
39 2 S116 694 649555 369 0
39 2 S116 694 650249 1063 0
39 2 S116 725 650974 1788 0
39 2 S116 759 651733 2547 0
39 2 S116 803 652536 3350 0
39 2 S116 838 653374 4188 0
39 2 S116 859 654233 5047 0
39 2 S116 860 655093 5907 0
39 2 S116 837 655930 6744 0
0 0 0 787 656717 -6627 0
0 0 0 787 657504 -5840 0
0 0 0 791 658295 -5049 0
0 0 0 762 659057 -4287 0
0 0 0 716 659773 -3571 0
0 0 0 705 660478 -2866 0
0 0 0 687 661165 -2179 0
40 1 S112 697 661862 -1482 0
40 1 S112 748 662610 -734 0
40 1 S112 732 663342 -2 0
40 2 S112 705 664047 703 0
40 2 S112 717 664764 1420 0
40 2 S112 796 665560 2216 0
40 2 S112 947 666507 3163 1
40 2 S112 969 667476 4132 1
40 2 S112 926 668402 5058 1
40 2 S112 874 669276 5932 0
40 2 S112 803 670079 6735 0
0 0 0 787 670866 -186826 0
0 0 0 780 671646 -186046 0
0 0 0 764 672410 -185282 0
0 0 0 745 673155 -184537 0
0 0 0 737 673892 -183800 0
0 0 0 715 674607 -183085 0
0 0 0 691 675298 -182394 0
0 0 0 683 675981 -181711 0
0 0 0 682 676663 -181029 0
0 0 0 694 677357 -180335 0
0 0 0 703 678060 -179632 0
0 0 0 691 678751 -178941 0
0 0 0 652 679403 -178289 0
0 0 0 668 680071 -177621 0
0 0 0 627 680698 -176994 0
0 0 0 639 681337 -176355 0
0 0 0 634 681971 -175721 0
0 0 0 616 682587 -175105 0
0 0 0 609 683196 -174496 0
0 0 0 593 683789 -173903 1
0 0 0 576 684365 -173327 1
0 0 0 579 684944 -172748 1
0 0 0 586 685530 -172162 1
0 0 0 569 686099 -171593 1
0 0 0 562 686661 -171031 1
0 0 0 563 687224 -170468 1
0 0 0 568 687792 -169900 1
0 0 0 556 688348 -169344 1
0 0 0 565 688913 -168779 1
0 0 0 546 689459 -168233 1
0 0 0 546 690005 -167687 1
0 0 0 545 690550 -167142 1
0 0 0 546 691096 -166596 1
0 0 0 543 691639 -166053 1
0 0 0 551 692190 -165502 1
0 0 0 574 692764 -164928 1
0 0 0 685 693449 -164243 0
0 0 0 733 694182 -163510 0
0 0 0 669 694851 -162841 0
0 0 0 639 695490 -162202 0
0 0 0 704 696194 -161498 0
0 0 0 776 696970 -160722 0
0 0 0 779 697749 -159943 0
0 0 0 732 698481 -159211 0
0 0 0 672 699153 -158539 0
0 0 0 676 699829 -157863 0
0 0 0 665 700494 -157198 0
0 0 0 642 701136 -156556 0
0 0 0 624 701760 -155932 0
0 0 0 613 702373 -155319 0
0 0 0 602 702975 -154717 0
0 0 0 589 703564 -154128 1
0 0 0 598 704162 -153530 0
0 0 0 590 704752 -152940 1
0 0 0 588 705340 -152352 1
0 0 0 591 705931 -151761 1
0 0 0 648 706579 -151113 0
0 0 0 633 707212 -150480 0
0 0 0 627 707839 -149853 0
0 0 0 623 708462 -149230 0
0 0 0 618 709080 -148612 0
0 0 0 608 709688 -148004 0
0 0 0 620 710308 -147384 0
0 0 0 623 710931 -146761 0
0 0 0 680 711611 -146081 0
0 0 0 711 712322 -145370 0
0 0 0 700 713022 -144670 0
0 0 0 679 713701 -143991 0
0 0 0 667 714368 -143324 0
0 0 0 676 715044 -142648 0
0 0 0 661 715705 -141987 0
0 0 0 645 716350 -141342 0
0 0 0 631 716981 -140711 0
0 0 0 618 717599 -140093 0
0 0 0 629 718228 -139464 0
0 0 0 644 718872 -138820 0
0 0 0 664 719536 -138156 0
0 0 0 669 720205 -137487 0
0 0 0 666 720871 -136821 0
0 0 0 667 721538 -136154 0
0 0 0 669 722207 -135485 0
0 0 0 686 722893 -134799 0
0 0 0 708 723601 -134091 0
0 0 0 722 724323 -133369 0
0 0 0 712 725035 -132657 0
0 0 0 704 725739 -131953 0
0 0 0 686 726425 -131267 0
0 0 0 669 727094 -130598 0
0 0 0 646 727740 -129952 0
0 0 0 642 728382 -129310 0
0 0 0 652 729034 -128658 0
0 0 0 647 729681 -128011 0
0 0 0 648 730329 -127363 0
0 0 0 676 731005 -126687 0
0 0 0 709 731714 -125978 0
0 0 0 757 732471 -125221 0
0 0 0 758 733229 -124463 0
0 0 0 737 733966 -123726 0
0 0 0 728 734694 -122998 0
0 0 0 715 735409 -122283 0
0 0 0 706 736115 -121577 0
0 0 0 699 736814 -120878 0
0 0 0 700 737514 -120178 0
0 0 0 710 738224 -119468 0
0 0 0 717 738941 -118751 0
0 0 0 701 739642 -118050 0
0 0 0 688 740330 -117362 0
0 0 0 692 741022 -116670 0
0 0 0 719 741741 -115951 0
0 0 0 752 742493 -115199 0
0 0 0 771 743264 -114428 0
0 0 0 753 744017 -113675 0
0 0 0 723 744740 -112952 0
0 0 0 714 745454 -112238 0
0 0 0 700 746154 -111538 0
0 0 0 683 746837 -110855 0
0 0 0 676 747513 -110179 0
0 0 0 688 748201 -109491 0
0 0 0 709 748910 -108782 0
0 0 0 726 749636 -108056 0
0 0 0 721 750357 -107335 0
0 0 0 752 751109 -106583 0
0 0 0 767 751876 -105816 0
0 0 0 752 752628 -105064 0
0 0 0 712 753340 -104352 0
0 0 0 694 754034 -103658 0
0 0 0 681 754715 -102977 0
0 0 0 676 755391 -102301 0
0 0 0 684 756075 -101617 0
0 0 0 711 756786 -100906 0
0 0 0 692 757478 -100214 0
0 0 0 691 758169 -99523 0
0 0 0 701 758870 -98822 0
0 0 0 732 759602 -98090 0
0 0 0 765 760367 -97325 0
0 0 0 736 761103 -96589 0
0 0 0 706 761809 -95883 0
0 0 0 711 762520 -95172 0
0 0 0 697 763217 -94475 0
0 0 0 750 763967 -93725 0
0 0 0 771 764738 -92954 0
0 0 0 748 765486 -92206 0
0 0 0 726 766212 -91480 0
0 0 0 677 766889 -90803 0
0 0 0 692 767581 -90111 0
0 0 0 658 768239 -89453 0
0 0 0 652 768891 -88801 0
0 0 0 675 769566 -88126 0
0 0 0 693 770259 -87433 0
0 0 0 698 770957 -86735 0
0 0 0 718 771675 -86017 0
0 0 0 686 772361 -85331 0
0 0 0 679 773040 -84652 0
0 0 0 674 773714 -83978 0
0 0 0 723 774437 -83255 0
0 0 0 883 775320 -82372 1
0 0 0 919 776239 -81453 1
0 0 0 871 777110 -80582 0
0 0 0 824 777934 -79758 0
0 0 0 780 778714 -78978 0
0 0 0 719 779433 -78259 0
0 0 0 704 780137 -77555 0
0 0 0 701 780838 -76854 0
0 0 0 700 781538 -76154 0
0 0 0 716 782254 -75438 0
0 0 0 745 782999 -74693 0
0 0 0 798 783797 -73895 0
0 0 0 843 784640 -73052 0
0 0 0 864 785504 -72188 0
0 0 0 845 786349 -71343 0
0 0 0 835 787184 -70508 0
0 0 0 812 787996 -69696 0
0 0 0 783 788779 -68913 0
0 0 0 766 789545 -68147 0
0 0 0 731 790276 -67416 0
0 0 0 715 790991 -66701 0
0 0 0 695 791686 -66006 0
0 0 0 675 792361 -65331 0
0 0 0 678 793039 -64653 0
0 0 0 688 793727 -63965 0
0 0 0 680 794407 -63285 0
0 0 0 698 795105 -62587 0
0 0 0 766 795871 -61821 0
0 0 0 813 796684 -61008 0
0 0 0 805 797489 -60203 0
0 0 0 738 798227 -59465 0
0 0 0 701 798928 -58764 0
0 0 0 670 799598 -58094 0
0 0 0 656 800254 -57438 0
0 0 0 645 800899 -56793 0
0 0 0 638 801537 -56155 0
0 0 0 645 802182 -55510 0
0 0 0 655 802837 -54855 0
0 0 0 657 803494 -54198 0
0 0 0 676 804170 -53522 0
0 0 0 681 804851 -52841 0
0 0 0 686 805537 -52155 0
0 0 0 681 806218 -51474 0
0 0 0 672 806890 -50802 0
0 0 0 662 807552 -50140 0
0 0 0 627 808179 -49513 0
0 0 0 645 808824 -48868 0
0 0 0 631 809455 -48237 0
0 0 0 628 810083 -47609 0
0 0 0 639 810722 -46970 0
0 0 0 629 811351 -46341 0
0 0 0 621 811972 -45720 0
0 0 0 607 812579 -45113 0
0 0 0 626 813205 -44487 0
0 0 0 624 813829 -43863 0
0 0 0 624 814453 -43239 0
0 0 0 626 815079 -42613 0
0 0 0 618 815697 -41995 0
0 0 0 614 816311 -41381 0
0 0 0 611 816922 -40770 0
0 0 0 609 817531 -40161 0
0 0 0 616 818147 -39545 0
0 0 0 627 818774 -38918 0
0 0 0 641 819415 -38277 0
0 0 0 647 820062 -37630 0
0 0 0 671 820733 -36959 0
0 0 0 672 821405 -36287 0
0 0 0 695 822100 -35592 0
0 0 0 699 822799 -34893 0
0 0 0 718 823517 -34175 0
0 0 0 704 824221 -33471 0
0 0 0 697 824918 -32774 0
0 0 0 677 825595 -32097 0
0 0 0 669 826264 -31428 0
0 0 0 650 826914 -30778 0
0 0 0 638 827552 -30140 0
0 0 0 629 828181 -29511 0
0 0 0 623 828804 -28888 0
0 0 0 635 829439 -28253 0
0 0 0 644 830083 -27609 0
0 0 0 663 830746 -26946 0
0 0 0 706 831452 -26240 0
0 0 0 768 832220 -25472 0
0 0 0 759 832979 -24713 0
0 0 0 767 833746 -23946 0
0 0 0 757 834503 -23189 0
0 0 0 750 835253 -22439 0
0 0 0 748 836001 -21691 0
0 0 0 730 836731 -20961 0
0 0 0 709 837440 -20252 0
0 0 0 688 838128 -19564 0
0 0 0 673 838801 -18891 0
0 0 0 656 839457 -18235 0
0 0 0 647 840104 -17588 0
0 0 0 633 840737 -16955 0
0 0 0 642 841379 -16313 0
0 0 0 664 842043 -15649 0
0 0 0 708 842751 -14941 0
0 0 0 772 843523 -14169 0
0 0 0 776 844299 -13393 0
0 0 0 771 845070 -12622 0
0 0 0 772 845842 -11850 0
0 0 0 760 846602 -11090 0
0 0 0 730 847332 -10360 0
0 0 0 730 848062 -9630 0
0 0 0 719 848781 -8911 0
0 0 0 701 849482 -8210 0
0 0 0 692 850174 -7518 0
0 0 0 692 850866 -6826 0
0 0 0 694 851560 -6132 0
0 0 0 694 852254 -5438 0
0 0 0 688 852942 -4750 0
0 0 0 692 853634 -4058 0
0 0 0 687 854321 -3371 0
0 0 0 685 855006 -2686 0
0 0 0 668 855674 -2018 0
41 1 S102 675 856349 -1343 0
41 1 S102 682 857031 -661 0
41 2 S102 685 857716 24 0
41 2 S102 681 858397 705 0
41 2 S102 699 859096 1404 0
41 2 S102 724 859820 2128 0
41 2 S102 750 860570 2878 0
41 2 S102 749 861319 3627 0
41 2 S102 724 862043 4351 0
41 2 S102 740 862783 5091 0
41 2 S102 751 863534 5842 0
41 2 S102 772 864306 6614 0
0 0 0 792 865098 -7200 0
0 0 0 786 865884 -6414 0
0 0 0 759 866643 -5655 0
0 0 0 779 867422 -4876 0
0 0 0 754 868176 -4122 0
0 0 0 740 868916 -3382 0
0 0 0 715 869631 -2667 0
42 1 S112 707 870338 -1960 0
42 1 S112 711 871049 -1249 0
42 1 S112 742 871791 -507 0
42 2 S112 816 872607 309 0
42 2 S112 847 873454 1156 0
42 2 S112 850 874304 2006 0
42 2 S112 832 875136 2838 0
42 2 S112 827 875963 3665 0
42 2 S112 815 876778 4480 0
42 2 S112 789 877567 5269 0
42 2 S112 770 878337 6039 0
42 2 S112 744 879081 6783 0
0 0 0 750 879831 -8548 0
0 0 0 757 880588 -7791 0
0 0 0 799 881387 -6992 0
0 0 0 788 882175 -6204 0
0 0 0 749 882924 -5455 0
0 0 0 761 883685 -4694 0
0 0 0 766 884451 -3928 0
0 0 0 784 885235 -3144 0
0 0 0 784 886019 -2360 0
43 1 S116 741 886760 -1619 0
43 1 S116 751 887511 -868 0
43 1 S116 748 888259 -120 0
43 2 S116 733 888992 613 0
43 2 S116 726 889718 1339 0
43 2 S116 721 890439 2060 0
43 2 S116 739 891178 2799 0
43 2 S116 755 891933 3554 0
43 2 S116 800 892733 4354 0
43 2 S116 817 893550 5171 0
43 2 S116 790 894340 5961 0
43 2 S116 781 895121 6742 0
0 0 0 777 895898 -7501 0
0 0 0 764 896662 -6737 0
0 0 0 760 897422 -5977 0
0 0 0 751 898173 -5226 0
0 0 0 741 898914 -4485 0
0 0 0 721 899635 -3764 0
0 0 0 708 900343 -3056 0
0 0 0 701 901044 -2355 0
44 1 S102 706 901750 -1649 0
44 1 S102 729 902479 -920 0
44 1 S102 768 903247 -152 0
44 2 S102 763 904010 611 0
44 2 S102 740 904750 1351 0
44 2 S102 749 905499 2100 0
44 2 S102 772 906271 2872 0
44 2 S102 778 907049 3650 0
44 2 S102 753 907802 4403 0
44 2 S102 730 908532 5133 0
44 2 S102 724 909256 5857 0
44 2 S102 725 909981 6582 0
0 0 0 724 910705 -7929 0
0 0 0 712 911417 -7217 0
0 0 0 721 912138 -6496 0
0 0 0 715 912853 -5781 0
0 0 0 711 913564 -5070 0
0 0 0 695 914259 -4375 0
0 0 0 718 914977 -3657 0
0 0 0 725 915702 -2932 0
0 0 0 761 916463 -2171 0
45 1 S116 742 917205 -1429 0
45 1 S116 743 917948 -686 0
45 2 S116 746 918694 60 0
45 2 S116 757 919451 817 0
45 2 S116 760 920211 1577 0
45 2 S116 735 920946 2312 0
45 2 S116 739 921685 3051 0
45 2 S116 737 922422 3788 0
45 2 S116 740 923162 4528 0
45 2 S116 729 923891 5257 0
45 2 S116 720 924611 5977 0
45 2 S116 729 925340 6706 0
0 0 0 747 926087 -11596 0
0 0 0 770 926857 -10826 0
0 0 0 759 927616 -10067 0
0 0 0 784 928400 -9283 0
0 0 0 784 929184 -8499 0
0 0 0 761 929945 -7738 0
0 0 0 729 930674 -7009 0
0 0 0 719 931393 -6290 0
0 0 0 723 932116 -5567 0
0 0 0 736 932852 -4831 0
0 0 0 724 933576 -4107 0
0 0 0 759 934335 -3348 0
0 0 0 767 935102 -2581 0
46 1 S102 766 935868 -1815 0
46 1 S102 737 936605 -1078 0
46 1 S102 732 937337 -346 0
46 2 S102 725 938062 379 0
46 2 S102 737 938799 1116 0
46 2 S102 732 939531 1848 0
46 2 S102 710 940241 2558 0
46 2 S102 712 940953 3270 0
46 2 S102 712 941665 3982 0
46 2 S102 725 942390 4707 0
46 2 S102 715 943105 5422 0
46 2 S102 702 943807 6124 0
46 2 S102 714 944521 6838 0
0 0 0 742 945263 -9330 0
0 0 0 802 946065 -8528 0
0 0 0 781 946846 -7747 0
0 0 0 826 947672 -6921 0
0 0 0 787 948459 -6134 0
0 0 0 742 949201 -5392 0
0 0 0 725 949926 -4667 0
0 0 0 716 950642 -3951 0
0 0 0 707 951349 -3244 0
0 0 0 687 952036 -2557 0
47 1 S112 692 952728 -1865 0
47 1 S112 708 953436 -1157 0
47 1 S112 737 954173 -420 0
47 2 S112 759 954932 339 0
47 2 S112 770 955702 1109 0
47 2 S112 837 956539 1946 0
47 2 S112 852 957391 2798 0
47 2 S112 849 958240 3647 0
47 2 S112 800 959040 4447 0
47 2 S112 763 959803 5210 0
47 2 S112 721 960524 5931 0
47 2 S112 660 961184 6591 0
0 0 0 674 961858 -10623 0
0 0 0 649 962507 -9974 0
0 0 0 664 963171 -9310 0
0 0 0 703 963874 -8607 0
0 0 0 693 964567 -7914 0
0 0 0 710 965277 -7204 0
0 0 0 743 966020 -6461 0
0 0 0 807 966827 -5654 0
0 0 0 799 967626 -4855 0
0 0 0 793 968419 -4062 0
0 0 0 839 969258 -3223 0
0 0 0 830 970088 -2393 0
48 1 S116 779 970867 -1614 0
48 1 S116 753 971620 -861 0
48 1 S116 751 972371 -110 0
48 2 S116 758 973129 648 0
48 2 S116 741 973870 1389 0
48 2 S116 706 974576 2095 0
48 2 S116 698 975274 2793 0
48 2 S116 690 975964 3483 0
48 2 S116 696 976660 4179 0
48 2 S116 710 977370 4889 0
48 2 S116 716 978086 5605 0
48 2 S116 781 978867 6386 0
0 0 0 850 979717 -7071 0
0 0 0 899 980616 -6172 1
0 0 0 855 981471 -5317 0
0 0 0 865 982336 -4452 0
0 0 0 835 983171 -3617 0
0 0 0 837 984008 -2780 0
0 0 0 775 984783 -2005 0
49 1 S112 765 985548 -1240 0
49 1 S112 770 986318 -470 0
49 2 S112 784 987102 314 0
49 2 S112 799 987901 1113 0
49 2 S112 789 988690 1902 0
49 2 S112 775 989465 2677 0
49 2 S112 792 990257 3469 0
49 2 S112 854 991111 4323 0
49 2 S112 859 991970 5182 0
49 2 S112 832 992802 6014 0
49 2 S112 840 993642 6854 0
0 0 0 836 994478 -11408 0
0 0 0 813 995291 -10595 0
0 0 0 790 996081 -9805 0
0 0 0 788 996869 -9017 0
0 0 0 755 997624 -8262 0
0 0 0 718 998342 -7544 0
0 0 0 721 999063 -6823 0
0 0 0 729 999792 -6094 0
0 0 0 766 1000558 -5328 0
0 0 0 776 1001334 -4552 0
0 0 0 776 1002110 -3776 0
0 0 0 803 1002913 -2973 0
0 0 0 807 1003720 -2166 0
50 1 S106 777 1004497 -1389 0
50 1 S106 773 1005270 -616 0
50 2 S106 773 1006043 157 0
50 2 S106 765 1006808 922 0
50 2 S106 740 1007548 1662 0
50 2 S106 744 1008292 2406 0
50 2 S106 753 1009045 3159 0
50 2 S106 767 1009812 3926 0
50 2 S106 780 1010592 4706 0
50 2 S106 762 1011354 5468 0
50 2 S106 760 1012114 6228 0
50 2 S106 778 1012892 7006 0
0 0 0 800 1013692 -5324 0
0 0 0 806 1014498 -4518 0
0 0 0 753 1015251 -3765 0
0 0 0 775 1016026 -2990 0
0 0 0 763 1016789 -2227 0
51 1 S112 777 1017566 -1450 0
51 1 S112 755 1018321 -695 0
51 2 S112 761 1019082 66 0
51 2 S112 758 1019840 824 0
51 2 S112 802 1020642 1626 0
51 2 S112 797 1021439 2423 0
51 2 S112 811 1022250 3234 0
51 2 S112 853 1023103 4087 0
51 2 S112 876 1023979 4963 0
51 2 S112 799 1024778 5762 0
51 2 S112 802 1025580 6564 0
0 0 0 766 1026346 -6447 0
0 0 0 764 1027110 -5683 0
0 0 0 755 1027865 -4928 0
0 0 0 754 1028619 -4174 0
0 0 0 747 1029366 -3427 0
0 0 0 733 1030099 -2694 0
52 1 S116 764 1030863 -1930 0
52 1 S116 792 1031655 -1138 0
52 1 S116 823 1032478 -315 0
52 2 S116 810 1033288 495 0
52 2 S116 759 1034047 1254 0
52 2 S116 765 1034812 2019 0
52 2 S116 781 1035593 2800 0
52 2 S116 801 1036394 3601 0
52 2 S116 787 1037181 4388 0
52 2 S116 764 1037945 5152 0
52 2 S116 741 1038686 5893 0
52 2 S116 734 1039420 6627 0
0 0 0 741 1040161 -8895 0
0 0 0 764 1040925 -8131 0
0 0 0 755 1041680 -7376 0
0 0 0 774 1042454 -6602 0
0 0 0 768 1043222 -5834 0
0 0 0 749 1043971 -5085 0
0 0 0 758 1044729 -4327 0
0 0 0 748 1045477 -3579 0
0 0 0 739 1046216 -2840 0
0 0 0 728 1046944 -2112 0
53 1 S106 730 1047674 -1382 0
53 1 S106 758 1048432 -624 0
53 2 S106 782 1049214 158 0
53 2 S106 786 1050000 944 0
53 2 S106 749 1050749 1693 0
53 2 S106 733 1051482 2426 0
53 2 S106 723 1052205 3149 0
53 2 S106 730 1052935 3879 0
53 2 S106 735 1053670 4614 0
53 2 S106 736 1054406 5350 0
53 2 S106 738 1055144 6088 0
53 2 S106 749 1055893 6837 0
0 0 0 759 1056652 -5617 0
0 0 0 773 1057425 -4844 0
0 0 0 739 1058164 -4105 0
0 0 0 746 1058910 -3359 0
0 0 0 747 1059657 -2612 0
54 1 S102 765 1060422 -1847 0
54 1 S102 768 1061190 -1079 0
54 1 S102 747 1061937 -332 0
54 2 S102 755 1062692 423 0
54 2 S102 770 1063462 1193 0
54 2 S102 783 1064245 1976 0
54 2 S102 775 1065020 2751 0
54 2 S102 760 1065780 3511 0
54 2 S102 755 1066535 4266 0
54 2 S102 763 1067298 5029 0
54 2 S102 765 1068063 5794 0
54 2 S102 739 1068802 6533 0
0 0 0 731 1069533 -10044 0
0 0 0 736 1070269 -9308 0
0 0 0 755 1071024 -8553 0
0 0 0 756 1071780 -7797 0
0 0 0 741 1072521 -7056 0
0 0 0 753 1073274 -6303 0
0 0 0 753 1074027 -5550 0
0 0 0 750 1074777 -4800 0
0 0 0 732 1075509 -4068 0
0 0 0 727 1076236 -3341 0
0 0 0 728 1076964 -2613 0
55 1 S106 732 1077696 -1881 0
55 1 S106 756 1078452 -1125 0
55 1 S106 757 1079209 -368 0
55 2 S106 781 1079990 413 0
55 2 S106 857 1080847 1270 0
55 2 S106 850 1081697 2120 0
55 2 S106 824 1082521 2944 0
55 2 S106 789 1083310 3733 0
55 2 S106 804 1084114 4537 0
55 2 S106 805 1084919 5342 0
55 2 S106 782 1085701 6124 0
55 2 S106 758 1086459 6882 0
0 0 0 736 1087195 -6209 0
0 0 0 737 1087932 -5472 0
0 0 0 743 1088675 -4729 0
0 0 0 741 1089416 -3988 0
0 0 0 735 1090151 -3253 0
0 0 0 739 1090890 -2514 0
56 1 S116 730 1091620 -1784 0
56 1 S116 718 1092338 -1066 0
56 1 S116 697 1093035 -369 0
56 2 S116 703 1093738 334 0
56 2 S116 710 1094448 1044 0
56 2 S116 720 1095168 1764 0
56 2 S116 712 1095880 2476 0
56 2 S116 708 1096588 3184 0
56 2 S116 715 1097303 3899 0
56 2 S116 734 1098037 4633 0
56 2 S116 735 1098772 5368 0
56 2 S116 723 1099495 6091 0
56 2 S116 730 1100225 6821 0
0 0 0 737 1100962 -7229 0
0 0 0 741 1101703 -6488 0
0 0 0 741 1102444 -5747 0
0 0 0 740 1103184 -5007 0
0 0 0 737 1103921 -4270 0
0 0 0 733 1104654 -3537 0
0 0 0 714 1105368 -2823 0
0 0 0 711 1106079 -2112 0
57 1 S106 711 1106790 -1401 0
57 1 S106 719 1107509 -682 0
57 2 S106 729 1108238 47 0
57 2 S106 723 1108961 770 0
57 2 S106 727 1109688 1497 0
57 2 S106 729 1110417 2226 0
57 2 S106 730 1111147 2956 0
57 2 S106 733 1111880 3689 0
57 2 S106 723 1112603 4412 0
57 2 S106 712 1113315 5124 0
57 2 S106 709 1114024 5833 0
57 2 S106 714 1114738 6547 0
0 0 0 723 1115461 -8646 0
0 0 0 708 1116169 -7938 0
0 0 0 724 1116893 -7214 0
0 0 0 722 1117615 -6492 0
0 0 0 718 1118333 -5774 0
0 0 0 701 1119034 -5073 0
0 0 0 707 1119741 -4366 0
0 0 0 696 1120437 -3670 0
0 0 0 699 1121136 -2971 0
0 0 0 713 1121849 -2258 0
58 1 S102 702 1122551 -1556 0
58 1 S102 713 1123264 -843 0
58 1 S102 718 1123982 -125 0
58 2 S102 754 1124736 629 0
58 2 S102 784 1125520 1413 0
58 2 S102 796 1126316 2209 0
58 2 S102 796 1127112 3005 0
58 2 S102 799 1127911 3804 0
58 2 S102 763 1128674 4567 0
58 2 S102 749 1129423 5316 0
58 2 S102 732 1130155 6048 0
58 2 S102 712 1130867 6760 0
0 0 0 693 1131560 -6307 0
0 0 0 693 1132253 -5614 0
0 0 0 696 1132949 -4918 0
0 0 0 704 1133653 -4214 0
0 0 0 695 1134348 -3519 0
0 0 0 691 1135039 -2828 0
0 0 0 698 1135737 -2130 0
59 1 S112 738 1136475 -1392 0
59 1 S112 794 1137269 -598 0
59 2 S112 786 1138055 188 0
59 2 S112 777 1138832 965 0
59 2 S112 784 1139616 1749 0
59 2 S112 778 1140394 2527 0
59 2 S112 751 1141145 3278 0
59 2 S112 747 1141892 4025 0
59 2 S112 712 1142604 4737 0
59 2 S112 686 1143290 5423 0
59 2 S112 671 1143961 6094 0
59 2 S112 652 1144613 6746 0
0 0 0 645 1145258 -9867 0
0 0 0 643 1145901 -9224 0
0 0 0 666 1146567 -8558 0
0 0 0 677 1147244 -7881 0
0 0 0 655 1147899 -7226 0
0 0 0 677 1148576 -6549 0
0 0 0 663 1149239 -5886 0
0 0 0 650 1149889 -5236 0
0 0 0 646 1150535 -4590 0
0 0 0 637 1151172 -3953 0
0 0 0 648 1151820 -3305 0
0 0 0 674 1152494 -2631 0
60 1 S102 706 1153200 -1925 0
60 1 S102 715 1153915 -1210 0
60 1 S102 697 1154612 -513 0
60 2 S102 686 1155298 173 0
60 2 S102 678 1155976 851 0
60 2 S102 664 1156640 1515 0
60 2 S102 661 1157301 2176 0
60 2 S102 652 1157953 2828 0
60 2 S102 651 1158604 3479 0
60 2 S102 653 1159257 4132 0
60 2 S102 653 1159910 4785 0
60 2 S102 660 1160570 5445 0
60 2 S102 680 1161250 6125 0
60 2 S102 696 1161946 6821 0
0 0 0 731 1162677 -10054 0
0 0 0 754 1163431 -9300 0
0 0 0 762 1164193 -8538 0
0 0 0 724 1164917 -7814 0
0 0 0 716 1165633 -7098 0
0 0 0 716 1166349 -6382 0
0 0 0 715 1167064 -5667 0
0 0 0 731 1167795 -4936 0
0 0 0 736 1168531 -4200 0
0 0 0 754 1169285 -3446 0
0 0 0 765 1170050 -2681 0
61 1 S106 767 1170817 -1914 0
61 1 S106 737 1171554 -1177 0
61 1 S106 742 1172296 -435 0
61 2 S106 730 1173026 295 0
61 2 S106 728 1173754 1023 0
61 2 S106 713 1174467 1736 0
61 2 S106 720 1175187 2456 0
61 2 S106 740 1175927 3196 0
61 2 S106 791 1176718 3987 0
61 2 S106 850 1177568 4837 0
61 2 S106 854 1178422 5691 0
61 2 S106 821 1179243 6512 0
0 0 0 800 1180043 -5984 0
0 0 0 801 1180844 -5183 0
0 0 0 785 1181629 -4398 0
0 0 0 738 1182367 -3660 0
0 0 0 734 1183101 -2926 0
0 0 0 726 1183827 -2200 0
62 1 S112 735 1184562 -1465 0
62 1 S112 730 1185292 -735 0
62 1 S112 725 1186017 -10 0
62 2 S112 738 1186755 728 0
62 2 S112 785 1187540 1513 0
62 2 S112 787 1188327 2300 0
62 2 S112 762 1189089 3062 0
62 2 S112 786 1189875 3848 0
62 2 S112 785 1190660 4633 0
62 2 S112 771 1191431 5404 0
62 2 S112 732 1192163 6136 0
62 2 S112 727 1192890 6863 0
0 0 0 723 1193613 -10484 0
0 0 0 725 1194338 -9759 0
0 0 0 719 1195057 -9040 0
0 0 0 722 1195779 -8318 0
0 0 0 722 1196501 -7596 0
0 0 0 703 1197204 -6893 0
0 0 0 705 1197909 -6188 0
0 0 0 721 1198630 -5467 0
0 0 0 787 1199417 -4680 0
0 0 0 824 1200241 -3856 0
0 0 0 806 1201047 -3050 0
0 0 0 805 1201852 -2245 0
63 1 S102 782 1202634 -1463 0
63 1 S102 750 1203384 -713 0
63 2 S102 738 1204122 25 0
63 2 S102 730 1204852 755 0
63 2 S102 730 1205582 1485 0
63 2 S102 719 1206301 2204 0
63 2 S102 706 1207007 2910 0
63 2 S102 704 1207711 3614 0
63 2 S102 720 1208431 4334 0
63 2 S102 729 1209160 5063 0
63 2 S102 719 1209879 5782 0
63 2 S102 726 1210605 6508 0
0 0 0 743 1211348 -8118 0
0 0 0 777 1212125 -7341 0
0 0 0 777 1212902 -6564 0
0 0 0 745 1213647 -5819 0
0 0 0 745 1214392 -5074 0
0 0 0 758 1215150 -4316 0
0 0 0 744 1215894 -3572 0
0 0 0 722 1216616 -2850 0
0 0 0 730 1217346 -2120 0
64 1 S112 737 1218083 -1383 0
64 1 S112 758 1218841 -625 0
64 2 S112 755 1219596 130 0
64 2 S112 764 1220360 894 0
64 2 S112 784 1221144 1678 0
64 2 S112 760 1221904 2438 0
64 2 S112 714 1222618 3152 0
64 2 S112 684 1223302 3836 0
64 2 S112 634 1223936 4470 0
64 2 S112 639 1224575 5109 0
64 2 S112 621 1225196 5730 0
64 2 S112 650 1225846 6380 0
0 0 0 653 1226499 -6959 0
0 0 0 784 1227283 -6175 0
0 0 0 842 1228125 -5333 0
0 0 0 830 1228955 -4503 0
0 0 0 807 1229762 -3696 0
0 0 0 748 1230510 -2948 0
0 0 0 713 1231223 -2235 0
65 1 S106 688 1231911 -1547 0
65 1 S106 663 1232574 -884 0
65 1 S106 652 1233226 -232 0
65 2 S106 656 1233882 424 0
65 2 S106 681 1234563 1105 0
65 2 S106 668 1235231 1773 0
65 2 S106 656 1235887 2429 0
65 2 S106 657 1236544 3086 0
65 2 S106 671 1237215 3757 0
65 2 S106 730 1237945 4487 0
65 2 S106 778 1238723 5265 0
65 2 S106 799 1239522 6064 0
65 2 S106 815 1240337 6879 0
0 0 0 779 1241116 -5870 0
0 0 0 792 1241908 -5078 0
0 0 0 779 1242687 -4299 0
0 0 0 762 1243449 -3537 0
0 0 0 753 1244202 -2784 0
0 0 0 732 1244934 -2052 0
66 1 S116 715 1245649 -1337 0
66 1 S116 713 1246362 -624 0
66 2 S116 717 1247079 93 0
66 2 S116 762 1247841 855 0
66 2 S116 812 1248653 1667 0
66 2 S116 831 1249484 2498 0
66 2 S116 842 1250326 3340 0
66 2 S116 831 1251157 4171 0
66 2 S116 805 1251962 4976 0
66 2 S116 756 1252718 5732 0
66 2 S116 712 1253430 6444 0
0 0 0 679 1254109 -11196 0
0 0 0 672 1254781 -10524 0
0 0 0 677 1255458 -9847 0
0 0 0 796 1256254 -9051 0
0 0 0 857 1257111 -8194 0
0 0 0 815 1257926 -7379 0
0 0 0 772 1258698 -6607 0
0 0 0 784 1259482 -5823 0
0 0 0 912 1260394 -4911 1
0 0 0 930 1261324 -3981 1
0 0 0 872 1262196 -3109 0
0 0 0 819 1263015 -2290 0
67 1 S102 789 1263804 -1501 0
67 1 S102 770 1264574 -731 0
67 1 S102 729 1265303 -2 0
67 2 S102 723 1266026 721 0
67 2 S102 723 1266749 1444 0
67 2 S102 723 1267472 2167 0
67 2 S102 726 1268198 2893 0
67 2 S102 735 1268933 3628 0
67 2 S102 741 1269674 4369 0
67 2 S102 745 1270419 5114 0
67 2 S102 737 1271156 5851 0
67 2 S102 728 1271884 6579 0
0 0 0 737 1272621 -6626 0
0 0 0 740 1273361 -5886 0
0 0 0 756 1274117 -5130 0
0 0 0 732 1274849 -4398 0
0 0 0 729 1275578 -3669 0
0 0 0 729 1276307 -2940 0
0 0 0 743 1277050 -2197 0
68 1 S106 769 1277819 -1428 0
68 1 S106 743 1278562 -685 0
68 2 S106 743 1279305 58 0
68 2 S106 722 1280027 780 0
68 2 S106 722 1280749 1502 0
68 2 S106 712 1281461 2214 0
68 2 S106 724 1282185 2938 0
68 2 S106 750 1282935 3688 0
68 2 S106 768 1283703 4456 0
68 2 S106 776 1284479 5232 0
68 2 S106 770 1285249 6002 0
68 2 S106 791 1286040 6793 0
0 0 0 786 1286826 -10094 0
0 0 0 783 1287609 -9311 0
0 0 0 760 1288369 -8551 0
0 0 0 748 1289117 -7803 0
0 0 0 729 1289846 -7074 0
0 0 0 713 1290559 -6361 0
0 0 0 703 1291262 -5658 0
0 0 0 713 1291975 -4945 0
0 0 0 722 1292697 -4223 0
0 0 0 747 1293444 -3476 0
0 0 0 748 1294192 -2728 0
69 1 S102 765 1294957 -1963 0
69 1 S102 775 1295732 -1188 0
69 1 S102 770 1296502 -418 0
69 2 S102 747 1297249 329 0
69 2 S102 746 1297995 1075 0
69 2 S102 737 1298732 1812 0
69 2 S102 732 1299464 2544 0
69 2 S102 709 1300173 3253 0
69 2 S102 701 1300874 3954 0
69 2 S102 694 1301568 4648 0
69 2 S102 685 1302253 5333 0
69 2 S102 690 1302943 6023 0
69 2 S102 697 1303640 6720 0
0 0 0 729 1304369 -9544 0
0 0 0 766 1305135 -8778 0
0 0 0 830 1305965 -7948 0
0 0 0 858 1306823 -7090 0
0 0 0 843 1307666 -6247 0
0 0 0 783 1308449 -5464 0
0 0 0 747 1309196 -4717 0
0 0 0 734 1309930 -3983 0
0 0 0 734 1310664 -3249 0
0 0 0 719 1311383 -2530 0
70 1 S112 698 1312081 -1832 0
70 1 S112 700 1312781 -1132 0
70 1 S112 698 1313479 -434 0
70 2 S112 713 1314192 279 0
70 2 S112 747 1314939 1026 0
70 2 S112 770 1315709 1796 0
70 2 S112 791 1316500 2587 0
70 2 S112 816 1317316 3403 0
70 2 S112 827 1318143 4230 0
70 2 S112 772 1318915 5002 0
70 2 S112 751 1319666 5753 0
70 2 S112 728 1320394 6481 0
0 0 0 721 1321115 -11631 0
0 0 0 711 1321826 -10920 0
0 0 0 732 1322558 -10188 0
0 0 0 762 1323320 -9426 0
0 0 0 783 1324103 -8643 0
0 0 0 773 1324876 -7870 0
0 0 0 769 1325645 -7101 0
0 0 0 758 1326403 -6343 0
0 0 0 759 1327162 -5584 0
0 0 0 761 1327923 -4823 0
0 0 0 754 1328677 -4069 0
0 0 0 733 1329410 -3336 0
0 0 0 726 1330136 -2610 0
71 1 S116 717 1330853 -1893 0
71 1 S116 706 1331559 -1187 0
71 1 S116 690 1332249 -497 0
71 2 S116 689 1332938 192 0
71 2 S116 699 1333637 891 0
71 2 S116 750 1334387 1641 0
71 2 S116 780 1335167 2421 0
71 2 S116 780 1335947 3201 0
71 2 S116 782 1336729 3983 0
71 2 S116 794 1337523 4777 0
71 2 S116 772 1338295 5549 0
71 2 S116 734 1339029 6283 0
71 2 S116 707 1339736 6990 0
0 0 0 702 1340438 -8986 0
0 0 0 695 1341133 -8291 0
0 0 0 700 1341833 -7591 0
0 0 0 684 1342517 -6907 0
0 0 0 672 1343189 -6235 0
0 0 0 638 1343827 -5597 0
0 0 0 648 1344475 -4949 0
0 0 0 686 1345161 -4263 0
0 0 0 707 1345868 -3556 0
0 0 0 754 1346622 -2802 0
0 0 0 754 1347376 -2048 0
72 1 S102 761 1348137 -1287 0
72 1 S102 753 1348890 -534 0
72 2 S102 727 1349617 193 0
72 2 S102 716 1350333 909 0
72 2 S102 702 1351035 1611 0
72 2 S102 678 1351713 2289 0
72 2 S102 671 1352384 2960 0
72 2 S102 664 1353048 3624 0
72 2 S102 657 1353705 4281 0
72 2 S102 648 1354353 4929 0
72 2 S102 636 1354989 5565 0
72 2 S102 634 1355623 6199 0
72 2 S102 658 1356281 6857 0
0 0 0 695 1356976 -5976 0
0 0 0 727 1357703 -5249 0
0 0 0 775 1358478 -4474 0
0 0 0 785 1359263 -3689 0
0 0 0 794 1360057 -2895 0
0 0 0 764 1360821 -2131 0
73 1 S116 755 1361576 -1376 0
73 1 S116 722 1362298 -654 0
73 2 S116 695 1362993 41 0
73 2 S116 662 1363655 703 0
73 2 S116 663 1364318 1366 0
73 2 S116 705 1365023 2071 0
73 2 S116 794 1365817 2865 0
73 2 S116 939 1366756 3804 1
73 2 S116 908 1367664 4712 1
73 2 S116 868 1368532 5580 0
73 2 S116 939 1369471 6519 1
0 0 0 940 1370411 -9301 1
0 0 0 893 1371304 -8408 1
0 0 0 865 1372169 -7543 0
0 0 0 830 1372999 -6713 0
0 0 0 774 1373773 -5939 0
0 0 0 735 1374508 -5204 0
0 0 0 718 1375226 -4486 0
0 0 0 716 1375942 -3770 0
0 0 0 733 1376675 -3037 0
0 0 0 755 1377430 -2282 0
74 1 S106 764 1378194 -1518 0
74 1 S106 746 1378940 -772 0
74 1 S106 728 1379668 -44 0
74 2 S106 729 1380397 685 0
74 2 S106 734 1381131 1419 0
74 2 S106 758 1381889 2177 0
74 2 S106 779 1382668 2956 0
74 2 S106 769 1383437 3725 0
74 2 S106 770 1384207 4495 0
74 2 S106 758 1384965 5253 0
74 2 S106 756 1385721 6009 0
74 2 S106 726 1386447 6735 0
0 0 0 705 1387152 -5674 0
0 0 0 693 1387845 -4981 0
0 0 0 682 1388527 -4299 0
0 0 0 673 1389200 -3626 0
0 0 0 677 1389877 -2949 0
0 0 0 698 1390575 -2251 0
75 1 S112 749 1391324 -1502 0
75 1 S112 847 1392171 -655 0
75 2 S112 860 1393031 205 0
75 2 S112 799 1393830 1004 0
75 2 S112 822 1394652 1826 0
75 2 S112 836 1395488 2662 0
75 2 S112 836 1396324 3498 0
75 2 S112 788 1397112 4286 0
75 2 S112 770 1397882 5056 0
75 2 S112 728 1398610 5784 0
75 2 S112 689 1399299 6473 0
0 0 0 671 1399970 -7760 0
0 0 0 654 1400624 -7106 0
0 0 0 671 1401295 -6435 0
0 0 0 789 1402084 -5646 0
0 0 0 865 1402949 -4781 0
0 0 0 826 1403775 -3955 0
0 0 0 833 1404608 -3122 0
0 0 0 850 1405458 -2272 0
76 1 S116 799 1406257 -1473 0
76 1 S116 793 1407050 -680 0
76 2 S116 799 1407849 119 0
76 2 S116 770 1408619 889 0
76 2 S116 792 1409411 1681 0
76 2 S116 809 1410220 2490 0
76 2 S116 790 1411010 3280 0
76 2 S116 757 1411767 4037 0
76 2 S116 746 1412513 4783 0
76 2 S116 747 1413260 5530 0
76 2 S116 762 1414022 6292 0
0 0 0 757 1414779 -7822 0
0 0 0 744 1415523 -7078 0
0 0 0 726 1416249 -6352 0
0 0 0 738 1416987 -5614 0
0 0 0 761 1417748 -4853 0
0 0 0 767 1418515 -4086 0
0 0 0 770 1419285 -3316 0
0 0 0 758 1420043 -2558 0
77 1 S106 768 1420811 -1790 0
77 1 S106 780 1421591 -1010 0
77 1 S106 787 1422378 -223 0
77 2 S106 766 1423144 543 0
77 2 S106 741 1423885 1284 0
77 2 S106 759 1424644 2043 0
77 2 S106 784 1425428 2827 0
77 2 S106 811 1426239 3638 0
77 2 S106 802 1427041 4440 0
77 2 S106 803 1427844 5243 0
77 2 S106 798 1428642 6041 0
77 2 S106 805 1429447 6846 0
0 0 0 781 1430228 -8023 0
0 0 0 795 1431023 -7228 0
0 0 0 776 1431799 -6452 0
0 0 0 735 1432534 -5717 0
0 0 0 718 1433252 -4999 0
0 0 0 717 1433969 -4282 0
0 0 0 728 1434697 -3554 0
0 0 0 740 1435437 -2814 0
0 0 0 739 1436176 -2075 0
78 1 S112 750 1436926 -1325 0
78 1 S112 771 1437697 -554 0
78 2 S112 806 1438503 252 0
78 2 S112 809 1439312 1061 0
78 2 S112 802 1440114 1863 0
78 2 S112 790 1440904 2653 0
78 2 S112 773 1441677 3426 0
78 2 S112 739 1442416 4165 0
78 2 S112 722 1443138 4887 0
78 2 S112 703 1443841 5590 0
78 2 S112 697 1444538 6287 0
78 2 S112 694 1445232 6981 0
0 0 0 719 1445951 -9939 0
0 0 0 755 1446706 -9184 0
0 0 0 787 1447493 -8397 0
0 0 0 754 1448247 -7643 0
0 0 0 741 1448988 -6902 0
0 0 0 754 1449742 -6148 0
0 0 0 772 1450514 -5376 0
0 0 0 765 1451279 -4611 0
0 0 0 762 1452041 -3849 0
0 0 0 779 1452820 -3070 0
0 0 0 769 1453589 -2301 0
79 1 S102 743 1454332 -1558 0
79 1 S102 732 1455064 -826 0
79 1 S102 730 1455794 -96 0
79 2 S102 735 1456529 639 0
79 2 S102 742 1457271 1381 0
79 2 S102 725 1457996 2106 0
79 2 S102 741 1458737 2847 0
79 2 S102 755 1459492 3602 0
79 2 S102 776 1460268 4378 0
79 2 S102 767 1461035 5145 0
79 2 S102 760 1461795 5905 0
79 2 S102 766 1462561 6671 0
0 0 0 785 1463346 -7896 0
0 0 0 806 1464152 -7090 0
0 0 0 752 1464904 -6338 0
0 0 0 748 1465652 -5590 0
0 0 0 726 1466378 -4864 0
0 0 0 719 1467097 -4145 0
0 0 0 698 1467795 -3447 0
0 0 0 688 1468483 -2759 0
0 0 0 720 1469203 -2039 0
80 1 S116 826 1470029 -1213 0
80 1 S116 870 1470899 -343 0
80 2 S116 856 1471755 513 0
80 2 S116 949 1472704 1462 1
80 2 S116 945 1473649 2407 1
80 2 S116 937 1474586 3344 1
80 2 S116 836 1475422 4180 0
80 2 S116 807 1476229 4987 0
80 2 S116 788 1477017 5775 0
80 2 S116 782 1477799 6557 0
