T_0074
BeatCount Mean SD BeatCountNoOutliers MeanNoOutliers SDNoOutliers
2038 762,515210991168 81,5732246578475 2012 760,466699801193 73,6089224001707

Trial TrialStatus Trialtype IBI AbsPosition RelPosition Outlier
0 0 0 729 797 -15402 0
0 0 0 711 1508 -14691 0
0 0 0 684 2192 -14007 0
0 0 0 665 2857 -13342 0
0 0 0 683 3540 -12659 0
0 0 0 708 4248 -11951 0
0 0 0 765 5013 -11186 0
0 0 0 739 5752 -10447 0
0 0 0 742 6494 -9705 0
0 0 0 678 7172 -9027 0
0 0 0 658 7830 -8369 0
0 0 0 655 8485 -7714 0
0 0 0 719 9204 -6995 0
0 0 0 819 10023 -6176 0
0 0 0 869 10892 -5307 0
0 0 0 892 11784 -4415 0
0 0 0 887 12671 -3528 0
0 0 0 862 13533 -2666 0
1 1 S112 793 14326 -1873 0
1 1 S112 754 15080 -1119 0
1 1 S112 731 15811 -388 0
1 2 S112 722 16533 334 0
1 2 S112 722 17255 1056 0
1 2 S112 819 18074 1875 0
1 2 S112 821 18895 2696 0
1 2 S112 809 19704 3505 0
1 2 S112 814 20518 4319 0
1 2 S112 803 21321 5122 0
1 2 S112 761 22082 5883 0
1 2 S112 761 22843 6644 0
0 0 0 776 23619 -11794 0
0 0 0 791 24410 -11003 0
0 0 0 775 25185 -10228 0
0 0 0 733 25918 -9495 0
0 0 0 761 26679 -8734 0
0 0 0 787 27466 -7947 0
0 0 0 854 28320 -7093 0
0 0 0 795 29115 -6298 0
0 0 0 760 29875 -5538 0
0 0 0 737 30612 -4801 0
0 0 0 750 31362 -4051 0
0 0 0 793 32155 -3258 0
0 0 0 795 32950 -2463 0
2 1 S102 770 33720 -1693 0
2 1 S102 717 34437 -976 0
2 1 S102 695 35132 -281 0
2 2 S102 673 35805 392 0
2 2 S102 679 36484 1071 0
2 2 S102 758 37242 1829 0
2 2 S102 846 38088 2675 0
2 2 S102 849 38937 3524 0
2 2 S102 852 39789 4376 0
2 2 S102 888 40677 5264 0
2 2 S102 835 41512 6099 0
2 2 S102 806 42318 6905 0
0 0 0 793 43111 -9063 0
0 0 0 732 43843 -8331 0
0 0 0 737 44580 -7594 0
0 0 0 712 45292 -6882 0
0 0 0 656 45948 -6226 0
0 0 0 659 46607 -5567 0
0 0 0 670 47277 -4897 0
0 0 0 721 47998 -4176 0
0 0 0 845 48843 -3331 0
0 0 0 934 49777 -2397 0
3 1 S116 817 50594 -1580 0
3 1 S116 828 51422 -752 0
3 2 S116 814 52236 62 0
3 2 S116 725 52961 787 0
3 2 S116 680 53641 1467 0
3 2 S116 665 54306 2132 0
3 2 S116 740 55046 2872 0
3 2 S116 802 55848 3674 0
3 2 S116 823 56671 4497 0
3 2 S116 718 57389 5215 0
3 2 S116 674 58063 5889 0
3 2 S116 669 58732 6558 0
0 0 0 682 59414 -12538 0
0 0 0 730 60144 -11808 0
0 0 0 878 61022 -10930 0
0 0 0 802 61824 -10128 0
0 0 0 741 62565 -9387 0
0 0 0 769 63334 -8618 0
0 0 0 778 64112 -7840 0
0 0 0 856 64968 -6984 0
0 0 0 787 65755 -6197 0
0 0 0 720 66475 -5477 0
0 0 0 706 67181 -4771 0
0 0 0 708 67889 -4063 0
0 0 0 737 68626 -3326 0
0 0 0 745 69371 -2581 0
4 1 S106 781 70152 -1800 0
4 1 S106 802 70954 -998 0
4 1 S106 762 71716 -236 0
4 2 S106 736 72452 500 0
4 2 S106 754 73206 1254 0
4 2 S106 795 74001 2049 0
4 2 S106 809 74810 2858 0
4 2 S106 836 75646 3694 0
4 2 S106 807 76453 4501 0
4 2 S106 817 77270 5318 0
4 2 S106 740 78010 6058 0
4 2 S106 712 78722 6770 0
0 0 0 741 79463 -7409 0
0 0 0 785 80248 -6624 0
0 0 0 774 81022 -5850 0
0 0 0 793 81815 -5057 0
0 0 0 737 82552 -4320 0
0 0 0 675 83227 -3645 0
0 0 0 670 83897 -2975 0
0 0 0 658 84555 -2317 0
5 1 S116 689 85244 -1628 0
5 1 S116 794 86038 -834 0
5 2 S116 867 86905 33 0
5 2 S116 807 87712 840 0
5 2 S116 789 88501 1629 0
5 2 S116 755 89256 2384 0
5 2 S116 741 89997 3125 0
5 2 S116 779 90776 3904 0
5 2 S116 807 91583 4711 0
5 2 S116 839 92422 5550 0
5 2 S116 763 93185 6313 0
0 0 0 718 93903 -9797 0
0 0 0 702 94605 -9095 0
0 0 0 721 95326 -8374 0
0 0 0 769 96095 -7605 0
0 0 0 806 96901 -6799 0
0 0 0 746 97647 -6053 0
0 0 0 734 98381 -5319 0
0 0 0 758 99139 -4561 0
0 0 0 778 99917 -3783 0
0 0 0 776 100693 -3007 0
0 0 0 772 101465 -2235 0
6 1 S106 718 102183 -1517 0
6 1 S106 701 102884 -816 0
6 1 S106 666 103550 -150 0
6 2 S106 662 104212 512 0
6 2 S106 669 104881 1181 0
6 2 S106 719 105600 1900 0
6 2 S106 803 106403 2703 0
6 2 S106 851 107254 3554 0
6 2 S106 771 108025 4325 0
6 2 S106 756 108781 5081 0
6 2 S106 797 109578 5878 0
6 2 S106 832 110410 6710 0
0 0 0 819 111229 -10309 0
0 0 0 759 111988 -9550 0
0 0 0 727 112715 -8823 0
0 0 0 707 113422 -8116 0
0 0 0 713 114135 -7403 0
0 0 0 702 114837 -6701 0
0 0 0 702 115539 -5999 0
0 0 0 669 116208 -5330 0
0 0 0 652 116860 -4678 0
0 0 0 670 117530 -4008 0
0 0 0 676 118206 -3332 0
0 0 0 706 118912 -2626 0
7 1 S102 807 119719 -1819 0
7 1 S102 760 120479 -1059 0
7 1 S102 722 121201 -337 0
7 2 S102 756 121957 419 0
7 2 S102 775 122732 1194 0
7 2 S102 856 123588 2050 0
7 2 S102 839 124427 2889 0
7 2 S102 726 125153 3615 0
7 2 S102 694 125847 4309 0
7 2 S102 725 126572 5034 0
7 2 S102 735 127307 5769 0
7 2 S102 790 128097 6559 0
0 0 0 738 128835 -8618 0
0 0 0 705 129540 -7913 0
0 0 0 736 130276 -7177 0
0 0 0 735 131011 -6442 0
0 0 0 726 131737 -5716 0
0 0 0 693 132430 -5023 0
0 0 0 675 133105 -4348 0
0 0 0 716 133821 -3632 0
0 0 0 735 134556 -2897 0
0 0 0 826 135382 -2071 0
8 1 S112 751 136133 -1320 0
8 1 S112 680 136813 -640 0
8 2 S112 646 137459 6 0
8 2 S112 617 138076 623 0
8 2 S112 598 138674 1221 0
8 2 S112 601 139275 1822 0
8 2 S112 629 139904 2451 0
8 2 S112 721 140625 3172 0
8 2 S112 815 141440 3987 0
8 2 S112 850 142290 4837 0
8 2 S112 839 143129 5676 0
8 2 S112 788 143917 6464 0
0 0 0 808 144725 -6488 0
0 0 0 795 145520 -5693 0
0 0 0 786 146306 -4907 0
0 0 0 706 147012 -4201 0
0 0 0 660 147672 -3541 0
0 0 0 658 148330 -2883 0
0 0 0 675 149005 -2208 0
9 1 S116 731 149736 -1477 0
9 1 S116 815 150551 -662 0
9 2 S116 801 151352 139 0
9 2 S116 756 152108 895 0
9 2 S116 776 152884 1671 0
9 2 S116 854 153738 2525 0
9 2 S116 827 154565 3352 0
9 2 S116 796 155361 4148 0
9 2 S116 744 156105 4892 0
9 2 S116 727 156832 5619 0
9 2 S116 752 157584 6371 0
0 0 0 744 158328 -11652 0
0 0 0 744 159072 -10908 0
0 0 0 704 159776 -10204 0
0 0 0 678 160454 -9526 0
0 0 0 691 161145 -8835 0
0 0 0 691 161836 -8144 0
0 0 0 715 162551 -7429 0
0 0 0 736 163287 -6693 0
0 0 0 732 164019 -5961 0
0 0 0 784 164803 -5177 0
0 0 0 797 165600 -4380 0
0 0 0 793 166393 -3587 0
0 0 0 808 167201 -2779 0
0 0 0 729 167930 -2050 0
10 1 S102 741 168671 -1309 0
10 1 S102 753 169424 -556 0
10 2 S102 737 170161 181 0
10 2 S102 719 170880 900 0
10 2 S102 711 171591 1611 0
10 2 S102 736 172327 2347 0
10 2 S102 787 173114 3134 0
10 2 S102 842 173956 3976 0
10 2 S102 806 174762 4782 0
10 2 S102 756 175518 5538 0
10 2 S102 769 176287 6307 0
0 0 0 779 177066 -12709 0
0 0 0 775 177841 -11934 0
0 0 0 759 178600 -11175 0
0 0 0 721 179321 -10454 0
0 0 0 779 180100 -9675 0
0 0 0 773 180873 -8902 0
0 0 0 758 181631 -8144 0
0 0 0 694 182325 -7450 0
0 0 0 667 182992 -6783 0
0 0 0 661 183653 -6122 0
0 0 0 673 184326 -5449 0
0 0 0 702 185028 -4747 0
0 0 0 707 185735 -4040 0
0 0 0 713 186448 -3327 0
0 0 0 768 187216 -2559 0
11 1 S112 787 188003 -1772 0
11 1 S112 852 188855 -920 0
11 1 S112 793 189648 -127 0
11 2 S112 764 190412 637 0
11 2 S112 781 191193 1418 0
11 2 S112 819 192012 2237 0
11 2 S112 828 192840 3065 0
11 2 S112 769 193609 3834 0
11 2 S112 730 194339 4564 0
11 2 S112 739 195078 5303 0
11 2 S112 707 195785 6010 0
11 2 S112 706 196491 6716 0
0 0 0 707 197198 -6536 0
0 0 0 755 197953 -5781 0
0 0 0 756 198709 -5025 0
0 0 0 753 199462 -4272 0
0 0 0 716 200178 -3556 0
0 0 0 718 200896 -2838 0
0 0 0 777 201673 -2061 0
12 1 S116 881 202554 -1180 0
12 1 S116 863 203417 -317 0
12 2 S116 788 204205 471 0
12 2 S116 737 204942 1208 0
12 2 S116 758 205700 1966 0
12 2 S116 808 206508 2774 0
12 2 S116 811 207319 3585 0
12 2 S116 811 208130 4396 0
12 2 S116 778 208908 5174 0
12 2 S116 729 209637 5903 0
12 2 S116 719 210356 6622 0
0 0 0 771 211127 -10909 0
0 0 0 830 211957 -10079 0
0 0 0 861 212818 -9218 0
0 0 0 759 213577 -8459 0
0 0 0 702 214279 -7757 0
0 0 0 720 214999 -7037 0
0 0 0 734 215733 -6303 0
0 0 0 834 216567 -5469 0
0 0 0 808 217375 -4661 0
0 0 0 725 218100 -3936 0
0 0 0 719 218819 -3217 0
0 0 0 737 219556 -2480 0
13 1 S112 731 220287 -1749 0
13 1 S112 735 221022 -1014 0
13 1 S112 709 221731 -305 0
13 2 S112 697 222428 392 0
13 2 S112 723 223151 1115 0
13 2 S112 801 223952 1916 0
13 2 S112 831 224783 2747 0
13 2 S112 788 225571 3535 0
13 2 S112 735 226306 4270 0
13 2 S112 757 227063 5027 0
13 2 S112 816 227879 5843 0
13 2 S112 832 228711 6675 0
0 0 0 771 229482 -11321 0
0 0 0 715 230197 -10606 0
0 0 0 718 230915 -9888 0
0 0 0 709 231624 -9179 0
0 0 0 705 232329 -8474 0
0 0 0 663 232992 -7811 0
0 0 0 633 233625 -7178 0
0 0 0 619 234244 -6559 0
0 0 0 608 234852 -5951 0
0 0 0 609 235461 -5342 0
0 0 0 608 236069 -4734 0
0 0 0 639 236708 -4095 0
0 0 0 693 237401 -3402 0
0 0 0 865 238266 -2537 0
14 1 S106 871 239137 -1666 0
14 1 S106 765 239902 -901 0
14 1 S106 702 240604 -199 0
14 2 S106 707 241311 508 0
14 2 S106 711 242022 1219 0
14 2 S106 739 242761 1958 0
14 2 S106 731 243492 2689 0
14 2 S106 740 244232 3429 0
14 2 S106 696 244928 4125 0
14 2 S106 695 245623 4820 0
14 2 S106 723 246346 5543 0
14 2 S106 774 247120 6317 0
0 0 0 813 247933 -10808 0
0 0 0 852 248785 -9956 0
0 0 0 775 249560 -9181 0
0 0 0 726 250286 -8455 0
0 0 0 715 251001 -7740 0
0 0 0 713 251714 -7027 0
0 0 0 725 252439 -6302 0
0 0 0 725 253164 -5577 0
0 0 0 722 253886 -4855 0
0 0 0 706 254592 -4149 0
0 0 0 710 255302 -3439 0
0 0 0 722 256024 -2717 0
15 1 S116 753 256777 -1964 0
15 1 S116 779 257556 -1185 0
15 1 S116 746 258302 -439 0
15 2 S116 698 259000 259 0
15 2 S116 706 259706 965 0
15 2 S116 744 260450 1709 0
15 2 S116 825 261275 2534 0
15 2 S116 863 262138 3397 0
15 2 S116 832 262970 4229 0
15 2 S116 819 263789 5048 0
15 2 S116 765 264554 5813 0
15 2 S116 734 265288 6547 0
0 0 0 745 266033 -9402 0
0 0 0 757 266790 -8645 0
0 0 0 781 267571 -7864 0
0 0 0 735 268306 -7129 0
0 0 0 682 268988 -6447 0
0 0 0 685 269673 -5762 0
0 0 0 666 270339 -5096 0
0 0 0 721 271060 -4375 0
0 0 0 788 271848 -3587 0
0 0 0 779 272627 -2808 0
16 1 S116 817 273444 -1991 0
16 1 S116 873 274317 -1118 0
16 1 S116 841 275158 -277 0
16 2 S116 805 275963 528 0
16 2 S116 755 276718 1283 0
16 2 S116 798 277516 2081 0
16 2 S116 798 278314 2879 0
16 2 S116 806 279120 3685 0
16 2 S116 751 279871 4436 0
16 2 S116 716 280587 5152 0
16 2 S116 767 281354 5919 0
16 2 S116 821 282175 6740 0
0 0 0 834 283009 -8457 0
0 0 0 756 283765 -7701 0
0 0 0 744 284509 -6957 0
0 0 0 784 285293 -6173 0
0 0 0 836 286129 -5337 0
0 0 0 868 286997 -4469 0
0 0 0 797 287794 -3672 0
0 0 0 750 288544 -2922 0
0 0 0 775 289319 -2147 0
17 1 S106 789 290108 -1358 0
17 1 S106 785 290893 -573 0
17 2 S106 753 291646 180 0
17 2 S106 729 292375 909 0
17 2 S106 767 293142 1676 0
17 2 S106 783 293925 2459 0
17 2 S106 772 294697 3231 0
17 2 S106 754 295451 3985 0
17 2 S106 738 296189 4723 0
17 2 S106 781 296970 5504 0
17 2 S106 851 297821 6355 0
0 0 0 877 298698 -13110 0
0 0 0 793 299491 -12317 0
0 0 0 801 300292 -11516 0
0 0 0 800 301092 -10716 0
0 0 0 801 301893 -9915 0
0 0 0 766 302659 -9149 0
0 0 0 775 303434 -8374 0
0 0 0 734 304168 -7640 0
0 0 0 678 304846 -6962 0
0 0 0 671 305517 -6291 0
0 0 0 665 306182 -5626 0
0 0 0 747 306929 -4879 0
0 0 0 895 307824 -3984 0
0 0 0 896 308720 -3088 0
0 0 0 803 309523 -2285 0
18 1 S102 820 310343 -1465 0
18 1 S102 809 311152 -656 0
18 2 S102 786 311938 130 0
18 2 S102 732 312670 862 0
18 2 S102 733 313403 1595 0
18 2 S102 741 314144 2336 0
18 2 S102 731 314875 3067 0
18 2 S102 736 315611 3803 0
18 2 S102 734 316345 4537 0
18 2 S102 698 317043 5235 0
18 2 S102 682 317725 5917 0
18 2 S102 703 318428 6620 0
0 0 0 725 319153 -7244 0
0 0 0 819 319972 -6425 0
0 0 0 768 320740 -5657 0
0 0 0 744 321484 -4913 0
0 0 0 729 322213 -4184 0
0 0 0 672 322885 -3512 0
0 0 0 650 323535 -2862 0
0 0 0 637 324172 -2225 0
19 1 S106 640 324812 -1585 0
19 1 S106 630 325442 -955 0
19 1 S106 635 326077 -320 0
19 2 S106 685 326762 365 0
19 2 S106 943 327705 1308 0
19 2 S106 848 328553 2156 0
19 2 S106 816 329369 2972 0
19 2 S106 779 330148 3751 0
19 2 S106 794 330942 4545 0
19 2 S106 815 331757 5360 0
19 2 S106 823 332580 6183 0
19 2 S106 810 333390 6993 0
0 0 0 776 334166 -10053 0
0 0 0 800 334966 -9253 0
0 0 0 800 335766 -8453 0
0 0 0 797 336563 -7656 0
0 0 0 758 337321 -6898 0
0 0 0 762 338083 -6136 0
0 0 0 758 338841 -5378 0
0 0 0 780 339621 -4598 0
0 0 0 865 340486 -3733 0
0 0 0 868 341354 -2865 0
0 0 0 837 342191 -2028 0
20 1 S112 879 343070 -1149 0
20 1 S112 906 343976 -243 0
20 2 S112 878 344854 635 0
20 2 S112 850 345704 1485 0
20 2 S112 863 346567 2348 0
20 2 S112 847 347414 3195 0
20 2 S112 821 348235 4016 0
20 2 S112 811 349046 4827 0
20 2 S112 859 349905 5686 0
20 2 S112 883 350788 6569 0
0 0 0 880 351668 -9129 0
0 0 0 829 352497 -8300 0
0 0 0 777 353274 -7523 0
0 0 0 776 354050 -6747 0
0 0 0 747 354797 -6000 0
0 0 0 785 355582 -5215 0
0 0 0 795 356377 -4420 0
0 0 0 877 357254 -3543 0
0 0 0 866 358120 -2677 0
21 1 S106 890 359010 -1787 0
21 1 S106 869 359879 -918 0
21 1 S106 836 360715 -82 0
21 2 S106 870 361585 788 0
21 2 S106 856 362441 1644 0
21 2 S106 845 363286 2489 0
21 2 S106 795 364081 3284 0
21 2 S106 760 364841 4044 0
21 2 S106 719 365560 4763 0
21 2 S106 700 366260 5463 0
21 2 S106 716 366976 6179 0
21 2 S106 721 367697 6900 0
0 0 0 696 368393 -9646 0
0 0 0 647 369040 -8999 0
0 0 0 632 369672 -8367 0
0 0 0 619 370291 -7748 0
0 0 0 626 370917 -7122 0
0 0 0 653 371570 -6469 0
0 0 0 726 372296 -5743 0
0 0 0 773 373069 -4970 0
0 0 0 783 373852 -4187 0
0 0 0 718 374570 -3469 0
0 0 0 696 375266 -2773 0
0 0 0 711 375977 -2062 0
22 1 S116 716 376693 -1346 0
22 1 S116 718 377411 -628 0
22 2 S116 727 378138 99 0
22 2 S116 731 378869 830 0
22 2 S116 731 379600 1561 0
22 2 S116 749 380349 2310 0
22 2 S116 757 381106 3067 0
22 2 S116 827 381933 3894 0
22 2 S116 828 382761 4722 0
22 2 S116 830 383591 5552 0
22 2 S116 803 384394 6355 0
0 0 0 746 385140 -9825 0
0 0 0 773 385913 -9052 0
0 0 0 789 386702 -8263 0
0 0 0 872 387574 -7391 0
0 0 0 858 388432 -6533 0
0 0 0 772 389204 -5761 0
0 0 0 715 389919 -5046 0
0 0 0 677 390596 -4369 0
0 0 0 648 391244 -3721 0
0 0 0 631 391875 -3090 0
0 0 0 619 392494 -2471 0
23 1 S112 635 393129 -1836 0
23 1 S112 665 393794 -1171 0
23 1 S112 718 394512 -453 0
23 2 S112 819 395331 366 0
23 2 S112 916 396247 1282 0
23 2 S112 889 397136 2171 0
23 2 S112 858 397994 3029 0
23 2 S112 823 398817 3852 0
23 2 S112 798 399615 4650 0
23 2 S112 766 400381 5416 0
23 2 S112 741 401122 6157 0
23 2 S112 733 401855 6890 0
0 0 0 732 402587 -10084 0
0 0 0 713 403300 -9371 0
0 0 0 667 403967 -8704 0
0 0 0 679 404646 -8025 0
0 0 0 707 405353 -7318 0
0 0 0 747 406100 -6571 0
0 0 0 892 406992 -5679 0
0 0 0 850 407842 -4829 0
0 0 0 798 408640 -4031 0
0 0 0 802 409442 -3229 0
0 0 0 779 410221 -2450 0
24 1 S106 738 410959 -1712 0
24 1 S106 708 411667 -1004 0
24 1 S106 723 412390 -281 0
24 2 S106 744 413134 463 0
24 2 S106 787 413921 1250 0
24 2 S106 784 414705 2034 0
24 2 S106 741 415446 2775 0
24 2 S106 728 416174 3503 0
24 2 S106 773 416947 4276 0
24 2 S106 767 417714 5043 0
24 2 S106 824 418538 5867 0
24 2 S106 805 419343 6672 0
0 0 0 751 420094 -9620 0
0 0 0 757 420851 -8863 0
0 0 0 801 421652 -8062 0
0 0 0 803 422455 -7259 0
0 0 0 780 423235 -6479 0
0 0 0 735 423970 -5744 0
0 0 0 732 424702 -5012 0
0 0 0 743 425445 -4269 0
0 0 0 757 426202 -3512 0
0 0 0 759 426961 -2753 0
0 0 0 718 427679 -2035 0
25 1 S102 724 428403 -1311 0
25 1 S102 741 429144 -570 0
25 2 S102 740 429884 170 0
25 2 S102 785 430669 955 0
25 2 S102 794 431463 1749 0
25 2 S102 750 432213 2499 0
25 2 S102 710 432923 3209 0
25 2 S102 729 433652 3938 0
25 2 S102 737 434389 4675 0
25 2 S102 753 435142 5428 0
25 2 S102 723 435865 6151 0
25 2 S102 703 436568 6854 0
0 0 0 731 437299 -9010 0
0 0 0 785 438084 -8225 0
0 0 0 765 438849 -7460 0
0 0 0 706 439555 -6754 0
0 0 0 720 440275 -6034 0
0 0 0 760 441035 -5274 0
0 0 0 835 441870 -4439 0
0 0 0 832 442702 -3607 0
0 0 0 759 443461 -2848 0
0 0 0 744 444205 -2104 0
26 1 S116 752 444957 -1352 0
26 1 S116 756 445713 -596 0
26 2 S116 747 446460 151 0
26 2 S116 697 447157 848 0
26 2 S116 702 447859 1550 0
26 2 S116 716 448575 2266 0
26 2 S116 754 449329 3020 0
26 2 S116 794 450123 3814 0
26 2 S116 792 450915 4606 0
26 2 S116 771 451686 5377 0
26 2 S116 718 452404 6095 0
26 2 S116 707 453111 6802 0
0 0 0 734 453845 -8081 0
0 0 0 757 454602 -7324 0
0 0 0 819 455421 -6505 0
0 0 0 807 456228 -5698 0
0 0 0 875 457103 -4823 0
0 0 0 890 457993 -3933 0
0 0 0 820 458813 -3113 0
0 0 0 789 459602 -2324 0
27 1 S106 809 460411 -1515 0
27 1 S106 778 461189 -737 0
27 2 S106 811 462000 74 0
27 2 S106 745 462745 819 0
27 2 S106 726 463471 1545 0
27 2 S106 747 464218 2292 0
27 2 S106 731 464949 3023 0
27 2 S106 765 465714 3788 0
27 2 S106 739 466453 4527 0
27 2 S106 736 467189 5263 0
27 2 S106 784 467973 6047 0
27 2 S106 806 468779 6853 0
0 0 0 808 469587 -6148 0
0 0 0 762 470349 -5386 0
0 0 0 713 471062 -4673 0
0 0 0 721 471783 -3952 0
0 0 0 738 472521 -3214 0
0 0 0 749 473270 -2465 0
28 1 S102 721 473991 -1744 0
28 1 S102 713 474704 -1031 0
28 1 S102 730 475434 -301 0
28 2 S102 740 476174 439 0
28 2 S102 777 476951 1216 0
28 2 S102 784 477735 2000 0
28 2 S102 729 478464 2729 0
28 2 S102 714 479178 3443 0
28 2 S102 724 479902 4167 0
28 2 S102 699 480601 4866 0
28 2 S102 704 481305 5570 0
28 2 S102 703 482008 6273 0
28 2 S102 677 482685 6950 0
0 0 0 695 483380 -10343 0
0 0 0 719 484099 -9624 0
0 0 0 795 484894 -8829 0
0 0 0 796 485690 -8033 0
0 0 0 719 486409 -7314 0
0 0 0 717 487126 -6597 0
0 0 0 746 487872 -5851 0
0 0 0 785 488657 -5066 0
0 0 0 866 489523 -4200 0
0 0 0 831 490354 -3369 0
0 0 0 731 491085 -2638 0
29 1 S112 737 491822 -1901 0
29 1 S112 796 492618 -1105 0
29 1 S112 841 493459 -264 0
29 2 S112 828 494287 564 0
29 2 S112 789 495076 1353 0
29 2 S112 769 495845 2122 0
29 2 S112 835 496680 2957 0
29 2 S112 831 497511 3788 0
29 2 S112 788 498299 4576 0
29 2 S112 745 499044 5321 0
29 2 S112 759 499803 6080 0
29 2 S112 788 500591 6868 0
0 0 0 760 501351 -7458 0
0 0 0 722 502073 -6736 0
0 0 0 661 502734 -6075 0
0 0 0 674 503408 -5401 0
0 0 0 694 504102 -4707 0
0 0 0 735 504837 -3972 0
0 0 0 743 505580 -3229 0
0 0 0 739 506319 -2490 0
30 1 S112 757 507076 -1733 0
30 1 S112 758 507834 -975 0
30 1 S112 784 508618 -191 0
30 2 S112 751 509369 560 0
30 2 S112 714 510083 1274 0
30 2 S112 747 510830 2021 0
30 2 S112 775 511605 2796 0
30 2 S112 848 512453 3644 0
30 2 S112 805 513258 4449 0
30 2 S112 795 514053 5244 0
30 2 S112 830 514883 6074 0
30 2 S112 848 515731 6922 0
0 0 0 810 516541 -9477 0
0 0 0 764 517305 -8713 0
0 0 0 766 518071 -7947 0
0 0 0 755 518826 -7192 0
0 0 0 717 519543 -6475 0
0 0 0 694 520237 -5781 0
0 0 0 722 520959 -5059 0
0 0 0 735 521694 -4324 0
0 0 0 851 522545 -3473 0
0 0 0 811 523356 -2662 0
31 1 S106 780 524136 -1882 0
31 1 S106 834 524970 -1048 0
31 1 S106 883 525853 -165 0
31 2 S106 838 526691 673 0
31 2 S106 800 527491 1473 0
31 2 S106 785 528276 2258 0
31 2 S106 832 529108 3090 0
31 2 S106 812 529920 3902 0
31 2 S106 786 530706 4688 0
31 2 S106 737 531443 5425 0
31 2 S106 672 532115 6097 0
31 2 S106 678 532793 6775 0
0 0 0 687 533480 -8818 0
0 0 0 893 534373 -7925 0
0 0 0 839 535212 -7086 0
0 0 0 830 536042 -6256 0
0 0 0 781 536823 -5475 0
0 0 0 792 537615 -4683 0
0 0 0 775 538390 -3908 0
0 0 0 765 539155 -3143 0
0 0 0 711 539866 -2432 0
32 1 S102 666 540532 -1766 0
32 1 S102 670 541202 -1096 0
32 1 S102 695 541897 -401 0
32 2 S102 728 542625 327 0
32 2 S102 758 543383 1085 0
32 2 S102 778 544161 1863 0
32 2 S102 767 544928 2630 0
32 2 S102 721 545649 3351 0
32 2 S102 724 546373 4075 0
32 2 S102 741 547114 4816 0
32 2 S102 759 547873 5575 0
32 2 S102 775 548648 6350 0
0 0 0 733 549381 -11468 0
0 0 0 721 550102 -10747 0
0 0 0 746 550848 -10001 0
0 0 0 737 551585 -9264 0
0 0 0 724 552309 -8540 0
0 0 0 678 552987 -7862 0
0 0 0 641 553628 -7221 0
0 0 0 624 554252 -6597 0
0 0 0 601 554853 -5996 0
0 0 0 582 555435 -5414 0
0 0 0 585 556020 -4829 0
0 0 0 606 556626 -4223 0
0 0 0 944 557570 -3279 0
0 0 0 951 558521 -2328 0
33 1 S112 930 559451 -1398 0
33 1 S112 949 560400 -449 0
33 2 S112 916 561316 467 0
33 2 S112 838 562154 1305 0
33 2 S112 840 562994 2145 0
33 2 S112 839 563833 2984 0
33 2 S112 795 564628 3779 0
33 2 S112 739 565367 4518 0
33 2 S112 709 566076 5227 0
33 2 S112 678 566754 5905 0
33 2 S112 717 567471 6622 0
0 0 0 802 568273 -10779 0
0 0 0 838 569111 -9941 0
0 0 0 778 569889 -9163 0
0 0 0 742 570631 -8421 0
0 0 0 730 571361 -7691 0
0 0 0 747 572108 -6944 0
0 0 0 748 572856 -6196 0
0 0 0 768 573624 -5428 0
0 0 0 732 574356 -4696 0
0 0 0 671 575027 -4025 0
0 0 0 664 575691 -3361 0
0 0 0 671 576362 -2690 0
34 1 S106 728 577090 -1962 0
34 1 S106 817 577907 -1145 0
34 1 S106 794 578701 -351 0
34 2 S106 769 579470 418 0
34 2 S106 774 580244 1192 0
34 2 S106 814 581058 2006 0
34 2 S106 850 581908 2856 0
34 2 S106 839 582747 3695 0
34 2 S106 821 583568 4516 0
34 2 S106 828 584396 5344 0
34 2 S106 832 585228 6176 0
34 2 S106 807 586035 6983 0
0 0 0 766 586801 -8100 0
0 0 0 716 587517 -7384 0
0 0 0 676 588193 -6708 0
0 0 0 651 588844 -6057 0
0 0 0 623 589467 -5434 0
0 0 0 615 590082 -4819 0
0 0 0 605 590687 -4214 0
0 0 0 638 591325 -3576 0
0 0 0 669 591994 -2907 0
0 0 0 675 592669 -2232 0
35 1 S102 696 593365 -1536 0
35 1 S102 778 594143 -758 0
35 2 S102 832 594975 74 0
35 2 S102 851 595826 925 0
35 2 S102 829 596655 1754 0
35 2 S102 781 597436 2535 0
35 2 S102 724 598160 3259 0
35 2 S102 694 598854 3953 0
35 2 S102 658 599512 4611 0
35 2 S102 664 600176 5275 0
35 2 S102 681 600857 5956 0
35 2 S102 736 601593 6692 0
0 0 0 711 602304 -6208 0
0 0 0 685 602989 -5523 0
0 0 0 738 603727 -4785 0
0 0 0 738 604465 -4047 0
0 0 0 765 605230 -3282 0
0 0 0 726 605956 -2556 0
36 1 S106 714 606670 -1842 0
36 1 S106 736 607406 -1106 0
36 1 S106 770 608176 -336 0
36 2 S106 775 608951 439 0
36 2 S106 806 609757 1245 0
36 2 S106 767 610524 2012 0
36 2 S106 730 611254 2742 0
36 2 S106 747 612001 3489 0
36 2 S106 739 612740 4228 0
36 2 S106 749 613489 4977 0
36 2 S106 801 614290 5778 0
36 2 S106 790 615080 6568 0
0 0 0 737 615817 -9207 0
0 0 0 790 616607 -8417 0
0 0 0 765 617372 -7652 0
0 0 0 832 618204 -6820 0
0 0 0 724 618928 -6096 0
0 0 0 665 619593 -5431 0
0 0 0 641 620234 -4790 0
0 0 0 627 620861 -4163 0
0 0 0 651 621512 -3512 0
0 0 0 959 622471 -2553 0
37 1 S116 878 623349 -1675 0
37 1 S116 871 624220 -804 0
37 2 S116 848 625068 44 0
37 2 S116 875 625943 919 0
37 2 S116 877 626820 1796 0
37 2 S116 874 627694 2670 0
37 2 S116 852 628546 3522 0
37 2 S116 836 629382 4358 0
37 2 S116 820 630202 5178 0
37 2 S116 808 631010 5986 0
37 2 S116 763 631773 6749 0
0 0 0 774 632547 -11608 0
0 0 0 756 633303 -10852 0
0 0 0 729 634032 -10123 0
0 0 0 709 634741 -9414 0
0 0 0 743 635484 -8671 0
0 0 0 716 636200 -7955 0
0 0 0 724 636924 -7231 0
0 0 0 706 637630 -6525 0
0 0 0 711 638341 -5814 0
0 0 0 719 639060 -5095 0
0 0 0 768 639828 -4327 0
0 0 0 794 640622 -3533 0
0 0 0 806 641428 -2727 0
38 1 S102 738 642166 -1989 0
38 1 S102 729 642895 -1260 0
38 1 S102 749 643644 -511 0
38 2 S102 761 644405 250 0
38 2 S102 742 645147 992 0
38 2 S102 724 645871 1716 0
38 2 S102 744 646615 2460 0
38 2 S102 733 647348 3193 0
38 2 S102 744 648092 3937 0
38 2 S102 731 648823 4668 0
38 2 S102 705 649528 5373 0
38 2 S102 718 650246 6091 0
38 2 S102 701 650947 6792 0
0 0 0 721 651668 -9745 0
0 0 0 707 652375 -9038 0
0 0 0 666 653041 -8372 0
0 0 0 688 653729 -7684 0
0 0 0 711 654440 -6973 0
0 0 0 740 655180 -6233 0
0 0 0 700 655880 -5533 0
0 0 0 681 656561 -4852 0
0 0 0 648 657209 -4204 0
0 0 0 632 657841 -3572 0
0 0 0 644 658485 -2928 0
0 0 0 642 659127 -2286 0
39 1 S116 661 659788 -1625 0
39 1 S116 673 660461 -952 0
39 1 S116 684 661145 -268 0
39 2 S116 704 661849 436 0
39 2 S116 734 662583 1170 0
39 2 S116 820 663403 1990 0
39 2 S116 822 664225 2812 0
39 2 S116 835 665060 3647 0
39 2 S116 852 665912 4499 0
39 2 S116 770 666682 5269 0
39 2 S116 785 667467 6054 0
39 2 S116 848 668315 6902 0
0 0 0 814 669129 -6641 0
0 0 0 722 669851 -5919 0
0 0 0 677 670528 -5242 0
0 0 0 712 671240 -4530 0
0 0 0 952 672192 -3578 0
0 0 0 905 673097 -2673 0
40 1 S112 871 673968 -1802 0
40 1 S112 824 674792 -978 0
40 1 S112 794 675586 -184 0
40 2 S112 808 676394 624 0
40 2 S112 803 677197 1427 0
40 2 S112 829 678026 2256 0
40 2 S112 792 678818 3048 0
40 2 S112 771 679589 3819 0
40 2 S112 752 680341 4571 0
40 2 S112 732 681073 5303 0
40 2 S112 703 681776 6006 0
40 2 S112 665 682441 6671 0
0 0 0 716 683157 -187758 0
0 0 0 740 683897 -187018 0
0 0 0 836 684733 -186182 0
0 0 0 955 685688 -185227 0
0 0 0 863 686551 -184364 0
0 0 0 861 687412 -183503 0
0 0 0 847 688259 -182656 0
0 0 0 828 689087 -181828 0
0 0 0 806 689893 -181022 0
0 0 0 739 690632 -180283 0
0 0 0 657 691289 -179626 0
0 0 0 647 691936 -178979 0
0 0 0 628 692564 -178351 0
0 0 0 634 693198 -177717 0
0 0 0 670 693868 -177047 0
0 0 0 709 694577 -176338 0
0 0 0 701 695278 -175637 0
0 0 0 665 695943 -174972 0
0 0 0 664 696607 -174308 0
0 0 0 711 697318 -173597 0
0 0 0 737 698055 -172860 0
0 0 0 746 698801 -172114 0
0 0 0 780 699581 -171334 0
0 0 0 739 700320 -170595 0
0 0 0 688 701008 -169907 0
0 0 0 658 701666 -169249 0
0 0 0 632 702298 -168617 0
0 0 0 602 702900 -168015 0
0 0 0 596 703496 -167419 0
0 0 0 588 704084 -166831 0
0 0 0 579 704663 -166252 0
0 0 0 578 705241 -165674 0
0 0 0 585 705826 -165089 0
0 0 0 585 706411 -164504 0
0 0 0 591 707002 -163913 0
0 0 0 597 707599 -163316 0
0 0 0 625 708224 -162691 0
0 0 0 678 708902 -162013 0
0 0 0 717 709619 -161296 0
0 0 0 715 710334 -160581 0
0 0 0 686 711020 -159895 0
0 0 0 675 711695 -159220 0
0 0 0 673 712368 -158547 0
0 0 0 647 713015 -157900 0
0 0 0 627 713642 -157273 0
0 0 0 610 714252 -156663 0
0 0 0 593 714845 -156070 0
0 0 0 582 715427 -155488 0
0 0 0 585 716012 -154903 0
0 0 0 588 716600 -154315 0
0 0 0 649 717249 -153666 0
0 0 0 761 718010 -152905 0
0 0 0 746 718756 -152159 0
0 0 0 708 719464 -151451 0
0 0 0 743 720207 -150708 0
0 0 0 765 720972 -149943 0
0 0 0 836 721808 -149107 0
0 0 0 791 722599 -148316 0
0 0 0 714 723313 -147602 0
0 0 0 701 724014 -146901 0
0 0 0 693 724707 -146208 0
0 0 0 651 725358 -145557 0
0 0 0 671 726029 -144886 0
0 0 0 675 726704 -144211 0
0 0 0 729 727433 -143482 0
0 0 0 713 728146 -142769 0
0 0 0 667 728813 -142102 0
0 0 0 670 729483 -141432 0
0 0 0 670 730153 -140762 0
0 0 0 635 730788 -140127 0
0 0 0 618 731406 -139509 0
0 0 0 632 732038 -138877 0
0 0 0 642 732680 -138235 0
0 0 0 692 733372 -137543 0
0 0 0 747 734119 -136796 0
0 0 0 733 734852 -136063 0
0 0 0 729 735581 -135334 0
0 0 0 676 736257 -134658 0
0 0 0 663 736920 -133995 0
0 0 0 648 737568 -133347 0
0 0 0 792 738360 -132555 0
0 0 0 805 739165 -131750 0
0 0 0 711 739876 -131039 0
0 0 0 667 740543 -130372 0
0 0 0 642 741185 -129730 0
0 0 0 623 741808 -129107 0
0 0 0 599 742407 -128508 0
0 0 0 596 743003 -127912 0
0 0 0 605 743608 -127307 0
0 0 0 626 744234 -126681 0
0 0 0 661 744895 -126020 0
0 0 0 750 745645 -125270 0
0 0 0 744 746389 -124526 0
0 0 0 692 747081 -123834 0
0 0 0 699 747780 -123135 0
0 0 0 723 748503 -122412 0
0 0 0 790 749293 -121622 0
0 0 0 729 750022 -120893 0
0 0 0 675 750697 -120218 0
0 0 0 633 751330 -119585 0
0 0 0 610 751940 -118975 0
0 0 0 663 752603 -118312 0
0 0 0 720 753323 -117592 0
0 0 0 768 754091 -116824 0
0 0 0 862 754953 -115962 0
0 0 0 833 755786 -115129 0
0 0 0 793 756579 -114336 0
0 0 0 787 757366 -113549 0
0 0 0 745 758111 -112804 0
0 0 0 722 758833 -112082 0
0 0 0 669 759502 -111413 0
0 0 0 741 760243 -110672 0
0 0 0 979 761222 -109693 1
0 0 0 966 762188 -108727 0
0 0 0 910 763098 -107817 0
0 0 0 804 763902 -107013 0
0 0 0 818 764720 -106195 0
0 0 0 863 765583 -105332 0
0 0 0 826 766409 -104506 0
0 0 0 788 767197 -103718 0
0 0 0 750 767947 -102968 0
0 0 0 742 768689 -102226 0
0 0 0 778 769467 -101448 0
0 0 0 864 770331 -100584 0
0 0 0 907 771238 -99677 0
0 0 0 880 772118 -98797 0
0 0 0 830 772948 -97967 0
0 0 0 804 773752 -97163 0
0 0 0 810 774562 -96353 0
0 0 0 852 775414 -95501 0
0 0 0 877 776291 -94624 0
0 0 0 856 777147 -93768 0
0 0 0 805 777952 -92963 0
0 0 0 827 778779 -92136 0
0 0 0 803 779582 -91333 0
0 0 0 826 780408 -90507 0
0 0 0 815 781223 -89692 0
0 0 0 787 782010 -88905 0
0 0 0 836 782846 -88069 0
0 0 0 965 783811 -87104 0
0 0 0 990 784801 -86114 1
0 0 0 902 785703 -85212 0
0 0 0 884 786587 -84328 0
0 0 0 847 787434 -83481 0
0 0 0 746 788180 -82735 0
0 0 0 685 788865 -82050 0
0 0 0 628 789493 -81422 0
0 0 0 625 790118 -80797 0
0 0 0 649 790767 -80148 0
0 0 0 839 791606 -79309 0
0 0 0 1062 792668 -78247 1
0 0 0 941 793609 -77306 0
0 0 0 782 794391 -76524 0
0 0 0 721 795112 -75803 0
0 0 0 711 795823 -75092 0
0 0 0 755 796578 -74337 0
0 0 0 977 797555 -73360 1
0 0 0 906 798461 -72454 0
0 0 0 809 799270 -71645 0
0 0 0 743 800013 -70902 0
0 0 0 748 800761 -70154 0
0 0 0 827 801588 -69327 0
0 0 0 890 802478 -68437 0
0 0 0 942 803420 -67495 0
0 0 0 995 804415 -66500 1
0 0 0 1075 805490 -65425 1
0 0 0 1008 806498 -64417 1
0 0 0 910 807408 -63507 0
0 0 0 758 808166 -62749 0
0 0 0 677 808843 -62072 0
0 0 0 621 809464 -61451 0
0 0 0 643 810107 -60808 0
0 0 0 958 811065 -59850 0
0 0 0 900 811965 -58950 0
0 0 0 1101 813066 -57849 1
0 0 0 1039 814105 -56810 1
0 0 0 1011 815116 -55799 1
0 0 0 1014 816130 -54785 1
0 0 0 930 817060 -53855 0
0 0 0 808 817868 -53047 0
0 0 0 779 818647 -52268 0
0 0 0 756 819403 -51512 0
0 0 0 799 820202 -50713 0
0 0 0 826 821028 -49887 0
0 0 0 876 821904 -49011 0
0 0 0 887 822791 -48124 0
0 0 0 848 823639 -47276 0
0 0 0 845 824484 -46431 0
0 0 0 835 825319 -45596 0
0 0 0 809 826128 -44787 0
0 0 0 764 826892 -44023 0
0 0 0 739 827631 -43284 0
0 0 0 739 828370 -42545 0
0 0 0 744 829114 -41801 0
0 0 0 718 829832 -41083 0
0 0 0 741 830573 -40342 0
0 0 0 715 831288 -39627 0
0 0 0 694 831982 -38933 0
0 0 0 656 832638 -38277 0
0 0 0 636 833274 -37641 0
0 0 0 648 833922 -36993 0
0 0 0 638 834560 -36355 0
0 0 0 655 835215 -35700 0
0 0 0 691 835906 -35009 0
0 0 0 783 836689 -34226 0
0 0 0 788 837477 -33438 0
0 0 0 814 838291 -32624 0
0 0 0 791 839082 -31833 0
0 0 0 782 839864 -31051 0
0 0 0 801 840665 -30250 0
0 0 0 841 841506 -29409 0
0 0 0 846 842352 -28563 0
0 0 0 771 843123 -27792 0
0 0 0 709 843832 -27083 0
0 0 0 660 844492 -26423 0
0 0 0 616 845108 -25807 0
0 0 0 648 845756 -25159 0
0 0 0 783 846539 -24376 0
0 0 0 968 847507 -23408 0
0 0 0 926 848433 -22482 0
0 0 0 931 849364 -21551 0
0 0 0 928 850292 -20623 0
0 0 0 903 851195 -19720 0
0 0 0 900 852095 -18820 0
0 0 0 860 852955 -17960 0
0 0 0 845 853800 -17115 0
0 0 0 835 854635 -16280 0
0 0 0 818 855453 -15462 0
0 0 0 800 856253 -14662 0
0 0 0 791 857044 -13871 0
0 0 0 775 857819 -13096 0
0 0 0 775 858594 -12321 0
0 0 0 800 859394 -11521 0
0 0 0 826 860220 -10695 0
0 0 0 807 861027 -9888 0
0 0 0 805 861832 -9083 0
0 0 0 728 862560 -8355 0
0 0 0 706 863266 -7649 0
0 0 0 710 863976 -6939 0
0 0 0 757 864733 -6182 0
0 0 0 941 865674 -5241 0
0 0 0 926 866600 -4315 0
0 0 0 845 867445 -3470 0
0 0 0 772 868217 -2698 0
41 1 S102 791 869008 -1907 0
41 1 S102 765 869773 -1142 0
41 1 S102 805 870578 -337 0
41 2 S102 853 871431 516 0
41 2 S102 856 872287 1372 0
41 2 S102 829 873116 2201 0
41 2 S102 806 873922 3007 0
41 2 S102 830 874752 3837 0
41 2 S102 845 875597 4682 0
41 2 S102 855 876452 5537 0
41 2 S102 814 877266 6351 0
0 0 0 788 878054 -7582 0
0 0 0 806 878860 -6776 0
0 0 0 836 879696 -5940 0
0 0 0 893 880589 -5047 0
0 0 0 817 881406 -4230 0
0 0 0 761 882167 -3469 0
0 0 0 713 882880 -2756 0
0 0 0 668 883548 -2088 0
42 1 S112 713 884261 -1375 0
42 1 S112 848 885109 -527 0
42 2 S112 1002 886111 475 1
42 2 S112 962 887073 1437 0
42 2 S112 942 888015 2379 0
42 2 S112 924 888939 3303 0
42 2 S112 898 889837 4201 0
42 2 S112 869 890706 5070 0
42 2 S112 849 891555 5919 0
42 2 S112 846 892401 6765 0
0 0 0 855 893256 -9141 0
0 0 0 822 894078 -8319 0
0 0 0 756 894834 -7563 0
0 0 0 735 895569 -6828 0
0 0 0 708 896277 -6120 0
0 0 0 771 897048 -5349 0
0 0 0 869 897917 -4480 0
0 0 0 840 898757 -3640 0
0 0 0 758 899515 -2882 0
0 0 0 766 900281 -2116 0
43 1 S116 802 901083 -1314 0
43 1 S116 839 901922 -475 0
43 2 S116 798 902720 323 0
43 2 S116 754 903474 1077 0
43 2 S116 795 904269 1872 0
43 2 S116 824 905093 2696 0
43 2 S116 934 906027 3630 0
43 2 S116 911 906938 4541 0
43 2 S116 855 907793 5396 0
43 2 S116 802 908595 6198 0
43 2 S116 785 909380 6983 0
0 0 0 797 910177 -7406 0
0 0 0 828 911005 -6578 0
0 0 0 810 911815 -5768 0
0 0 0 763 912578 -5005 0
0 0 0 782 913360 -4223 0
0 0 0 759 914119 -3464 0
0 0 0 746 914865 -2718 0
0 0 0 692 915557 -2026 0
44 1 S102 709 916266 -1317 0
44 1 S102 836 917102 -481 0
44 2 S102 916 918018 435 0
44 2 S102 882 918900 1317 0
44 2 S102 903 919803 2220 0
44 2 S102 842 920645 3062 0
44 2 S102 724 921369 3786 0
44 2 S102 721 922090 4507 0
44 2 S102 750 922840 5257 0
44 2 S102 767 923607 6024 0
44 2 S102 813 924420 6837 0
0 0 0 768 925188 -9189 0
0 0 0 698 925886 -8491 0
0 0 0 709 926595 -7782 0
0 0 0 756 927351 -7026 0
0 0 0 745 928096 -6281 0
0 0 0 737 928833 -5544 0
0 0 0 701 929534 -4843 0
0 0 0 671 930205 -4172 0
0 0 0 672 930877 -3500 0
0 0 0 658 931535 -2842 0
0 0 0 656 932191 -2186 0
45 1 S116 683 932874 -1503 0
45 1 S116 808 933682 -695 0
45 2 S116 836 934518 141 0
45 2 S116 816 935334 957 0
45 2 S116 837 936171 1794 0
45 2 S116 847 937018 2641 0
45 2 S116 833 937851 3474 0
45 2 S116 836 938687 4310 0
45 2 S116 821 939508 5131 0
45 2 S116 818 940326 5949 0
45 2 S116 789 941115 6738 0
0 0 0 744 941859 -11218 0
0 0 0 714 942573 -10504 0
0 0 0 711 943284 -9793 0
0 0 0 771 944055 -9022 0
0 0 0 811 944866 -8211 0
0 0 0 742 945608 -7469 0
0 0 0 703 946311 -6766 0
0 0 0 706 947017 -6060 0
0 0 0 765 947782 -5295 0
0 0 0 931 948713 -4364 0
0 0 0 867 949580 -3497 0
0 0 0 798 950378 -2699 0
46 1 S102 746 951124 -1953 0
46 1 S102 763 951887 -1190 0
46 1 S102 837 952724 -353 0
46 2 S102 889 953613 536 0
46 2 S102 853 954466 1389 0
46 2 S102 762 955228 2151 0
46 2 S102 722 955950 2873 0
46 2 S102 741 956691 3614 0
46 2 S102 801 957492 4415 0
46 2 S102 824 958316 5239 0
46 2 S102 827 959143 6066 0
46 2 S102 788 959931 6854 0
0 0 0 847 960778 -10138 0
0 0 0 828 961606 -9310 0
0 0 0 805 962411 -8505 0
0 0 0 787 963198 -7718 0
0 0 0 791 963989 -6927 0
0 0 0 822 964811 -6105 0
0 0 0 823 965634 -5282 0
0 0 0 772 966406 -4510 0
0 0 0 758 967164 -3752 0
0 0 0 800 967964 -2952 0
0 0 0 856 968820 -2096 0
47 1 S112 812 969632 -1284 0
47 1 S112 787 970419 -497 0
47 2 S112 759 971178 262 0
47 2 S112 803 971981 1065 0
47 2 S112 907 972888 1972 0
47 2 S112 797 973685 2769 0
47 2 S112 698 974383 3467 0
47 2 S112 682 975065 4149 0
47 2 S112 690 975755 4839 0
47 2 S112 803 976558 5642 0
47 2 S112 943 977501 6585 0
0 0 0 902 978403 -10069 0
0 0 0 914 979317 -9155 0
0 0 0 873 980190 -8282 0
0 0 0 807 980997 -7475 0
0 0 0 759 981756 -6716 0
0 0 0 728 982484 -5988 0
0 0 0 731 983215 -5257 0
0 0 0 780 983995 -4477 0
0 0 0 783 984778 -3694 0
0 0 0 807 985585 -2887 0
0 0 0 793 986378 -2094 0
48 1 S116 777 987155 -1317 0
48 1 S116 866 988021 -451 0
48 2 S116 962 988983 511 0
48 2 S116 950 989933 1461 0
48 2 S116 865 990798 2326 0
48 2 S116 850 991648 3176 0
48 2 S116 795 992443 3971 0
48 2 S116 751 993194 4722 0
48 2 S116 759 993953 5481 0
48 2 S116 860 994813 6341 0
0 0 0 955 995768 -6713 0
0 0 0 915 996683 -5798 0
0 0 0 794 997477 -5004 0
0 0 0 755 998232 -4249 0
0 0 0 768 999000 -3481 0
0 0 0 776 999776 -2705 0
49 1 S112 819 1000595 -1886 0
49 1 S112 831 1001426 -1055 0
49 1 S112 818 1002244 -237 0
49 2 S112 866 1003110 629 0
49 2 S112 919 1004029 1548 0
49 2 S112 867 1004896 2415 0
49 2 S112 820 1005716 3235 0
49 2 S112 844 1006560 4079 0
49 2 S112 868 1007428 4947 0
49 2 S112 797 1008225 5744 0
49 2 S112 765 1008990 6509 0
0 0 0 765 1009755 -10713 0
0 0 0 771 1010526 -9942 0
0 0 0 858 1011384 -9084 0
0 0 0 856 1012240 -8228 0
0 0 0 844 1013084 -7384 0
0 0 0 907 1013991 -6477 0
0 0 0 908 1014899 -5569 0
0 0 0 864 1015763 -4705 0
0 0 0 802 1016565 -3903 0
0 0 0 792 1017357 -3111 0
0 0 0 833 1018190 -2278 0
50 1 S106 823 1019013 -1455 0
50 1 S106 835 1019848 -620 0
50 2 S106 793 1020641 173 0
50 2 S106 789 1021430 962 0
50 2 S106 835 1022265 1797 0
50 2 S106 817 1023082 2614 0
50 2 S106 821 1023903 3435 0
50 2 S106 792 1024695 4227 0
50 2 S106 821 1025516 5048 0
50 2 S106 815 1026331 5863 0
50 2 S106 819 1027150 6682 0
0 0 0 786 1027936 -7271 0
0 0 0 774 1028710 -6497 0
0 0 0 806 1029516 -5691 0
0 0 0 816 1030332 -4875 0
0 0 0 755 1031087 -4120 0
0 0 0 686 1031773 -3434 0
0 0 0 633 1032406 -2801 0
0 0 0 602 1033008 -2199 0
51 1 S112 615 1033623 -1584 0
51 1 S112 617 1034240 -967 0
51 1 S112 771 1035011 -196 0
51 2 S112 1094 1036105 898 1
51 2 S112 1032 1037137 1930 1
51 2 S112 1013 1038150 2943 1
51 2 S112 973 1039123 3916 1
51 2 S112 851 1039974 4767 0
51 2 S112 832 1040806 5599 0
51 2 S112 837 1041643 6436 0
0 0 0 817 1042460 -7518 0
0 0 0 814 1043274 -6704 0
0 0 0 772 1044046 -5932 0
0 0 0 793 1044839 -5139 0
0 0 0 804 1045643 -4335 0
0 0 0 805 1046448 -3530 0
0 0 0 783 1047231 -2747 0
0 0 0 722 1047953 -2025 0
52 1 S116 705 1048658 -1320 0
52 1 S116 706 1049364 -614 0
52 2 S116 768 1050132 154 0
52 2 S116 838 1050970 992 0
52 2 S116 873 1051843 1865 0
52 2 S116 922 1052765 2787 0
52 2 S116 865 1053630 3652 0
52 2 S116 876 1054506 4528 0
52 2 S116 864 1055370 5392 0
52 2 S116 826 1056196 6218 0
52 2 S116 773 1056969 6991 0
0 0 0 767 1057736 -7759 0
0 0 0 798 1058534 -6961 0
0 0 0 815 1059349 -6146 0
0 0 0 738 1060087 -5408 0
0 0 0 684 1060771 -4724 0
0 0 0 675 1061446 -4049 0
0 0 0 730 1062176 -3319 0
0 0 0 706 1062882 -2613 0
53 1 S106 688 1063570 -1925 0
53 1 S106 677 1064247 -1248 0
53 1 S106 747 1064994 -501 0
53 2 S106 864 1065858 363 0
53 2 S106 894 1066752 1257 0
53 2 S106 870 1067622 2127 0
53 2 S106 863 1068485 2990 0
53 2 S106 812 1069297 3802 0
53 2 S106 788 1070085 4590 0
53 2 S106 800 1070885 5390 0
53 2 S106 803 1071688 6193 0
53 2 S106 771 1072459 6964 0
0 0 0 752 1073211 -5879 0
0 0 0 753 1073964 -5126 0
0 0 0 752 1074716 -4374 0
0 0 0 747 1075463 -3627 0
0 0 0 728 1076191 -2899 0
0 0 0 690 1076881 -2209 0
54 1 S102 708 1077589 -1501 0
54 1 S102 825 1078414 -676 0
54 2 S102 991 1079405 315 1
54 2 S102 893 1080298 1208 0
54 2 S102 859 1081157 2067 0
54 2 S102 822 1081979 2889 0
54 2 S102 796 1082775 3685 0
54 2 S102 809 1083584 4494 0
54 2 S102 840 1084424 5334 0
54 2 S102 825 1085249 6159 0
54 2 S102 819 1086068 6978 0
0 0 0 773 1086841 -10104 0
0 0 0 776 1087617 -9328 0
0 0 0 819 1088436 -8509 0
0 0 0 819 1089255 -7690 0
0 0 0 750 1090005 -6940 0
0 0 0 736 1090741 -6204 0
0 0 0 683 1091424 -5521 0
0 0 0 691 1092115 -4830 0
0 0 0 752 1092867 -4078 0
0 0 0 844 1093711 -3234 0
0 0 0 826 1094537 -2408 0
55 1 S106 837 1095374 -1571 0
55 1 S106 773 1096147 -798 0
55 1 S106 760 1096907 -38 0
55 2 S106 776 1097683 738 0
55 2 S106 808 1098491 1546 0
55 2 S106 800 1099291 2346 0
55 2 S106 835 1100126 3181 0
55 2 S106 841 1100967 4022 0
55 2 S106 805 1101772 4827 0
55 2 S106 800 1102572 5627 0
55 2 S106 816 1103388 6443 0
0 0 0 833 1104221 -7014 0
0 0 0 842 1105063 -6172 0
0 0 0 858 1105921 -5314 0
0 0 0 822 1106743 -4492 0
0 0 0 781 1107524 -3711 0
0 0 0 804 1108328 -2907 0
0 0 0 757 1109085 -2150 0
56 1 S116 713 1109798 -1437 0
56 1 S116 670 1110468 -767 0
56 1 S116 642 1111110 -125 0
56 2 S116 645 1111755 520 0
56 2 S116 649 1112404 1169 0
56 2 S116 697 1113101 1866 0
56 2 S116 753 1113854 2619 0
56 2 S116 740 1114594 3359 0
56 2 S116 706 1115300 4065 0
56 2 S116 693 1115993 4758 0
56 2 S116 708 1116701 5466 0
56 2 S116 703 1117404 6169 0
56 2 S116 717 1118121 6886 0
0 0 0 720 1118841 -7315 0
0 0 0 671 1119512 -6644 0
0 0 0 639 1120151 -6005 0
0 0 0 650 1120801 -5355 0
0 0 0 656 1121457 -4699 0
0 0 0 668 1122125 -4031 0
0 0 0 740 1122865 -3291 0
0 0 0 738 1123603 -2553 0
57 1 S106 717 1124320 -1836 0
57 1 S106 713 1125033 -1123 0
57 1 S106 742 1125775 -381 0
57 2 S106 822 1126597 441 0
57 2 S106 918 1127515 1359 0
57 2 S106 878 1128393 2237 0
57 2 S106 827 1129220 3064 0
57 2 S106 775 1129995 3839 0
57 2 S106 762 1130757 4601 0
57 2 S106 768 1131525 5369 0
57 2 S106 750 1132275 6119 0
57 2 S106 772 1133047 6891 0
0 0 0 784 1133831 -8306 0
0 0 0 713 1134544 -7593 0
0 0 0 709 1135253 -6884 0
0 0 0 707 1135960 -6177 0
0 0 0 698 1136658 -5479 0
0 0 0 665 1137323 -4814 0
0 0 0 646 1137969 -4168 0
0 0 0 625 1138594 -3543 0
0 0 0 654 1139248 -2889 0
0 0 0 675 1139923 -2214 0
58 1 S102 666 1140589 -1548 0
58 1 S102 671 1141260 -877 0
58 1 S102 755 1142015 -122 0
58 2 S102 881 1142896 759 0
58 2 S102 872 1143768 1631 0
58 2 S102 868 1144636 2499 0
58 2 S102 803 1145439 3302 0
58 2 S102 805 1146244 4107 0
58 2 S102 808 1147052 4915 0
58 2 S102 789 1147841 5704 0
58 2 S102 786 1148627 6490 0
0 0 0 761 1149388 -6211 0
0 0 0 745 1150133 -5466 0
0 0 0 752 1150885 -4714 0
0 0 0 711 1151596 -4003 0
0 0 0 697 1152293 -3306 0
0 0 0 689 1152982 -2617 0
59 1 S112 696 1153678 -1921 0
59 1 S112 747 1154425 -1174 0
59 1 S112 839 1155264 -335 0
59 2 S112 857 1156121 522 0
59 2 S112 809 1156930 1331 0
59 2 S112 805 1157735 2136 0
59 2 S112 837 1158572 2973 0
59 2 S112 855 1159427 3828 0
59 2 S112 836 1160263 4664 0
59 2 S112 784 1161047 5448 0
59 2 S112 768 1161815 6216 0
59 2 S112 765 1162580 6981 0
0 0 0 758 1163338 -8325 0
0 0 0 778 1164116 -7547 0
0 0 0 772 1164888 -6775 0
0 0 0 711 1165599 -6064 0
0 0 0 744 1166343 -5320 0
0 0 0 760 1167103 -4560 0
0 0 0 887 1167990 -3673 0
0 0 0 829 1168819 -2844 0
0 0 0 753 1169572 -2091 0
60 1 S102 716 1170288 -1375 0
60 1 S102 731 1171019 -644 0
60 2 S102 753 1171772 109 0
60 2 S102 781 1172553 890 0
60 2 S102 782 1173335 1672 0
60 2 S102 793 1174128 2465 0
60 2 S102 760 1174888 3225 0
60 2 S102 718 1175606 3943 0
60 2 S102 714 1176320 4657 0
60 2 S102 725 1177045 5382 0
60 2 S102 802 1177847 6184 0
0 0 0 864 1178711 -10874 0
0 0 0 840 1179551 -10034 0
0 0 0 749 1180300 -9285 0
0 0 0 742 1181042 -8543 0
0 0 0 742 1181784 -7801 0
0 0 0 717 1182501 -7084 0
0 0 0 674 1183175 -6410 0
0 0 0 642 1183817 -5768 0
0 0 0 624 1184441 -5144 0
0 0 0 629 1185070 -4515 0
0 0 0 617 1185687 -3898 0
0 0 0 655 1186342 -3243 0
0 0 0 699 1187041 -2544 0
61 1 S106 757 1187798 -1787 0
61 1 S106 818 1188616 -969 0
61 1 S106 791 1189407 -178 0
61 2 S106 756 1190163 578 0
61 2 S106 800 1190963 1378 0
61 2 S106 848 1191811 2226 0
61 2 S106 870 1192681 3096 0
61 2 S106 879 1193560 3975 0
61 2 S106 845 1194405 4820 0
61 2 S106 794 1195199 5614 0
61 2 S106 769 1195968 6383 0
0 0 0 731 1196699 -7027 0
0 0 0 733 1197432 -6294 0
0 0 0 727 1198159 -5567 0
0 0 0 712 1198871 -4855 0
0 0 0 686 1199557 -4169 0
0 0 0 693 1200250 -3476 0
0 0 0 720 1200970 -2756 0
0 0 0 744 1201714 -2012 0
62 1 S112 737 1202451 -1275 0
62 1 S112 742 1203193 -533 0
62 2 S112 699 1203892 166 0
62 2 S112 676 1204568 842 0
62 2 S112 707 1205275 1549 0
62 2 S112 769 1206044 2318 0
62 2 S112 823 1206867 3141 0
62 2 S112 819 1207686 3960 0
62 2 S112 742 1208428 4702 0
62 2 S112 761 1209189 5463 0
62 2 S112 855 1210044 6318 0
0 0 0 902 1210946 -11149 0
0 0 0 855 1211801 -10294 0
0 0 0 728 1212529 -9566 0
0 0 0 666 1213195 -8900 0
0 0 0 649 1213844 -8251 0
0 0 0 646 1214490 -7605 0
0 0 0 652 1215142 -6953 0
0 0 0 732 1215874 -6221 0
0 0 0 781 1216655 -5440 0
0 0 0 810 1217465 -4630 0
0 0 0 782 1218247 -3848 0
0 0 0 743 1218990 -3105 0
0 0 0 769 1219759 -2336 0
63 1 S102 799 1220558 -1537 0
63 1 S102 794 1221352 -743 0
63 2 S102 808 1222160 65 0
63 2 S102 778 1222938 843 0
63 2 S102 788 1223726 1631 0
63 2 S102 743 1224469 2374 0
63 2 S102 715 1225184 3089 0
63 2 S102 715 1225899 3804 0
63 2 S102 737 1226636 4541 0
63 2 S102 765 1227401 5306 0
63 2 S102 779 1228180 6085 0
63 2 S102 735 1228915 6820 0
0 0 0 740 1229655 -7493 0
0 0 0 757 1230412 -6736 0
0 0 0 741 1231153 -5995 0
0 0 0 712 1231865 -5283 0
0 0 0 671 1232536 -4612 0
0 0 0 642 1233178 -3970 0
0 0 0 627 1233805 -3343 0
0 0 0 620 1234425 -2723 0
0 0 0 628 1235053 -2095 0
64 1 S112 671 1235724 -1424 0
64 1 S112 702 1236426 -722 0
64 2 S112 772 1237198 50 0
64 2 S112 756 1237954 806 0
64 2 S112 800 1238754 1606 0
64 2 S112 808 1239562 2414 0
64 2 S112 816 1240378 3230 0
64 2 S112 770 1241148 4000 0
64 2 S112 739 1241887 4739 0
64 2 S112 739 1242626 5478 0
64 2 S112 725 1243351 6203 0
64 2 S112 715 1244066 6918 0
0 0 0 715 1244781 -7354 0
0 0 0 719 1245500 -6635 0
0 0 0 688 1246188 -5947 0
0 0 0 658 1246846 -5289 0
0 0 0 672 1247518 -4617 0
0 0 0 702 1248220 -3915 0
0 0 0 793 1249013 -3122 0
0 0 0 858 1249871 -2264 0
65 1 S106 747 1250618 -1517 0
65 1 S106 701 1251319 -816 0
65 1 S106 706 1252025 -110 0
65 2 S106 735 1252760 625 0
65 2 S106 822 1253582 1447 0
65 2 S106 805 1254387 2252 0
65 2 S106 782 1255169 3034 0
65 2 S106 734 1255903 3768 0
65 2 S106 694 1256597 4462 0
65 2 S106 701 1257298 5163 0
65 2 S106 696 1257994 5859 0
65 2 S106 698 1258692 6557 0
0 0 0 709 1259401 -6627 0
0 0 0 692 1260093 -5935 0
0 0 0 700 1260793 -5235 0
0 0 0 722 1261515 -4513 0
0 0 0 750 1262265 -3763 0
0 0 0 759 1263024 -3004 0
0 0 0 722 1263746 -2282 0
66 1 S116 723 1264469 -1559 0
66 1 S116 745 1265214 -814 0
66 1 S116 799 1266013 -15 0
66 2 S116 815 1266828 800 0
66 2 S116 800 1267628 1600 0
66 2 S116 851 1268479 2451 0
66 2 S116 834 1269313 3285 0
66 2 S116 848 1270161 4133 0
66 2 S116 804 1270965 4937 0
66 2 S116 826 1271791 5763 0
66 2 S116 843 1272634 6606 0
0 0 0 853 1273487 -10528 0
0 0 0 803 1274290 -9725 0
0 0 0 752 1275042 -8973 0
0 0 0 703 1275745 -8270 0
0 0 0 688 1276433 -7582 0
0 0 0 720 1277153 -6862 0
0 0 0 752 1277905 -6110 0
0 0 0 779 1278684 -5331 0
0 0 0 766 1279450 -4565 0
0 0 0 863 1280313 -3702 0
0 0 0 860 1281173 -2842 0
0 0 0 824 1281997 -2018 0
67 1 S102 796 1282793 -1222 0
67 1 S102 788 1283581 -434 0
67 2 S102 747 1284328 313 0
67 2 S102 778 1285106 1091 0
67 2 S102 721 1285827 1812 0
67 2 S102 693 1286520 2505 0
67 2 S102 714 1287234 3219 0
67 2 S102 734 1287968 3953 0
67 2 S102 795 1288763 4748 0
67 2 S102 748 1289511 5496 0
67 2 S102 765 1290276 6261 0
0 0 0 825 1291101 -7304 0
0 0 0 827 1291928 -6477 0
0 0 0 824 1292752 -5653 0
0 0 0 768 1293520 -4885 0
0 0 0 688 1294208 -4197 0
0 0 0 686 1294894 -3511 0
0 0 0 702 1295596 -2809 0
0 0 0 801 1296397 -2008 0
68 1 S106 832 1297229 -1176 0
68 1 S106 828 1298057 -348 0
68 2 S106 779 1298836 431 0
68 2 S106 771 1299607 1202 0
68 2 S106 780 1300387 1982 0
68 2 S106 809 1301196 2791 0
68 2 S106 809 1302005 3600 0
68 2 S106 744 1302749 4344 0
68 2 S106 744 1303493 5088 0
68 2 S106 749 1304242 5837 0
68 2 S106 796 1305038 6633 0
0 0 0 829 1305867 -12051 0
0 0 0 784 1306651 -11267 0
0 0 0 781 1307432 -10486 0
0 0 0 806 1308238 -9680 0
0 0 0 802 1309040 -8878 0
0 0 0 733 1309773 -8145 0
0 0 0 682 1310455 -7463 0
0 0 0 672 1311127 -6791 0
0 0 0 666 1311793 -6125 0
0 0 0 700 1312493 -5425 0
0 0 0 781 1313274 -4644 0
0 0 0 787 1314061 -3857 0
0 0 0 766 1314827 -3091 0
0 0 0 834 1315661 -2257 0
69 1 S102 812 1316473 -1445 0
69 1 S102 833 1317306 -612 0
69 2 S102 761 1318067 149 0
69 2 S102 751 1318818 900 0
69 2 S102 750 1319568 1650 0
69 2 S102 746 1320314 2396 0
69 2 S102 727 1321041 3123 0
69 2 S102 682 1321723 3805 0
69 2 S102 674 1322397 4479 0
69 2 S102 692 1323089 5171 0
69 2 S102 712 1323801 5883 0
69 2 S102 721 1324522 6604 0
0 0 0 737 1325259 -8491 0
0 0 0 749 1326008 -7742 0
0 0 0 755 1326763 -6987 0
0 0 0 706 1327469 -6281 0
0 0 0 654 1328123 -5627 0
0 0 0 640 1328763 -4987 0
0 0 0 613 1329376 -4374 0
0 0 0 588 1329964 -3786 0
0 0 0 587 1330551 -3199 0
0 0 0 590 1331141 -2609 0
70 1 S112 648 1331789 -1961 0
70 1 S112 835 1332624 -1126 0
70 1 S112 817 1333441 -309 0
70 2 S112 799 1334240 490 0
70 2 S112 781 1335021 1271 0
70 2 S112 845 1335866 2116 0
70 2 S112 852 1336718 2968 0
70 2 S112 892 1337610 3860 0
70 2 S112 803 1338413 4663 0
70 2 S112 825 1339238 5488 0
70 2 S112 822 1340060 6310 0
0 0 0 806 1340866 -11966 0
0 0 0 771 1341637 -11195 0
0 0 0 771 1342408 -10424 0
0 0 0 797 1343205 -9627 0
0 0 0 812 1344017 -8815 0
0 0 0 732 1344749 -8083 0
0 0 0 694 1345443 -7389 0
0 0 0 680 1346123 -6709 0
0 0 0 724 1346847 -5985 0
0 0 0 838 1347685 -5147 0
0 0 0 870 1348555 -4277 0
0 0 0 840 1349395 -3437 0
0 0 0 791 1350186 -2646 0
71 1 S116 792 1350978 -1854 0
71 1 S116 789 1351767 -1065 0
71 1 S116 797 1352564 -268 0
71 2 S116 795 1353359 527 0
71 2 S116 784 1354143 1311 0
71 2 S116 789 1354932 2100 0
71 2 S116 808 1355740 2908 0
71 2 S116 798 1356538 3706 0
71 2 S116 814 1357352 4520 0
71 2 S116 801 1358153 5321 0
71 2 S116 777 1358930 6098 0
71 2 S116 779 1359709 6877 0
0 0 0 824 1360533 -9076 0
0 0 0 829 1361362 -8247 0
0 0 0 830 1362192 -7417 0
0 0 0 752 1362944 -6665 0
0 0 0 754 1363698 -5911 0
0 0 0 725 1364423 -5186 0
0 0 0 802 1365225 -4384 0
0 0 0 808 1366033 -3576 0
0 0 0 787 1366820 -2789 0
0 0 0 738 1367558 -2051 0
72 1 S102 735 1368293 -1316 0
72 1 S102 742 1369035 -574 0
72 2 S102 739 1369774 165 0
72 2 S102 731 1370505 896 0
72 2 S102 706 1371211 1602 0
72 2 S102 712 1371923 2314 0
72 2 S102 748 1372671 3062 0
72 2 S102 851 1373522 3913 0
72 2 S102 817 1374339 4730 0
72 2 S102 777 1375116 5507 0
72 2 S102 808 1375924 6315 0
0 0 0 845 1376769 -7330 0
0 0 0 833 1377602 -6497 0
0 0 0 775 1378377 -5722 0
0 0 0 762 1379139 -4960 0
0 0 0 732 1379871 -4228 0
0 0 0 674 1380545 -3554 0
0 0 0 637 1381182 -2917 0
0 0 0 616 1381798 -2301 0
73 1 S116 592 1382390 -1709 0
73 1 S116 577 1382967 -1132 0
73 1 S116 586 1383553 -546 0
73 2 S116 608 1384161 62 0
73 2 S116 700 1384861 762 0
73 2 S116 991 1385852 1753 1
73 2 S116 903 1386755 2656 0
73 2 S116 896 1387651 3552 0
73 2 S116 866 1388517 4418 0
73 2 S116 798 1389315 5216 0
73 2 S116 825 1390140 6041 0
73 2 S116 806 1390946 6847 0
0 0 0 798 1391744 -10342 0
0 0 0 749 1392493 -9593 0
0 0 0 720 1393213 -8873 0
0 0 0 685 1393898 -8188 0
0 0 0 720 1394618 -7468 0
0 0 0 790 1395408 -6678 0
0 0 0 829 1396237 -5849 0
0 0 0 787 1397024 -5062 0
0 0 0 744 1397768 -4318 0
0 0 0 836 1398604 -3482 0
0 0 0 796 1399400 -2686 0
74 1 S106 740 1400140 -1946 0
74 1 S106 715 1400855 -1231 0
74 1 S106 695 1401550 -536 0
74 2 S106 701 1402251 165 0
74 2 S106 812 1403063 977 0
74 2 S106 849 1403912 1826 0
74 2 S106 836 1404748 2662 0
74 2 S106 821 1405569 3483 0
74 2 S106 846 1406415 4329 0
74 2 S106 845 1407260 5174 0
74 2 S106 841 1408101 6015 0
74 2 S106 826 1408927 6841 0
0 0 0 798 1409725 -5856 0
0 0 0 808 1410533 -5048 0
0 0 0 770 1411303 -4278 0
0 0 0 734 1412037 -3544 0
0 0 0 694 1412731 -2850 0
0 0 0 658 1413389 -2192 0
75 1 S112 657 1414046 -1535 0
75 1 S112 727 1414773 -808 0
75 2 S112 851 1415624 43 0
75 2 S112 854 1416478 897 0
75 2 S112 864 1417342 1761 0
75 2 S112 847 1418189 2608 0
75 2 S112 872 1419061 3480 0
75 2 S112 891 1419952 4371 0
75 2 S112 826 1420778 5197 0
75 2 S112 806 1421584 6003 0
75 2 S112 819 1422403 6822 0
0 0 0 761 1423164 -7238 0
0 0 0 716 1423880 -6522 0
0 0 0 714 1424594 -5808 0
0 0 0 703 1425297 -5105 0
0 0 0 716 1426013 -4389 0
0 0 0 674 1426687 -3715 0
0 0 0 689 1427376 -3026 0
0 0 0 750 1428126 -2276 0
76 1 S116 931 1429057 -1345 0
76 1 S116 878 1429935 -467 0
76 2 S116 861 1430796 394 0
76 2 S116 813 1431609 1207 0
76 2 S116 816 1432425 2023 0
76 2 S116 810 1433235 2833 0
76 2 S116 816 1434051 3649 0
76 2 S116 810 1434861 4459 0
76 2 S116 789 1435650 5248 0
76 2 S116 834 1436484 6082 0
76 2 S116 865 1437349 6947 0
0 0 0 902 1438251 -5862 0
0 0 0 891 1439142 -4971 0
0 0 0 831 1439973 -4140 0
0 0 0 769 1440742 -3371 0
0 0 0 718 1441460 -2653 0
77 1 S106 665 1442125 -1988 0
77 1 S106 633 1442758 -1355 0
77 1 S106 618 1443376 -737 0
77 1 S106 636 1444012 -101 0
77 2 S106 828 1444840 727 0
77 2 S106 874 1445714 1601 0
77 2 S106 825 1446539 2426 0
77 2 S106 819 1447358 3245 0
77 2 S106 821 1448179 4066 0
77 2 S106 812 1448991 4878 0
77 2 S106 736 1449727 5614 0
77 2 S106 695 1450422 6309 0
77 2 S106 646 1451068 6955 0
0 0 0 639 1451707 -7989 0
0 0 0 683 1452390 -7306 0
0 0 0 733 1453123 -6573 0
0 0 0 787 1453910 -5786 0
0 0 0 812 1454722 -4974 0
0 0 0 778 1455500 -4196 0
0 0 0 731 1456231 -3465 0
0 0 0 747 1456978 -2718 0
78 1 S112 760 1457738 -1958 0
78 1 S112 784 1458522 -1174 0
78 1 S112 774 1459296 -400 0
78 2 S112 739 1460035 339 0
78 2 S112 733 1460768 1072 0
78 2 S112 758 1461526 1830 0
78 2 S112 738 1462264 2568 0
78 2 S112 750 1463014 3318 0
78 2 S112 751 1463765 4069 0
78 2 S112 765 1464530 4834 0
78 2 S112 784 1465314 5618 0
78 2 S112 778 1466092 6396 0
0 0 0 750 1466842 -10676 0
0 0 0 720 1467562 -9956 0
0 0 0 683 1468245 -9273 0
0 0 0 640 1468885 -8633 0
0 0 0 630 1469515 -8003 0
0 0 0 644 1470159 -7359 0
0 0 0 799 1470958 -6560 0
0 0 0 867 1471825 -5693 0
0 0 0 827 1472652 -4866 0
0 0 0 844 1473496 -4022 0
0 0 0 811 1474307 -3211 0
0 0 0 870 1475177 -2341 0
79 1 S102 825 1476002 -1516 0
79 1 S102 783 1476785 -733 0
79 2 S102 750 1477535 17 0
79 2 S102 757 1478292 774 0
79 2 S102 743 1479035 1517 0
79 2 S102 769 1479804 2286 0
79 2 S102 794 1480598 3080 0
79 2 S102 799 1481397 3879 0
79 2 S102 807 1482204 4686 0
79 2 S102 815 1483019 5501 0
79 2 S102 798 1483817 6299 0
0 0 0 771 1484588 -9376 0
0 0 0 791 1485379 -8585 0
0 0 0 755 1486134 -7830 0
0 0 0 771 1486905 -7059 0
0 0 0 736 1487641 -6323 0
0 0 0 693 1488334 -5630 0
0 0 0 656 1488990 -4974 0
0 0 0 663 1489653 -4311 0
0 0 0 681 1490334 -3630 0
0 0 0 859 1491193 -2771 0
80 1 S116 839 1492032 -1932 0
80 1 S116 795 1492827 -1137 0
80 1 S116 853 1493680 -284 0
80 2 S116 855 1494535 571 0
80 2 S116 879 1495414 1450 0
80 2 S116 839 1496253 2289 0
80 2 S116 809 1497062 3098 0
80 2 S116 840 1497902 3938 0
80 2 S116 830 1498732 4768 0
80 2 S116 789 1499521 5557 0
80 2 S116 773 1500294 6330 0
