T_0048
BeatCount Mean SD BeatCountNoOutliers MeanNoOutliers SDNoOutliers
1550 937,538064516129 69,004033593396 1522 939,182654402102 64,1438110312526

Trial TrialStatus Trialtype IBI AbsPosition RelPosition Outlier
0 0 0 851 1336 -15486 0
0 0 0 854 2190 -14632 0
0 0 0 857 3047 -13775 0
0 0 0 830 3877 -12945 0
0 0 0 826 4703 -12119 0
0 0 0 853 5556 -11266 0
0 0 0 864 6420 -10402 0
0 0 0 882 7302 -9520 0
0 0 0 838 8140 -8682 0
0 0 0 844 8984 -7838 0
0 0 0 873 9857 -6965 0
0 0 0 884 10741 -6081 0
0 0 0 838 11579 -5243 0
0 0 0 901 12480 -4342 0
0 0 0 961 13441 -3381 0
0 0 0 1033 14474 -2348 0
1 1 S112 993 15467 -1355 0
1 1 S112 907 16374 -448 0
1 2 S112 949 17323 501 0
1 2 S112 986 18309 1487 0
1 2 S112 990 19299 2477 0
1 2 S112 969 20268 3446 0
1 2 S112 905 21173 4351 0
1 2 S112 872 22045 5223 0
1 2 S112 912 22957 6135 0
0 0 0 973 23930 -11542 0
0 0 0 981 24911 -10561 0
0 0 0 941 25852 -9620 0
0 0 0 917 26769 -8703 0
0 0 0 948 27717 -7755 0
0 0 0 957 28674 -6798 0
0 0 0 879 29553 -5919 0
0 0 0 833 30386 -5086 0
0 0 0 880 31266 -4206 0
0 0 0 925 32191 -3281 0
0 0 0 959 33150 -2322 0
2 1 S102 980 34130 -1342 0
2 1 S102 911 35041 -431 0
2 2 S102 949 35990 518 0
2 2 S102 1026 37016 1544 0
2 2 S102 1021 38037 2565 0
2 2 S102 939 38976 3504 0
2 2 S102 864 39840 4368 0
2 2 S102 897 40737 5265 0
2 2 S102 919 41656 6184 0
0 0 0 951 42607 -8399 0
0 0 0 971 43578 -7428 0
0 0 0 889 44467 -6539 0
0 0 0 902 45369 -5637 0
0 0 0 916 46285 -4721 0
0 0 0 918 47203 -3803 0
0 0 0 867 48070 -2936 0
0 0 0 863 48933 -2073 0
3 1 S116 911 49844 -1162 0
3 1 S116 977 50821 -185 0
3 2 S116 981 51802 796 0
3 2 S116 936 52738 1732 0
3 2 S116 911 53649 2643 0
3 2 S116 997 54646 3640 0
3 2 S116 1039 55685 4679 0
3 2 S116 1062 56747 5741 0
3 2 S116 959 57706 6700 0
0 0 0 908 58614 -11076 0
0 0 0 969 59583 -10107 0
0 0 0 1026 60609 -9081 0
0 0 0 989 61598 -8092 0
0 0 0 890 62488 -7202 0
0 0 0 954 63442 -6248 0
0 0 0 999 64441 -5249 0
0 0 0 1045 65486 -4204 0
0 0 0 965 66451 -3239 0
0 0 0 898 67349 -2341 0
4 1 S106 969 68318 -1372 0
4 1 S106 1034 69352 -338 0
4 2 S106 1044 70396 706 0
4 2 S106 978 71374 1684 0
4 2 S106 901 72275 2585 0
4 2 S106 956 73231 3541 0
4 2 S106 1010 74241 4551 0
4 2 S106 1041 75282 5592 0
4 2 S106 937 76219 6529 0
0 0 0 894 77113 -7514 0
0 0 0 966 78079 -6548 0
0 0 0 979 79058 -5569 0
0 0 0 1005 80063 -4564 0
0 0 0 912 80975 -3652 0
0 0 0 936 81911 -2716 0
5 1 S116 959 82870 -1757 0
5 1 S116 983 83853 -774 0
5 2 S116 912 84765 138 0
5 2 S116 882 85647 1020 0
5 2 S116 939 86586 1959 0
5 2 S116 976 87562 2935 0
5 2 S116 904 88466 3839 0
5 2 S116 863 89329 4702 0
5 2 S116 928 90257 5630 0
5 2 S116 973 91230 6603 0
0 0 0 987 92217 -8558 0
0 0 0 970 93187 -7588 0
0 0 0 895 94082 -6693 0
0 0 0 958 95040 -5735 0
0 0 0 966 96006 -4769 0
0 0 0 942 96948 -3827 0
0 0 0 889 97837 -2938 0
6 1 S106 950 98787 -1988 0
6 1 S106 982 99769 -1006 0
6 2 S106 1037 100806 31 0
6 2 S106 971 101777 1002 0
6 2 S106 912 102689 1914 0
6 2 S106 962 103651 2876 0
6 2 S106 998 104649 3874 0
6 2 S106 1015 105664 4889 0
6 2 S106 932 106596 5821 0
6 2 S106 874 107470 6695 0
0 0 0 909 108379 -11096 0
0 0 0 967 109346 -10129 0
0 0 0 988 110334 -9141 0
0 0 0 926 111260 -8215 0
0 0 0 893 112153 -7322 0
0 0 0 929 113082 -6393 0
0 0 0 944 114026 -5449 0
0 0 0 898 114924 -4551 0
0 0 0 865 115789 -3686 0
0 0 0 913 116702 -2773 0
7 1 S102 934 117636 -1839 0
7 1 S102 1010 118646 -829 0
7 2 S102 968 119614 139 0
7 2 S102 954 120568 1093 0
7 2 S102 998 121566 2091 0
7 2 S102 1011 122577 3102 0
7 2 S102 971 123548 4073 0
7 2 S102 885 124433 4958 0
7 2 S102 930 125363 5888 0
7 2 S102 988 126351 6876 0
0 0 0 976 127327 -7848 0
0 0 0 937 128264 -6911 0
0 0 0 891 129155 -6020 0
0 0 0 927 130082 -5093 0
0 0 0 961 131043 -4132 0
0 0 0 1016 132059 -3116 0
0 0 0 909 132968 -2207 0
8 1 S112 851 133819 -1356 0
8 1 S112 888 134707 -468 0
8 2 S112 940 135647 472 0
8 2 S112 1027 136674 1499 0
8 2 S112 1041 137715 2540 0
8 2 S112 981 138696 3521 0
8 2 S112 916 139612 4437 0
8 2 S112 954 140566 5391 0
8 2 S112 1005 141571 6396 0
0 0 0 1044 142615 -6850 0
0 0 0 974 143589 -5876 0
0 0 0 893 144482 -4983 0
0 0 0 935 145417 -4048 0
0 0 0 969 146386 -3079 0
0 0 0 957 147343 -2122 0
9 1 S116 904 148247 -1218 0
9 1 S116 952 149199 -266 0
9 2 S116 1022 150221 756 0
9 2 S116 1024 151245 1780 0
9 2 S116 927 152172 2707 0
9 2 S116 898 153070 3605 0
9 2 S116 923 153993 4528 0
9 2 S116 937 154930 5465 0
9 2 S116 948 155878 6413 0
0 0 0 875 156753 -11247 0
0 0 0 881 157634 -10366 0
0 0 0 922 158556 -9444 0
0 0 0 976 159532 -8468 0
0 0 0 941 160473 -7527 0
0 0 0 877 161350 -6650 0
0 0 0 914 162264 -5736 0
0 0 0 953 163217 -4783 0
0 0 0 953 164170 -3830 0
0 0 0 881 165051 -2949 0
0 0 0 832 165883 -2117 0
10 1 S102 846 166729 -1271 0
10 1 S102 880 167609 -391 0
10 2 S102 918 168527 527 0
10 2 S102 962 169489 1489 0
10 2 S102 911 170400 2400 0
10 2 S102 914 171314 3314 0
10 2 S102 950 172264 4264 0
10 2 S102 977 173241 5241 0
10 2 S102 981 174222 6222 0
0 0 0 892 175114 -10376 0
0 0 0 874 175988 -9502 0
0 0 0 904 176892 -8598 0
0 0 0 922 177814 -7676 0
0 0 0 944 178758 -6732 0
0 0 0 883 179641 -5849 0
0 0 0 821 180462 -5028 0
0 0 0 902 181364 -4126 0
0 0 0 920 182284 -3206 0
0 0 0 950 183234 -2256 0
11 1 S112 912 184146 -1344 0
11 1 S112 823 184969 -521 0
11 2 S112 909 185878 388 0
11 2 S112 940 186818 1328 0
11 2 S112 983 187801 2311 0
11 2 S112 971 188772 3282 0
11 2 S112 889 189661 4171 0
11 2 S112 843 190504 5014 0
11 2 S112 974 191478 5988 0
11 2 S112 975 192453 6963 0
0 0 0 978 193431 -5471 0
0 0 0 925 194356 -4546 0
0 0 0 863 195219 -3683 0
0 0 0 895 196114 -2788 0
12 1 S116 946 197060 -1842 0
12 1 S116 976 198036 -866 0
12 2 S116 913 198949 47 0
12 2 S116 838 199787 885 0
12 2 S116 994 200781 1879 0
12 2 S116 982 201763 2861 0
12 2 S116 1022 202785 3883 0
12 2 S116 953 203738 4836 0
12 2 S116 876 204614 5712 0
12 2 S116 914 205528 6626 0
0 0 0 947 206475 -10763 0
0 0 0 983 207458 -9780 0
0 0 0 921 208379 -8859 0
0 0 0 831 209210 -8028 0
0 0 0 929 210139 -7099 0
0 0 0 928 211067 -6171 0
0 0 0 936 212003 -5235 0
0 0 0 844 212847 -4391 0
0 0 0 928 213775 -3463 0
0 0 0 935 214710 -2528 0
13 1 S112 959 215669 -1569 0
13 1 S112 915 216584 -654 0
13 2 S112 845 217429 191 0
13 2 S112 982 218411 1173 0
13 2 S112 992 219403 2165 0
13 2 S112 1005 220408 3170 0
13 2 S112 925 221333 4095 0
13 2 S112 912 222245 5007 0
13 2 S112 969 223214 5976 0
13 2 S112 1002 224216 6978 0
0 0 0 997 225213 -10493 0
0 0 0 901 226114 -9592 0
0 0 0 920 227034 -8672 0
0 0 0 941 227975 -7731 0
0 0 0 951 228926 -6780 0
0 0 0 888 229814 -5892 0
0 0 0 911 230725 -4981 0
0 0 0 950 231675 -4031 0
0 0 0 947 232622 -3084 0
0 0 0 904 233526 -2180 0
14 1 S106 842 234368 -1338 0
14 1 S106 917 235285 -421 0
14 2 S106 938 236223 517 0
14 2 S106 973 237196 1490 0
14 2 S106 938 238134 2428 0
14 2 S106 868 239002 3296 0
14 2 S106 907 239909 4203 0
14 2 S106 944 240853 5147 0
14 2 S106 925 241778 6072 0
14 2 S106 851 242629 6923 0
0 0 0 825 243454 -9892 0
0 0 0 900 244354 -8992 0
0 0 0 892 245246 -8100 0
0 0 0 823 246069 -7277 0
0 0 0 786 246855 -6491 0
0 0 0 777 247632 -5714 0
0 0 0 803 248435 -4911 0
0 0 0 872 249307 -4039 0
0 0 0 925 250232 -3114 0
0 0 0 919 251151 -2195 0
15 1 S116 874 252025 -1321 0
15 1 S116 907 252932 -414 0
15 2 S116 946 253878 532 0
15 2 S116 969 254847 1501 0
15 2 S116 973 255820 2474 0
15 2 S116 914 256734 3388 0
15 2 S116 927 257661 4315 0
15 2 S116 963 258624 5278 0
15 2 S116 987 259611 6265 0
0 0 0 942 260553 -9819 0
0 0 0 894 261447 -8925 0
0 0 0 933 262380 -7992 0
0 0 0 967 263347 -7025 0
0 0 0 976 264323 -6049 0
0 0 0 894 265217 -5155 0
0 0 0 903 266120 -4252 0
0 0 0 930 267050 -3322 0
0 0 0 982 268032 -2340 0
16 1 S116 916 268948 -1424 0
16 1 S116 861 269809 -563 0
16 2 S116 869 270678 306 0
16 2 S116 904 271582 1210 0
16 2 S116 1020 272602 2230 0
16 2 S116 1045 273647 3275 0
16 2 S116 1019 274666 4294 0
16 2 S116 917 275583 5211 0
16 2 S116 946 276529 6157 0
0 0 0 975 277504 -8501 0
0 0 0 990 278494 -7511 0
0 0 0 995 279489 -6516 0
0 0 0 899 280388 -5617 0
0 0 0 932 281320 -4685 0
0 0 0 960 282280 -3725 0
0 0 0 996 283276 -2729 0
17 1 S106 966 284242 -1763 0
17 1 S106 905 285147 -858 0
17 2 S106 957 286104 99 0
17 2 S106 1006 287110 1105 0
17 2 S106 1011 288121 2116 0
17 2 S106 944 289065 3060 0
17 2 S106 865 289930 3925 0
17 2 S106 904 290834 4829 0
17 2 S106 927 291761 5756 0
17 2 S106 963 292724 6719 0
0 0 0 929 293653 -10754 0
0 0 0 884 294537 -9870 0
0 0 0 925 295462 -8945 0
0 0 0 952 296414 -7993 0
0 0 0 933 297347 -7060 0
0 0 0 873 298220 -6187 0
0 0 0 904 299124 -5283 0
0 0 0 957 300081 -4326 0
0 0 0 952 301033 -3374 0
0 0 0 921 301954 -2453 0
18 1 S102 863 302817 -1590 0
18 1 S102 879 303696 -711 0
18 2 S102 899 304595 188 0
18 2 S102 908 305503 1096 0
18 2 S102 885 306388 1981 0
18 2 S102 839 307227 2820 0
18 2 S102 867 308094 3687 0
18 2 S102 889 308983 4576 0
18 2 S102 912 309895 5488 0
18 2 S102 903 310798 6391 0
0 0 0 849 311647 -6205 0
0 0 0 877 312524 -5328 0
0 0 0 904 313428 -4424 0
0 0 0 938 314366 -3486 0
0 0 0 939 315305 -2547 0
19 1 S106 880 316185 -1667 0
19 1 S106 889 317074 -778 0
19 2 S106 918 317992 140 0
19 2 S106 943 318935 1083 0
19 2 S106 893 319828 1976 0
19 2 S106 847 320675 2823 0
19 2 S106 885 321560 3708 0
19 2 S106 902 322462 4610 0
19 2 S106 917 323379 5527 0
19 2 S106 862 324241 6389 0
0 0 0 852 325093 -9752 0
0 0 0 893 325986 -8859 0
0 0 0 917 326903 -7942 0
0 0 0 909 327812 -7033 0
0 0 0 870 328682 -6163 0
0 0 0 915 329597 -5248 0
0 0 0 953 330550 -4295 0
0 0 0 949 331499 -3346 0
0 0 0 880 332379 -2466 0
20 1 S112 875 333254 -1591 0
20 1 S112 888 334142 -703 0
20 2 S112 894 335036 191 0
20 2 S112 850 335886 1041 0
20 2 S112 875 336761 1916 0
20 2 S112 918 337679 2834 0
20 2 S112 963 338642 3797 0
20 2 S112 950 339592 4747 0
20 2 S112 885 340477 5632 0
20 2 S112 903 341380 6535 0
0 0 0 936 342316 -7997 0
0 0 0 983 343299 -7014 0
0 0 0 926 344225 -6088 0
0 0 0 865 345090 -5223 0
0 0 0 898 345988 -4325 0
0 0 0 942 346930 -3383 0
0 0 0 999 347929 -2384 0
21 1 S106 984 348913 -1400 0
21 1 S106 898 349811 -502 0
21 2 S106 931 350742 429 0
21 2 S106 962 351704 1391 0
21 2 S106 980 352684 2371 0
21 2 S106 952 353636 3323 0
21 2 S106 892 354528 4215 0
21 2 S106 940 355468 5155 0
21 2 S106 956 356424 6111 0
0 0 0 973 357397 -10456 0
0 0 0 887 358284 -9569 0
0 0 0 896 359180 -8673 0
0 0 0 927 360107 -7746 0
0 0 0 949 361056 -6797 0
0 0 0 886 361942 -5911 0
0 0 0 825 362767 -5086 0
0 0 0 809 363576 -4277 0
0 0 0 813 364389 -3464 0
0 0 0 871 365260 -2593 0
22 1 S116 998 366258 -1595 0
22 1 S116 1040 367298 -555 0
22 2 S116 970 368268 415 0
22 2 S116 933 369201 1348 0
22 2 S116 1025 370226 2373 0
22 2 S116 1074 371300 3447 0
22 2 S116 1102 372402 4549 0
22 2 S116 1025 373427 5574 0
22 2 S116 923 374350 6497 0
0 0 0 989 375339 -8644 0
0 0 0 1016 376355 -7628 0
0 0 0 998 377353 -6630 0
0 0 0 913 378266 -5717 0
0 0 0 908 379174 -4809 0
0 0 0 937 380111 -3872 0
0 0 0 986 381097 -2886 0
23 1 S112 968 382065 -1918 0
23 1 S112 908 382973 -1010 0
23 1 S112 987 383960 -23 0
23 2 S112 1071 385031 1048 0
23 2 S112 1070 386101 2118 0
23 2 S112 975 387076 3093 0
23 2 S112 940 388016 4033 0
23 2 S112 968 388984 5001 0
23 2 S112 1004 389988 6005 0
23 2 S112 963 390951 6968 0
0 0 0 914 391865 -8630 0
0 0 0 966 392831 -7664 0
0 0 0 1019 393850 -6645 0
0 0 0 1012 394862 -5633 0
0 0 0 934 395796 -4699 0
0 0 0 930 396726 -3769 0
0 0 0 950 397676 -2819 0
24 1 S106 996 398672 -1823 0
24 1 S106 963 399635 -860 0
24 2 S106 898 400533 38 0
24 2 S106 954 401487 992 0
24 2 S106 993 402480 1985 0
24 2 S106 945 403425 2930 0
24 2 S106 876 404301 3806 0
24 2 S106 905 405206 4711 0
24 2 S106 948 406154 5659 0
24 2 S106 1000 407154 6659 0
0 0 0 932 408086 -7297 0
0 0 0 883 408969 -6414 0
0 0 0 928 409897 -5486 0
0 0 0 944 410841 -4542 0
0 0 0 965 411806 -3577 0
0 0 0 897 412703 -2680 0
25 1 S102 907 413610 -1773 0
25 1 S102 957 414567 -816 0
25 2 S102 963 415530 147 0
25 2 S102 977 416507 1124 0
25 2 S102 902 417409 2026 0
25 2 S102 914 418323 2940 0
25 2 S102 936 419259 3876 0
25 2 S102 972 420231 4848 0
25 2 S102 917 421148 5765 0
25 2 S102 855 422003 6620 0
0 0 0 893 422896 -5948 0
0 0 0 926 423822 -5022 0
0 0 0 946 424768 -4076 0
0 0 0 885 425653 -3191 0
0 0 0 865 426518 -2326 0
26 1 S116 896 427414 -1430 0
26 1 S116 912 428326 -518 0
26 2 S116 932 429258 414 0
26 2 S116 879 430137 1293 0
26 2 S116 895 431032 2188 0
26 2 S116 932 431964 3120 0
26 2 S116 963 432927 4083 0
26 2 S116 972 433899 5055 0
26 2 S116 885 434784 5940 0
26 2 S116 897 435681 6837 0
0 0 0 945 436626 -6526 0
0 0 0 971 437597 -5555 0
0 0 0 965 438562 -4590 0
0 0 0 864 439426 -3726 0
0 0 0 862 440288 -2864 0
27 1 S106 925 441213 -1939 0
27 1 S106 889 442102 -1050 0
27 1 S106 837 442939 -213 0
27 2 S106 831 443770 618 0
27 2 S106 862 444632 1480 0
27 2 S106 842 445474 2322 0
27 2 S106 807 446281 3129 0
27 2 S106 759 447040 3888 1
27 2 S106 762 447802 4650 0
27 2 S106 804 448606 5454 0
27 2 S106 835 449441 6289 0
0 0 0 883 450324 -6704 0
0 0 0 865 451189 -5839 0
0 0 0 854 452043 -4985 0
0 0 0 892 452935 -4093 0
0 0 0 918 453853 -3175 0
0 0 0 878 454731 -2297 0
28 1 S102 841 455572 -1456 0
28 1 S102 860 456432 -596 0
28 2 S102 905 457337 309 0
28 2 S102 967 458304 1276 0
28 2 S102 928 459232 2204 0
28 2 S102 858 460090 3062 0
28 2 S102 889 460979 3951 0
28 2 S102 933 461912 4884 0
28 2 S102 958 462870 5842 0
28 2 S102 940 463810 6782 0
0 0 0 891 464701 -9817 0
0 0 0 934 465635 -8883 0
0 0 0 927 466562 -7956 0
0 0 0 917 467479 -7039 0
0 0 0 847 468326 -6192 0
0 0 0 866 469192 -5326 0
0 0 0 880 470072 -4446 0
0 0 0 922 470994 -3524 0
0 0 0 896 471890 -2628 0
29 1 S112 849 472739 -1779 0
29 1 S112 880 473619 -899 0
29 2 S112 925 474544 26 0
29 2 S112 979 475523 1005 0
29 2 S112 972 476495 1977 0
29 2 S112 885 477380 2862 0
29 2 S112 889 478269 3751 0
29 2 S112 922 479191 4673 0
29 2 S112 947 480138 5620 0
29 2 S112 906 481044 6526 0
0 0 0 855 481899 -5799 0
0 0 0 902 482801 -4897 0
0 0 0 910 483711 -3987 0
0 0 0 905 484616 -3082 0
0 0 0 852 485468 -2230 0
30 1 S112 892 486360 -1338 0
30 1 S112 933 487293 -405 0
30 2 S112 899 488192 494 0
30 2 S112 864 489056 1358 0
30 2 S112 929 489985 2287 0
30 2 S112 966 490951 3253 0
30 2 S112 943 491894 4196 0
30 2 S112 880 492774 5076 0
30 2 S112 888 493662 5964 0
30 2 S112 917 494579 6881 0
0 0 0 950 495529 -7570 0
0 0 0 920 496449 -6650 0
0 0 0 860 497309 -5790 0
0 0 0 910 498219 -4880 0
0 0 0 936 499155 -3944 0
0 0 0 975 500130 -2969 0
0 0 0 945 501075 -2024 0
31 1 S106 893 501968 -1131 0
31 1 S106 932 502900 -199 0
31 2 S106 953 503853 754 0
31 2 S106 1007 504860 1761 0
31 2 S106 944 505804 2705 0
31 2 S106 868 506672 3573 0
31 2 S106 892 507564 4465 0
31 2 S106 909 508473 5374 0
31 2 S106 945 509418 6319 0
0 0 0 930 510348 -7837 0
0 0 0 889 511237 -6948 0
0 0 0 917 512154 -6031 0
0 0 0 944 513098 -5087 0
0 0 0 944 514042 -4143 0
0 0 0 877 514919 -3266 0
0 0 0 896 515815 -2370 0
32 1 S102 932 516747 -1438 0
32 1 S102 976 517723 -462 0
32 2 S102 969 518692 507 0
32 2 S102 895 519587 1402 0
32 2 S102 905 520492 2307 0
32 2 S102 922 521414 3229 0
32 2 S102 924 522338 4153 0
32 2 S102 833 523171 4986 0
32 2 S102 804 523975 5790 0
32 2 S102 825 524800 6615 0
0 0 0 893 525693 -9867 0
0 0 0 922 526615 -8945 0
0 0 0 934 527549 -8011 0
0 0 0 874 528423 -7137 0
0 0 0 877 529300 -6260 0
0 0 0 939 530239 -5321 0
0 0 0 940 531179 -4381 0
0 0 0 969 532148 -3412 0
0 0 0 930 533078 -2482 0
33 1 S112 863 533941 -1619 0
33 1 S112 895 534836 -724 0
33 2 S112 920 535756 196 0
33 2 S112 953 536709 1149 0
33 2 S112 954 537663 2103 0
33 2 S112 910 538573 3013 0
33 2 S112 866 539439 3879 0
33 2 S112 953 540392 4832 0
33 2 S112 1015 541407 5847 0
33 2 S112 1010 542417 6857 0
0 0 0 914 543331 -10879 0
0 0 0 847 544178 -10032 0
0 0 0 972 545150 -9060 0
0 0 0 943 546093 -8117 0
0 0 0 890 546983 -7227 0
0 0 0 809 547792 -6418 0
0 0 0 851 548643 -5567 0
0 0 0 873 549516 -4694 0
0 0 0 954 550470 -3740 0
0 0 0 1014 551484 -2726 0
34 1 S106 932 552416 -1794 0
34 1 S106 933 553349 -861 0
34 2 S106 984 554333 123 0
34 2 S106 1043 555376 1166 0
34 2 S106 964 556340 2130 0
34 2 S106 880 557220 3010 0
34 2 S106 905 558125 3915 0
34 2 S106 936 559061 4851 0
34 2 S106 988 560049 5839 0
34 2 S106 980 561029 6819 0
0 0 0 907 561936 -8355 0
0 0 0 911 562847 -7444 0
0 0 0 941 563788 -6503 0
0 0 0 965 564753 -5538 0
0 0 0 891 565644 -4647 0
0 0 0 878 566522 -3769 0
0 0 0 932 567454 -2837 0
35 1 S102 986 568440 -1851 0
35 1 S102 1017 569457 -834 0
35 2 S102 955 570412 121 0
35 2 S102 911 571323 1032 0
35 2 S102 946 572269 1978 0
35 2 S102 1000 573269 2978 0
35 2 S102 1008 574277 3986 0
35 2 S102 922 575199 4908 0
35 2 S102 880 576079 5788 0
35 2 S102 922 577001 6710 0
0 0 0 974 577975 -5795 0
0 0 0 989 578964 -4806 0
0 0 0 948 579912 -3858 0
0 0 0 883 580795 -2975 0
0 0 0 926 581721 -2049 0
36 1 S106 988 582709 -1061 0
36 1 S106 1018 583727 -43 0
36 2 S106 979 584706 936 0
36 2 S106 911 585617 1847 0
36 2 S106 953 586570 2800 0
36 2 S106 1001 587571 3801 0
36 2 S106 1015 588586 4816 0
36 2 S106 954 589540 5770 0
36 2 S106 879 590419 6649 0
0 0 0 931 591350 -8932 0
0 0 0 970 592320 -7962 0
0 0 0 1001 593321 -6961 0
0 0 0 908 594229 -6053 0
0 0 0 876 595105 -5177 0
0 0 0 914 596019 -4263 0
0 0 0 951 596970 -3312 0
0 0 0 970 597940 -2342 0
37 1 S116 889 598829 -1453 0
37 1 S116 898 599727 -555 0
37 2 S116 930 600657 375 0
37 2 S116 961 601618 1336 0
37 2 S116 897 602515 2233 0
37 2 S116 881 603396 3114 0
37 2 S116 950 604346 4064 0
37 2 S116 984 605330 5048 0
37 2 S116 947 606277 5995 0
37 2 S116 891 607168 6886 0
0 0 0 928 608096 -9692 0
0 0 0 957 609053 -8735 0
0 0 0 967 610020 -7768 0
0 0 0 903 610923 -6865 0
0 0 0 881 611804 -5984 0
0 0 0 929 612733 -5055 0
0 0 0 967 613700 -4088 0
0 0 0 969 614669 -3119 0
0 0 0 897 615566 -2222 0
38 1 S102 906 616472 -1316 0
38 1 S102 945 617417 -371 0
38 2 S102 965 618382 594 0
38 2 S102 902 619284 1496 0
38 2 S102 865 620149 2361 0
38 2 S102 920 621069 3281 0
38 2 S102 966 622035 4247 0
38 2 S102 979 623014 5226 0
38 2 S102 918 623932 6144 0
38 2 S102 871 624803 7015 0
0 0 0 927 625730 -7659 0
0 0 0 962 626692 -6697 0
0 0 0 960 627652 -5737 0
0 0 0 936 628588 -4801 0
0 0 0 872 629460 -3929 0
0 0 0 936 630396 -2993 0
0 0 0 964 631360 -2029 0
39 1 S116 1003 632363 -1026 0
39 1 S116 986 633349 -40 0
39 2 S116 895 634244 855 0
39 2 S116 950 635194 1805 0
39 2 S116 1003 636197 2808 0
39 2 S116 1027 637224 3835 0
39 2 S116 978 638202 4813 0
39 2 S116 901 639103 5714 0
39 2 S116 937 640040 6651 0
0 0 0 986 641026 -5858 0
0 0 0 990 642016 -4868 0
0 0 0 939 642955 -3929 0
0 0 0 872 643827 -3057 0
0 0 0 899 644726 -2158 0
40 1 S112 939 645665 -1219 0
40 1 S112 964 646629 -255 0
40 2 S112 912 647541 657 0
40 2 S112 879 648420 1536 0
40 2 S112 941 649361 2477 0
40 2 S112 973 650334 3450 0
40 2 S112 915 651249 4365 0
40 2 S112 852 652101 5217 0
40 2 S112 887 652988 6104 0
40 2 S112 923 653911 7027 0
0 0 0 910 654821 -186477 0
0 0 0 854 655675 -185623 0
0 0 0 888 656563 -184735 0
0 0 0 932 657495 -183803 0
0 0 0 937 658432 -182866 0
0 0 0 842 659274 -182024 0
0 0 0 803 660077 -181221 0
0 0 0 841 660918 -180380 0
0 0 0 852 661770 -179528 0
0 0 0 894 662664 -178634 0
0 0 0 861 663525 -177773 0
0 0 0 845 664370 -176928 0
0 0 0 891 665261 -176037 0
0 0 0 885 666146 -175152 0
0 0 0 856 667002 -174296 0
0 0 0 814 667816 -173482 0
0 0 0 800 668616 -172682 0
0 0 0 785 669401 -171897 0
0 0 0 779 670180 -171118 0
0 0 0 753 670933 -170365 1
0 0 0 737 671670 -169628 1
0 0 0 749 672419 -168879 1
0 0 0 720 673139 -168159 1
0 0 0 708 673847 -167451 1
0 0 0 706 674553 -166745 1
0 0 0 717 675270 -166028 1
0 0 0 721 675991 -165307 1
0 0 0 721 676712 -164586 1
0 0 0 739 677451 -163847 1
0 0 0 761 678212 -163086 0
0 0 0 775 678987 -162311 0
0 0 0 785 679772 -161526 0
0 0 0 765 680537 -160761 0
0 0 0 769 681306 -159992 0
0 0 0 784 682090 -159208 0
0 0 0 806 682896 -158402 0
0 0 0 817 683713 -157585 0
0 0 0 812 684525 -156773 0
0 0 0 770 685295 -156003 0
0 0 0 795 686090 -155208 0
0 0 0 805 686895 -154403 0
0 0 0 822 687717 -153581 0
0 0 0 787 688504 -152794 0
0 0 0 748 689252 -152046 1
0 0 0 725 689977 -151321 1
0 0 0 715 690692 -150606 1
0 0 0 736 691428 -149870 1
0 0 0 751 692179 -149119 1
0 0 0 752 692931 -148367 1
0 0 0 763 693694 -147604 0
0 0 0 766 694460 -146838 0
0 0 0 792 695252 -146046 0
0 0 0 785 696037 -145261 0
0 0 0 813 696850 -144448 0
0 0 0 839 697689 -143609 0
0 0 0 850 698539 -142759 0
0 0 0 858 699397 -141901 0
0 0 0 845 700242 -141056 0
0 0 0 813 701055 -140243 0
0 0 0 822 701877 -139421 0
0 0 0 812 702689 -138609 0
0 0 0 822 703511 -137787 0
0 0 0 840 704351 -136947 0
0 0 0 796 705147 -136151 0
0 0 0 819 705966 -135332 0
0 0 0 825 706791 -134507 0
0 0 0 839 707630 -133668 0
0 0 0 796 708426 -132872 0
0 0 0 792 709218 -132080 0
0 0 0 817 710035 -131263 0
0 0 0 851 710886 -130412 0
0 0 0 821 711707 -129591 0
0 0 0 800 712507 -128791 0
0 0 0 819 713326 -127972 0
0 0 0 840 714166 -127132 0
0 0 0 871 715037 -126261 0
0 0 0 870 715907 -125391 0
0 0 0 820 716727 -124571 0
0 0 0 833 717560 -123738 0
0 0 0 791 718351 -122947 0
0 0 0 759 719110 -122188 1
0 0 0 768 719878 -121420 0
0 0 0 809 720687 -120611 0
0 0 0 783 721470 -119828 0
0 0 0 784 722254 -119044 0
0 0 0 841 723095 -118203 0
0 0 0 915 724010 -117288 0
0 0 0 985 724995 -116303 0
0 0 0 990 725985 -115313 0
0 0 0 924 726909 -114389 0
0 0 0 968 727877 -113421 0
0 0 0 1011 728888 -112410 0
0 0 0 1027 729915 -111383 0
0 0 0 939 730854 -110444 0
0 0 0 926 731780 -109518 0
0 0 0 972 732752 -108546 0
0 0 0 984 733736 -107562 0
0 0 0 916 734652 -106646 0
0 0 0 864 735516 -105782 0
0 0 0 908 736424 -104874 0
0 0 0 978 737402 -103896 0
0 0 0 991 738393 -102905 0
0 0 0 918 739311 -101987 0
0 0 0 982 740293 -101005 0
0 0 0 1041 741334 -99964 0
0 0 0 1059 742393 -98905 0
0 0 0 952 743345 -97953 0
0 0 0 919 744264 -97034 0
0 0 0 982 745246 -96052 0
0 0 0 1011 746257 -95041 0
0 0 0 998 747255 -94043 0
0 0 0 929 748184 -93114 0
0 0 0 988 749172 -92126 0
0 0 0 1052 750224 -91074 0
0 0 0 1076 751300 -89998 0
0 0 0 946 752246 -89052 0
0 0 0 957 753203 -88095 0
0 0 0 1020 754223 -87075 0
0 0 0 1058 755281 -86017 0
0 0 0 1072 756353 -84945 0
0 0 0 961 757314 -83984 0
0 0 0 997 758311 -82987 0
0 0 0 1088 759399 -81899 0
0 0 0 1025 760424 -80874 0
0 0 0 927 761351 -79947 0
0 0 0 905 762256 -79042 0
0 0 0 946 763202 -78096 0
0 0 0 966 764168 -77130 0
0 0 0 919 765087 -76211 0
0 0 0 904 765991 -75307 0
0 0 0 987 766978 -74320 0
0 0 0 1076 768054 -73244 0
0 0 0 1097 769151 -72147 0
0 0 0 1045 770196 -71102 0
0 0 0 932 771128 -70170 0
0 0 0 985 772113 -69185 0
0 0 0 1033 773146 -68152 0
0 0 0 1041 774187 -67111 0
0 0 0 984 775171 -66127 0
0 0 0 927 776098 -65200 0
0 0 0 995 777093 -64205 0
0 0 0 1098 778191 -63107 0
0 0 0 1085 779276 -62022 0
0 0 0 970 780246 -61052 0
0 0 0 965 781211 -60087 0
0 0 0 1027 782238 -59060 0
0 0 0 1076 783314 -57984 0
0 0 0 1121 784435 -56863 1
0 0 0 977 785412 -55886 0
0 0 0 1012 786424 -54874 0
0 0 0 1040 787464 -53834 0
0 0 0 1054 788518 -52780 0
0 0 0 996 789514 -51784 0
0 0 0 914 790428 -50870 0
0 0 0 991 791419 -49879 0
0 0 0 1005 792424 -48874 0
0 0 0 1019 793443 -47855 0
0 0 0 932 794375 -46923 0
0 0 0 873 795248 -46050 0
0 0 0 900 796148 -45150 0
0 0 0 1000 797148 -44150 0
0 0 0 1064 798212 -43086 0
0 0 0 1001 799213 -42085 0
0 0 0 928 800141 -41157 0
0 0 0 934 801075 -40223 0
0 0 0 979 802054 -39244 0
0 0 0 1023 803077 -38221 0
0 0 0 1004 804081 -37217 0
0 0 0 904 804985 -36313 0
0 0 0 949 805934 -35364 0
0 0 0 948 806882 -34416 0
0 0 0 902 807784 -33514 0
0 0 0 869 808653 -32645 0
0 0 0 945 809598 -31700 0
0 0 0 995 810593 -30705 0
0 0 0 984 811577 -29721 0
0 0 0 892 812469 -28829 0
0 0 0 876 813345 -27953 0
0 0 0 833 814178 -27120 0
0 0 0 793 814971 -26327 0
0 0 0 784 815755 -25543 0
0 0 0 796 816551 -24747 0
0 0 0 836 817387 -23911 0
0 0 0 1013 818400 -22898 0
0 0 0 1087 819487 -21811 0
0 0 0 1138 820625 -20673 1
0 0 0 1107 821732 -19566 0
0 0 0 981 822713 -18585 0
0 0 0 1003 823716 -17582 0
0 0 0 1046 824762 -16536 0
0 0 0 1060 825822 -15476 0
0 0 0 1056 826878 -14420 0
0 0 0 944 827822 -13476 0
0 0 0 950 828772 -12526 0
0 0 0 982 829754 -11544 0
0 0 0 996 830750 -10548 0
0 0 0 956 831706 -9592 0
0 0 0 880 832586 -8712 0
0 0 0 948 833534 -7764 0
0 0 0 983 834517 -6781 0
0 0 0 1013 835530 -5768 0
0 0 0 913 836443 -4855 0
0 0 0 951 837394 -3904 0
0 0 0 974 838368 -2930 0
0 0 0 924 839292 -2006 0
41 1 S102 852 840144 -1154 0
41 1 S102 887 841031 -267 0
41 2 S102 931 841962 664 0
41 2 S102 1003 842965 1667 0
41 2 S102 904 843869 2571 0
41 2 S102 865 844734 3436 0
41 2 S102 918 845652 4354 0
41 2 S102 963 846615 5317 0
41 2 S102 962 847577 6279 0
0 0 0 874 848451 -6442 0
0 0 0 897 849348 -5545 0
0 0 0 943 850291 -4602 0
0 0 0 911 851202 -3691 0
0 0 0 841 852043 -2850 0
0 0 0 798 852841 -2052 0
42 1 S112 885 853726 -1167 0
42 1 S112 894 854620 -273 0
42 2 S112 890 855510 617 0
42 2 S112 868 856378 1485 0
42 2 S112 882 857260 2367 0
42 2 S112 934 858194 3301 0
42 2 S112 980 859174 4281 0
42 2 S112 966 860140 5247 0
42 2 S112 884 861024 6131 0
42 2 S112 894 861918 7025 0
0 0 0 934 862852 -7624 0
0 0 0 975 863827 -6649 0
0 0 0 925 864752 -5724 0
0 0 0 869 865621 -4855 0
0 0 0 903 866524 -3952 0
0 0 0 943 867467 -3009 0
0 0 0 989 868456 -2020 0
43 1 S116 938 869394 -1082 0
43 1 S116 882 870276 -200 0
43 2 S116 914 871190 714 0
43 2 S116 981 872171 1695 0
43 2 S116 1015 873186 2710 0
43 2 S116 959 874145 3669 0
43 2 S116 892 875037 4561 0
43 2 S116 934 875971 5495 0
43 2 S116 981 876952 6476 0
0 0 0 985 877937 -6366 0
0 0 0 926 878863 -5440 0
0 0 0 893 879756 -4547 0
0 0 0 948 880704 -3599 0
0 0 0 955 881659 -2644 0
44 1 S102 930 882589 -1714 0
44 1 S102 879 883468 -835 0
44 2 S102 936 884404 101 0
44 2 S102 931 885335 1032 0
44 2 S102 916 886251 1948 0
44 2 S102 832 887083 2780 0
44 2 S102 856 887939 3636 0
44 2 S102 869 888808 4505 0
44 2 S102 959 889767 5464 0
44 2 S102 985 890752 6449 0
0 0 0 911 891663 -7560 0
0 0 0 901 892564 -6659 0
0 0 0 965 893529 -5694 0
0 0 0 992 894521 -4702 0
0 0 0 957 895478 -3745 0
0 0 0 906 896384 -2839 0
45 1 S116 963 897347 -1876 0
45 1 S116 1011 898358 -865 0
45 2 S116 993 899351 128 0
45 2 S116 914 900265 1042 0
45 2 S116 939 901204 1981 0
45 2 S116 1022 902226 3003 0
45 2 S116 1074 903300 4077 0
45 2 S116 1015 904315 5092 0
45 2 S116 928 905243 6020 0
45 2 S116 960 906203 6980 0
0 0 0 993 907196 -10380 0
0 0 0 1014 908210 -9366 0
0 0 0 968 909178 -8398 0
0 0 0 828 910006 -7570 0
0 0 0 909 910915 -6661 0
0 0 0 866 911781 -5795 0
0 0 0 862 912643 -4933 0
0 0 0 829 913472 -4104 0
0 0 0 844 914316 -3260 0
0 0 0 835 915151 -2425 0
46 1 S102 816 915967 -1609 0
46 1 S102 786 916753 -823 0
46 1 S102 753 917506 -70 1
46 2 S102 742 918248 672 1
46 2 S102 767 919015 1439 0
46 2 S102 794 919809 2233 0
46 2 S102 879 920688 3112 0
46 2 S102 873 921561 3985 0
46 2 S102 844 922405 4829 0
46 2 S102 906 923311 5735 0
46 2 S102 981 924292 6716 0
0 0 0 1014 925306 -7356 0
0 0 0 1044 926350 -6312 0
0 0 0 935 927285 -5377 0
0 0 0 867 928152 -4510 0
0 0 0 884 929036 -3626 0
0 0 0 959 929995 -2667 0
47 1 S112 979 930974 -1688 0
47 1 S112 1028 932002 -660 0
47 2 S112 942 932944 282 0
47 2 S112 950 933894 1232 0
47 2 S112 1049 934943 2281 0
47 2 S112 1097 936040 3378 0
47 2 S112 1105 937145 4483 0
47 2 S112 989 938134 5472 0
47 2 S112 904 939038 6376 0
0 0 0 963 940001 -10632 0
0 0 0 1025 941026 -9607 0
0 0 0 1052 942078 -8555 0
0 0 0 940 943018 -7615 0
0 0 0 947 943965 -6668 0
0 0 0 994 944959 -5674 0
0 0 0 1120 946079 -4554 1
0 0 0 1140 947219 -3414 1
0 0 0 1008 948227 -2406 0
48 1 S116 980 949207 -1426 0
48 1 S116 1080 950287 -346 0
48 2 S116 1127 951414 781 1
48 2 S116 1020 952434 1801 0
48 2 S116 952 953386 2753 0
48 2 S116 1029 954415 3782 0
48 2 S116 1038 955453 4820 0
48 2 S116 946 956399 5766 0
48 2 S116 908 957307 6674 0
0 0 0 994 958301 -6755 0
0 0 0 1059 959360 -5696 0
0 0 0 1040 960400 -4656 0
0 0 0 928 961328 -3728 0
0 0 0 980 962308 -2748 0
49 1 S112 968 963276 -1780 0
49 1 S112 941 964217 -839 0
49 2 S112 867 965084 28 0
49 2 S112 818 965902 846 0
49 2 S112 849 966751 1695 0
49 2 S112 896 967647 2591 0
49 2 S112 981 968628 3572 0
49 2 S112 988 969616 4560 0
49 2 S112 928 970544 5488 0
49 2 S112 950 971494 6438 0
0 0 0 1034 972528 -9886 0
0 0 0 1051 973579 -8835 0
0 0 0 1023 974602 -7812 0
0 0 0 932 975534 -6880 0
0 0 0 903 976437 -5977 0
0 0 0 966 977403 -5011 0
0 0 0 1032 978435 -3979 0
0 0 0 1056 979491 -2923 0
50 1 S106 953 980444 -1970 0
50 1 S106 924 981368 -1046 0
50 1 S106 1016 982384 -30 0
50 2 S106 1058 983442 1028 0
50 2 S106 1069 984511 2097 0
50 2 S106 956 985467 3053 0
50 2 S106 920 986387 3973 0
50 2 S106 1010 987397 4983 0
50 2 S106 1050 988447 6033 0
0 0 0 1022 989469 -6439 0
0 0 0 915 990384 -5524 0
0 0 0 977 991361 -4547 0
0 0 0 1024 992385 -3523 0
0 0 0 1006 993391 -2517 0
51 1 S112 910 994301 -1607 0
51 1 S112 832 995133 -775 0
51 2 S112 851 995984 76 0
51 2 S112 881 996865 957 0
51 2 S112 1062 997927 2019 0
51 2 S112 1144 999071 3163 1
51 2 S112 1127 1000198 4290 1
51 2 S112 1101 1001299 5391 0
51 2 S112 987 1002286 6378 0
0 0 0 1041 1003327 -6159 0
0 0 0 1120 1004447 -5039 1
0 0 0 1056 1005503 -3983 0
0 0 0 950 1006453 -3033 0
0 0 0 962 1007415 -2071 0
52 1 S116 985 1008400 -1086 0
52 1 S116 927 1009327 -159 0
52 2 S116 961 1010288 802 0
52 2 S116 1046 1011334 1848 0
52 2 S116 1075 1012409 2923 0
52 2 S116 1035 1013444 3958 0
52 2 S116 923 1014367 4881 0
52 2 S116 980 1015347 5861 0
52 2 S116 1039 1016386 6900 0
0 0 0 1087 1017473 -8127 0
0 0 0 1058 1018531 -7069 0
0 0 0 942 1019473 -6127 0
0 0 0 904 1020377 -5223 0
0 0 0 932 1021309 -4291 0
0 0 0 942 1022251 -3349 0
0 0 0 951 1023202 -2398 0
53 1 S106 900 1024102 -1498 0
53 1 S106 915 1025017 -583 0
53 2 S106 955 1025972 372 0
53 2 S106 1047 1027019 1419 0
53 2 S106 1008 1028027 2427 0
53 2 S106 916 1028943 3343 0
53 2 S106 900 1029843 4243 0
53 2 S106 959 1030802 5202 0
53 2 S106 992 1031794 6194 0
0 0 0 999 1032793 -6567 0
0 0 0 920 1033713 -5647 0
0 0 0 927 1034640 -4720 0
0 0 0 976 1035616 -3744 0
0 0 0 1019 1036635 -2725 0
54 1 S102 948 1037583 -1777 0
54 1 S102 893 1038476 -884 0
54 2 S102 948 1039424 64 0
54 2 S102 1025 1040449 1089 0
54 2 S102 1047 1041496 2136 0
54 2 S102 909 1042405 3045 0
54 2 S102 910 1043315 3955 0
54 2 S102 968 1044283 4923 0
54 2 S102 1005 1045288 5928 0
54 2 S102 920 1046208 6848 0
0 0 0 961 1047169 -9217 0
0 0 0 1028 1048197 -8189 0
0 0 0 1029 1049226 -7160 0
0 0 0 948 1050174 -6212 0
0 0 0 882 1051056 -5330 0
0 0 0 926 1051982 -4404 0
0 0 0 945 1052927 -3459 0
0 0 0 987 1053914 -2472 0
55 1 S106 983 1054897 -1489 0
55 1 S106 892 1055789 -597 0
55 2 S106 903 1056692 306 0
55 2 S106 938 1057630 1244 0
55 2 S106 977 1058607 2221 0
55 2 S106 977 1059584 3198 0
55 2 S106 894 1060478 4092 0
55 2 S106 860 1061338 4952 0
55 2 S106 899 1062237 5851 0
55 2 S106 924 1063161 6775 0
0 0 0 939 1064100 -6328 0
0 0 0 872 1064972 -5456 0
0 0 0 872 1065844 -4584 0
0 0 0 894 1066738 -3690 0
0 0 0 923 1067661 -2767 0
56 1 S116 878 1068539 -1889 0
56 1 S116 840 1069379 -1049 0
56 1 S116 877 1070256 -172 0
56 2 S116 961 1071217 789 0
56 2 S116 954 1072171 1743 0
56 2 S116 895 1073066 2638 0
56 2 S116 929 1073995 3567 0
56 2 S116 965 1074960 4532 0
56 2 S116 984 1075944 5516 0
56 2 S116 945 1076889 6461 0
0 0 0 846 1077735 -6304 0
0 0 0 939 1078674 -5365 0
0 0 0 932 1079606 -4433 0
0 0 0 919 1080525 -3514 0
0 0 0 873 1081398 -2641 0
57 1 S106 909 1082307 -1732 0
57 1 S106 951 1083258 -781 0
57 2 S106 976 1084234 195 0
57 2 S106 915 1085149 1110 0
57 2 S106 875 1086024 1985 0
57 2 S106 916 1086940 2901 0
57 2 S106 952 1087892 3853 0
57 2 S106 923 1088815 4776 0
57 2 S106 856 1089671 5632 0
57 2 S106 882 1090553 6514 0
0 0 0 922 1091475 -8297 0
0 0 0 963 1092438 -7334 0
0 0 0 947 1093385 -6387 0
0 0 0 887 1094272 -5500 0
0 0 0 953 1095225 -4547 0
0 0 0 1019 1096244 -3528 0
0 0 0 1030 1097274 -2498 0
58 1 S102 917 1098191 -1581 0
58 1 S102 832 1099023 -749 0
58 2 S102 939 1099962 190 0
58 2 S102 929 1100891 1119 0
58 2 S102 946 1101837 2065 0
58 2 S102 940 1102777 3005 0
58 2 S102 882 1103659 3887 0
58 2 S102 889 1104548 4776 0
58 2 S102 946 1105494 5722 0
58 2 S102 989 1106483 6711 0
0 0 0 1007 1107490 -6540 0
0 0 0 923 1108413 -5617 0
0 0 0 908 1109321 -4709 0
0 0 0 938 1110259 -3771 0
0 0 0 1000 1111259 -2771 0
59 1 S112 978 1112237 -1793 0
59 1 S112 905 1113142 -888 0
59 2 S112 939 1114081 51 0
59 2 S112 958 1115039 1009 0
59 2 S112 983 1116022 1992 0
59 2 S112 913 1116935 2905 0
59 2 S112 947 1117882 3852 0
59 2 S112 1002 1118884 4854 0
59 2 S112 1043 1119927 5897 0
59 2 S112 984 1120911 6881 0
0 0 0 900 1121811 -7438 0
0 0 0 946 1122757 -6492 0
0 0 0 960 1123717 -5532 0
0 0 0 985 1124702 -4547 0
0 0 0 901 1125603 -3646 0
0 0 0 923 1126526 -2723 0
60 1 S102 1002 1127528 -1721 0
60 1 S102 1033 1128561 -688 0
60 2 S102 975 1129536 287 0
60 2 S102 899 1130435 1186 0
60 2 S102 947 1131382 2133 0
60 2 S102 1025 1132407 3158 0
60 2 S102 1013 1133420 4171 0
60 2 S102 947 1134367 5118 0
60 2 S102 876 1135243 5994 0
60 2 S102 932 1136175 6926 0
0 0 0 980 1137155 -9749 0
0 0 0 1026 1138181 -8723 0
0 0 0 925 1139106 -7798 0
0 0 0 888 1139994 -6910 0
0 0 0 937 1140931 -5973 0
0 0 0 963 1141894 -5010 0
0 0 0 976 1142870 -4034 0
0 0 0 906 1143776 -3128 0
0 0 0 906 1144682 -2222 0
61 1 S106 954 1145636 -1268 0
61 1 S106 1006 1146642 -262 0
61 2 S106 996 1147638 734 0
61 2 S106 909 1148547 1643 0
61 2 S106 906 1149453 2549 0
61 2 S106 970 1150423 3519 0
61 2 S106 1008 1151431 4527 0
61 2 S106 1034 1152465 5561 0
61 2 S106 915 1153380 6476 0
0 0 0 874 1154254 -5863 0
0 0 0 937 1155191 -4926 0
0 0 0 965 1156156 -3961 0
0 0 0 966 1157122 -2995 0
0 0 0 885 1158007 -2110 0
62 1 S112 919 1158926 -1191 0
62 1 S112 1003 1159929 -188 0
62 2 S112 1043 1160972 855 0
62 2 S112 1039 1162011 1894 0
62 2 S112 952 1162963 2846 0
62 2 S112 890 1163853 3736 0
62 2 S112 961 1164814 4697 0
62 2 S112 1010 1165824 5707 0
62 2 S112 999 1166823 6706 0
0 0 0 927 1167750 -9941 0
0 0 0 961 1168711 -8980 0
0 0 0 1016 1169727 -7964 0
0 0 0 1072 1170799 -6892 0
0 0 0 1011 1171810 -5881 0
0 0 0 918 1172728 -4963 0
0 0 0 983 1173711 -3980 0
0 0 0 1035 1174746 -2945 0
63 1 S102 1025 1175771 -1920 0
63 1 S102 922 1176693 -998 0
63 1 S102 951 1177644 -47 0
63 2 S102 1000 1178644 953 0
63 2 S102 1047 1179691 2000 0
63 2 S102 939 1180630 2939 0
63 2 S102 836 1181466 3775 0
63 2 S102 959 1182425 4734 0
63 2 S102 976 1183401 5710 0
63 2 S102 1031 1184432 6741 0
0 0 0 1020 1185452 -7176 0
0 0 0 911 1186363 -6265 0
0 0 0 929 1187292 -5336 0
0 0 0 1008 1188300 -4328 0
0 0 0 1012 1189312 -3316 0
0 0 0 974 1190286 -2342 0
64 1 S112 900 1191186 -1442 0
64 1 S112 950 1192136 -492 0
64 2 S112 985 1193121 493 0
64 2 S112 1050 1194171 1543 0
64 2 S112 1049 1195220 2592 0
64 2 S112 954 1196174 3546 0
64 2 S112 922 1197096 4468 0
64 2 S112 1003 1198099 5471 0
64 2 S112 1033 1199132 6504 0
0 0 0 1033 1200165 -5891 0
0 0 0 951 1201116 -4940 0
0 0 0 930 1202046 -4010 0
0 0 0 1001 1203047 -3009 0
65 1 S106 1081 1204128 -1928 0
65 1 S106 999 1205127 -929 0
65 1 S106 924 1206051 -5 0
65 2 S106 1008 1207059 1003 0
65 2 S106 1053 1208112 2056 0
65 2 S106 1067 1209179 3123 0
65 2 S106 957 1210136 4080 0
65 2 S106 988 1211124 5068 0
65 2 S106 1094 1212218 6162 0
0 0 0 1078 1213296 -7051 0
0 0 0 971 1214267 -6080 0
0 0 0 939 1215206 -5141 0
0 0 0 1007 1216213 -4134 0
0 0 0 1021 1217234 -3113 0
0 0 0 954 1218188 -2159 0
66 1 S116 921 1219109 -1238 0
66 1 S116 987 1220096 -251 0
66 2 S116 1066 1221162 815 0
66 2 S116 1090 1222252 1905 0
66 2 S116 1042 1223294 2947 0
66 2 S116 969 1224263 3916 0
66 2 S116 1052 1225315 4968 0
66 2 S116 1086 1226401 6054 0
0 0 0 1103 1227504 -10648 0
0 0 0 966 1228470 -9682 0
0 0 0 982 1229452 -8700 0
0 0 0 1025 1230477 -7675 0
0 0 0 1033 1231510 -6642 0
0 0 0 926 1232436 -5716 0
0 0 0 978 1233414 -4738 0
0 0 0 1055 1234469 -3683 0
0 0 0 1091 1235560 -2592 0
67 1 S102 1062 1236622 -1530 0
67 1 S102 961 1237583 -569 0
67 2 S102 1056 1238639 487 0
67 2 S102 1081 1239720 1568 0
67 2 S102 1074 1240794 2642 0
67 2 S102 966 1241760 3608 0
67 2 S102 923 1242683 4531 0
67 2 S102 987 1243670 5518 0
67 2 S102 1072 1244742 6590 0
0 0 0 1094 1245836 -6474 0
0 0 0 971 1246807 -5503 0
0 0 0 977 1247784 -4526 0
0 0 0 1014 1248798 -3512 0
0 0 0 1043 1249841 -2469 0
68 1 S106 975 1250816 -1494 0
68 1 S106 953 1251769 -541 0
68 2 S106 1046 1252815 505 0
68 2 S106 1112 1253927 1617 0
68 2 S106 1007 1254934 2624 0
68 2 S106 911 1255845 3535 0
68 2 S106 976 1256821 4511 0
68 2 S106 1025 1257846 5536 0
68 2 S106 1017 1258863 6553 0
0 0 0 935 1259798 -10085 0
0 0 0 934 1260732 -9151 0
0 0 0 980 1261712 -8171 0
0 0 0 989 1262701 -7182 0
0 0 0 922 1263623 -6260 0
0 0 0 883 1264506 -5377 0
0 0 0 863 1265369 -4514 0
0 0 0 824 1266193 -3690 0
0 0 0 815 1267008 -2875 0
0 0 0 853 1267861 -2022 0
69 1 S102 814 1268675 -1208 0
69 1 S102 839 1269514 -369 0
69 2 S102 936 1270450 567 0
69 2 S102 994 1271444 1561 0
69 2 S102 988 1272432 2549 0
69 2 S102 911 1273343 3460 0
69 2 S102 912 1274255 4372 0
69 2 S102 962 1275217 5334 0
69 2 S102 1010 1276227 6344 0
0 0 0 1033 1277260 -7892 0
0 0 0 928 1278188 -6964 0
0 0 0 923 1279111 -6041 0
0 0 0 965 1280076 -5076 0
0 0 0 1014 1281090 -4062 0
0 0 0 958 1282048 -3104 0
0 0 0 859 1282907 -2245 0
70 1 S112 823 1283730 -1422 0
70 1 S112 839 1284569 -583 0
70 2 S112 895 1285464 312 0
70 2 S112 1000 1286464 1312 0
70 2 S112 1082 1287546 2394 0
70 2 S112 1105 1288651 3499 0
70 2 S112 967 1289618 4466 0
70 2 S112 1008 1290626 5474 0
70 2 S112 1065 1291691 6539 0
0 0 0 1110 1292801 -10653 0
0 0 0 1034 1293835 -9619 0
0 0 0 958 1294793 -8661 0
0 0 0 983 1295776 -7678 0
0 0 0 989 1296765 -6689 0
0 0 0 978 1297743 -5711 0
0 0 0 908 1298651 -4803 0
0 0 0 972 1299623 -3831 0
0 0 0 1033 1300656 -2798 0
71 1 S116 1056 1301712 -1742 0
71 1 S116 1017 1302729 -725 0
71 2 S116 921 1303650 196 0
71 2 S116 969 1304619 1165 0
71 2 S116 1011 1305630 2176 0
71 2 S116 1030 1306660 3206 0
71 2 S116 1018 1307678 4224 0
71 2 S116 940 1308618 5164 0
71 2 S116 946 1309564 6110 0
0 0 0 963 1310527 -8511 0
0 0 0 981 1311508 -7530 0
0 0 0 926 1312434 -6604 0
0 0 0 874 1313308 -5730 0
0 0 0 924 1314232 -4806 0
0 0 0 970 1315202 -3836 0
0 0 0 992 1316194 -2844 0
72 1 S102 901 1317095 -1943 0
72 1 S102 944 1318039 -999 0
72 1 S102 979 1319018 -20 0
72 2 S102 1013 1320031 993 0
72 2 S102 937 1320968 1930 0
72 2 S102 914 1321882 2844 0
72 2 S102 941 1322823 3785 0
72 2 S102 965 1323788 4750 0
72 2 S102 911 1324699 5661 0
72 2 S102 885 1325584 6546 0
0 0 0 950 1326534 -5551 0
0 0 0 1003 1327537 -4548 0
0 0 0 996 1328533 -3552 0
0 0 0 901 1329434 -2651 0
73 1 S116 909 1330343 -1742 0
73 1 S116 930 1331273 -812 0
73 2 S116 952 1332225 140 0
73 2 S116 896 1333121 1036 0
73 2 S116 901 1334022 1937 0
73 2 S116 973 1334995 2910 0
73 2 S116 1017 1336012 3927 0
73 2 S116 999 1337011 4926 0
73 2 S116 929 1337940 5855 0
73 2 S116 960 1338900 6815 0
0 0 0 994 1339894 -8073 0
0 0 0 981 1340875 -7092 0
0 0 0 898 1341773 -6194 0
0 0 0 905 1342678 -5289 0
0 0 0 955 1343633 -4334 0
0 0 0 992 1344625 -3342 0
0 0 0 927 1345552 -2415 0
74 1 S106 877 1346429 -1538 0
74 1 S106 920 1347349 -618 0
74 2 S106 967 1348316 349 0
74 2 S106 991 1349307 1340 0
74 2 S106 946 1350253 2286 0
74 2 S106 900 1351153 3186 0
74 2 S106 953 1352106 4139 0
74 2 S106 996 1353102 5135 0
74 2 S106 994 1354096 6129 0
0 0 0 927 1355023 -6456 0
0 0 0 937 1355960 -5519 0
0 0 0 985 1356945 -4534 0
0 0 0 953 1357898 -3581 0
0 0 0 894 1358792 -2687 0
75 1 S112 880 1359672 -1807 0
75 1 S112 919 1360591 -888 0
75 2 S112 965 1361556 77 0
75 2 S112 972 1362528 1049 0
75 2 S112 916 1363444 1965 0
75 2 S112 954 1364398 2919 0
75 2 S112 1007 1365405 3926 0
75 2 S112 956 1366361 4882 0
75 2 S112 900 1367261 5782 0
75 2 S112 964 1368225 6746 0
0 0 0 1036 1369261 -6061 0
0 0 0 1041 1370302 -5020 0
0 0 0 962 1371264 -4058 0
0 0 0 883 1372147 -3175 0
0 0 0 932 1373079 -2243 0
76 1 S116 954 1374033 -1289 0
76 1 S116 957 1374990 -332 0
76 2 S116 899 1375889 567 0
76 2 S116 902 1376791 1469 0
76 2 S116 954 1377745 2423 0
76 2 S116 1026 1378771 3449 0
76 2 S116 1031 1379802 4480 0
76 2 S116 964 1380766 5444 0
76 2 S116 918 1381684 6362 0
0 0 0 974 1382658 -6722 0
0 0 0 1031 1383689 -5691 0
0 0 0 1039 1384728 -4652 0
0 0 0 913 1385641 -3739 0
0 0 0 882 1386523 -2857 0
77 1 S106 885 1387408 -1972 0
77 1 S106 906 1388314 -1066 0
77 1 S106 873 1389187 -193 0
77 2 S106 913 1390100 720 0
77 2 S106 986 1391086 1706 0
77 2 S106 973 1392059 2679 0
77 2 S106 889 1392948 3568 0
77 2 S106 904 1393852 4472 0
77 2 S106 961 1394813 5433 0
77 2 S106 1034 1395847 6467 0
0 0 0 1041 1396888 -8557 0
0 0 0 955 1397843 -7602 0
0 0 0 905 1398748 -6697 0
0 0 0 930 1399678 -5767 0
0 0 0 953 1400631 -4814 0
0 0 0 973 1401604 -3841 0
0 0 0 910 1402514 -2931 0
78 1 S112 981 1403495 -1950 0
78 1 S112 1029 1404524 -921 0
78 2 S112 1036 1405560 115 0
78 2 S112 1021 1406581 1136 0
78 2 S112 928 1407509 2064 0
78 2 S112 954 1408463 3018 0
78 2 S112 981 1409444 3999 0
78 2 S112 976 1410420 4975 0
78 2 S112 939 1411359 5914 0
78 2 S112 885 1412244 6799 0
0 0 0 957 1413201 -10513 0
0 0 0 1039 1414240 -9474 0
0 0 0 1016 1415256 -8458 0
0 0 0 952 1416208 -7506 0
0 0 0 898 1417106 -6608 0
0 0 0 973 1418079 -5635 0
0 0 0 986 1419065 -4649 0
0 0 0 986 1420051 -3663 0
0 0 0 896 1420947 -2767 0
79 1 S102 892 1421839 -1875 0
79 1 S102 971 1422810 -904 0
79 2 S102 1004 1423814 100 0
79 2 S102 984 1424798 1084 0
79 2 S102 900 1425698 1984 0
79 2 S102 945 1426643 2929 0
79 2 S102 1019 1427662 3948 0
79 2 S102 1048 1428710 4996 0
79 2 S102 943 1429653 5939 0
79 2 S102 888 1430541 6827 0
0 0 0 920 1431461 -7522 0
0 0 0 959 1432420 -6563 0
0 0 0 973 1433393 -5590 0
0 0 0 900 1434293 -4690 0
0 0 0 880 1435173 -3810 0
0 0 0 927 1436100 -2883 0
80 1 S116 992 1437092 -1891 0
80 1 S116 993 1438085 -898 0
80 2 S116 911 1438996 13 0
80 2 S116 906 1439902 919 0
80 2 S116 959 1440861 1878 0
80 2 S116 1029 1441890 2907 0
80 2 S116 1085 1442975 3992 0
80 2 S116 1012 1443987 5004 0
80 2 S116 965 1444952 5969 0
80 2 S116 1024 1445976 6993 0
