T_0098
BeatCount Mean SD BeatCountNoOutliers MeanNoOutliers SDNoOutliers
1693 882,627879503839 101,827159579101 1686 883,094899169632 100,519111208731

Trial TrialStatus Trialtype IBI AbsPosition RelPosition Outlier
0 0 0 903 1545 -14297 0
0 0 0 932 2477 -13365 0
0 0 0 963 3440 -12402 0
0 0 0 947 4387 -11455 0
0 0 0 1016 5403 -10439 0
0 0 0 1055 6458 -9384 0
0 0 0 1020 7478 -8364 0
0 0 0 986 8464 -7378 0
0 0 0 998 9462 -6380 0
0 0 0 1017 10479 -5363 0
0 0 0 943 11422 -4420 0
0 0 0 900 12322 -3520 0
0 0 0 892 13214 -2628 0
1 1 S112 883 14097 -1745 0
1 1 S112 872 14969 -873 0
1 2 S112 962 15931 89 0
1 2 S112 1081 17012 1170 0
1 2 S112 1075 18087 2245 0
1 2 S112 1024 19111 3269 0
1 2 S112 1009 20120 4278 0
1 2 S112 1008 21128 5286 0
1 2 S112 1007 22135 6293 0
0 0 0 966 23101 -10579 0
0 0 0 993 24094 -9586 0
0 0 0 983 25077 -8603 0
0 0 0 940 26017 -7663 0
0 0 0 889 26906 -6774 0
0 0 0 908 27814 -5866 0
0 0 0 965 28779 -4901 0
0 0 0 959 29738 -3942 0
0 0 0 935 30673 -3007 0
0 0 0 992 31665 -2015 0
2 1 S102 1016 32681 -999 0
2 1 S102 987 33668 -12 0
2 2 S102 922 34590 910 0
2 2 S102 941 35531 1851 0
2 2 S102 959 36490 2810 0
2 2 S102 953 37443 3763 0
2 2 S102 928 38371 4691 0
2 2 S102 949 39320 5640 0
2 2 S102 1001 40321 6641 0
0 0 0 985 41306 -7477 0
0 0 0 944 42250 -6533 0
0 0 0 935 43185 -5598 0
0 0 0 881 44066 -4717 0
0 0 0 833 44899 -3884 0
0 0 0 826 45725 -3058 0
0 0 0 822 46547 -2236 0
3 1 S116 863 47410 -1373 0
3 1 S116 904 48314 -469 0
3 2 S116 924 49238 455 0
3 2 S116 967 50205 1422 0
3 2 S116 961 51166 2383 0
3 2 S116 894 52060 3277 0
3 2 S116 856 52916 4133 0
3 2 S116 868 53784 5001 0
3 2 S116 883 54667 5884 0
3 2 S116 900 55567 6784 0
0 0 0 906 56473 -10066 0
0 0 0 931 57404 -9135 0
0 0 0 941 58345 -8194 0
0 0 0 928 59273 -7266 0
0 0 0 912 60185 -6354 0
0 0 0 928 61113 -5426 0
0 0 0 948 62061 -4478 0
0 0 0 971 63032 -3507 0
0 0 0 931 63963 -2576 0
4 1 S106 945 64908 -1631 0
4 1 S106 927 65835 -704 0
4 2 S106 950 66785 246 0
4 2 S106 940 67725 1186 0
4 2 S106 932 68657 2118 0
4 2 S106 947 69604 3065 0
4 2 S106 964 70568 4029 0
4 2 S106 934 71502 4963 0
4 2 S106 932 72434 5895 0
4 2 S106 939 73373 6834 0
0 0 0 948 74321 -5630 0
0 0 0 918 75239 -4712 0
0 0 0 912 76151 -3800 0
0 0 0 915 77066 -2885 0
5 1 S116 892 77958 -1993 0
5 1 S116 858 78816 -1135 0
5 1 S116 861 79677 -274 0
5 2 S116 879 80556 605 0
5 2 S116 894 81450 1499 0
5 2 S116 881 82331 2380 0
5 2 S116 906 83237 3286 0
5 2 S116 924 84161 4210 0
5 2 S116 924 85085 5134 0
5 2 S116 885 85970 6019 0
5 2 S116 873 86843 6892 0
0 0 0 881 87724 -7827 0
0 0 0 884 88608 -6943 0
0 0 0 847 89455 -6096 0
0 0 0 866 90321 -5230 0
0 0 0 878 91199 -4352 0
0 0 0 867 92066 -3485 0
0 0 0 839 92905 -2646 0
6 1 S106 857 93762 -1789 0
6 1 S106 889 94651 -900 0
6 2 S106 933 95584 33 0
6 2 S106 931 96515 964 0
6 2 S106 946 97461 1910 0
6 2 S106 964 98425 2874 0
6 2 S106 973 99398 3847 0
6 2 S106 887 100285 4734 0
6 2 S106 868 101153 5602 0
6 2 S106 869 102022 6471 0
0 0 0 894 102916 -10589 0
0 0 0 907 103823 -9682 0
0 0 0 928 104751 -8754 0
0 0 0 960 105711 -7794 0
0 0 0 901 106612 -6893 0
0 0 0 805 107417 -6088 0
0 0 0 777 108194 -5311 0
0 0 0 761 108955 -4550 0
0 0 0 755 109710 -3795 0
0 0 0 756 110466 -3039 0
0 0 0 749 111215 -2290 0
7 1 S102 773 111988 -1517 0
7 1 S102 795 112783 -722 0
7 2 S102 852 113635 130 0
7 2 S102 874 114509 1004 0
7 2 S102 875 115384 1879 0
7 2 S102 890 116274 2769 0
7 2 S102 904 117178 3673 0
7 2 S102 894 118072 4567 0
7 2 S102 873 118945 5440 0
7 2 S102 901 119846 6341 0
0 0 0 935 120781 -9253 0
0 0 0 966 121747 -8287 0
0 0 0 959 122706 -7328 0
0 0 0 972 123678 -6356 0
0 0 0 1007 124685 -5349 0
0 0 0 984 125669 -4365 0
0 0 0 951 126620 -3414 0
0 0 0 969 127589 -2445 0
8 1 S112 994 128583 -1451 0
8 1 S112 979 129562 -472 0
8 2 S112 951 130513 479 0
8 2 S112 975 131488 1454 0
8 2 S112 1034 132522 2488 0
8 2 S112 998 133520 3486 0
8 2 S112 983 134503 4469 0
8 2 S112 991 135494 5460 0
8 2 S112 995 136489 6455 0
0 0 0 944 137433 -6660 0
0 0 0 966 138399 -5694 0
0 0 0 988 139387 -4706 0
0 0 0 970 140357 -3736 0
0 0 0 917 141274 -2819 0
9 1 S116 936 142210 -1883 0
9 1 S116 953 143163 -930 0
9 2 S116 950 144113 20 0
9 2 S116 914 145027 934 0
9 2 S116 948 145975 1882 0
9 2 S116 965 146940 2847 0
9 2 S116 949 147889 3796 0
9 2 S116 912 148801 4708 0
9 2 S116 970 149771 5678 0
9 2 S116 1000 150771 6678 0
0 0 0 987 151758 -9659 0
0 0 0 930 152688 -8729 0
0 0 0 919 153607 -7810 0
0 0 0 934 154541 -6876 0
0 0 0 923 155464 -5953 0
0 0 0 933 156397 -5020 0
0 0 0 955 157352 -4065 0
0 0 0 997 158349 -3068 0
0 0 0 975 159324 -2093 0
10 1 S102 979 160303 -1114 0
10 1 S102 987 161290 -127 0
10 2 S102 1005 162295 878 0
10 2 S102 986 163281 1864 0
10 2 S102 984 164265 2848 0
10 2 S102 977 165242 3825 0
10 2 S102 941 166183 4766 0
10 2 S102 921 167104 5687 0
10 2 S102 948 168052 6635 0
0 0 0 963 169015 -10854 0
0 0 0 968 169983 -9886 0
0 0 0 971 170954 -8915 0
0 0 0 991 171945 -7924 0
0 0 0 1021 172966 -6903 0
0 0 0 998 173964 -5905 0
0 0 0 973 174937 -4932 0
0 0 0 952 175889 -3980 0
0 0 0 930 176819 -3050 0
0 0 0 900 177719 -2150 0
11 1 S112 936 178655 -1214 0
11 1 S112 966 179621 -248 0
11 2 S112 967 180588 719 0
11 2 S112 942 181530 1661 0
11 2 S112 978 182508 2639 0
11 2 S112 1020 183528 3659 0
11 2 S112 1021 184549 4680 0
11 2 S112 995 185544 5675 0
11 2 S112 968 186512 6643 0
0 0 0 958 187470 -7419 0
0 0 0 908 188378 -6511 0
0 0 0 915 189293 -5596 0
0 0 0 930 190223 -4666 0
0 0 0 896 191119 -3770 0
0 0 0 849 191968 -2921 0
0 0 0 832 192800 -2089 0
12 1 S116 827 193627 -1262 0
12 1 S116 816 194443 -446 0
12 2 S116 826 195269 380 0
12 2 S116 898 196167 1278 0
12 2 S116 962 197129 2240 0
12 2 S116 989 198118 3229 0
12 2 S116 932 199050 4161 0
12 2 S116 943 199993 5104 0
12 2 S116 939 200932 6043 0
12 2 S116 913 201845 6956 0
0 0 0 895 202740 -11247 0
0 0 0 901 203641 -10346 0
0 0 0 924 204565 -9422 0
0 0 0 900 205465 -8522 0
0 0 0 867 206332 -7655 0
0 0 0 878 207210 -6777 0
0 0 0 902 208112 -5875 0
0 0 0 897 209009 -4978 0
0 0 0 934 209943 -4044 0
0 0 0 943 210886 -3101 0
0 0 0 952 211838 -2149 0
13 1 S112 925 212763 -1224 0
13 1 S112 928 213691 -296 0
13 2 S112 974 214665 678 0
13 2 S112 998 215663 1676 0
13 2 S112 964 216627 2640 0
13 2 S112 978 217605 3618 0
13 2 S112 982 218587 4600 0
13 2 S112 967 219554 5567 0
13 2 S112 919 220473 6486 0
0 0 0 920 221393 -9736 0
0 0 0 933 222326 -8803 0
0 0 0 929 223255 -7874 0
0 0 0 894 224149 -6980 0
0 0 0 902 225051 -6078 0
0 0 0 930 225981 -5148 0
0 0 0 975 226956 -4173 0
0 0 0 954 227910 -3219 0
0 0 0 894 228804 -2325 0
14 1 S106 875 229679 -1450 0
14 1 S106 872 230551 -578 0
14 2 S106 843 231394 265 0
14 2 S106 806 232200 1071 0
14 2 S106 797 232997 1868 0
14 2 S106 809 233806 2677 0
14 2 S106 822 234628 3499 0
14 2 S106 845 235473 4344 0
14 2 S106 871 236344 5215 0
14 2 S106 900 237244 6115 0
14 2 S106 857 238101 6972 0
0 0 0 804 238905 -10925 0
0 0 0 805 239710 -10120 0
0 0 0 841 240551 -9279 0
0 0 0 826 241377 -8453 0
0 0 0 799 242176 -7654 0
0 0 0 798 242974 -6856 0
0 0 0 807 243781 -6049 0
0 0 0 838 244619 -5211 0
0 0 0 828 245447 -4383 0
0 0 0 815 246262 -3568 0
0 0 0 848 247110 -2720 0
15 1 S116 891 248001 -1829 0
15 1 S116 943 248944 -886 0
15 2 S116 938 249882 52 0
15 2 S116 993 250875 1045 0
15 2 S116 1043 251918 2088 0
15 2 S116 1005 252923 3093 0
15 2 S116 936 253859 4029 0
15 2 S116 969 254828 4998 0
15 2 S116 1027 255855 6025 0
15 2 S116 995 256850 7020 0
0 0 0 950 257800 -8492 0
0 0 0 1001 258801 -7491 0
0 0 0 1040 259841 -6451 0
0 0 0 970 260811 -5481 0
0 0 0 946 261757 -4535 0
0 0 0 963 262720 -3572 0
0 0 0 1021 263741 -2551 0
16 1 S116 971 264712 -1580 0
16 1 S116 985 265697 -595 0
16 2 S116 962 266659 367 0
16 2 S116 921 267580 1288 0
16 2 S116 820 268400 2108 0
16 2 S116 783 269183 2891 0
16 2 S116 758 269941 3649 0
16 2 S116 732 270673 4381 0
16 2 S116 725 271398 5106 0
16 2 S116 718 272116 5824 0
16 2 S116 713 272829 6537 0
0 0 0 706 273535 -8407 0
0 0 0 699 274234 -7708 0
0 0 0 721 274955 -6987 0
0 0 0 952 275907 -6035 0
0 0 0 1076 276983 -4959 0
0 0 0 1083 278066 -3876 0
0 0 0 1064 279130 -2812 0
17 1 S106 1005 280135 -1807 0
17 1 S106 947 281082 -860 0
17 2 S106 922 282004 62 0
17 2 S106 887 282891 949 0
17 2 S106 888 283779 1837 0
17 2 S106 872 284651 2709 0
17 2 S106 888 285539 3597 0
17 2 S106 922 286461 4519 0
17 2 S106 980 287441 5499 0
17 2 S106 978 288419 6477 0
0 0 0 960 289379 -10667 0
0 0 0 978 290357 -9689 0
0 0 0 1003 291360 -8686 0
0 0 0 929 292289 -7757 0
0 0 0 902 293191 -6855 0
0 0 0 887 294078 -5968 0
0 0 0 846 294924 -5122 0
0 0 0 810 295734 -4312 0
0 0 0 785 296519 -3527 0
0 0 0 833 297352 -2694 0
18 1 S102 875 298227 -1819 0
18 1 S102 896 299123 -923 0
18 2 S102 984 300107 61 0
18 2 S102 1044 301151 1105 0
18 2 S102 992 302143 2097 0
18 2 S102 948 303091 3045 0
18 2 S102 966 304057 4011 0
18 2 S102 999 305056 5010 0
18 2 S102 929 305985 5939 0
18 2 S102 936 306921 6875 0
0 0 0 981 307902 -6616 0
0 0 0 1029 308931 -5587 0
0 0 0 968 309899 -4619 0
0 0 0 994 310893 -3625 0
0 0 0 1027 311920 -2598 0
19 1 S106 1020 312940 -1578 0
19 1 S106 966 313906 -612 0
19 2 S106 968 314874 356 0
19 2 S106 983 315857 1339 0
19 2 S106 945 316802 2284 0
19 2 S106 974 317776 3258 0
19 2 S106 1050 318826 4308 0
19 2 S106 1035 319861 5343 0
19 2 S106 950 320811 6293 0
0 0 0 965 321776 -12338 0
0 0 0 1017 322793 -11321 0
0 0 0 974 323767 -10347 0
0 0 0 969 324736 -9378 0
0 0 0 974 325710 -8404 0
0 0 0 974 326684 -7430 0
0 0 0 917 327601 -6513 0
0 0 0 908 328509 -5605 0
0 0 0 908 329417 -4697 0
0 0 0 936 330353 -3761 0
0 0 0 926 331279 -2835 0
20 1 S112 979 332258 -1856 0
20 1 S112 1014 333272 -842 0
20 2 S112 1003 334275 161 0
20 2 S112 943 335218 1104 0
20 2 S112 976 336194 2080 0
20 2 S112 997 337191 3077 0
20 2 S112 989 338180 4066 0
20 2 S112 940 339120 5006 0
20 2 S112 944 340064 5950 0
20 2 S112 956 341020 6906 0
0 0 0 958 341978 -8317 0
0 0 0 921 342899 -7396 0
0 0 0 930 343829 -6466 0
0 0 0 917 344746 -5549 0
0 0 0 918 345664 -4631 0
0 0 0 866 346530 -3765 0
0 0 0 826 347356 -2939 0
0 0 0 789 348145 -2150 0
21 1 S106 745 348890 -1405 0
21 1 S106 745 349635 -660 0
21 2 S106 732 350367 72 0
21 2 S106 755 351122 827 0
21 2 S106 804 351926 1631 0
21 2 S106 871 352797 2502 0
21 2 S106 913 353710 3415 0
21 2 S106 920 354630 4335 0
21 2 S106 952 355582 5287 0
21 2 S106 949 356531 6236 0
0 0 0 920 357451 -10748 0
0 0 0 833 358284 -9915 0
0 0 0 793 359077 -9122 0
0 0 0 776 359853 -8346 0
0 0 0 768 360621 -7578 0
0 0 0 744 361365 -6834 0
0 0 0 753 362118 -6081 0
0 0 0 787 362905 -5294 0
0 0 0 852 363757 -4442 0
0 0 0 911 364668 -3531 0
0 0 0 899 365567 -2632 0
22 1 S116 922 366489 -1710 0
22 1 S116 960 367449 -750 0
22 2 S116 956 368405 206 0
22 2 S116 974 369379 1180 0
22 2 S116 984 370363 2164 0
22 2 S116 985 371348 3149 0
22 2 S116 934 372282 4083 0
22 2 S116 972 373254 5055 0
22 2 S116 994 374248 6049 0
22 2 S116 963 375211 7012 0
0 0 0 958 376169 -8244 0
0 0 0 992 377161 -7252 0
0 0 0 1026 378187 -6226 0
0 0 0 957 379144 -5269 0
0 0 0 978 380122 -4291 0
0 0 0 984 381106 -3307 0
0 0 0 943 382049 -2364 0
23 1 S112 976 383025 -1388 0
23 1 S112 1012 384037 -376 0
23 2 S112 994 385031 618 0
23 2 S112 906 385937 1524 0
23 2 S112 900 386837 2424 0
23 2 S112 901 387738 3325 0
23 2 S112 944 388682 4269 0
23 2 S112 919 389601 5188 0
23 2 S112 1007 390608 6195 0
0 0 0 1121 391729 -8516 0
0 0 0 1111 392840 -7405 0
0 0 0 992 393832 -6413 0
0 0 0 974 394806 -5439 0
0 0 0 933 395739 -4506 0
0 0 0 895 396634 -3611 0
0 0 0 896 397530 -2715 0
24 1 S106 898 398428 -1817 0
24 1 S106 914 399342 -903 0
24 1 S106 873 400215 -30 0
24 2 S106 903 401118 873 0
24 2 S106 945 402063 1818 0
24 2 S106 962 403025 2780 0
24 2 S106 924 403949 3704 0
24 2 S106 935 404884 4639 0
24 2 S106 955 405839 5594 0
24 2 S106 968 406807 6562 0
0 0 0 912 407719 -9271 0
0 0 0 912 408631 -8359 0
0 0 0 952 409583 -7407 0
0 0 0 982 410565 -6425 0
0 0 0 909 411474 -5516 0
0 0 0 859 412333 -4657 0
0 0 0 824 413157 -3833 0
0 0 0 786 413943 -3047 0
0 0 0 758 414701 -2289 0
25 1 S102 741 415442 -1548 0
25 1 S102 746 416188 -802 0
25 1 S102 764 416952 -38 0
25 2 S102 823 417775 785 0
25 2 S102 844 418619 1629 0
25 2 S102 890 419509 2519 0
25 2 S102 909 420418 3428 0
25 2 S102 899 421317 4327 0
25 2 S102 858 422175 5185 0
25 2 S102 837 423012 6022 0
25 2 S102 807 423819 6829 0
0 0 0 768 424587 -6113 0
0 0 0 732 425319 -5381 0
0 0 0 717 426036 -4664 0
0 0 0 697 426733 -3967 0
0 0 0 681 427414 -3286 0
0 0 0 669 428083 -2617 0
26 1 S116 661 428744 -1956 0
26 1 S116 653 429397 -1303 0
26 1 S116 655 430052 -648 0
26 2 S116 765 430817 117 0
26 2 S116 1164 431981 1281 1
26 2 S116 1102 433083 2383 0
26 2 S116 1088 434171 3471 0
26 2 S116 1060 435231 4531 0
26 2 S116 1014 436245 5545 0
26 2 S116 933 437178 6478 0
0 0 0 895 438073 -8824 0
0 0 0 864 438937 -7960 0
0 0 0 836 439773 -7124 0
0 0 0 823 440596 -6301 0
0 0 0 850 441446 -5451 0
0 0 0 911 442357 -4540 0
0 0 0 965 443322 -3575 0
0 0 0 953 444275 -2622 0
27 1 S106 902 445177 -1720 0
27 1 S106 834 446011 -886 0
27 1 S106 781 446792 -105 0
27 2 S106 751 447543 646 0
27 2 S106 780 448323 1426 0
27 2 S106 856 449179 2282 0
27 2 S106 877 450056 3159 0
27 2 S106 973 451029 4132 0
27 2 S106 1033 452062 5165 0
27 2 S106 1007 453069 6172 0
0 0 0 896 453965 -6559 0
0 0 0 908 454873 -5651 0
0 0 0 922 455795 -4729 0
0 0 0 936 456731 -3793 0
0 0 0 882 457613 -2911 0
0 0 0 898 458511 -2013 0
28 1 S102 954 459465 -1059 0
28 1 S102 966 460431 -93 0
28 2 S102 910 461341 817 0
28 2 S102 944 462285 1761 0
28 2 S102 964 463249 2725 0
28 2 S102 986 464235 3711 0
28 2 S102 935 465170 4646 0
28 2 S102 962 466132 5608 0
28 2 S102 1006 467138 6614 0
0 0 0 1008 468146 -10565 0
0 0 0 925 469071 -9640 0
0 0 0 940 470011 -8700 0
0 0 0 942 470953 -7758 0
0 0 0 923 471876 -6835 0
0 0 0 893 472769 -5942 0
0 0 0 928 473697 -5014 0
0 0 0 1008 474705 -4006 0
0 0 0 1075 475780 -2931 0
29 1 S112 1006 476786 -1925 0
29 1 S112 1008 477794 -917 0
29 2 S112 987 478781 70 0
29 2 S112 971 479752 1041 0
29 2 S112 969 480721 2010 0
29 2 S112 1006 481727 3016 0
29 2 S112 999 482726 4015 0
29 2 S112 997 483723 5012 0
29 2 S112 962 484685 5974 0
29 2 S112 975 485660 6949 0
0 0 0 986 486646 -5676 0
0 0 0 925 487571 -4751 0
0 0 0 871 488442 -3880 0
0 0 0 906 489348 -2974 0
0 0 0 951 490299 -2023 0
30 1 S112 927 491226 -1096 0
30 1 S112 876 492102 -220 0
30 2 S112 880 492982 660 0
30 2 S112 905 493887 1565 0
30 2 S112 905 494792 2470 0
30 2 S112 926 495718 3396 0
30 2 S112 926 496644 4322 0
30 2 S112 939 497583 5261 0
30 2 S112 894 498477 6155 0
0 0 0 894 499371 -8302 0
0 0 0 889 500260 -7413 0
0 0 0 859 501119 -6554 0
0 0 0 827 501946 -5727 0
0 0 0 836 502782 -4891 0
0 0 0 924 503706 -3967 0
0 0 0 1005 504711 -2962 0
31 1 S106 1032 505743 -1930 0
31 1 S106 1001 506744 -929 0
31 2 S106 1028 507772 99 0
31 2 S106 1031 508803 1130 0
31 2 S106 950 509753 2080 0
31 2 S106 943 510696 3023 0
31 2 S106 924 511620 3947 0
31 2 S106 901 512521 4848 0
31 2 S106 857 513378 5705 0
31 2 S106 878 514256 6583 0
0 0 0 912 515168 -8603 0
0 0 0 963 516131 -7640 0
0 0 0 947 517078 -6693 0
0 0 0 997 518075 -5696 0
0 0 0 1040 519115 -4656 0
0 0 0 1037 520152 -3619 0
0 0 0 982 521134 -2637 0
32 1 S102 954 522088 -1683 0
32 1 S102 931 523019 -752 0
32 2 S102 887 523906 135 0
32 2 S102 891 524797 1026 0
32 2 S102 942 525739 1968 0
32 2 S102 1012 526751 2980 0
32 2 S102 1020 527771 4000 0
32 2 S102 1065 528836 5065 0
32 2 S102 1073 529909 6138 0
0 0 0 1016 530925 -10286 0
0 0 0 976 531901 -9310 0
0 0 0 958 532859 -8352 0
0 0 0 915 533774 -7437 0
0 0 0 857 534631 -6580 0
0 0 0 869 535500 -5711 0
0 0 0 884 536384 -4827 0
0 0 0 851 537235 -3976 0
0 0 0 806 538041 -3170 0
0 0 0 780 538821 -2390 0
33 1 S112 758 539579 -1632 0
33 1 S112 748 540327 -884 0
33 1 S112 729 541056 -155 0
33 2 S112 770 541826 615 0
33 2 S112 773 542599 1388 0
33 2 S112 789 543388 2177 0
33 2 S112 822 544210 2999 0
33 2 S112 810 545020 3809 0
33 2 S112 817 545837 4626 0
33 2 S112 805 546642 5431 0
33 2 S112 782 547424 6213 0
33 2 S112 744 548168 6957 0
0 0 0 716 548884 -11442 0
0 0 0 691 549575 -10751 0
0 0 0 676 550251 -10075 0
0 0 0 661 550912 -9414 0
0 0 0 664 551576 -8750 0
0 0 0 729 552305 -8021 0
0 0 0 807 553112 -7214 0
0 0 0 918 554030 -6296 0
0 0 0 949 554979 -5347 0
0 0 0 973 555952 -4374 0
0 0 0 947 556899 -3427 0
0 0 0 897 557796 -2530 0
34 1 S106 867 558663 -1663 0
34 1 S106 872 559535 -791 0
34 2 S106 835 560370 44 0
34 2 S106 866 561236 910 0
34 2 S106 947 562183 1857 0
34 2 S106 1054 563237 2911 0
34 2 S106 1055 564292 3966 0
34 2 S106 965 565257 4931 0
34 2 S106 997 566254 5928 0
34 2 S106 1022 567276 6950 0
0 0 0 992 568268 -7675 0
0 0 0 886 569154 -6789 0
0 0 0 850 570004 -5939 0
0 0 0 838 570842 -5101 0
0 0 0 821 571663 -4280 0
0 0 0 819 572482 -3461 0
0 0 0 856 573338 -2605 0
35 1 S102 926 574264 -1679 0
35 1 S102 952 575216 -727 0
35 2 S102 895 576111 168 0
35 2 S102 925 577036 1093 0
35 2 S102 977 578013 2070 0
35 2 S102 928 578941 2998 0
35 2 S102 879 579820 3877 0
35 2 S102 896 580716 4773 0
35 2 S102 938 581654 5711 0
35 2 S102 971 582625 6682 0
0 0 0 928 583553 -7410 0
0 0 0 977 584530 -6433 0
0 0 0 1020 585550 -5413 0
0 0 0 950 586500 -4463 0
0 0 0 914 587414 -3549 0
0 0 0 856 588270 -2693 0
36 1 S106 827 589097 -1866 0
36 1 S106 780 589877 -1086 0
36 1 S106 759 590636 -327 0
36 2 S106 808 591444 481 0
36 2 S106 879 592323 1360 0
36 2 S106 1075 593398 2435 0
36 2 S106 1134 594532 3569 0
36 2 S106 1099 595631 4668 0
36 2 S106 1026 596657 5694 0
36 2 S106 1050 597707 6744 0
0 0 0 1061 598768 -8127 0
0 0 0 1000 599768 -7127 0
0 0 0 920 600688 -6207 0
0 0 0 929 601617 -5278 0
0 0 0 938 602555 -4340 0
0 0 0 941 603496 -3399 0
0 0 0 901 604397 -2498 0
37 1 S116 939 605336 -1559 0
37 1 S116 970 606306 -589 0
37 2 S116 992 607298 403 0
37 2 S116 938 608236 1341 0
37 2 S116 969 609205 2310 0
37 2 S116 966 610171 3276 0
37 2 S116 912 611083 4188 0
37 2 S116 929 612012 5117 0
37 2 S116 968 612980 6085 0
0 0 0 1028 614008 -11007 0
0 0 0 999 615007 -10008 0
0 0 0 977 615984 -9031 0
0 0 0 945 616929 -8086 0
0 0 0 934 617863 -7152 0
0 0 0 923 618786 -6229 0
0 0 0 970 619756 -5259 0
0 0 0 969 620725 -4290 0
0 0 0 961 621686 -3329 0
0 0 0 907 622593 -2422 0
38 1 S102 921 623514 -1501 0
38 1 S102 974 624488 -527 0
38 2 S102 1028 625516 501 0
38 2 S102 983 626499 1484 0
38 2 S102 971 627470 2455 0
38 2 S102 975 628445 3430 0
38 2 S102 953 629398 4383 0
38 2 S102 926 630324 5309 0
38 2 S102 959 631283 6268 0
0 0 0 954 632237 -8677 0
0 0 0 922 633159 -7755 0
0 0 0 854 634013 -6901 0
0 0 0 847 634860 -6054 0
0 0 0 834 635694 -5220 0
0 0 0 778 636472 -4442 0
0 0 0 747 637219 -3695 0
0 0 0 733 637952 -2962 0
0 0 0 745 638697 -2217 0
39 1 S116 819 639516 -1398 0
39 1 S116 892 640408 -506 0
39 2 S116 1018 641426 512 0
39 2 S116 1089 642515 1601 0
39 2 S116 1047 643562 2648 0
39 2 S116 972 644534 3620 0
39 2 S116 970 645504 4590 0
39 2 S116 943 646447 5533 0
39 2 S116 888 647335 6421 0
0 0 0 863 648198 -7620 0
0 0 0 874 649072 -6746 0
0 0 0 872 649944 -5874 0
0 0 0 859 650803 -5015 0
0 0 0 882 651685 -4133 0
0 0 0 913 652598 -3220 0
0 0 0 939 653537 -2281 0
40 1 S112 933 654470 -1348 0
40 1 S112 983 655453 -365 0
40 2 S112 987 656440 622 0
40 2 S112 938 657378 1560 0
40 2 S112 943 658321 2503 0
40 2 S112 963 659284 3466 0
40 2 S112 955 660239 4421 0
40 2 S112 906 661145 5327 0
40 2 S112 960 662105 6287 0
0 0 0 996 663101 -187878 0
0 0 0 999 664100 -186879 0
0 0 0 939 665039 -185940 0
0 0 0 977 666016 -184963 0
0 0 0 997 667013 -183966 0
0 0 0 961 667974 -183005 0
0 0 0 904 668878 -182101 0
0 0 0 909 669787 -181192 0
0 0 0 994 670781 -180198 0
0 0 0 975 671756 -179223 0
0 0 0 939 672695 -178284 0
0 0 0 967 673662 -177317 0
0 0 0 964 674626 -176353 0
0 0 0 887 675513 -175466 0
0 0 0 808 676321 -174658 0
0 0 0 753 677074 -173905 0
0 0 0 1107 678181 -172798 0
0 0 0 1160 679341 -171638 1
0 0 0 835 680176 -170803 0
0 0 0 822 680998 -169981 0
0 0 0 859 681857 -169122 0
0 0 0 803 682660 -168319 0
0 0 0 773 683433 -167546 0
0 0 0 759 684192 -166787 0
0 0 0 742 684934 -166045 0
0 0 0 730 685664 -165315 0
0 0 0 727 686391 -164588 0
0 0 0 744 687135 -163844 0
0 0 0 776 687911 -163068 0
0 0 0 820 688731 -162248 0
0 0 0 865 689596 -161383 0
0 0 0 896 690492 -160487 0
0 0 0 903 691395 -159584 0
0 0 0 910 692305 -158674 0
0 0 0 914 693219 -157760 0
0 0 0 920 694139 -156840 0
0 0 0 936 695075 -155904 0
0 0 0 852 695927 -155052 0
0 0 0 801 696728 -154251 0
0 0 0 768 697496 -153483 0
0 0 0 752 698248 -152731 0
0 0 0 739 698987 -151992 0
0 0 0 721 699708 -151271 0
0 0 0 716 700424 -150555 0
0 0 0 711 701135 -149844 0
0 0 0 701 701836 -149143 0
0 0 0 707 702543 -148436 0
0 0 0 710 703253 -147726 0
0 0 0 709 703962 -147017 0
0 0 0 714 704676 -146303 0
0 0 0 719 705395 -145584 0
0 0 0 725 706120 -144859 0
0 0 0 755 706875 -144104 0
0 0 0 823 707698 -143281 0
0 0 0 905 708603 -142376 0
0 0 0 896 709499 -141480 0
0 0 0 827 710326 -140653 0
0 0 0 806 711132 -139847 0
0 0 0 760 711892 -139087 0
0 0 0 744 712636 -138343 0
0 0 0 712 713348 -137631 0
0 0 0 702 714050 -136929 0
0 0 0 683 714733 -136246 0
0 0 0 689 715422 -135557 0
0 0 0 685 716107 -134872 0
0 0 0 694 716801 -134178 0
0 0 0 699 717500 -133479 0
0 0 0 687 718187 -132792 0
0 0 0 688 718875 -132104 0
0 0 0 685 719560 -131419 0
0 0 0 716 720276 -130703 0
0 0 0 815 721091 -129888 0
0 0 0 998 722089 -128890 0
0 0 0 1029 723118 -127861 0
0 0 0 1012 724130 -126849 0
0 0 0 975 725105 -125874 0
0 0 0 930 726035 -124944 0
0 0 0 902 726937 -124042 0
0 0 0 854 727791 -123188 0
0 0 0 785 728576 -122403 0
0 0 0 763 729339 -121640 0
0 0 0 741 730080 -120899 0
0 0 0 741 730821 -120158 0
0 0 0 733 731554 -119425 0
0 0 0 812 732366 -118613 0
0 0 0 978 733344 -117635 0
0 0 0 1081 734425 -116554 0
0 0 0 973 735398 -115581 0
0 0 0 923 736321 -114658 0
0 0 0 939 737260 -113719 0
0 0 0 953 738213 -112766 0
0 0 0 917 739130 -111849 0
0 0 0 875 740005 -110974 0
0 0 0 900 740905 -110074 0
0 0 0 948 741853 -109126 0
0 0 0 980 742833 -108146 0
0 0 0 951 743784 -107195 0
0 0 0 988 744772 -106207 0
0 0 0 975 745747 -105232 0
0 0 0 969 746716 -104263 0
0 0 0 898 747614 -103365 0
0 0 0 918 748532 -102447 0
0 0 0 930 749462 -101517 0
0 0 0 927 750389 -100590 0
0 0 0 881 751270 -99709 0
0 0 0 922 752192 -98787 0
0 0 0 961 753153 -97826 0
0 0 0 985 754138 -96841 0
0 0 0 1030 755168 -95811 0
0 0 0 1038 756206 -94773 0
0 0 0 1014 757220 -93759 0
0 0 0 959 758179 -92800 0
0 0 0 947 759126 -91853 0
0 0 0 889 760015 -90964 0
0 0 0 824 760839 -90140 0
0 0 0 771 761610 -89369 0
0 0 0 754 762364 -88615 0
0 0 0 769 763133 -87846 0
0 0 0 885 764018 -86961 0
0 0 0 976 764994 -85985 0
0 0 0 994 765988 -84991 0
0 0 0 927 766915 -84064 0
0 0 0 874 767789 -83190 0
0 0 0 848 768637 -82342 0
0 0 0 804 769441 -81538 0
0 0 0 765 770206 -80773 0
0 0 0 753 770959 -80020 0
0 0 0 723 771682 -79297 0
0 0 0 702 772384 -78595 0
0 0 0 721 773105 -77874 0
0 0 0 718 773823 -77156 0
0 0 0 719 774542 -76437 0
0 0 0 703 775245 -75734 0
0 0 0 703 775948 -75031 0
0 0 0 691 776639 -74340 0
0 0 0 682 777321 -73658 0
0 0 0 667 777988 -72991 0
0 0 0 653 778641 -72338 0
0 0 0 640 779281 -71698 0
0 0 0 640 779921 -71058 0
0 0 0 665 780586 -70393 0
0 0 0 668 781254 -69725 0
0 0 0 669 781923 -69056 0
0 0 0 672 782595 -68384 0
0 0 0 677 783272 -67707 0
0 0 0 703 783975 -67004 0
0 0 0 738 784713 -66266 0
0 0 0 782 785495 -65484 0
0 0 0 833 786328 -64651 0
0 0 0 835 787163 -63816 0
0 0 0 803 787966 -63013 0
0 0 0 792 788758 -62221 0
0 0 0 780 789538 -61441 0
0 0 0 779 790317 -60662 0
0 0 0 861 791178 -59801 0
0 0 0 966 792144 -58835 0
0 0 0 1002 793146 -57833 0
0 0 0 1027 794173 -56806 0
0 0 0 1035 795208 -55771 0
0 0 0 978 796186 -54793 0
0 0 0 910 797096 -53883 0
0 0 0 894 797990 -52989 0
0 0 0 816 798806 -52173 0
0 0 0 804 799610 -51369 0
0 0 0 788 800398 -50581 0
0 0 0 798 801196 -49783 0
0 0 0 809 802005 -48974 0
0 0 0 781 802786 -48193 0
0 0 0 755 803541 -47438 0
0 0 0 797 804338 -46641 0
0 0 0 901 805239 -45740 0
0 0 0 970 806209 -44770 0
0 0 0 927 807136 -43843 0
0 0 0 915 808051 -42928 0
0 0 0 909 808960 -42019 0
0 0 0 933 809893 -41086 0
0 0 0 910 810803 -40176 0
0 0 0 871 811674 -39305 0
0 0 0 860 812534 -38445 0
0 0 0 861 813395 -37584 0
0 0 0 867 814262 -36717 0
0 0 0 837 815099 -35880 0
0 0 0 780 815879 -35100 0
0 0 0 773 816652 -34327 0
0 0 0 785 817437 -33542 0
0 0 0 837 818274 -32705 0
0 0 0 919 819193 -31786 0
0 0 0 879 820072 -30907 0
0 0 0 886 820958 -30021 0
0 0 0 882 821840 -29139 0
0 0 0 843 822683 -28296 0
0 0 0 791 823474 -27505 0
0 0 0 768 824242 -26737 0
0 0 0 740 824982 -25997 0
0 0 0 725 825707 -25272 0
0 0 0 713 826420 -24559 0
0 0 0 717 827137 -23842 0
0 0 0 715 827852 -23127 0
0 0 0 710 828562 -22417 0
0 0 0 697 829259 -21720 0
0 0 0 705 829964 -21015 0
0 0 0 717 830681 -20298 0
0 0 0 767 831448 -19531 0
0 0 0 878 832326 -18653 0
0 0 0 930 833256 -17723 0
0 0 0 967 834223 -16756 0
0 0 0 981 835204 -15775 0
0 0 0 946 836150 -14829 0
0 0 0 902 837052 -13927 0
0 0 0 893 837945 -13034 0
0 0 0 946 838891 -12088 0
0 0 0 1005 839896 -11083 0
0 0 0 1003 840899 -10080 0
0 0 0 957 841856 -9123 0
0 0 0 965 842821 -8158 0
0 0 0 969 843790 -7189 0
0 0 0 975 844765 -6214 0
0 0 0 910 845675 -5304 0
0 0 0 902 846577 -4402 0
0 0 0 870 847447 -3532 0
0 0 0 846 848293 -2686 0
41 1 S102 832 849125 -1854 0
41 1 S102 850 849975 -1004 0
41 1 S102 882 850857 -122 0
41 2 S102 945 851802 823 0
41 2 S102 920 852722 1743 0
41 2 S102 917 853639 2660 0
41 2 S102 919 854558 3579 0
41 2 S102 924 855482 4503 0
41 2 S102 889 856371 5392 0
41 2 S102 890 857261 6282 0
0 0 0 891 858152 -7084 0
0 0 0 890 859042 -6194 0
0 0 0 854 859896 -5340 0
0 0 0 851 860747 -4489 0
0 0 0 861 861608 -3628 0
0 0 0 820 862428 -2808 0
0 0 0 763 863191 -2045 0
42 1 S112 749 863940 -1296 0
42 1 S112 735 864675 -561 0
42 2 S112 739 865414 178 0
42 2 S112 742 866156 920 0
42 2 S112 784 866940 1704 0
42 2 S112 819 867759 2523 0
42 2 S112 857 868616 3380 0
42 2 S112 831 869447 4211 0
42 2 S112 832 870279 5043 0
42 2 S112 841 871120 5884 0
42 2 S112 835 871955 6719 0
0 0 0 817 872772 -8280 0
0 0 0 790 873562 -7490 0
0 0 0 803 874365 -6687 0
0 0 0 809 875174 -5878 0
0 0 0 806 875980 -5072 0
0 0 0 797 876777 -4275 0
0 0 0 799 877576 -3476 0
0 0 0 772 878348 -2704 0
43 1 S116 767 879115 -1937 0
43 1 S116 736 879851 -1201 0
43 1 S116 722 880573 -479 0
43 2 S116 712 881285 233 0
43 2 S116 698 881983 931 0
43 2 S116 689 882672 1620 0
43 2 S116 799 883471 2419 0
43 2 S116 1121 884592 3540 0
43 2 S116 1082 885674 4622 0
43 2 S116 1023 886697 5645 0
43 2 S116 901 887598 6546 0
0 0 0 939 888537 -6706 0
0 0 0 944 889481 -5762 0
0 0 0 933 890414 -4829 0
0 0 0 833 891247 -3996 0
0 0 0 827 892074 -3169 0
0 0 0 824 892898 -2345 0
44 1 S102 914 893812 -1431 0
44 1 S102 926 894738 -505 0
44 2 S102 1001 895739 496 0
44 2 S102 1048 896787 1544 0
44 2 S102 989 897776 2533 0
44 2 S102 902 898678 3435 0
44 2 S102 891 899569 4326 0
44 2 S102 853 900422 5179 0
44 2 S102 810 901232 5989 0
44 2 S102 811 902043 6800 0
0 0 0 778 902821 -7890 0
0 0 0 766 903587 -7124 0
0 0 0 829 904416 -6295 0
0 0 0 925 905341 -5370 0
0 0 0 968 906309 -4402 0
0 0 0 1027 907336 -3375 0
0 0 0 1024 908360 -2351 0
45 1 S116 953 909313 -1398 0
45 1 S116 979 910292 -419 0
45 2 S116 1024 911316 605 0
45 2 S116 1003 912319 1608 0
45 2 S116 924 913243 2532 0
45 2 S116 942 914185 3474 0
45 2 S116 966 915151 4440 0
45 2 S116 950 916101 5390 0
45 2 S116 946 917047 6336 0
0 0 0 1012 918059 -11153 0
0 0 0 1010 919069 -10143 0
0 0 0 952 920021 -9191 0
0 0 0 985 921006 -8206 0
0 0 0 915 921921 -7291 0
0 0 0 888 922809 -6403 0
0 0 0 866 923675 -5537 0
0 0 0 888 924563 -4649 0
0 0 0 953 925516 -3696 0
0 0 0 939 926455 -2757 0
46 1 S102 1039 927494 -1718 0
46 1 S102 1088 928582 -630 0
46 2 S102 1070 929652 440 0
46 2 S102 983 930635 1423 0
46 2 S102 977 931612 2400 0
46 2 S102 994 932606 3394 0
46 2 S102 994 933600 4388 0
46 2 S102 942 934542 5330 0
46 2 S102 949 935491 6279 0
0 0 0 938 936429 -9610 0
0 0 0 1001 937430 -8609 0
0 0 0 981 938411 -7628 0
0 0 0 1004 939415 -6624 0
0 0 0 1053 940468 -5571 0
0 0 0 1071 941539 -4500 0
0 0 0 999 942538 -3501 0
0 0 0 999 943537 -2502 0
47 1 S112 1002 944539 -1500 0
47 1 S112 950 945489 -550 0
47 2 S112 875 946364 325 0
47 2 S112 889 947253 1214 0
47 2 S112 959 948212 2173 0
47 2 S112 996 949208 3169 0
47 2 S112 984 950192 4153 0
47 2 S112 1025 951217 5178 0
47 2 S112 992 952209 6170 0
0 0 0 930 953139 -10639 0
0 0 0 979 954118 -9660 0
0 0 0 992 955110 -8668 0
0 0 0 947 956057 -7721 0
0 0 0 938 956995 -6783 0
0 0 0 921 957916 -5862 0
0 0 0 913 958829 -4949 0
0 0 0 857 959686 -4092 0
0 0 0 843 960529 -3249 0
0 0 0 832 961361 -2417 0
48 1 S116 840 962201 -1577 0
48 1 S116 845 963046 -732 0
48 2 S116 938 963984 206 0
48 2 S116 971 964955 1177 0
48 2 S116 964 965919 2141 0
48 2 S116 914 966833 3055 0
48 2 S116 914 967747 3969 0
48 2 S116 908 968655 4877 0
48 2 S116 900 969555 5777 0
48 2 S116 865 970420 6642 0
0 0 0 880 971300 -8609 0
0 0 0 905 972205 -7704 0
0 0 0 910 973115 -6794 0
0 0 0 910 974025 -5884 0
0 0 0 959 974984 -4925 0
0 0 0 961 975945 -3964 0
0 0 0 931 976876 -3033 0
0 0 0 911 977787 -2122 0
49 1 S112 890 978677 -1232 0
49 1 S112 882 979559 -350 0
49 2 S112 844 980403 494 0
49 2 S112 844 981247 1338 0
49 2 S112 839 982086 2177 0
49 2 S112 873 982959 3050 0
49 2 S112 913 983872 3963 0
49 2 S112 921 984793 4884 0
49 2 S112 945 985738 5829 0
49 2 S112 998 986736 6827 0
0 0 0 986 987722 -11451 0
0 0 0 959 988681 -10492 0
0 0 0 972 989653 -9520 0
0 0 0 963 990616 -8557 0
0 0 0 901 991517 -7656 0
0 0 0 921 992438 -6735 0
0 0 0 965 993403 -5770 0
0 0 0 982 994385 -4788 0
0 0 0 937 995322 -3851 0
0 0 0 939 996261 -2912 0
50 1 S106 931 997192 -1981 0
50 1 S106 928 998120 -1053 0
50 1 S106 884 999004 -169 0
50 2 S106 857 999861 688 0
50 2 S106 855 1000716 1543 0
50 2 S106 840 1001556 2383 0
50 2 S106 884 1002440 3267 0
50 2 S106 966 1003406 4233 0
50 2 S106 986 1004392 5219 0
50 2 S106 948 1005340 6167 0
0 0 0 882 1006222 -8899 0
0 0 0 884 1007106 -8015 0
0 0 0 905 1008011 -7110 0
0 0 0 899 1008910 -6211 0
0 0 0 888 1009798 -5323 0
0 0 0 913 1010711 -4410 0
0 0 0 933 1011644 -3477 0
0 0 0 899 1012543 -2578 0
51 1 S112 855 1013398 -1723 0
51 1 S112 856 1014254 -867 0
51 2 S112 894 1015148 27 0
51 2 S112 963 1016111 990 0
51 2 S112 970 1017081 1960 0
51 2 S112 1032 1018113 2992 0
51 2 S112 1076 1019189 4068 0
51 2 S112 1055 1020244 5123 0
51 2 S112 1006 1021250 6129 0
0 0 0 1026 1022276 -7368 0
0 0 0 1022 1023298 -6346 0
0 0 0 986 1024284 -5360 0
0 0 0 895 1025179 -4465 0
0 0 0 893 1026072 -3572 0
0 0 0 880 1026952 -2692 0
52 1 S116 846 1027798 -1846 0
52 1 S116 810 1028608 -1036 0
52 1 S116 823 1029431 -213 0
52 2 S116 817 1030248 604 0
52 2 S116 869 1031117 1473 0
52 2 S116 894 1032011 2367 0
52 2 S116 940 1032951 3307 0
52 2 S116 946 1033897 4253 0
52 2 S116 939 1034836 5192 0
52 2 S116 912 1035748 6104 0
52 2 S116 873 1036621 6977 0
0 0 0 915 1037536 -8504 0
0 0 0 911 1038447 -7593 0
0 0 0 904 1039351 -6689 0
0 0 0 866 1040217 -5823 0
0 0 0 895 1041112 -4928 0
0 0 0 912 1042024 -4016 0
0 0 0 868 1042892 -3148 0
0 0 0 869 1043761 -2279 0
53 1 S106 869 1044630 -1410 0
53 1 S106 888 1045518 -522 0
53 2 S106 853 1046371 331 0
53 2 S106 879 1047250 1210 0
53 2 S106 886 1048136 2096 0
53 2 S106 922 1049058 3018 0
53 2 S106 906 1049964 3924 0
53 2 S106 909 1050873 4833 0
53 2 S106 941 1051814 5774 0
53 2 S106 938 1052752 6712 0
0 0 0 922 1053674 -5413 0
0 0 0 963 1054637 -4450 0
0 0 0 959 1055596 -3491 0
0 0 0 898 1056494 -2593 0
54 1 S102 818 1057312 -1775 0
54 1 S102 830 1058142 -945 0
54 1 S102 894 1059036 -51 0
54 2 S102 1014 1060050 963 0
54 2 S102 1002 1061052 1965 0
54 2 S102 1070 1062122 3035 0
54 2 S102 1065 1063187 4100 0
54 2 S102 988 1064175 5088 0
54 2 S102 924 1065099 6012 0
54 2 S102 907 1066006 6919 0
0 0 0 915 1066921 -9706 0
0 0 0 891 1067812 -8815 0
0 0 0 889 1068701 -7926 0
0 0 0 900 1069601 -7026 0
0 0 0 900 1070501 -6126 0
0 0 0 898 1071399 -5228 0
0 0 0 933 1072332 -4295 0
0 0 0 995 1073327 -3300 0
0 0 0 1060 1074387 -2240 0
55 1 S106 1024 1075411 -1216 0
55 1 S106 1042 1076453 -174 0
55 2 S106 1018 1077471 844 0
55 2 S106 961 1078432 1805 0
55 2 S106 933 1079365 2738 0
55 2 S106 938 1080303 3676 0
55 2 S106 923 1081226 4599 0
55 2 S106 906 1082132 5505 0
55 2 S106 899 1083031 6404 0
0 0 0 942 1083973 -5751 0
0 0 0 984 1084957 -4767 0
0 0 0 935 1085892 -3832 0
0 0 0 869 1086761 -2963 0
0 0 0 808 1087569 -2155 0
56 1 S116 775 1088344 -1380 0
56 1 S116 755 1089099 -625 0
56 2 S116 773 1089872 148 0
56 2 S116 806 1090678 954 0
56 2 S116 920 1091598 1874 0
56 2 S116 927 1092525 2801 0
56 2 S116 922 1093447 3723 0
56 2 S116 906 1094353 4629 0
56 2 S116 882 1095235 5511 0
56 2 S116 875 1096110 6386 0
0 0 0 865 1096975 -6907 0
0 0 0 840 1097815 -6067 0
0 0 0 810 1098625 -5257 0
0 0 0 784 1099409 -4473 0
0 0 0 758 1100167 -3715 0
0 0 0 764 1100931 -2951 0
0 0 0 765 1101696 -2186 0
57 1 S106 758 1102454 -1428 0
57 1 S106 748 1103202 -680 0
57 2 S106 766 1103968 86 0
57 2 S106 792 1104760 878 0
57 2 S106 861 1105621 1739 0
57 2 S106 984 1106605 2723 0
57 2 S106 998 1107603 3721 0
57 2 S106 1011 1108614 4732 0
57 2 S106 1024 1109638 5756 0
57 2 S106 1014 1110652 6770 0
0 0 0 974 1111626 -8321 0
0 0 0 953 1112579 -7368 0
0 0 0 923 1113502 -6445 0
0 0 0 907 1114409 -5538 0
0 0 0 882 1115291 -4656 0
0 0 0 920 1116211 -3736 0
0 0 0 936 1117147 -2800 0
58 1 S102 930 1118077 -1870 0
58 1 S102 870 1118947 -1000 0
58 1 S102 870 1119817 -130 0
58 2 S102 868 1120685 738 0
58 2 S102 834 1121519 1572 0
58 2 S102 829 1122348 2401 0
58 2 S102 864 1123212 3265 0
58 2 S102 915 1124127 4180 0
58 2 S102 924 1125051 5104 0
58 2 S102 932 1125983 6036 0
0 0 0 1015 1126998 -6244 0
0 0 0 1048 1128046 -5196 0
0 0 0 901 1128947 -4295 0
0 0 0 896 1129843 -3399 0
0 0 0 898 1130741 -2501 0
59 1 S112 876 1131617 -1625 0
59 1 S112 895 1132512 -730 0
59 2 S112 921 1133433 191 0
59 2 S112 918 1134351 1109 0
59 2 S112 872 1135223 1981 0
59 2 S112 932 1136155 2913 0
59 2 S112 997 1137152 3910 0
59 2 S112 987 1138139 4897 0
59 2 S112 940 1139079 5837 0
59 2 S112 983 1140062 6820 0
0 0 0 1017 1141079 -8642 0
0 0 0 929 1142008 -7713 0
0 0 0 911 1142919 -6802 0
0 0 0 856 1143775 -5946 0
0 0 0 796 1144571 -5150 0
0 0 0 780 1145351 -4370 0
0 0 0 758 1146109 -3612 0
0 0 0 737 1146846 -2875 0
0 0 0 720 1147566 -2155 0
60 1 S102 698 1148264 -1457 0
60 1 S102 727 1148991 -730 0
60 1 S102 701 1149692 -29 0
60 2 S102 686 1150378 657 0
60 2 S102 678 1151056 1335 0
60 2 S102 676 1151732 2011 0
60 2 S102 658 1152390 2669 0
60 2 S102 643 1153033 3312 0
60 2 S102 635 1153668 3947 0
60 2 S102 644 1154312 4591 0
60 2 S102 679 1154991 5270 0
60 2 S102 723 1155714 5993 0
60 2 S102 759 1156473 6752 0
0 0 0 780 1157253 -9743 0
0 0 0 791 1158044 -8952 0
0 0 0 755 1158799 -8197 0
0 0 0 747 1159546 -7450 0
0 0 0 713 1160259 -6737 0
0 0 0 693 1160952 -6044 0
0 0 0 676 1161628 -5368 0
0 0 0 664 1162292 -4704 0
0 0 0 659 1162951 -4045 0
0 0 0 658 1163609 -3387 0
0 0 0 683 1164292 -2704 0
61 1 S106 724 1165016 -1980 0
61 1 S106 828 1165844 -1152 0
61 1 S106 925 1166769 -227 0
61 2 S106 1010 1167779 783 0
61 2 S106 990 1168769 1773 0
61 2 S106 1000 1169769 2773 0
61 2 S106 969 1170738 3742 0
61 2 S106 942 1171680 4684 0
61 2 S106 929 1172609 5613 0
61 2 S106 928 1173537 6541 0
0 0 0 918 1174455 -5572 0
0 0 0 894 1175349 -4678 0
0 0 0 854 1176203 -3824 0
0 0 0 795 1176998 -3029 0
0 0 0 742 1177740 -2287 0
62 1 S112 710 1178450 -1577 0
62 1 S112 687 1179137 -890 0
62 1 S112 665 1179802 -225 0
62 2 S112 662 1180464 437 0
62 2 S112 681 1181145 1118 0
62 2 S112 806 1181951 1924 0
62 2 S112 1003 1182954 2927 0
62 2 S112 1107 1184061 4034 0
62 2 S112 1103 1185164 5137 0
62 2 S112 1030 1186194 6167 0
0 0 0 980 1187174 -11503 0
0 0 0 988 1188162 -10515 0
0 0 0 957 1189119 -9558 0
0 0 0 902 1190021 -8656 0
0 0 0 890 1190911 -7766 0
0 0 0 931 1191842 -6835 0
0 0 0 982 1192824 -5853 0
0 0 0 940 1193764 -4913 0
0 0 0 977 1194741 -3936 0
0 0 0 1014 1195755 -2922 0
63 1 S102 1002 1196757 -1920 0
63 1 S102 949 1197706 -971 0
63 2 S102 978 1198684 7 0
63 2 S102 1004 1199688 1011 0
63 2 S102 989 1200677 2000 0
63 2 S102 878 1201555 2878 0
63 2 S102 869 1202424 3747 0
63 2 S102 844 1203268 4591 0
63 2 S102 843 1204111 5434 0
63 2 S102 813 1204924 6247 0
0 0 0 893 1205817 -8129 0
0 0 0 988 1206805 -7141 0
0 0 0 986 1207791 -6155 0
0 0 0 909 1208700 -5246 0
0 0 0 941 1209641 -4305 0
0 0 0 982 1210623 -3323 0
0 0 0 958 1211581 -2365 0
64 1 S112 891 1212472 -1474 0
64 1 S112 934 1213406 -540 0
64 2 S112 938 1214344 398 0
64 2 S112 925 1215269 1323 0
64 2 S112 871 1216140 2194 0
64 2 S112 895 1217035 3089 0
64 2 S112 902 1217937 3991 0
64 2 S112 864 1218801 4855 0
64 2 S112 876 1219677 5731 0
64 2 S112 884 1220561 6615 0
0 0 0 896 1221457 -6680 0
0 0 0 867 1222324 -5813 0
0 0 0 866 1223190 -4947 0
0 0 0 843 1224033 -4104 0
0 0 0 766 1224799 -3338 0
0 0 0 754 1225553 -2584 0
65 1 S106 742 1226295 -1842 0
65 1 S106 739 1227034 -1103 0
65 1 S106 742 1227776 -361 0
65 2 S106 733 1228509 372 0
65 2 S106 741 1229250 1113 0
65 2 S106 748 1229998 1861 0
65 2 S106 742 1230740 2603 0
65 2 S106 735 1231475 3338 0
65 2 S106 712 1232187 4050 0
65 2 S106 698 1232885 4748 0
65 2 S106 679 1233564 5427 0
65 2 S106 664 1234228 6091 0
65 2 S106 650 1234878 6741 0
0 0 0 639 1235517 -6115 0
0 0 0 629 1236146 -5486 0
0 0 0 621 1236767 -4865 0
0 0 0 615 1237382 -4250 1
0 0 0 613 1237995 -3637 1
0 0 0 666 1238661 -2971 0
0 0 0 861 1239522 -2110 0
66 1 S116 908 1240430 -1202 0
66 1 S116 908 1241338 -294 0
66 2 S116 916 1242254 622 0
66 2 S116 883 1243137 1505 0
66 2 S116 857 1243994 2362 0
66 2 S116 812 1244806 3174 0
66 2 S116 763 1245569 3937 0
66 2 S116 729 1246298 4666 0
66 2 S116 740 1247038 5406 0
66 2 S116 777 1247815 6183 0
66 2 S116 765 1248580 6948 0
0 0 0 832 1249412 -10440 0
0 0 0 971 1250383 -9469 0
0 0 0 1019 1251402 -8450 0
0 0 0 937 1252339 -7513 0
0 0 0 883 1253222 -6630 0
0 0 0 873 1254095 -5757 0
0 0 0 878 1254973 -4879 0
0 0 0 813 1255786 -4066 0
0 0 0 812 1256598 -3254 0
0 0 0 814 1257412 -2440 0
67 1 S102 843 1258255 -1597 0
67 1 S102 825 1259080 -772 0
67 2 S102 874 1259954 102 0
67 2 S102 958 1260912 1060 0
67 2 S102 1022 1261934 2082 0
67 2 S102 953 1262887 3035 0
67 2 S102 977 1263864 4012 0
67 2 S102 983 1264847 4995 0
67 2 S102 933 1265780 5928 0
67 2 S102 880 1266660 6808 0
0 0 0 905 1267565 -5218 0
0 0 0 914 1268479 -4304 0
0 0 0 898 1269377 -3406 0
0 0 0 822 1270199 -2584 0
68 1 S106 792 1270991 -1792 0
68 1 S106 781 1271772 -1011 0
68 1 S106 837 1272609 -174 0
68 2 S106 903 1273512 729 0
68 2 S106 948 1274460 1677 0
68 2 S106 893 1275353 2570 0
68 2 S106 947 1276300 3517 0
68 2 S106 990 1277290 4507 0
68 2 S106 945 1278235 5452 0
68 2 S106 850 1279085 6302 0
0 0 0 855 1279940 -11261 0
0 0 0 876 1280816 -10385 0
0 0 0 875 1281691 -9510 0
0 0 0 807 1282498 -8703 0
0 0 0 821 1283319 -7882 0
0 0 0 828 1284147 -7054 0
0 0 0 846 1284993 -6208 0
0 0 0 847 1285840 -5361 0
0 0 0 924 1286764 -4437 0
0 0 0 997 1287761 -3440 0
0 0 0 952 1288713 -2488 0
69 1 S102 897 1289610 -1591 0
69 1 S102 937 1290547 -654 0
69 2 S102 978 1291525 324 0
69 2 S102 960 1292485 1284 0
69 2 S102 932 1293417 2216 0
69 2 S102 980 1294397 3196 0
69 2 S102 1025 1295422 4221 0
69 2 S102 1006 1296428 5227 0
69 2 S102 971 1297399 6198 0
0 0 0 985 1298384 -9661 0
0 0 0 972 1299356 -8689 0
0 0 0 924 1300280 -7765 0
0 0 0 854 1301134 -6911 0
0 0 0 843 1301977 -6068 0
0 0 0 798 1302775 -5270 0
0 0 0 767 1303542 -4503 0
0 0 0 741 1304283 -3762 0
0 0 0 743 1305026 -3019 0
0 0 0 749 1305775 -2270 0
70 1 S112 779 1306554 -1491 0
70 1 S112 792 1307346 -699 0
70 2 S112 838 1308184 139 0
70 2 S112 862 1309046 1001 0
70 2 S112 875 1309921 1876 0
70 2 S112 850 1310771 2726 0
70 2 S112 793 1311564 3519 0
70 2 S112 775 1312339 4294 0
70 2 S112 750 1313089 5044 0
70 2 S112 717 1313806 5761 0
70 2 S112 690 1314496 6451 0
0 0 0 692 1315188 -11359 0
0 0 0 674 1315862 -10685 0
0 0 0 660 1316522 -10025 0
0 0 0 652 1317174 -9373 0
0 0 0 644 1317818 -8729 0
0 0 0 636 1318454 -8093 0
0 0 0 630 1319084 -7463 0
0 0 0 622 1319706 -6841 0
0 0 0 621 1320327 -6220 0
0 0 0 647 1320974 -5573 0
0 0 0 734 1321708 -4839 0
0 0 0 804 1322512 -4035 0
0 0 0 811 1323323 -3224 0
0 0 0 786 1324109 -2438 0
71 1 S116 728 1324837 -1710 0
71 1 S116 731 1325568 -979 0
71 1 S116 711 1326279 -268 0
71 2 S116 709 1326988 441 0
71 2 S116 719 1327707 1160 0
71 2 S116 762 1328469 1922 0
71 2 S116 859 1329328 2781 0
71 2 S116 948 1330276 3729 0
71 2 S116 965 1331241 4694 0
71 2 S116 969 1332210 5663 0
71 2 S116 952 1333162 6615 0
0 0 0 929 1334091 -8769 0
0 0 0 889 1334980 -7880 0
0 0 0 880 1335860 -7000 0
0 0 0 839 1336699 -6161 0
0 0 0 805 1337504 -5356 0
0 0 0 776 1338280 -4580 0
0 0 0 765 1339045 -3815 0
0 0 0 763 1339808 -3052 0
0 0 0 762 1340570 -2290 0
72 1 S102 757 1341327 -1533 0
72 1 S102 781 1342108 -752 0
72 2 S102 830 1342938 78 0
72 2 S102 885 1343823 963 0
72 2 S102 852 1344675 1815 0
72 2 S102 888 1345563 2703 0
72 2 S102 899 1346462 3602 0
72 2 S102 921 1347383 4523 0
72 2 S102 856 1348239 5379 0
72 2 S102 844 1349083 6223 0
0 0 0 852 1349935 -7812 0
0 0 0 868 1350803 -6944 0
0 0 0 837 1351640 -6107 0
0 0 0 860 1352500 -5247 0
0 0 0 868 1353368 -4379 0
0 0 0 833 1354201 -3546 0
0 0 0 763 1354964 -2783 0
0 0 0 740 1355704 -2043 0
73 1 S116 724 1356428 -1319 0
73 1 S116 716 1357144 -603 0
73 2 S116 709 1357853 106 0
73 2 S116 709 1358562 815 0
73 2 S116 732 1359294 1547 0
73 2 S116 804 1360098 2351 0
73 2 S116 948 1361046 3299 0
73 2 S116 977 1362023 4276 0
73 2 S116 957 1362980 5233 0
73 2 S116 844 1363824 6077 0
73 2 S116 810 1364634 6887 0
0 0 0 833 1365467 -8709 0
0 0 0 789 1366256 -7920 0
0 0 0 791 1367047 -7129 0
0 0 0 787 1367834 -6342 0
0 0 0 789 1368623 -5553 0
0 0 0 764 1369387 -4789 0
0 0 0 756 1370143 -4033 0
0 0 0 745 1370888 -3288 0
0 0 0 729 1371617 -2559 0
74 1 S106 727 1372344 -1832 0
74 1 S106 724 1373068 -1108 0
74 1 S106 718 1373786 -390 0
74 2 S106 706 1374492 316 0
74 2 S106 707 1375199 1023 0
74 2 S106 704 1375903 1727 0
74 2 S106 697 1376600 2424 0
74 2 S106 687 1377287 3111 0
74 2 S106 668 1377955 3779 0
74 2 S106 663 1378618 4442 0
74 2 S106 660 1379278 5102 0
74 2 S106 638 1379916 5740 0
74 2 S106 625 1380541 6365 0
74 2 S106 618 1381159 6983 1
0 0 0 610 1381769 -6897 1
0 0 0 611 1382380 -6286 1
0 0 0 624 1383004 -5662 0
0 0 0 657 1383661 -5005 0
0 0 0 693 1384354 -4312 0
0 0 0 724 1385078 -3588 0
0 0 0 712 1385790 -2876 0
0 0 0 706 1386496 -2170 0
75 1 S112 698 1387194 -1472 0
75 1 S112 685 1387879 -787 0
75 1 S112 677 1388556 -110 0
75 2 S112 682 1389238 572 0
75 2 S112 703 1389941 1275 0
75 2 S112 730 1390671 2005 0
75 2 S112 779 1391450 2784 0
75 2 S112 826 1392276 3610 0
75 2 S112 803 1393079 4413 0
75 2 S112 784 1393863 5197 0
75 2 S112 772 1394635 5969 0
75 2 S112 769 1395404 6738 0
0 0 0 776 1396180 -6859 0
0 0 0 790 1396970 -6069 0
0 0 0 825 1397795 -5244 0
0 0 0 852 1398647 -4392 0
0 0 0 826 1399473 -3566 0
0 0 0 820 1400293 -2746 0
76 1 S116 792 1401085 -1954 0
76 1 S116 794 1401879 -1160 0
76 1 S116 797 1402676 -363 0
76 2 S116 805 1403481 442 0
76 2 S116 813 1404294 1255 0
76 2 S116 832 1405126 2087 0
76 2 S116 862 1405988 2949 0
76 2 S116 884 1406872 3833 0
76 2 S116 893 1407765 4726 0
76 2 S116 900 1408665 5626 0
76 2 S116 885 1409550 6511 0
0 0 0 836 1410386 -7872 0
0 0 0 786 1411172 -7086 0
0 0 0 758 1411930 -6328 0
0 0 0 725 1412655 -5603 0
0 0 0 702 1413357 -4901 0
0 0 0 692 1414049 -4209 0
0 0 0 682 1414731 -3527 0
0 0 0 688 1415419 -2839 0
0 0 0 682 1416101 -2157 0
77 1 S106 689 1416790 -1468 0
77 1 S106 703 1417493 -765 0
77 1 S106 711 1418204 -54 0
77 2 S106 701 1418905 647 0
77 2 S106 701 1419606 1348 0
77 2 S106 715 1420321 2063 0
77 2 S106 727 1421048 2790 0
77 2 S106 758 1421806 3548 0
77 2 S106 764 1422570 4312 0
77 2 S106 768 1423338 5080 0
77 2 S106 803 1424141 5883 0
77 2 S106 854 1424995 6737 0
0 0 0 877 1425872 -8401 0
0 0 0 831 1426703 -7570 0
0 0 0 858 1427561 -6712 0
0 0 0 856 1428417 -5856 0
0 0 0 836 1429253 -5020 0
0 0 0 785 1430038 -4235 0
0 0 0 774 1430812 -3461 0
0 0 0 778 1431590 -2683 0
78 1 S112 821 1432411 -1862 0
78 1 S112 853 1433264 -1009 0
78 1 S112 917 1434181 -92 0
78 2 S112 926 1435107 834 0
78 2 S112 870 1435977 1704 0
78 2 S112 837 1436814 2541 0
78 2 S112 871 1437685 3412 0
78 2 S112 962 1438647 4374 0
78 2 S112 922 1439569 5296 0
78 2 S112 981 1440550 6277 0
0 0 0 1078 1441628 -10450 0
0 0 0 1094 1442722 -9356 0
0 0 0 984 1443706 -8372 0
0 0 0 948 1444654 -7424 0
0 0 0 923 1445577 -6501 0
0 0 0 934 1446511 -5567 0
0 0 0 900 1447411 -4667 0
0 0 0 902 1448313 -3765 0
0 0 0 912 1449225 -2853 0
79 1 S102 901 1450126 -1952 0
79 1 S102 876 1451002 -1076 0
79 1 S102 901 1451903 -175 0
79 2 S102 912 1452815 737 0
79 2 S102 932 1453747 1669 0
79 2 S102 880 1454627 2549 0
79 2 S102 945 1455572 3494 0
79 2 S102 971 1456543 4465 0
79 2 S102 911 1457454 5376 0
79 2 S102 896 1458350 6272 0
0 0 0 937 1459287 -8889 0
0 0 0 925 1460212 -7964 0
0 0 0 855 1461067 -7109 0
0 0 0 849 1461916 -6260 0
0 0 0 837 1462753 -5423 0
0 0 0 765 1463518 -4658 0
0 0 0 754 1464272 -3904 0
0 0 0 736 1465008 -3168 0
0 0 0 724 1465732 -2444 0
80 1 S116 718 1466450 -1726 0
80 1 S116 719 1467169 -1007 0
80 1 S116 739 1467908 -268 0
80 2 S116 760 1468668 492 0
80 2 S116 791 1469459 1283 0
80 2 S116 813 1470272 2096 0
80 2 S116 920 1471192 3016 0
80 2 S116 962 1472154 3978 0
80 2 S116 959 1473113 4937 0
80 2 S116 910 1474023 5847 0
80 2 S116 891 1474914 6738 0
