T_0062
BeatCount Mean SD BeatCountNoOutliers MeanNoOutliers SDNoOutliers
1644 951,266423357664 460,696320805798 1642 938,934835566383 83,1259910901874

Trial TrialStatus Trialtype IBI AbsPosition RelPosition Outlier
0 0 0 772 1513 -14267 0
0 0 0 840 2353 -13427 0
0 0 0 823 3176 -12604 0
0 0 0 863 4039 -11741 0
0 0 0 966 5005 -10775 0
0 0 0 1038 6043 -9737 0
0 0 0 1062 7105 -8675 0
0 0 0 967 8072 -7708 0
0 0 0 917 8989 -6791 0
0 0 0 858 9847 -5933 0
0 0 0 856 10703 -5077 0
0 0 0 888 11591 -4189 0
0 0 0 878 12469 -3311 0
0 0 0 834 13303 -2477 0
1 1 S112 913 14216 -1564 0
1 1 S112 999 15215 -565 0
1 2 S112 1031 16246 466 0
1 2 S112 1046 17292 1512 0
1 2 S112 980 18272 2492 0
1 2 S112 1021 19293 3513 0
1 2 S112 1040 20333 4553 0
1 2 S112 1036 21369 5589 0
1 2 S112 1039 22408 6628 0
0 0 0 972 23380 -11217 0
0 0 0 877 24257 -10340 0
0 0 0 965 25222 -9375 0
0 0 0 996 26218 -8379 0
0 0 0 935 27153 -7444 0
0 0 0 950 28103 -6494 0
0 0 0 1054 29157 -5440 0
0 0 0 1040 30197 -4400 0
0 0 0 963 31160 -3437 0
0 0 0 933 32093 -2504 0
2 1 S102 1010 33103 -1494 0
2 1 S102 1055 34158 -439 0
2 2 S102 945 35103 506 0
2 2 S102 975 36078 1481 0
2 2 S102 1046 37124 2527 0
2 2 S102 1054 38178 3581 0
2 2 S102 1043 39221 4624 0
2 2 S102 929 40150 5553 0
2 2 S102 953 41103 6506 0
0 0 0 1059 42162 -10804 0
0 0 0 1112 43274 -9692 0
0 0 0 1014 44288 -8678 0
0 0 0 1043 45331 -7635 0
0 0 0 1045 46376 -6590 0
0 0 0 930 47306 -5660 0
0 0 0 958 48264 -4702 0
0 0 0 1004 49268 -3698 0
0 0 0 941 50209 -2757 0
3 1 S116 876 51085 -1881 0
3 1 S116 966 52051 -915 0
3 2 S116 1076 53127 161 0
3 2 S116 1062 54189 1223 0
3 2 S116 1011 55200 2234 0
3 2 S116 1084 56284 3318 0
3 2 S116 1048 57332 4366 0
3 2 S116 1047 58379 5413 0
3 2 S116 959 59338 6372 0
0 0 0 899 60237 -11960 0
0 0 0 983 61220 -10977 0
0 0 0 1058 62278 -9919 0
0 0 0 1003 63281 -8916 0
0 0 0 933 64214 -7983 0
0 0 0 998 65212 -6985 0
0 0 0 1052 66264 -5933 0
0 0 0 1000 67264 -4933 0
0 0 0 935 68199 -3998 0
0 0 0 892 69091 -3106 0
0 0 0 983 70074 -2123 0
4 1 S106 1080 71154 -1043 0
4 1 S106 1006 72160 -37 0
4 2 S106 945 73105 908 0
4 2 S106 1043 74148 1951 0
4 2 S106 1075 75223 3026 0
4 2 S106 1077 76300 4103 0
4 2 S106 1006 77306 5109 0
4 2 S106 904 78210 6013 0
4 2 S106 968 79178 6981 0
0 0 0 1056 80234 -8044 0
0 0 0 1020 81254 -7024 0
0 0 0 962 82216 -6062 0
0 0 0 1060 83276 -5002 0
0 0 0 1034 84310 -3968 0
0 0 0 984 85294 -2984 0
0 0 0 888 86182 -2096 0
5 1 S116 982 87164 -1114 0
5 1 S116 1004 88168 -110 0
5 2 S116 936 89104 826 0
5 2 S116 929 90033 1755 0
5 2 S116 926 90959 2681 0
5 2 S116 1092 92051 3773 0
5 2 S116 1144 93195 4917 0
5 2 S116 1121 94316 6038 0
0 0 0 1071 95387 -10364 0
0 0 0 1006 96393 -9358 0
0 0 0 999 97392 -8359 0
0 0 0 1034 98426 -7325 0
0 0 0 977 99403 -6348 0
0 0 0 931 100334 -5417 0
0 0 0 1011 101345 -4406 0
0 0 0 1037 102382 -3369 0
0 0 0 991 103373 -2378 0
6 1 S106 883 104256 -1495 0
6 1 S106 983 105239 -512 0
6 2 S106 1047 106286 535 0
6 2 S106 1059 107345 1594 0
6 2 S106 1061 108406 2655 0
6 2 S106 1064 109470 3719 0
6 2 S106 1064 110534 4783 0
6 2 S106 996 111530 5779 0
6 2 S106 888 112418 6667 0
0 0 0 845 113263 -11785 0
0 0 0 997 114260 -10788 0
0 0 0 1141 115401 -9647 0
0 0 0 1056 116457 -8591 0
0 0 0 936 117393 -7655 0
0 0 0 1004 118397 -6651 0
0 0 0 1056 119453 -5595 0
0 0 0 1009 120462 -4586 0
0 0 0 906 121368 -3680 0
0 0 0 938 122306 -2742 0
7 1 S102 1011 123317 -1731 0
7 1 S102 1043 124360 -688 0
7 2 S102 987 125347 299 0
7 2 S102 1081 126428 1380 0
7 2 S102 1132 127560 2512 0
7 2 S102 1059 128619 3571 0
7 2 S102 993 129612 4564 0
7 2 S102 993 130605 5557 0
7 2 S102 1104 131709 6661 0
0 0 0 1119 132828 -10606 0
0 0 0 1057 133885 -9549 0
0 0 0 943 134828 -8606 0
0 0 0 1028 135856 -7578 0
0 0 0 1086 136942 -6492 0
0 0 0 1012 137954 -5480 0
0 0 0 994 138948 -4486 0
0 0 0 1041 139989 -3445 0
0 0 0 1022 141011 -2423 0
8 1 S112 911 141922 -1512 0
8 1 S112 984 142906 -528 0
8 2 S112 1082 143988 554 0
8 2 S112 1075 145063 1629 0
8 2 S112 1031 146094 2660 0
8 2 S112 1031 147125 3691 0
8 2 S112 1043 148168 4734 0
8 2 S112 1010 149178 5744 0
8 2 S112 938 150116 6682 0
0 0 0 931 151047 -8816 0
0 0 0 970 152017 -7846 0
0 0 0 935 152952 -6911 0
0 0 0 883 153835 -6028 0
0 0 0 986 154821 -5042 0
0 0 0 1020 155841 -4022 0
0 0 0 946 156787 -3076 0
0 0 0 911 157698 -2165 0
9 1 S116 974 158672 -1191 0
9 1 S116 999 159671 -192 0
9 2 S116 983 160654 791 0
9 2 S116 948 161602 1739 0
9 2 S116 900 162502 2639 0
9 2 S116 871 163373 3510 0
9 2 S116 888 164261 4398 0
9 2 S116 980 165241 5378 0
9 2 S116 1072 166313 6450 0
0 0 0 1085 167398 -13072 0
0 0 0 1052 168450 -12020 0
0 0 0 989 169439 -11031 0
0 0 0 970 170409 -10061 0
0 0 0 1022 171431 -9039 0
0 0 0 1004 172435 -8035 0
0 0 0 945 173380 -7090 0
0 0 0 1016 174396 -6074 0
0 0 0 1012 175408 -5062 0
0 0 0 916 176324 -4146 0
0 0 0 979 177303 -3167 0
0 0 0 1018 178321 -2149 0
10 1 S102 1026 179347 -1123 0
10 1 S102 943 180290 -180 0
10 2 S102 1038 181328 858 0
10 2 S102 1067 182395 1925 0
10 2 S102 1029 183424 2954 0
10 2 S102 967 184391 3921 0
10 2 S102 943 185334 4864 0
10 2 S102 985 186319 5849 0
10 2 S102 1008 187327 6857 0
0 0 0 954 188281 -12067 0
0 0 0 988 189269 -11079 0
0 0 0 1023 190292 -10056 0
0 0 0 1017 191309 -9039 0
0 0 0 908 192217 -8131 0
0 0 0 937 193154 -7194 0
0 0 0 957 194111 -6237 0
0 0 0 923 195034 -5314 0
0 0 0 868 195902 -4446 0
0 0 0 948 196850 -3498 0
0 0 0 1013 197863 -2485 0
11 1 S112 980 198843 -1505 0
11 1 S112 980 199823 -525 0
11 2 S112 1086 200909 561 0
11 2 S112 1097 202006 1658 0
11 2 S112 1022 203028 2680 0
11 2 S112 941 203969 3621 0
11 2 S112 981 204950 4602 0
11 2 S112 991 205941 5593 0
11 2 S112 994 206935 6587 0
0 0 0 954 207889 -7810 0
0 0 0 945 208834 -6865 0
0 0 0 1057 209891 -5808 0
0 0 0 1034 210925 -4774 0
0 0 0 900 211825 -3874 0
0 0 0 980 212805 -2894 0
12 1 S116 1009 213814 -1885 0
12 1 S116 967 214781 -918 0
12 1 S116 896 215677 -22 0
12 2 S116 952 216629 930 0
12 2 S116 1007 217636 1937 0
12 2 S116 1014 218650 2951 0
12 2 S116 1004 219654 3955 0
12 2 S116 959 220613 4914 0
12 2 S116 965 221578 5879 0
12 2 S116 1023 222601 6902 0
0 0 0 1016 223617 -11628 0
0 0 0 947 224564 -10681 0
0 0 0 980 225544 -9701 0
0 0 0 1040 226584 -8661 0
0 0 0 947 227531 -7714 0
0 0 0 954 228485 -6760 0
0 0 0 1026 229511 -5734 0
0 0 0 1016 230527 -4718 0
0 0 0 903 231430 -3815 0
0 0 0 955 232385 -2860 0
13 1 S112 1037 233422 -1823 0
13 1 S112 1006 234428 -817 0
13 2 S112 916 235344 99 0
13 2 S112 940 236284 1039 0
13 2 S112 1017 237301 2056 0
13 2 S112 1084 238385 3140 0
13 2 S112 1060 239445 4200 0
13 2 S112 1020 240465 5220 0
13 2 S112 955 241420 6175 0
0 0 0 904 242324 -12351 0
0 0 0 956 243280 -11395 0
0 0 0 1005 244285 -10390 0
0 0 0 1017 245302 -9373 0
0 0 0 964 246266 -8409 0
0 0 0 998 247264 -7411 0
0 0 0 1006 248270 -6405 0
0 0 0 941 249211 -5464 0
0 0 0 890 250101 -4574 0
0 0 0 959 251060 -3615 0
0 0 0 1052 252112 -2563 0
14 1 S106 1011 253123 -1552 0
14 1 S106 923 254046 -629 0
14 2 S106 994 255040 365 0
14 2 S106 1078 256118 1443 0
14 2 S106 1080 257198 2523 0
14 2 S106 1002 258200 3525 0
14 2 S106 868 259068 4393 0
14 2 S106 820 259888 5213 0
14 2 S106 771 260659 5984 0
14 2 S106 767 261426 6751 0
0 0 0 978 262404 -10656 0
0 0 0 1013 263417 -9643 0
0 0 0 1034 264451 -8609 0
0 0 0 1022 265473 -7587 0
0 0 0 998 266471 -6589 0
0 0 0 996 267467 -5593 0
0 0 0 976 268443 -4617 0
0 0 0 947 269390 -3670 0
0 0 0 935 270325 -2735 0
15 1 S116 931 271256 -1804 0
15 1 S116 938 272194 -866 0
15 2 S116 934 273128 68 0
15 2 S116 952 274080 1020 0
15 2 S116 981 275061 2001 0
15 2 S116 968 276029 2969 0
15 2 S116 993 277022 3962 0
15 2 S116 984 278006 4946 0
15 2 S116 994 279000 5940 0
15 2 S116 997 279997 6937 0
0 0 0 947 280944 -9242 0
0 0 0 919 281863 -8323 0
0 0 0 939 282802 -7384 0
0 0 0 960 283762 -6424 0
0 0 0 917 284679 -5507 0
0 0 0 911 285590 -4596 0
0 0 0 987 286577 -3609 0
0 0 0 981 287558 -2628 0
16 1 S116 939 288497 -1689 0
16 1 S116 913 289410 -776 0
16 2 S116 953 290363 177 0
16 2 S116 964 291327 1141 0
16 2 S116 959 292286 2100 0
16 2 S116 949 293235 3049 0
16 2 S116 909 294144 3958 0
16 2 S116 936 295080 4894 0
16 2 S116 927 296007 5821 0
16 2 S116 936 296943 6757 0
0 0 0 929 297872 -9854 0
0 0 0 909 298781 -8945 0
0 0 0 951 299732 -7994 0
0 0 0 976 300708 -7018 0
0 0 0 924 301632 -6094 0
0 0 0 934 302566 -5160 0
0 0 0 956 303522 -4204 0
0 0 0 943 304465 -3261 0
0 0 0 933 305398 -2328 0
17 1 S106 940 306338 -1388 0
17 1 S106 945 307283 -443 0
17 2 S106 928 308211 485 0
17 2 S106 927 309138 1412 0
17 2 S106 945 310083 2357 0
17 2 S106 969 311052 3326 0
17 2 S106 962 312014 4288 0
17 2 S106 982 312996 5270 0
17 2 S106 935 313931 6205 0
0 0 0 870 314801 -12753 0
0 0 0 912 315713 -11841 0
0 0 0 956 316669 -10885 0
0 0 0 950 317619 -9935 0
0 0 0 939 318558 -8996 0
0 0 0 915 319473 -8081 0
0 0 0 988 320461 -7093 0
0 0 0 873 321334 -6220 0
0 0 0 851 322185 -5369 0
0 0 0 858 323043 -4511 0
0 0 0 781 323824 -3730 0
0 0 0 797 324621 -2933 0
0 0 0 819 325440 -2114 0
18 1 S102 860 326300 -1254 0
18 1 S102 868 327168 -386 0
18 2 S102 859 328027 473 0
18 2 S102 907 328934 1380 0
18 2 S102 948 329882 2328 0
18 2 S102 953 330835 3281 0
18 2 S102 909 331744 4190 0
18 2 S102 951 332695 5141 0
18 2 S102 989 333684 6130 0
0 0 0 1041 334725 -8164 0
0 0 0 990 335715 -7174 0
0 0 0 892 336607 -6282 0
0 0 0 963 337570 -5319 0
0 0 0 977 338547 -4342 0
0 0 0 920 339467 -3422 0
0 0 0 934 340401 -2488 0
19 1 S106 1034 341435 -1454 0
19 1 S106 1023 342458 -431 0
19 2 S106 925 343383 494 0
19 2 S106 996 344379 1490 0
19 2 S106 1042 345421 2532 0
19 2 S106 1033 346454 3565 0
19 2 S106 961 347415 4526 0
19 2 S106 863 348278 5389 0
19 2 S106 861 349139 6250 0
0 0 0 918 350057 -12875 0
0 0 0 1063 351120 -11812 0
0 0 0 1064 352184 -10748 0
0 0 0 994 353178 -9754 0
0 0 0 1018 354196 -8736 0
0 0 0 1025 355221 -7711 0
0 0 0 1020 356241 -6691 0
0 0 0 940 357181 -5751 0
0 0 0 934 358115 -4817 0
0 0 0 1009 359124 -3808 0
0 0 0 1111 360235 -2697 0
20 1 S112 1060 361295 -1637 0
20 1 S112 1004 362299 -633 0
20 2 S112 1062 363361 429 0
20 2 S112 1119 364480 1548 0
20 2 S112 1073 365553 2621 0
20 2 S112 1022 366575 3643 0
20 2 S112 944 367519 4587 0
20 2 S112 896 368415 5483 0
20 2 S112 981 369396 6464 0
0 0 0 1037 370433 -10569 0
0 0 0 999 371432 -9570 0
0 0 0 977 372409 -8593 0
0 0 0 947 373356 -7646 0
0 0 0 1016 374372 -6630 0
0 0 0 1007 375379 -5623 0
0 0 0 974 376353 -4649 0
0 0 0 889 377242 -3760 0
0 0 0 877 378119 -2883 0
0 0 0 832 378951 -2051 0
21 1 S106 950 379901 -1101 0
21 1 S106 1023 380924 -78 0
21 2 S106 1024 381948 946 0
21 2 S106 1045 382993 1991 0
21 2 S106 997 383990 2988 0
21 2 S106 915 384905 3903 0
21 2 S106 1001 385906 4904 0
21 2 S106 1114 387020 6018 0
0 0 0 1110 388130 -12882 0
0 0 0 1054 389184 -11828 0
0 0 0 1025 390209 -10803 0
0 0 0 1016 391225 -9787 0
0 0 0 1038 392263 -8749 0
0 0 0 964 393227 -7785 0
0 0 0 917 394144 -6868 0
0 0 0 966 395110 -5902 0
0 0 0 990 396100 -4912 0
0 0 0 997 397097 -3915 0
0 0 0 962 398059 -2953 0
0 0 0 926 398985 -2027 0
22 1 S116 965 399950 -1062 0
22 1 S116 972 400922 -90 0
22 2 S116 959 401881 869 0
22 2 S116 959 402840 1828 0
22 2 S116 1018 403858 2846 0
22 2 S116 1022 404880 3868 0
22 2 S116 1050 405930 4918 0
22 2 S116 1031 406961 5949 0
22 2 S116 1017 407978 6966 0
0 0 0 957 408935 -8905 0
0 0 0 990 409925 -7915 0
0 0 0 975 410900 -6940 0
0 0 0 903 411803 -6037 0
0 0 0 841 412644 -5196 0
0 0 0 879 413523 -4317 0
0 0 0 885 414408 -3432 0
0 0 0 902 415310 -2530 0
23 1 S112 846 416156 -1684 0
23 1 S112 906 417062 -778 0
23 2 S112 946 418008 168 0
23 2 S112 960 418968 1128 0
23 2 S112 941 419909 2069 0
23 2 S112 907 420816 2976 0
23 2 S112 850 421666 3826 0
23 2 S112 799 422465 4625 0
23 2 S112 809 423274 5434 0
23 2 S112 856 424130 6290 0
0 0 0 932 425062 -9041 0
0 0 0 946 426008 -8095 0
0 0 0 912 426920 -7183 0
0 0 0 905 427825 -6278 0
0 0 0 907 428732 -5371 0
0 0 0 924 429656 -4447 0
0 0 0 909 430565 -3538 0
0 0 0 822 431387 -2716 0
24 1 S106 863 432250 -1853 0
24 1 S106 921 433171 -932 0
24 2 S106 969 434140 37 0
24 2 S106 999 435139 1036 0
24 2 S106 982 436121 2018 0
24 2 S106 936 437057 2954 0
24 2 S106 1017 438074 3971 0
24 2 S106 1052 439126 5023 0
24 2 S106 1038 440164 6061 0
24 2 S106 956 441120 7017 0
0 0 0 944 442064 -8717 0
0 0 0 975 443039 -7742 0
0 0 0 991 444030 -6751 0
0 0 0 948 444978 -5803 0
0 0 0 959 445937 -4844 0
0 0 0 990 446927 -3854 0
0 0 0 998 447925 -2856 0
25 1 S102 927 448852 -1929 0
25 1 S102 983 449835 -946 0
25 2 S102 996 450831 50 0
25 2 S102 995 451826 1045 0
25 2 S102 930 452756 1975 0
25 2 S102 956 453712 2931 0
25 2 S102 967 454679 3898 0
25 2 S102 1021 455700 4919 0
25 2 S102 1005 456705 5924 0
25 2 S102 951 457656 6875 0
0 0 0 994 458650 -7665 0
0 0 0 1003 459653 -6662 0
0 0 0 975 460628 -5687 0
0 0 0 955 461583 -4732 0
0 0 0 911 462494 -3821 0
0 0 0 917 463411 -2904 0
26 1 S116 949 464360 -1955 0
26 1 S116 948 465308 -1007 0
26 1 S116 824 466132 -183 0
26 2 S116 869 467001 686 0
26 2 S116 991 467992 1677 0
26 2 S116 962 468954 2639 0
26 2 S116 952 469906 3591 0
26 2 S116 919 470825 4510 0
26 2 S116 949 471774 5459 0
26 2 S116 947 472721 6406 0
0 0 0 884 473605 -7846 0
0 0 0 857 474462 -6989 0
0 0 0 902 475364 -6087 0
0 0 0 953 476317 -5134 0
0 0 0 931 477248 -4203 0
0 0 0 920 478168 -3283 0
0 0 0 984 479152 -2299 0
27 1 S106 1008 480160 -1291 0
27 1 S106 929 481089 -362 0
27 2 S106 889 481978 527 0
27 2 S106 903 482881 1430 0
27 2 S106 930 483811 2360 0
27 2 S106 919 484730 3279 0
27 2 S106 847 485577 4126 0
27 2 S106 819 486396 4945 0
27 2 S106 849 487245 5794 0
27 2 S106 930 488175 6724 0
0 0 0 1017 489192 -7163 0
0 0 0 1000 490192 -6163 0
0 0 0 931 491123 -5232 0
0 0 0 988 492111 -4244 0
0 0 0 1013 493124 -3231 0
0 0 0 1003 494127 -2228 0
28 1 S102 897 495024 -1331 0
28 1 S102 906 495930 -425 0
28 2 S102 947 496877 522 0
28 2 S102 1026 497903 1548 0
28 2 S102 1037 498940 2585 0
28 2 S102 995 499935 3580 0
28 2 S102 925 500860 4505 0
28 2 S102 986 501846 5491 0
28 2 S102 1017 502863 6508 0
0 0 0 1034 503897 -11042 0
0 0 0 982 504879 -10060 0
0 0 0 973 505852 -9087 0
0 0 0 959 506811 -8128 0
0 0 0 942 507753 -7186 0
0 0 0 895 508648 -6291 0
0 0 0 926 509574 -5365 0
0 0 0 974 510548 -4391 0
0 0 0 982 511530 -3409 0
0 0 0 952 512482 -2457 0
29 1 S112 956 513438 -1501 0
29 1 S112 987 514425 -514 0
29 2 S112 1022 515447 508 0
29 2 S112 972 516419 1480 0
29 2 S112 939 517358 2419 0
29 2 S112 978 518336 3397 0
29 2 S112 999 519335 4396 0
29 2 S112 999 520334 5395 0
29 2 S112 994 521328 6389 0
0 0 0 938 522266 -7196 0
0 0 0 947 523213 -6249 0
0 0 0 955 524168 -5294 0
0 0 0 937 525105 -4357 0
0 0 0 890 525995 -3467 0
0 0 0 925 526920 -2542 0
30 1 S112 973 527893 -1569 0
30 1 S112 1007 528900 -562 0
30 2 S112 990 529890 428 0
30 2 S112 993 530883 1421 0
30 2 S112 988 531871 2409 0
30 2 S112 999 532870 3408 0
30 2 S112 997 533867 4405 0
30 2 S112 947 534814 5352 0
30 2 S112 955 535769 6307 0
0 0 0 954 536723 -9317 0
0 0 0 983 537706 -8334 0
0 0 0 978 538684 -7356 0
0 0 0 988 539672 -6368 0
0 0 0 987 540659 -5381 0
0 0 0 974 541633 -4407 0
0 0 0 928 542561 -3479 0
0 0 0 953 543514 -2526 0
31 1 S106 965 544479 -1561 0
31 1 S106 939 545418 -622 0
31 2 S106 861 546279 239 0
31 2 S106 908 547187 1147 0
31 2 S106 927 548114 2074 0
31 2 S106 1022 549136 3096 0
31 2 S106 1017 550153 4113 0
31 2 S106 989 551142 5102 0
31 2 S106 971 552113 6073 0
0 0 0 1006 553119 -11207 0
0 0 0 980 554099 -10227 0
0 0 0 952 555051 -9275 0
0 0 0 885 555936 -8390 0
0 0 0 954 556890 -7436 0
0 0 0 971 557861 -6465 0
0 0 0 949 558810 -5516 0
0 0 0 962 559772 -4554 0
0 0 0 1033 560805 -3521 0
0 0 0 1023 561828 -2498 0
32 1 S102 944 562772 -1554 0
32 1 S102 919 563691 -635 0
32 2 S102 921 564612 286 0
32 2 S102 918 565530 1204 0
32 2 S102 901 566431 2105 0
32 2 S102 850 567281 2955 0
32 2 S102 889 568170 3844 0
32 2 S102 954 569124 4798 0
32 2 S102 1031 570155 5829 0
32 2 S102 1019 571174 6848 0
0 0 0 989 572163 -12107 0
0 0 0 1013 573176 -11094 0
0 0 0 1014 574190 -10080 0
0 0 0 982 575172 -9098 0
0 0 0 955 576127 -8143 0
0 0 0 948 577075 -7195 0
0 0 0 910 577985 -6285 0
0 0 0 902 578887 -5383 0
0 0 0 929 579816 -4454 0
0 0 0 968 580784 -3486 0
0 0 0 994 581778 -2492 0
33 1 S112 944 582722 -1548 0
33 1 S112 1008 583730 -540 0
33 2 S112 1009 584739 469 0
33 2 S112 999 585738 1468 0
33 2 S112 938 586676 2406 0
33 2 S112 954 587630 3360 0
33 2 S112 958 588588 4318 0
33 2 S112 961 589549 5279 0
33 2 S112 936 590485 6215 0
0 0 0 942 591427 -12140 0
0 0 0 969 592396 -11171 0
0 0 0 954 593350 -10217 0
0 0 0 945 594295 -9272 0
0 0 0 942 595237 -8330 0
0 0 0 941 596178 -7389 0
0 0 0 915 597093 -6474 0
0 0 0 887 597980 -5587 0
0 0 0 825 598805 -4762 0
0 0 0 901 599706 -3861 0
0 0 0 995 600701 -2866 0
34 1 S106 1042 601743 -1824 0
34 1 S106 1000 602743 -824 0
34 2 S106 973 603716 149 0
34 2 S106 1002 604718 1151 0
34 2 S106 1000 605718 2151 0
34 2 S106 982 606700 3133 0
34 2 S106 936 607636 4069 0
34 2 S106 853 608489 4922 0
34 2 S106 839 609328 5761 0
34 2 S106 923 610251 6684 0
0 0 0 1019 611270 -9754 0
0 0 0 1064 612334 -8690 0
0 0 0 1025 613359 -7665 0
0 0 0 1009 614368 -6656 0
0 0 0 996 615364 -5660 0
0 0 0 933 616297 -4727 0
0 0 0 859 617156 -3868 0
0 0 0 883 618039 -2985 0
0 0 0 911 618950 -2074 0
35 1 S102 973 619923 -1101 0
35 1 S102 922 620845 -179 0
35 2 S102 942 621787 763 0
35 2 S102 998 622785 1761 0
35 2 S102 1032 623817 2793 0
35 2 S102 1015 624832 3808 0
35 2 S102 959 625791 4767 0
35 2 S102 985 626776 5752 0
35 2 S102 993 627769 6745 0
0 0 0 958 628727 -7019 0
0 0 0 922 629649 -6097 0
0 0 0 838 630487 -5259 0
0 0 0 763 631250 -4496 0
0 0 0 769 632019 -3727 0
0 0 0 520 632539 -3207 0
0 0 0 1072 633611 -2135 0
36 1 S106 661 634272 -1474 0
36 1 S106 879 635151 -595 0
36 2 S106 940 636091 345 0
36 2 S106 942 637033 1287 0
36 2 S106 924 637957 2211 0
36 2 S106 897 638854 3108 0
36 2 S106 855 639709 3963 0
36 2 S106 783 640492 4746 0
36 2 S106 729 641221 5475 0
36 2 S106 712 641933 6187 0
36 2 S106 714 642647 6901 0
0 0 0 713 643360 -10324 0
0 0 0 734 644094 -9590 0
0 0 0 758 644852 -8832 0
0 0 0 776 645628 -8056 0
0 0 0 796 646424 -7260 0
0 0 0 825 647249 -6435 0
0 0 0 877 648126 -5558 0
0 0 0 889 649015 -4669 0
0 0 0 871 649886 -3798 0
0 0 0 845 650731 -2953 0
0 0 0 854 651585 -2099 0
37 1 S116 863 652448 -1236 0
37 1 S116 847 653295 -389 0
37 2 S116 820 654115 431 0
37 2 S116 808 654923 1239 0
37 2 S116 844 655767 2083 0
37 2 S116 884 656651 2967 0
37 2 S116 957 657608 3924 0
37 2 S116 962 658570 4886 0
37 2 S116 943 659513 5829 0
37 2 S116 885 660398 6714 0
0 0 0 821 661219 -11198 0
0 0 0 832 662051 -10366 0
0 0 0 856 662907 -9510 0
0 0 0 893 663800 -8617 0
0 0 0 854 664654 -7763 0
0 0 0 853 665507 -6910 0
0 0 0 888 666395 -6022 0
0 0 0 920 667315 -5102 0
0 0 0 926 668241 -4176 0
0 0 0 884 669125 -3292 0
0 0 0 816 669941 -2476 0
38 1 S102 807 670748 -1669 0
38 1 S102 810 671558 -859 0
38 2 S102 863 672421 4 0
38 2 S102 942 673363 946 0
38 2 S102 952 674315 1898 0
38 2 S102 920 675235 2818 0
38 2 S102 872 676107 3690 0
38 2 S102 901 677008 4591 0
38 2 S102 930 677938 5521 0
38 2 S102 957 678895 6478 0
0 0 0 947 679842 -8872 0
0 0 0 934 680776 -7938 0
0 0 0 981 681757 -6957 0
0 0 0 946 682703 -6011 0
0 0 0 878 683581 -5133 0
0 0 0 900 684481 -4233 0
0 0 0 919 685400 -3314 0
0 0 0 930 686330 -2384 0
39 1 S116 885 687215 -1499 0
39 1 S116 814 688029 -685 0
39 2 S116 865 688894 180 0
39 2 S116 944 689838 1124 0
39 2 S116 1085 690923 2209 0
39 2 S116 1068 691991 3277 0
39 2 S116 1053 693044 4330 0
39 2 S116 1017 694061 5347 0
39 2 S116 1030 695091 6377 0
0 0 0 994 696085 -8876 0
0 0 0 957 697042 -7919 0
0 0 0 929 697971 -6990 0
0 0 0 875 698846 -6115 0
0 0 0 902 699748 -5213 0
0 0 0 912 700660 -4301 0
0 0 0 991 701651 -3310 0
0 0 0 962 702613 -2348 0
40 1 S112 956 703569 -1392 0
40 1 S112 997 704566 -395 0
40 2 S112 987 705553 592 0
40 2 S112 993 706546 1585 0
40 2 S112 936 707482 2521 0
40 2 S112 885 708367 3406 0
40 2 S112 843 709210 4249 0
40 2 S112 896 710106 5145 0
40 2 S112 1002 711108 6147 0
0 0 0 1084 712192 -188444 0
0 0 0 1050 713242 -187394 0
0 0 0 1014 714256 -186380 0
0 0 0 962 715218 -185418 0
0 0 0 975 716193 -184443 0
0 0 0 988 717181 -183455 0
0 0 0 943 718124 -182512 0
0 0 0 876 719000 -181636 0
0 0 0 871 719871 -180765 0
0 0 0 945 720816 -179820 0
0 0 0 1208 722024 -178612 0
0 0 0 681 722705 -177931 0
0 0 0 920 723625 -177011 0
0 0 0 910 724535 -176101 0
0 0 0 1673 726208 -174428 0
0 0 0 741 726949 -173687 0
0 0 0 787 727736 -172900 0
0 0 0 19211 746947 -153689 1
0 0 0 715 747662 -152974 0
0 0 0 700 748362 -152274 0
0 0 0 684 749046 -151590 0
0 0 0 656 749702 -150934 0
0 0 0 680 750382 -150254 0
0 0 0 664 751046 -149590 0
0 0 0 735 751781 -148855 0
0 0 0 816 752597 -148039 0
0 0 0 819 753416 -147220 0
0 0 0 750 754166 -146470 0
0 0 0 756 754922 -145714 0
0 0 0 801 755723 -144913 0
0 0 0 781 756504 -144132 0
0 0 0 786 757290 -143346 0
0 0 0 817 758107 -142529 0
0 0 0 850 758957 -141679 0
0 0 0 821 759778 -140858 0
0 0 0 851 760629 -140007 0
0 0 0 827 761456 -139180 0
0 0 0 837 762293 -138343 0
0 0 0 834 763127 -137509 0
0 0 0 812 763939 -136697 0
0 0 0 782 764721 -135915 0
0 0 0 757 765478 -135158 0
0 0 0 725 766203 -134433 0
0 0 0 735 766938 -133698 0
0 0 0 813 767751 -132885 0
0 0 0 938 768689 -131947 0
0 0 0 880 769569 -131067 0
0 0 0 800 770369 -130267 0
0 0 0 786 771155 -129481 0
0 0 0 794 771949 -128687 0
0 0 0 792 772741 -127895 0
0 0 0 866 773607 -127029 0
0 0 0 922 774529 -126107 0
0 0 0 931 775460 -125176 0
0 0 0 886 776346 -124290 0
0 0 0 818 777164 -123472 0
0 0 0 758 777922 -122714 0
0 0 0 724 778646 -121990 0
0 0 0 759 779405 -121231 0
0 0 0 822 780227 -120409 0
0 0 0 832 781059 -119577 0
0 0 0 856 781915 -118721 0
0 0 0 941 782856 -117780 0
0 0 0 2940 785796 -114840 1
0 0 0 956 786752 -113884 0
0 0 0 903 787655 -112981 0
0 0 0 878 788533 -112103 0
0 0 0 799 789332 -111304 0
0 0 0 749 790081 -110555 0
0 0 0 734 790815 -109821 0
0 0 0 813 791628 -109008 0
0 0 0 967 792595 -108041 0
0 0 0 1029 793624 -107012 0
0 0 0 1054 794678 -105958 0
0 0 0 1053 795731 -104905 0
0 0 0 1062 796793 -103843 0
0 0 0 995 797788 -102848 0
0 0 0 961 798749 -101887 0
0 0 0 955 799704 -100932 0
0 0 0 962 800666 -99970 0
0 0 0 979 801645 -98991 0
0 0 0 933 802578 -98058 0
0 0 0 945 803523 -97113 0
0 0 0 1023 804546 -96090 0
0 0 0 1047 805593 -95043 0
0 0 0 1016 806609 -94027 0
0 0 0 993 807602 -93034 0
0 0 0 1000 808602 -92034 0
0 0 0 1020 809622 -91014 0
0 0 0 969 810591 -90045 0
0 0 0 925 811516 -89120 0
0 0 0 890 812406 -88230 0
0 0 0 895 813301 -87335 0
0 0 0 1010 814311 -86325 0
0 0 0 1018 815329 -85307 0
0 0 0 1036 816365 -84271 0
0 0 0 1010 817375 -83261 0
0 0 0 1212 818587 -82049 0
0 0 0 644 819231 -81405 0
0 0 0 891 820122 -80514 0
0 0 0 892 821014 -79622 0
0 0 0 856 821870 -78766 0
0 0 0 815 822685 -77951 0
0 0 0 808 823493 -77143 0
0 0 0 821 824314 -76322 0
0 0 0 827 825141 -75495 0
0 0 0 851 825992 -74644 0
0 0 0 916 826908 -73728 0
0 0 0 965 827873 -72763 0
0 0 0 1255 829128 -71508 0
0 0 0 682 829810 -70826 0
0 0 0 932 830742 -69894 0
0 0 0 885 831627 -69009 0
0 0 0 910 832537 -68099 0
0 0 0 933 833470 -67166 0
0 0 0 952 834422 -66214 0
0 0 0 924 835346 -65290 0
0 0 0 882 836228 -64408 0
0 0 0 939 837167 -63469 0
0 0 0 933 838100 -62536 0
0 0 0 962 839062 -61574 0
0 0 0 941 840003 -60633 0
0 0 0 902 840905 -59731 0
0 0 0 827 841732 -58904 0
0 0 0 848 842580 -58056 0
0 0 0 900 843480 -57156 0
0 0 0 932 844412 -56224 0
0 0 0 978 845390 -55246 0
0 0 0 992 846382 -54254 0
0 0 0 996 847378 -53258 0
0 0 0 946 848324 -52312 0
0 0 0 911 849235 -51401 0
0 0 0 881 850116 -50520 0
0 0 0 875 850991 -49645 0
0 0 0 938 851929 -48707 0
0 0 0 954 852883 -47753 0
0 0 0 952 853835 -46801 0
0 0 0 907 854742 -45894 0
0 0 0 920 855662 -44974 0
0 0 0 905 856567 -44069 0
0 0 0 922 857489 -43147 0
0 0 0 886 858375 -42261 0
0 0 0 823 859198 -41438 0
0 0 0 776 859974 -40662 0
0 0 0 727 860701 -39935 0
0 0 0 712 861413 -39223 0
0 0 0 878 862291 -38345 0
0 0 0 1829 864120 -36516 0
0 0 0 940 865060 -35576 0
0 0 0 961 866021 -34615 0
0 0 0 909 866930 -33706 0
0 0 0 919 867849 -32787 0
0 0 0 887 868736 -31900 0
0 0 0 900 869636 -31000 0
0 0 0 902 870538 -30098 0
0 0 0 911 871449 -29187 0
0 0 0 923 872372 -28264 0
0 0 0 971 873343 -27293 0
0 0 0 1006 874349 -26287 0
0 0 0 1050 875399 -25237 0
0 0 0 1024 876423 -24213 0
0 0 0 608 877031 -23605 0
0 0 0 1432 878463 -22173 0
0 0 0 994 879457 -21179 0
0 0 0 913 880370 -20266 0
0 0 0 889 881259 -19377 0
0 0 0 812 882071 -18565 0
0 0 0 797 882868 -17768 0
0 0 0 811 883679 -16957 0
0 0 0 867 884546 -16090 0
0 0 0 898 885444 -15192 0
0 0 0 892 886336 -14300 0
0 0 0 910 887246 -13390 0
0 0 0 895 888141 -12495 0
0 0 0 892 889033 -11603 0
0 0 0 925 889958 -10678 0
0 0 0 908 890866 -9770 0
0 0 0 874 891740 -8896 0
0 0 0 921 892661 -7975 0
0 0 0 961 893622 -7014 0
0 0 0 957 894579 -6057 0
0 0 0 950 895529 -5107 0
0 0 0 965 896494 -4142 0
0 0 0 940 897434 -3202 0
0 0 0 892 898326 -2310 0
41 1 S102 809 899135 -1501 0
41 1 S102 775 899910 -726 0
41 2 S102 784 900694 58 0
41 2 S102 862 901556 920 0
41 2 S102 925 902481 1845 0
41 2 S102 949 903430 2794 0
41 2 S102 942 904372 3736 0
41 2 S102 920 905292 4656 0
41 2 S102 899 906191 5555 0
41 2 S102 849 907040 6404 0
0 0 0 869 907909 -7498 0
0 0 0 919 908828 -6579 0
0 0 0 964 909792 -5615 0
0 0 0 957 910749 -4658 0
0 0 0 879 911628 -3779 0
0 0 0 914 912542 -2865 0
42 1 S112 1366 913908 -1499 0
42 1 S112 563 914471 -936 0
42 2 S112 981 915452 45 0
42 2 S112 915 916367 960 0
42 2 S112 881 917248 1841 0
42 2 S112 908 918156 2749 0
42 2 S112 942 919098 3691 0
42 2 S112 987 920085 4678 0
42 2 S112 948 921033 5626 0
42 2 S112 918 921951 6544 0
0 0 0 904 922855 -9893 0
0 0 0 915 923770 -8978 0
0 0 0 919 924689 -8059 0
0 0 0 918 925607 -7141 0
0 0 0 872 926479 -6269 0
0 0 0 898 927377 -5371 0
0 0 0 881 928258 -4490 0
0 0 0 922 929180 -3568 0
0 0 0 902 930082 -2666 0
43 1 S116 871 930953 -1795 0
43 1 S116 886 931839 -909 0
43 1 S116 909 932748 0 0
43 2 S116 957 933705 957 0
43 2 S116 978 934683 1935 0
43 2 S116 951 935634 2886 0
43 2 S116 959 936593 3845 0
43 2 S116 955 937548 4800 0
43 2 S116 866 938414 5666 0
43 2 S116 814 939228 6480 0
0 0 0 844 940072 -8575 0
0 0 0 936 941008 -7639 0
0 0 0 993 942001 -6646 0
0 0 0 952 942953 -5694 0
0 0 0 924 943877 -4770 0
0 0 0 938 944815 -3832 0
0 0 0 950 945765 -2882 0
0 0 0 879 946644 -2003 0
44 1 S102 822 947466 -1181 0
44 1 S102 846 948312 -335 0
44 2 S102 872 949184 537 0
44 2 S102 933 950117 1470 0
44 2 S102 916 951033 2386 0
44 2 S102 886 951919 3272 0
44 2 S102 882 952801 4154 0
44 2 S102 922 953723 5076 0
44 2 S102 988 954711 6064 0
0 0 0 1014 955725 -8870 0
0 0 0 965 956690 -7905 0
0 0 0 891 957581 -7014 0
0 0 0 893 958474 -6121 0
0 0 0 927 959401 -5194 0
0 0 0 882 960283 -4312 0
0 0 0 812 961095 -3500 0
0 0 0 754 961849 -2746 0
0 0 0 725 962574 -2021 0
45 1 S116 737 963311 -1284 0
45 1 S116 824 964135 -460 0
45 2 S116 804 964939 344 0
45 2 S116 762 965701 1106 0
45 2 S116 910 966611 2016 0
45 2 S116 980 967591 2996 0
45 2 S116 959 968550 3955 0
45 2 S116 936 969486 4891 0
45 2 S116 897 970383 5788 0
45 2 S116 879 971262 6667 0
0 0 0 855 972117 -11212 0
0 0 0 837 972954 -10375 0
0 0 0 860 973814 -9515 0
0 0 0 901 974715 -8614 0
0 0 0 907 975622 -7707 0
0 0 0 933 976555 -6774 0
0 0 0 1018 977573 -5756 0
0 0 0 1042 978615 -4714 0
0 0 0 1026 979641 -3688 0
0 0 0 979 980620 -2709 0
46 1 S102 971 981591 -1738 0
46 1 S102 953 982544 -785 0
46 2 S102 968 983512 183 0
46 2 S102 962 984474 1145 0
46 2 S102 961 985435 2106 0
46 2 S102 946 986381 3052 0
46 2 S102 902 987283 3954 0
46 2 S102 906 988189 4860 0
46 2 S102 937 989126 5797 0
46 2 S102 974 990100 6771 0
0 0 0 960 991060 -8781 0
0 0 0 938 991998 -7843 0
0 0 0 960 992958 -6883 0
0 0 0 921 993879 -5962 0
0 0 0 880 994759 -5082 0
0 0 0 809 995568 -4273 0
0 0 0 838 996406 -3435 0
0 0 0 876 997282 -2559 0
47 1 S112 896 998178 -1663 0
47 1 S112 904 999082 -759 0
47 2 S112 893 999975 134 0
47 2 S112 849 1000824 983 0
47 2 S112 883 1001707 1866 0
47 2 S112 929 1002636 2795 0
47 2 S112 939 1003575 3734 0
47 2 S112 985 1004560 4719 0
47 2 S112 932 1005492 5651 0
47 2 S112 894 1006386 6545 0
0 0 0 845 1007231 -11426 0
0 0 0 871 1008102 -10555 0
0 0 0 927 1009029 -9628 0
0 0 0 951 1009980 -8677 0
0 0 0 859 1010839 -7818 0
0 0 0 913 1011752 -6905 0
0 0 0 979 1012731 -5926 0
0 0 0 971 1013702 -4955 0
0 0 0 911 1014613 -4044 0
0 0 0 835 1015448 -3209 0
0 0 0 854 1016302 -2355 0
48 1 S116 862 1017164 -1493 0
48 1 S116 911 1018075 -582 0
48 2 S116 874 1018949 292 0
48 2 S116 928 1019877 1220 0
48 2 S116 895 1020772 2115 0
48 2 S116 957 1021729 3072 0
48 2 S116 1035 1022764 4107 0
48 2 S116 1083 1023847 5190 0
48 2 S116 1019 1024866 6209 0
0 0 0 935 1025801 -7594 0
0 0 0 892 1026693 -6702 0
0 0 0 914 1027607 -5788 0
0 0 0 964 1028571 -4824 0
0 0 0 917 1029488 -3907 0
0 0 0 872 1030360 -3035 0
0 0 0 896 1031256 -2139 0
49 1 S112 947 1032203 -1192 0
49 1 S112 959 1033162 -233 0
49 2 S112 948 1034110 715 0
49 2 S112 994 1035104 1709 0
49 2 S112 1004 1036108 2713 0
49 2 S112 994 1037102 3707 0
49 2 S112 982 1038084 4689 0
49 2 S112 957 1039041 5646 0
49 2 S112 874 1039915 6520 0
0 0 0 844 1040759 -11586 0
0 0 0 910 1041669 -10676 0
0 0 0 1013 1042682 -9663 0
0 0 0 988 1043670 -8675 0
0 0 0 893 1044563 -7782 0
0 0 0 916 1045479 -6866 0
0 0 0 947 1046426 -5919 0
0 0 0 955 1047381 -4964 0
0 0 0 908 1048289 -4056 0
0 0 0 870 1049159 -3186 0
0 0 0 920 1050079 -2266 0
50 1 S106 969 1051048 -1297 0
50 1 S106 992 1052040 -305 0
50 2 S106 1025 1053065 720 0
50 2 S106 997 1054062 1717 0
50 2 S106 976 1055038 2693 0
50 2 S106 990 1056028 3683 0
50 2 S106 1010 1057038 4693 0
50 2 S106 1002 1058040 5695 0
50 2 S106 991 1059031 6686 0
0 0 0 954 1059985 -8325 0
0 0 0 916 1060901 -7409 0
0 0 0 917 1061818 -6492 0
0 0 0 972 1062790 -5520 0
0 0 0 1010 1063800 -4510 0
0 0 0 925 1064725 -3585 0
0 0 0 958 1065683 -2627 0
51 1 S112 990 1066673 -1637 0
51 1 S112 941 1067614 -696 0
51 2 S112 903 1068517 207 0
51 2 S112 921 1069438 1128 0
51 2 S112 971 1070409 2099 0
51 2 S112 1075 1071484 3174 0
51 2 S112 992 1072476 4166 0
51 2 S112 993 1073469 5159 0
51 2 S112 976 1074445 6135 0
0 0 0 1006 1075451 -7033 0
0 0 0 1013 1076464 -6020 0
0 0 0 986 1077450 -5034 0
0 0 0 934 1078384 -4100 0
0 0 0 961 1079345 -3139 0
0 0 0 995 1080340 -2144 0
52 1 S116 971 1081311 -1173 0
52 1 S116 955 1082266 -218 0
52 2 S116 975 1083241 757 0
52 2 S116 1011 1084252 1768 0
52 2 S116 1048 1085300 2816 0
52 2 S116 1016 1086316 3832 0
52 2 S116 1020 1087336 4852 0
52 2 S116 1008 1088344 5860 0
52 2 S116 1011 1089355 6871 0
0 0 0 1010 1090365 -9891 0
0 0 0 983 1091348 -8908 0
0 0 0 939 1092287 -7969 0
0 0 0 944 1093231 -7025 0
0 0 0 924 1094155 -6101 0
0 0 0 927 1095082 -5174 0
0 0 0 927 1096009 -4247 0
0 0 0 910 1096919 -3337 0
0 0 0 940 1097859 -2397 0
53 1 S106 938 1098797 -1459 0
53 1 S106 980 1099777 -479 0
53 2 S106 979 1100756 500 0
53 2 S106 963 1101719 1463 0
53 2 S106 982 1102701 2445 0
53 2 S106 977 1103678 3422 0
53 2 S106 975 1104653 4397 0
53 2 S106 983 1105636 5380 0
53 2 S106 966 1106602 6346 0
0 0 0 943 1107545 -8676 0
0 0 0 939 1108484 -7737 0
0 0 0 938 1109422 -6799 0
0 0 0 918 1110340 -5881 0
0 0 0 864 1111204 -5017 0
0 0 0 879 1112083 -4138 0
0 0 0 946 1113029 -3192 0
0 0 0 972 1114001 -2220 0
54 1 S102 923 1114924 -1297 0
54 1 S102 835 1115759 -462 0
54 2 S102 826 1116585 364 0
54 2 S102 848 1117433 1212 0
54 2 S102 898 1118331 2110 0
54 2 S102 959 1119290 3069 0
54 2 S102 968 1120258 4037 0
54 2 S102 960 1121218 4997 0
54 2 S102 987 1122205 5984 0
54 2 S102 1005 1123210 6989 0
0 0 0 1019 1124229 -10129 0
0 0 0 985 1125214 -9144 0
0 0 0 966 1126180 -8178 0
0 0 0 965 1127145 -7213 0
0 0 0 936 1128081 -6277 0
0 0 0 888 1128969 -5389 0
0 0 0 948 1129917 -4441 0
0 0 0 975 1130892 -3466 0
0 0 0 1000 1131892 -2466 0
55 1 S106 964 1132856 -1502 0
55 1 S106 923 1133779 -579 0
55 2 S106 934 1134713 355 0
55 2 S106 985 1135698 1340 0
55 2 S106 1028 1136726 2368 0
55 2 S106 1013 1137739 3381 0
55 2 S106 1013 1138752 4394 0
55 2 S106 1007 1139759 5401 0
55 2 S106 1004 1140763 6405 0
0 0 0 988 1141751 -7793 0
0 0 0 946 1142697 -6847 0
0 0 0 895 1143592 -5952 0
0 0 0 826 1144418 -5126 0
0 0 0 741 1145159 -4385 0
0 0 0 825 1145984 -3560 0
0 0 0 825 1146809 -2735 0
56 1 S116 753 1147562 -1982 0
56 1 S116 840 1148402 -1142 0
56 1 S116 863 1149265 -279 0
56 2 S116 857 1150122 578 0
56 2 S116 887 1151009 1465 0
56 2 S116 895 1151904 2360 0
56 2 S116 896 1152800 3256 0
56 2 S116 911 1153711 4167 0
56 2 S116 906 1154617 5073 0
56 2 S116 921 1155538 5994 0
56 2 S116 924 1156462 6918 0
0 0 0 923 1157385 -7394 0
0 0 0 908 1158293 -6486 0
0 0 0 898 1159191 -5588 0
0 0 0 887 1160078 -4701 0
0 0 0 834 1160912 -3867 0
0 0 0 912 1161824 -2955 0
57 1 S106 1010 1162834 -1945 0
57 1 S106 1050 1163884 -895 0
57 2 S106 1034 1164918 139 0
57 2 S106 999 1165917 1138 0
57 2 S106 949 1166866 2087 0
57 2 S106 897 1167763 2984 0
57 2 S106 818 1168581 3802 0
57 2 S106 808 1169389 4610 0
57 2 S106 836 1170225 5446 0
57 2 S106 985 1171210 6431 0
0 0 0 1003 1172213 -11084 0
0 0 0 1009 1173222 -10075 0
0 0 0 994 1174216 -9081 0
0 0 0 989 1175205 -8092 0
0 0 0 1019 1176224 -7073 0
0 0 0 947 1177171 -6126 0
0 0 0 842 1178013 -5284 0
0 0 0 824 1178837 -4460 0
0 0 0 824 1179661 -3636 0
0 0 0 903 1180564 -2733 0
58 1 S102 964 1181528 -1769 0
58 1 S102 905 1182433 -864 0
58 2 S102 971 1183404 107 0
58 2 S102 1063 1184467 1170 0
58 2 S102 1046 1185513 2216 0
58 2 S102 997 1186510 3213 0
58 2 S102 932 1187442 4145 0
58 2 S102 870 1188312 5015 0
58 2 S102 863 1189175 5878 0
58 2 S102 872 1190047 6750 0
0 0 0 929 1190976 -7126 0
0 0 0 901 1191877 -6225 0
0 0 0 964 1192841 -5261 0
0 0 0 971 1193812 -4290 0
0 0 0 933 1194745 -3357 0
0 0 0 914 1195659 -2443 0
59 1 S112 967 1196626 -1476 0
59 1 S112 968 1197594 -508 0
59 2 S112 936 1198530 428 0
59 2 S112 957 1199487 1385 0
59 2 S112 904 1200391 2289 0
59 2 S112 934 1201325 3223 0
59 2 S112 952 1202277 4175 0
59 2 S112 1017 1203294 5192 0
59 2 S112 1000 1204294 6192 0
0 0 0 979 1205273 -8545 0
0 0 0 919 1206192 -7626 0
0 0 0 949 1207141 -6677 0
0 0 0 954 1208095 -5723 0
0 0 0 950 1209045 -4773 0
0 0 0 881 1209926 -3892 0
0 0 0 934 1210860 -2958 0
60 1 S102 971 1211831 -1987 0
60 1 S102 989 1212820 -998 0
60 1 S102 931 1213751 -67 0
60 2 S102 967 1214718 900 0
60 2 S102 999 1215717 1899 0
60 2 S102 984 1216701 2883 0
60 2 S102 951 1217652 3834 0
60 2 S102 916 1218568 4750 0
60 2 S102 983 1219551 5733 0
60 2 S102 1029 1220580 6762 0
0 0 0 1015 1221595 -11073 0
0 0 0 985 1222580 -10088 0
0 0 0 953 1223533 -9135 0
0 0 0 947 1224480 -8188 0
0 0 0 951 1225431 -7237 0
0 0 0 953 1226384 -6284 0
0 0 0 885 1227269 -5399 0
0 0 0 908 1228177 -4491 0
0 0 0 941 1229118 -3550 0
0 0 0 936 1230054 -2614 0
61 1 S106 940 1230994 -1674 0
61 1 S106 939 1231933 -735 0
61 2 S106 962 1232895 227 0
61 2 S106 1017 1233912 1244 0
61 2 S106 1038 1234950 2282 0
61 2 S106 1006 1235956 3288 0
61 2 S106 967 1236923 4255 0
61 2 S106 966 1237889 5221 0
61 2 S106 954 1238843 6175 0
0 0 0 961 1239804 -7370 0
0 0 0 956 1240760 -6414 0
0 0 0 952 1241712 -5462 0
0 0 0 923 1242635 -4539 0
0 0 0 872 1243507 -3667 0
0 0 0 860 1244367 -2807 0
62 1 S112 893 1245260 -1914 0
62 1 S112 966 1246226 -948 0
62 2 S112 975 1247201 27 0
62 2 S112 934 1248135 961 0
62 2 S112 894 1249029 1855 0
62 2 S112 871 1249900 2726 0
62 2 S112 873 1250773 3599 0
62 2 S112 893 1251666 4492 0
62 2 S112 919 1252585 5411 0
62 2 S112 954 1253539 6365 0
0 0 0 934 1254473 -11385 0
0 0 0 890 1255363 -10495 0
0 0 0 914 1256277 -9581 0
0 0 0 929 1257206 -8652 0
0 0 0 925 1258131 -7727 0
0 0 0 927 1259058 -6800 0
0 0 0 887 1259945 -5913 0
0 0 0 913 1260858 -5000 0
0 0 0 920 1261778 -4080 0
0 0 0 906 1262684 -3174 0
0 0 0 915 1263599 -2259 0
63 1 S102 892 1264491 -1367 0
63 1 S102 900 1265391 -467 0
63 2 S102 893 1266284 426 0
63 2 S102 927 1267211 1353 0
63 2 S102 921 1268132 2274 0
63 2 S102 914 1269046 3188 0
63 2 S102 913 1269959 4101 0
63 2 S102 913 1270872 5014 0
63 2 S102 925 1271797 5939 0
63 2 S102 909 1272706 6848 0
0 0 0 870 1273576 -9722 0
0 0 0 810 1274386 -8912 0
0 0 0 785 1275171 -8127 0
0 0 0 840 1276011 -7287 0
0 0 0 916 1276927 -6371 0
0 0 0 936 1277863 -5435 0
0 0 0 923 1278786 -4512 0
0 0 0 859 1279645 -3653 0
0 0 0 834 1280479 -2819 0
0 0 0 817 1281296 -2002 0
64 1 S112 834 1282130 -1168 0
64 1 S112 869 1282999 -299 0
64 2 S112 897 1283896 598 0
64 2 S112 955 1284851 1553 0
64 2 S112 976 1285827 2529 0
64 2 S112 987 1286814 3516 0
64 2 S112 978 1287792 4494 0
64 2 S112 966 1288758 5460 0
64 2 S112 971 1289729 6431 0
0 0 0 987 1290716 -8630 0
0 0 0 968 1291684 -7662 0
0 0 0 971 1292655 -6691 0
0 0 0 972 1293627 -5719 0
0 0 0 964 1294591 -4755 0
0 0 0 931 1295522 -3824 0
0 0 0 932 1296454 -2892 0
65 1 S106 941 1297395 -1951 0
65 1 S106 933 1298328 -1018 0
65 1 S106 914 1299242 -104 0
65 2 S106 907 1300149 803 0
65 2 S106 917 1301066 1720 0
65 2 S106 905 1301971 2625 0
65 2 S106 958 1302929 3583 0
65 2 S106 990 1303919 4573 0
65 2 S106 964 1304883 5537 0
65 2 S106 932 1305815 6469 0
0 0 0 918 1306733 -9208 0
0 0 0 881 1307614 -8327 0
0 0 0 867 1308481 -7460 0
0 0 0 858 1309339 -6602 0
0 0 0 896 1310235 -5706 0
0 0 0 975 1311210 -4731 0
0 0 0 975 1312185 -3756 0
0 0 0 920 1313105 -2836 0
66 1 S116 923 1314028 -1913 0
66 1 S116 940 1314968 -973 0
66 1 S116 912 1315880 -61 0
66 2 S116 885 1316765 824 0
66 2 S116 914 1317679 1738 0
66 2 S116 967 1318646 2705 0
66 2 S116 994 1319640 3699 0
66 2 S116 1010 1320650 4709 0
66 2 S116 1042 1321692 5751 0
66 2 S116 994 1322686 6745 0
0 0 0 1005 1323691 -11083 0
0 0 0 963 1324654 -10120 0
0 0 0 931 1325585 -9189 0
0 0 0 878 1326463 -8311 0
0 0 0 876 1327339 -7435 0
0 0 0 849 1328188 -6586 0
0 0 0 876 1329064 -5710 0
0 0 0 940 1330004 -4770 0
0 0 0 925 1330929 -3845 0
0 0 0 959 1331888 -2886 0
67 1 S102 997 1332885 -1889 0
67 1 S102 984 1333869 -905 0
67 2 S102 948 1334817 43 0
67 2 S102 893 1335710 936 0
67 2 S102 877 1336587 1813 0
67 2 S102 905 1337492 2718 0
67 2 S102 911 1338403 3629 0
67 2 S102 897 1339300 4526 0
67 2 S102 931 1340231 5457 0
67 2 S102 959 1341190 6416 0
0 0 0 988 1342178 -6737 0
0 0 0 927 1343105 -5810 0
0 0 0 925 1344030 -4885 0
0 0 0 901 1344931 -3984 0
0 0 0 921 1345852 -3063 0
0 0 0 928 1346780 -2135 0
68 1 S106 852 1347632 -1283 0
68 1 S106 861 1348493 -422 0
68 2 S106 892 1349385 470 0
68 2 S106 967 1350352 1437 0
68 2 S106 961 1351313 2398 0
68 2 S106 960 1352273 3358 0
68 2 S106 970 1353243 4328 0
68 2 S106 998 1354241 5326 0
68 2 S106 980 1355221 6306 0
0 0 0 954 1356175 -11043 0
0 0 0 959 1357134 -10084 0
0 0 0 945 1358079 -9139 0
0 0 0 925 1359004 -8214 0
0 0 0 924 1359928 -7290 0
0 0 0 944 1360872 -6346 0
0 0 0 959 1361831 -5387 0
0 0 0 980 1362811 -4407 0
0 0 0 952 1363763 -3455 0
0 0 0 934 1364697 -2521 0
69 1 S102 919 1365616 -1602 0
69 1 S102 874 1366490 -728 0
69 2 S102 888 1367378 160 0
69 2 S102 949 1368327 1109 0
69 2 S102 967 1369294 2076 0
69 2 S102 959 1370253 3035 0
69 2 S102 928 1371181 3963 0
69 2 S102 909 1372090 4872 0
69 2 S102 884 1372974 5756 0
69 2 S102 909 1373883 6665 0
0 0 0 926 1374809 -8158 0
0 0 0 925 1375734 -7233 0
0 0 0 905 1376639 -6328 0
0 0 0 827 1377466 -5501 0
0 0 0 797 1378263 -4704 0
0 0 0 847 1379110 -3857 0
0 0 0 815 1379925 -3042 0
0 0 0 755 1380680 -2287 0
70 1 S112 764 1381444 -1523 0
70 1 S112 784 1382228 -739 0
70 2 S112 833 1383061 94 0
70 2 S112 851 1383912 945 0
70 2 S112 880 1384792 1825 0
70 2 S112 870 1385662 2695 0
70 2 S112 854 1386516 3549 0
70 2 S112 811 1387327 4360 0
70 2 S112 830 1388157 5190 0
70 2 S112 832 1388989 6022 0
70 2 S112 891 1389880 6913 0
0 0 0 933 1390813 -12430 0
0 0 0 921 1391734 -11509 0
0 0 0 879 1392613 -10630 0
0 0 0 877 1393490 -9753 0
0 0 0 924 1394414 -8829 0
0 0 0 921 1395335 -7908 0
0 0 0 922 1396257 -6986 0
0 0 0 898 1397155 -6088 0
0 0 0 849 1398004 -5239 0
0 0 0 879 1398883 -4360 0
0 0 0 914 1399797 -3446 0
0 0 0 1000 1400797 -2446 0
71 1 S116 985 1401782 -1461 0
71 1 S116 961 1402743 -500 0
71 2 S116 989 1403732 489 0
71 2 S116 1045 1404777 1534 0
71 2 S116 1023 1405800 2557 0
71 2 S116 1017 1406817 3574 0
71 2 S116 974 1407791 4548 0
71 2 S116 957 1408748 5505 0
71 2 S116 930 1409678 6435 0
0 0 0 842 1410520 -9517 0
0 0 0 846 1411366 -8671 0
0 0 0 864 1412230 -7807 0
0 0 0 936 1413166 -6871 0
0 0 0 889 1414055 -5982 0
0 0 0 911 1414966 -5071 0
0 0 0 965 1415931 -4106 0
0 0 0 981 1416912 -3125 0
0 0 0 988 1417900 -2137 0
72 1 S102 944 1418844 -1193 0
72 1 S102 886 1419730 -307 0
72 2 S102 884 1420614 577 0
72 2 S102 907 1421521 1484 0
72 2 S102 958 1422479 2442 0
72 2 S102 925 1423404 3367 0
72 2 S102 878 1424282 4245 0
72 2 S102 943 1425225 5188 0
72 2 S102 963 1426188 6151 0
0 0 0 1001 1427189 -6906 0
0 0 0 999 1428188 -5907 0
0 0 0 929 1429117 -4978 0
0 0 0 903 1430020 -4075 0
0 0 0 900 1430920 -3175 0
0 0 0 925 1431845 -2250 0
73 1 S116 897 1432742 -1353 0
73 1 S116 855 1433597 -498 0
73 2 S116 886 1434483 388 0
73 2 S116 1017 1435500 1405 0
73 2 S116 1049 1436549 2454 0
73 2 S116 1040 1437589 3494 0
73 2 S116 997 1438586 4491 0
73 2 S116 965 1439551 5456 0
73 2 S116 977 1440528 6433 0
0 0 0 983 1441511 -8997 0
0 0 0 971 1442482 -8026 0
0 0 0 927 1443409 -7099 0
0 0 0 874 1444283 -6225 0
0 0 0 874 1445157 -5351 0
0 0 0 878 1446035 -4473 0
0 0 0 952 1446987 -3521 0
0 0 0 948 1447935 -2573 0
74 1 S106 928 1448863 -1645 0
74 1 S106 995 1449858 -650 0
74 2 S106 1000 1450858 350 0
74 2 S106 1010 1451868 1360 0
74 2 S106 959 1452827 2319 0
74 2 S106 895 1453722 3214 0
74 2 S106 815 1454537 4029 0
74 2 S106 797 1455334 4826 0
74 2 S106 792 1456126 5618 0
74 2 S106 793 1456919 6411 0
0 0 0 931 1457850 -7810 0
0 0 0 1035 1458885 -6775 0
0 0 0 1065 1459950 -5710 0
0 0 0 1032 1460982 -4678 0
0 0 0 969 1461951 -3709 0
0 0 0 957 1462908 -2752 0
75 1 S112 919 1463827 -1833 0
75 1 S112 847 1464674 -986 0
75 1 S112 808 1465482 -178 0
75 2 S112 823 1466305 645 0
75 2 S112 926 1467231 1571 0
75 2 S112 1009 1468240 2580 0
75 2 S112 1032 1469272 3612 0
75 2 S112 993 1470265 4605 0
75 2 S112 1000 1471265 5605 0
75 2 S112 992 1472257 6597 0
0 0 0 978 1473235 -7131 0
0 0 0 983 1474218 -6148 0
0 0 0 974 1475192 -5174 0
0 0 0 925 1476117 -4249 0
0 0 0 922 1477039 -3327 0
0 0 0 942 1477981 -2385 0
76 1 S116 973 1478954 -1412 0
76 1 S116 980 1479934 -432 0
76 2 S116 973 1480907 541 0
76 2 S116 1014 1481921 1555 0
76 2 S116 1008 1482929 2563 0
76 2 S116 1016 1483945 3579 0
76 2 S116 1030 1484975 4609 0
76 2 S116 997 1485972 5606 0
76 2 S116 992 1486964 6598 0
0 0 0 954 1487918 -7816 0
0 0 0 921 1488839 -6895 0
0 0 0 931 1489770 -5964 0
0 0 0 950 1490720 -5014 0
0 0 0 913 1491633 -4101 0
0 0 0 874 1492507 -3227 0
0 0 0 929 1493436 -2298 0
77 1 S106 970 1494406 -1328 0
77 1 S106 990 1495396 -338 0
77 2 S106 968 1496364 630 0
77 2 S106 928 1497292 1558 0
77 2 S106 902 1498194 2460 0
77 2 S106 955 1499149 3415 0
77 2 S106 999 1500148 4414 0
77 2 S106 998 1501146 5412 0
77 2 S106 961 1502107 6373 0
0 0 0 925 1503032 -9761 0
0 0 0 905 1503937 -8856 0
0 0 0 898 1504835 -7958 0
0 0 0 931 1505766 -7027 0
0 0 0 905 1506671 -6122 0
0 0 0 914 1507585 -5208 0
0 0 0 956 1508541 -4252 0
0 0 0 996 1509537 -3256 0
0 0 0 956 1510493 -2300 0
78 1 S112 909 1511402 -1391 0
78 1 S112 893 1512295 -498 0
78 2 S112 892 1513187 394 0
78 2 S112 928 1514115 1322 0
78 2 S112 938 1515053 2260 0
78 2 S112 919 1515972 3179 0
78 2 S112 905 1516877 4084 0
78 2 S112 920 1517797 5004 0
78 2 S112 936 1518733 5940 0
78 2 S112 992 1519725 6932 0
0 0 0 966 1520691 -10537 0
0 0 0 960 1521651 -9577 0
0 0 0 978 1522629 -8599 0
0 0 0 928 1523557 -7671 0
0 0 0 886 1524443 -6785 0
0 0 0 822 1525265 -5963 0
0 0 0 820 1526085 -5143 0
0 0 0 883 1526968 -4260 0
0 0 0 970 1527938 -3290 0
0 0 0 997 1528935 -2293 0
79 1 S102 980 1529915 -1313 0
79 1 S102 917 1530832 -396 0
79 2 S102 854 1531686 458 0
79 2 S102 888 1532574 1346 0
79 2 S102 884 1533458 2230 0
79 2 S102 938 1534396 3168 0
79 2 S102 945 1535341 4113 0
79 2 S102 920 1536261 5033 0
79 2 S102 917 1537178 5950 0
79 2 S102 927 1538105 6877 0
0 0 0 988 1539093 -8199 0
0 0 0 985 1540078 -7214 0
0 0 0 886 1540964 -6328 0
0 0 0 873 1541837 -5455 0
0 0 0 843 1542680 -4612 0
0 0 0 768 1543448 -3844 0
0 0 0 768 1544216 -3076 0
0 0 0 833 1545049 -2243 0
80 1 S116 902 1545951 -1341 0
80 1 S116 884 1546835 -457 0
80 2 S116 896 1547731 439 0
80 2 S116 960 1548691 1399 0
80 2 S116 991 1549682 2390 0
80 2 S116 965 1550647 3355 0
80 2 S116 937 1551584 4292 0
80 2 S116 881 1552465 5173 0
80 2 S116 893 1553358 6066 0
80 2 S116 917 1554275 6983 0
