T_0041
BeatCount Mean SD BeatCountNoOutliers MeanNoOutliers SDNoOutliers
1771 849,240542066629 114,211844817668 1713 837,371278458844 96,0928298955165

Trial TrialStatus Trialtype IBI AbsPosition RelPosition Outlier
0 0 0 746 1086 -14747 0
0 0 0 767 1853 -13980 0
0 0 0 756 2609 -13224 0
0 0 0 750 3359 -12474 0
0 0 0 759 4118 -11715 0
0 0 0 771 4889 -10944 0
0 0 0 779 5668 -10165 0
0 0 0 769 6437 -9396 0
0 0 0 786 7223 -8610 0
0 0 0 810 8033 -7800 0
0 0 0 801 8834 -6999 0
0 0 0 780 9614 -6219 0
0 0 0 743 10357 -5476 0
0 0 0 897 11254 -4579 0
0 0 0 805 12059 -3774 0
0 0 0 776 12835 -2998 0
0 0 0 776 13611 -2222 0
1 1 S112 774 14385 -1448 0
1 1 S112 897 15282 -551 0
1 2 S112 819 16101 268 0
1 2 S112 826 16927 1094 0
1 2 S112 880 17807 1974 0
1 2 S112 922 18729 2896 0
1 2 S112 914 19643 3810 0
1 2 S112 900 20543 4710 0
1 2 S112 732 21275 5442 0
1 2 S112 730 22005 6172 0
0 0 0 1091 23096 -12366 0
0 0 0 817 23913 -11549 0
0 0 0 795 24708 -10754 0
0 0 0 789 25497 -9965 0
0 0 0 784 26281 -9181 0
0 0 0 820 27101 -8361 0
0 0 0 848 27949 -7513 0
0 0 0 801 28750 -6712 0
0 0 0 846 29596 -5866 0
0 0 0 781 30377 -5085 0
0 0 0 953 31330 -4132 0
0 0 0 850 32180 -3282 0
0 0 0 837 33017 -2445 0
2 1 S102 764 33781 -1681 0
2 1 S102 786 34567 -895 0
2 1 S102 816 35383 -79 0
2 2 S102 859 36242 780 0
2 2 S102 743 36985 1523 0
2 2 S102 945 37930 2468 0
2 2 S102 856 38786 3324 0
2 2 S102 828 39614 4152 0
2 2 S102 818 40432 4970 0
2 2 S102 737 41169 5707 0
2 2 S102 987 42156 6694 0
0 0 0 853 43009 -8849 0
0 0 0 835 43844 -8014 0
0 0 0 852 44696 -7162 0
0 0 0 875 45571 -6287 0
0 0 0 862 46433 -5425 0
0 0 0 882 47315 -4543 0
0 0 0 748 48063 -3795 0
0 0 0 1021 49084 -2774 0
3 1 S116 835 49919 -1939 0
3 1 S116 842 50761 -1097 0
3 1 S116 838 51599 -259 0
3 2 S116 742 52341 483 0
3 2 S116 875 53216 1358 0
3 2 S116 824 54040 2182 0
3 2 S116 851 54891 3033 0
3 2 S116 842 55733 3875 0
3 2 S116 820 56553 4695 0
3 2 S116 833 57386 5528 0
3 2 S116 868 58254 6396 0
0 0 0 746 59000 -10895 0
0 0 0 933 59933 -9962 0
0 0 0 787 60720 -9175 0
0 0 0 739 61459 -8436 0
0 0 0 716 62175 -7720 0
0 0 0 739 62914 -6981 0
0 0 0 746 63660 -6235 0
0 0 0 778 64438 -5457 0
0 0 0 819 65257 -4638 0
0 0 0 822 66079 -3816 0
0 0 0 799 66878 -3017 0
0 0 0 830 67708 -2187 0
4 1 S106 831 68539 -1356 0
4 1 S106 795 69334 -561 0
4 2 S106 779 70113 218 0
4 2 S106 822 70935 1040 0
4 2 S106 773 71708 1813 0
4 2 S106 955 72663 2768 0
4 2 S106 760 73423 3528 0
4 2 S106 779 74202 4307 0
4 2 S106 793 74995 5100 0
4 2 S106 770 75765 5870 0
4 2 S106 842 76607 6712 0
0 0 0 814 77421 -6615 0
0 0 0 844 78265 -5771 0
0 0 0 866 79131 -4905 0
0 0 0 767 79898 -4138 0
0 0 0 925 80823 -3213 0
0 0 0 854 81677 -2359 0
5 1 S116 825 82502 -1534 0
5 1 S116 761 83263 -773 0
5 1 S116 699 83962 -74 0
5 2 S116 899 84861 825 0
5 2 S116 809 85670 1634 0
5 2 S116 784 86454 2418 0
5 2 S116 775 87229 3193 0
5 2 S116 754 87983 3947 0
5 2 S116 949 88932 4896 0
5 2 S116 856 89788 5752 0
5 2 S116 846 90634 6598 0
0 0 0 870 91504 -9210 0
0 0 0 761 92265 -8449 0
0 0 0 950 93215 -7499 0
0 0 0 807 94022 -6692 0
0 0 0 791 94813 -5901 0
0 0 0 775 95588 -5126 0
0 0 0 729 96317 -4397 0
0 0 0 852 97169 -3545 0
0 0 0 837 98006 -2708 0
6 1 S106 861 98867 -1847 0
6 1 S106 798 99665 -1049 0
6 1 S106 761 100426 -288 0
6 2 S106 903 101329 615 0
6 2 S106 851 102180 1466 0
6 2 S106 831 103011 2297 0
6 2 S106 798 103809 3095 0
6 2 S106 707 104516 3802 0
6 2 S106 962 105478 4764 0
6 2 S106 813 106291 5577 0
6 2 S106 788 107079 6365 0
0 0 0 760 107839 -10863 0
0 0 0 744 108583 -10119 0
0 0 0 836 109419 -9283 0
0 0 0 809 110228 -8474 0
0 0 0 780 111008 -7694 0
0 0 0 827 111835 -6867 0
0 0 0 767 112602 -6100 0
0 0 0 920 113522 -5180 0
0 0 0 818 114340 -4362 0
0 0 0 921 115261 -3441 0
0 0 0 824 116085 -2617 0
7 1 S102 774 116859 -1843 0
7 1 S102 793 117652 -1050 0
7 1 S102 744 118396 -306 0
7 2 S102 939 119335 633 0
7 2 S102 836 120171 1469 0
7 2 S102 838 121009 2307 0
7 2 S102 869 121878 3176 0
7 2 S102 740 122618 3916 0
7 2 S102 1005 123623 4921 0
7 2 S102 819 124442 5740 0
7 2 S102 835 125277 6575 0
0 0 0 828 126105 -8545 0
0 0 0 723 126828 -7822 0
0 0 0 929 127757 -6893 0
0 0 0 793 128550 -6100 0
0 0 0 836 129386 -5264 0
0 0 0 820 130206 -4444 0
0 0 0 683 130889 -3761 0
0 0 0 989 131878 -2772 0
8 1 S112 804 132682 -1968 0
8 1 S112 767 133449 -1201 0
8 1 S112 739 134188 -462 0
8 2 S112 726 134914 264 0
8 2 S112 720 135634 984 0
8 2 S112 752 136386 1736 0
8 2 S112 836 137222 2572 0
8 2 S112 832 138054 3404 0
8 2 S112 862 138916 4266 0
8 2 S112 880 139796 5146 0
8 2 S112 877 140673 6023 0
8 2 S112 829 141502 6852 0
0 0 0 741 142243 -7427 0
0 0 0 912 143155 -6515 0
0 0 0 811 143966 -5704 0
0 0 0 756 144722 -4948 0
0 0 0 753 145475 -4195 0
0 0 0 746 146221 -3449 0
0 0 0 762 146983 -2687 0
9 1 S116 729 147712 -1958 0
9 1 S116 767 148479 -1191 0
9 1 S116 824 149303 -367 0
9 2 S116 776 150079 409 0
9 2 S116 953 151032 1362 0
9 2 S116 778 151810 2140 0
9 2 S116 875 152685 3015 0
9 2 S116 757 153442 3772 0
9 2 S116 748 154190 4520 0
9 2 S116 765 154955 5285 0
9 2 S116 765 155720 6050 0
9 2 S116 851 156571 6901 0
0 0 0 769 157340 -10284 0
0 0 0 820 158160 -9464 0
0 0 0 869 159029 -8595 0
0 0 0 764 159793 -7831 0
0 0 0 687 160480 -7144 0
0 0 0 1046 161526 -6098 0
0 0 0 826 162352 -5272 0
0 0 0 787 163139 -4485 0
0 0 0 736 163875 -3749 0
0 0 0 731 164606 -3018 0
0 0 0 778 165384 -2240 0
10 1 S102 886 166270 -1354 0
10 1 S102 953 167223 -401 0
10 2 S102 904 168127 503 0
10 2 S102 933 169060 1436 0
10 2 S102 933 169993 2369 0
10 2 S102 729 170722 3098 0
10 2 S102 679 171401 3777 0
10 2 S102 1144 172545 4921 1
10 2 S102 791 173336 5712 0
10 2 S102 844 174180 6556 0
0 0 0 758 174938 -11039 0
0 0 0 760 175698 -10279 0
0 0 0 798 176496 -9481 0
0 0 0 774 177270 -8707 0
0 0 0 904 178174 -7803 0
0 0 0 786 178960 -7017 0
0 0 0 849 179809 -6168 0
0 0 0 838 180647 -5330 0
0 0 0 859 181506 -4471 0
0 0 0 812 182318 -3659 0
0 0 0 797 183115 -2862 0
0 0 0 721 183836 -2141 0
11 1 S112 916 184752 -1225 0
11 1 S112 765 185517 -460 0
11 2 S112 775 186292 315 0
11 2 S112 813 187105 1128 0
11 2 S112 764 187869 1892 0
11 2 S112 925 188794 2817 0
11 2 S112 828 189622 3645 0
11 2 S112 860 190482 4505 0
11 2 S112 880 191362 5385 0
11 2 S112 760 192122 6145 0
11 2 S112 701 192823 6846 0
0 0 0 1126 193949 -6351 0
0 0 0 804 194753 -5547 0
0 0 0 842 195595 -4705 0
0 0 0 753 196348 -3952 0
0 0 0 775 197123 -3177 0
0 0 0 798 197921 -2379 0
12 1 S116 761 198682 -1618 0
12 1 S116 976 199658 -642 0
12 2 S116 863 200521 221 0
12 2 S116 905 201426 1126 0
12 2 S116 861 202287 1987 0
12 2 S116 748 203035 2735 0
12 2 S116 698 203733 3433 0
12 2 S116 1165 204898 4598 1
12 2 S116 791 205689 5389 0
12 2 S116 734 206423 6123 0
0 0 0 926 207349 -11154 0
0 0 0 808 208157 -10346 0
0 0 0 780 208937 -9566 0
0 0 0 799 209736 -8767 0
0 0 0 777 210513 -7990 0
0 0 0 865 211378 -7125 0
0 0 0 766 212144 -6359 0
0 0 0 787 212931 -5572 0
0 0 0 854 213785 -4718 0
0 0 0 767 214552 -3951 0
0 0 0 956 215508 -2995 0
0 0 0 813 216321 -2182 0
13 1 S112 780 217101 -1402 0
13 1 S112 767 217868 -635 0
13 2 S112 745 218613 110 0
13 2 S112 727 219340 837 0
13 2 S112 738 220078 1575 0
13 2 S112 786 220864 2361 0
13 2 S112 872 221736 3233 0
13 2 S112 765 222501 3998 0
13 2 S112 1016 223517 5014 0
13 2 S112 854 224371 5868 0
13 2 S112 838 225209 6706 0
0 0 0 819 226028 -10977 0
0 0 0 793 226821 -10184 0
0 0 0 817 227638 -9367 0
0 0 0 846 228484 -8521 0
0 0 0 731 229215 -7790 0
0 0 0 926 230141 -6864 0
0 0 0 826 230967 -6038 0
0 0 0 838 231805 -5200 0
0 0 0 849 232654 -4351 0
0 0 0 855 233509 -3496 0
0 0 0 878 234387 -2618 0
14 1 S106 890 235277 -1728 0
14 1 S106 869 236146 -859 0
14 2 S106 878 237024 19 0
14 2 S106 869 237893 888 0
14 2 S106 854 238747 1742 0
14 2 S106 811 239558 2553 0
14 2 S106 712 240270 3265 0
14 2 S106 913 241183 4178 0
14 2 S106 804 241987 4982 0
14 2 S106 780 242767 5762 0
14 2 S106 754 243521 6516 0
0 0 0 757 244278 -10963 0
0 0 0 874 245152 -10089 0
0 0 0 834 245986 -9255 0
0 0 0 782 246768 -8473 0
0 0 0 803 247571 -7670 0
0 0 0 765 248336 -6905 0
0 0 0 918 249254 -5987 0
0 0 0 775 250029 -5212 0
0 0 0 775 250804 -4437 0
0 0 0 779 251583 -3658 0
0 0 0 752 252335 -2906 0
0 0 0 797 253132 -2109 0
15 1 S116 755 253887 -1354 0
15 1 S116 742 254629 -612 0
15 2 S116 729 255358 117 0
15 2 S116 711 256069 828 0
15 2 S116 721 256790 1549 0
15 2 S116 724 257514 2273 0
15 2 S116 749 258263 3022 0
15 2 S116 780 259043 3802 0
15 2 S116 780 259823 4582 0
15 2 S116 752 260575 5334 0
15 2 S116 747 261322 6081 0
15 2 S116 769 262091 6850 0
0 0 0 785 262876 -8446 0
0 0 0 757 263633 -7689 0
0 0 0 785 264418 -6904 0
0 0 0 767 265185 -6137 0
0 0 0 769 265954 -5368 0
0 0 0 750 266704 -4618 0
0 0 0 748 267452 -3870 0
0 0 0 785 268237 -3085 0
0 0 0 851 269088 -2234 0
16 1 S116 870 269958 -1364 0
16 1 S116 819 270777 -545 0
16 2 S116 848 271625 303 0
16 2 S116 850 272475 1153 0
16 2 S116 864 273339 2017 0
16 2 S116 707 274046 2724 0
16 2 S116 699 274745 3423 0
16 2 S116 1005 275750 4428 0
16 2 S116 776 276526 5204 0
16 2 S116 745 277271 5949 0
16 2 S116 719 277990 6668 0
0 0 0 744 278734 -8586 0
0 0 0 831 279565 -7755 0
0 0 0 647 280212 -7108 0
0 0 0 730 280942 -6378 0
0 0 0 1123 282065 -5255 0
0 0 0 754 282819 -4501 0
0 0 0 698 283517 -3803 0
0 0 0 756 284273 -3047 0
0 0 0 794 285067 -2253 0
17 1 S106 988 286055 -1265 0
17 1 S106 934 286989 -331 0
17 2 S106 930 287919 599 0
17 2 S106 928 288847 1527 0
17 2 S106 950 289797 2477 0
17 2 S106 933 290730 3410 0
17 2 S106 899 291629 4309 0
17 2 S106 886 292515 5195 0
17 2 S106 775 293290 5970 0
17 2 S106 966 294256 6936 0
0 0 0 846 295102 -10736 0
0 0 0 804 295906 -9932 0
0 0 0 804 296710 -9128 0
0 0 0 749 297459 -8379 0
0 0 0 865 298324 -7514 0
0 0 0 795 299119 -6719 0
0 0 0 836 299955 -5883 0
0 0 0 858 300813 -5025 0
0 0 0 864 301677 -4161 0
0 0 0 829 302506 -3332 0
0 0 0 839 303345 -2493 0
18 1 S102 725 304070 -1768 0
18 1 S102 902 304972 -866 0
18 1 S102 750 305722 -116 0
18 2 S102 746 306468 630 0
18 2 S102 727 307195 1357 0
18 2 S102 721 307916 2078 0
18 2 S102 696 308612 2774 0
18 2 S102 693 309305 3467 0
18 2 S102 698 310003 4165 0
18 2 S102 700 310703 4865 0
18 2 S102 786 311489 5651 0
18 2 S102 825 312314 6476 0
0 0 0 674 312988 -7323 0
0 0 0 737 313725 -6586 0
0 0 0 1057 314782 -5529 0
0 0 0 800 315582 -4729 0
0 0 0 739 316321 -3990 0
0 0 0 726 317047 -3264 0
0 0 0 742 317789 -2522 0
19 1 S106 766 318555 -1756 0
19 1 S106 818 319373 -938 0
19 1 S106 799 320172 -139 0
19 2 S106 893 321065 754 0
19 2 S106 700 321765 1454 0
19 2 S106 1135 322900 2589 0
19 2 S106 775 323675 3364 0
19 2 S106 898 324573 4262 0
19 2 S106 772 325345 5034 0
19 2 S106 737 326082 5771 0
19 2 S106 791 326873 6562 0
0 0 0 845 327718 -11211 0
0 0 0 854 328572 -10357 0
0 0 0 709 329281 -9648 0
0 0 0 721 330002 -8927 0
0 0 0 1098 331100 -7829 0
0 0 0 773 331873 -7056 0
0 0 0 644 332517 -6412 0
0 0 0 962 333479 -5450 0
0 0 0 759 334238 -4691 0
0 0 0 764 335002 -3927 0
0 0 0 771 335773 -3156 0
0 0 0 776 336549 -2380 0
20 1 S112 760 337309 -1620 0
20 1 S112 743 338052 -877 0
20 1 S112 722 338774 -155 0
20 2 S112 776 339550 621 0
20 2 S112 856 340406 1477 0
20 2 S112 881 341287 2358 0
20 2 S112 720 342007 3078 0
20 2 S112 845 342852 3923 0
20 2 S112 1035 343887 4958 0
20 2 S112 826 344713 5784 0
20 2 S112 775 345488 6559 0
0 0 0 800 346288 -9435 0
0 0 0 784 347072 -8651 0
0 0 0 821 347893 -7830 0
0 0 0 793 348686 -7037 0
0 0 0 787 349473 -6250 0
0 0 0 826 350299 -5424 0
0 0 0 759 351058 -4665 0
0 0 0 863 351921 -3802 0
0 0 0 853 352774 -2949 0
0 0 0 881 353655 -2068 0
21 1 S106 827 354482 -1241 0
21 1 S106 887 355369 -354 0
21 2 S106 895 356264 541 0
21 2 S106 886 357150 1427 0
21 2 S106 848 357998 2275 0
21 2 S106 844 358842 3119 0
21 2 S106 856 359698 3975 0
21 2 S106 820 360518 4795 0
21 2 S106 829 361347 5624 0
21 2 S106 747 362094 6371 0
0 0 0 951 363045 -11494 0
0 0 0 802 363847 -10692 0
0 0 0 758 364605 -9934 0
0 0 0 749 365354 -9185 0
0 0 0 753 366107 -8432 0
0 0 0 827 366934 -7605 0
0 0 0 710 367644 -6895 0
0 0 0 745 368389 -6150 0
0 0 0 1179 369568 -4971 1
0 0 0 816 370384 -4155 0
0 0 0 810 371194 -3345 0
0 0 0 804 371998 -2541 0
22 1 S116 850 372848 -1691 0
22 1 S116 904 373752 -787 0
22 2 S116 859 374611 72 0
22 2 S116 900 375511 972 0
22 2 S116 937 376448 1909 0
22 2 S116 946 377394 2855 0
22 2 S116 895 378289 3750 0
22 2 S116 918 379207 4668 0
22 2 S116 909 380116 5577 0
22 2 S116 776 380892 6353 0
0 0 0 891 381783 -10395 0
0 0 0 783 382566 -9612 0
0 0 0 778 383344 -8834 0
0 0 0 764 384108 -8070 0
0 0 0 750 384858 -7320 0
0 0 0 755 385613 -6565 0
0 0 0 745 386358 -5820 0
0 0 0 714 387072 -5106 0
0 0 0 759 387831 -4347 0
0 0 0 861 388692 -3486 0
0 0 0 919 389611 -2567 0
23 1 S112 725 390336 -1842 0
23 1 S112 713 391049 -1129 0
23 2 S112 1203 392252 74 1
23 2 S112 795 393047 869 0
23 2 S112 868 393915 1737 0
23 2 S112 821 394736 2558 0
23 2 S112 757 395493 3315 0
23 2 S112 734 396227 4049 0
23 2 S112 778 397005 4827 0
23 2 S112 825 397830 5652 0
23 2 S112 824 398654 6476 0
0 0 0 857 399511 -8981 0
0 0 0 801 400312 -8180 0
0 0 0 858 401170 -7322 0
0 0 0 815 401985 -6507 0
0 0 0 864 402849 -5643 0
0 0 0 760 403609 -4883 0
0 0 0 825 404434 -4058 0
0 0 0 788 405222 -3270 0
0 0 0 843 406065 -2427 0
24 1 S106 853 406918 -1574 0
24 1 S106 792 407710 -782 0
24 2 S106 857 408567 75 0
24 2 S106 890 409457 965 0
24 2 S106 911 410368 1876 0
24 2 S106 712 411080 2588 0
24 2 S106 683 411763 3271 0
24 2 S106 1176 412939 4447 1
24 2 S106 813 413752 5260 0
24 2 S106 803 414555 6063 0
24 2 S106 807 415362 6870 0
0 0 0 782 416144 -9125 0
0 0 0 976 417120 -8149 0
0 0 0 877 417997 -7272 0
0 0 0 928 418925 -6344 0
0 0 0 924 419849 -5420 0
0 0 0 760 420609 -4660 0
0 0 0 673 421282 -3987 0
0 0 0 1207 422489 -2780 1
25 1 S102 893 423382 -1887 0
25 1 S102 809 424191 -1078 0
25 1 S102 799 424990 -279 0
25 2 S102 770 425760 491 0
25 2 S102 941 426701 1432 0
25 2 S102 919 427620 2351 0
25 2 S102 875 428495 3226 0
25 2 S102 896 429391 4122 0
25 2 S102 784 430175 4906 0
25 2 S102 1015 431190 5921 0
25 2 S102 861 432051 6782 0
0 0 0 855 432906 -6322 0
0 0 0 847 433753 -5475 0
0 0 0 734 434487 -4741 0
0 0 0 949 435436 -3792 0
0 0 0 812 436248 -2980 0
0 0 0 835 437083 -2145 0
26 1 S116 880 437963 -1265 0
26 1 S116 741 438704 -524 0
26 2 S116 1028 439732 504 0
26 2 S116 871 440603 1375 0
26 2 S116 868 441471 2243 0
26 2 S116 854 442325 3097 0
26 2 S116 835 443160 3932 0
26 2 S116 840 444000 4772 0
26 2 S116 854 444854 5626 0
26 2 S116 737 445591 6363 0
0 0 0 940 446531 -6739 0
0 0 0 835 447366 -5904 0
0 0 0 828 448194 -5076 0
0 0 0 786 448980 -4290 0
0 0 0 720 449700 -3570 0
0 0 0 856 450556 -2714 0
27 1 S106 833 451389 -1881 0
27 1 S106 811 452200 -1070 0
27 1 S106 806 453006 -264 0
27 2 S106 734 453740 470 0
27 2 S106 968 454708 1438 0
27 2 S106 799 455507 2237 0
27 2 S106 793 456300 3030 0
27 2 S106 793 457093 3823 0
27 2 S106 752 457845 4575 0
27 2 S106 834 458679 5409 0
27 2 S106 752 459431 6161 0
27 2 S106 771 460202 6932 0
0 0 0 802 461004 -6175 0
0 0 0 772 461776 -5403 0
0 0 0 936 462712 -4467 0
0 0 0 808 463520 -3659 0
0 0 0 822 464342 -2837 0
0 0 0 834 465176 -2003 0
28 1 S102 787 465963 -1216 0
28 1 S102 802 466765 -414 0
28 2 S102 839 467604 425 0
28 2 S102 732 468336 1157 0
28 2 S102 1001 469337 2158 0
28 2 S102 765 470102 2923 0
28 2 S102 738 470840 3661 0
28 2 S102 709 471549 4370 0
28 2 S102 737 472286 5107 0
28 2 S102 745 473031 5852 0
28 2 S102 1001 474032 6853 0
0 0 0 1083 475115 -10002 0
0 0 0 985 476100 -9017 0
0 0 0 937 477037 -8080 0
0 0 0 751 477788 -7329 0
0 0 0 695 478483 -6634 0
0 0 0 1162 479645 -5472 1
0 0 0 815 480460 -4657 0
0 0 0 808 481268 -3849 0
0 0 0 775 482043 -3074 0
0 0 0 791 482834 -2283 0
29 1 S112 803 483637 -1480 0
29 1 S112 751 484388 -729 0
29 2 S112 907 485295 178 0
29 2 S112 821 486116 999 0
29 2 S112 868 486984 1867 0
29 2 S112 892 487876 2759 0
29 2 S112 878 488754 3637 0
29 2 S112 863 489617 4500 0
29 2 S112 874 490491 5374 0
29 2 S112 822 491313 6196 0
0 0 0 891 492204 -7402 0
0 0 0 828 493032 -6574 0
0 0 0 811 493843 -5763 0
0 0 0 792 494635 -4971 0
0 0 0 724 495359 -4247 0
0 0 0 795 496154 -3452 0
0 0 0 775 496929 -2677 0
30 1 S112 745 497674 -1932 0
30 1 S112 744 498418 -1188 0
30 1 S112 731 499149 -457 0
30 2 S112 724 499873 267 0
30 2 S112 781 500654 1048 0
30 2 S112 784 501438 1832 0
30 2 S112 773 502211 2605 0
30 2 S112 809 503020 3414 0
30 2 S112 830 503850 4244 0
30 2 S112 812 504662 5056 0
30 2 S112 794 505456 5850 0
30 2 S112 811 506267 6661 0
0 0 0 835 507102 -8884 0
0 0 0 682 507784 -8202 0
0 0 0 731 508515 -7471 0
0 0 0 1027 509542 -6444 0
0 0 0 775 510317 -5669 0
0 0 0 731 511048 -4938 0
0 0 0 749 511797 -4189 0
0 0 0 768 512565 -3421 0
0 0 0 872 513437 -2549 0
31 1 S106 721 514158 -1828 0
31 1 S106 704 514862 -1124 0
31 2 S106 1186 516048 62 1
31 2 S106 796 516844 858 0
31 2 S106 857 517701 1715 0
31 2 S106 845 518546 2560 0
31 2 S106 919 519465 3479 0
31 2 S106 878 520343 4357 0
31 2 S106 889 521232 5246 0
31 2 S106 923 522155 6169 0
0 0 0 913 523068 -8617 0
0 0 0 854 523922 -7763 0
0 0 0 782 524704 -6981 0
0 0 0 986 525690 -5995 0
0 0 0 848 526538 -5147 0
0 0 0 825 527363 -4322 0
0 0 0 823 528186 -3499 0
0 0 0 734 528920 -2765 0
32 1 S102 912 529832 -1853 0
32 1 S102 818 530650 -1035 0
32 1 S102 825 531475 -210 0
32 2 S102 855 532330 645 0
32 2 S102 747 533077 1392 0
32 2 S102 935 534012 2327 0
32 2 S102 840 534852 3167 0
32 2 S102 849 535701 4016 0
32 2 S102 811 536512 4827 0
32 2 S102 834 537346 5661 0
32 2 S102 871 538217 6532 0
0 0 0 896 539113 -11306 0
0 0 0 883 539996 -10423 0
0 0 0 913 540909 -9510 0
0 0 0 914 541823 -8596 0
0 0 0 716 542539 -7880 0
0 0 0 677 543216 -7203 0
0 0 0 1146 544362 -6057 1
0 0 0 790 545152 -5267 0
0 0 0 753 545905 -4514 0
0 0 0 758 546663 -3756 0
0 0 0 772 547435 -2984 0
0 0 0 768 548203 -2216 0
33 1 S112 761 548964 -1455 0
33 1 S112 809 549773 -646 0
33 2 S112 802 550575 156 0
33 2 S112 790 551365 946 0
33 2 S112 831 552196 1777 0
33 2 S112 879 553075 2656 0
33 2 S112 695 553770 3351 0
33 2 S112 749 554519 4100 0
33 2 S112 1064 555583 5164 0
33 2 S112 792 556375 5956 0
33 2 S112 746 557121 6702 0
0 0 0 717 557838 -10850 0
0 0 0 720 558558 -10130 0
0 0 0 719 559277 -9411 0
0 0 0 724 560001 -8687 0
0 0 0 737 560738 -7950 0
0 0 0 808 561546 -7142 0
0 0 0 788 562334 -6354 0
0 0 0 808 563142 -5546 0
0 0 0 725 563867 -4821 0
0 0 0 980 564847 -3841 0
0 0 0 808 565655 -3033 0
0 0 0 813 566468 -2220 0
34 1 S106 828 567296 -1392 0
34 1 S106 738 568034 -654 0
34 2 S106 1013 569047 359 0
34 2 S106 794 569841 1153 0
34 2 S106 808 570649 1961 0
34 2 S106 854 571503 2815 0
34 2 S106 764 572267 3579 0
34 2 S106 967 573234 4546 0
34 2 S106 855 574089 5401 0
34 2 S106 837 574926 6238 0
0 0 0 836 575762 -9123 0
0 0 0 826 576588 -8297 0
0 0 0 892 577480 -7405 0
0 0 0 898 578378 -6507 0
0 0 0 843 579221 -5664 0
0 0 0 816 580037 -4848 0
0 0 0 723 580760 -4125 0
0 0 0 943 581703 -3182 0
0 0 0 772 582475 -2410 0
35 1 S102 738 583213 -1672 0
35 1 S102 711 583924 -961 0
35 1 S102 685 584609 -276 0
35 2 S102 768 585377 492 0
35 2 S102 916 586293 1408 0
35 2 S102 1048 587341 2456 0
35 2 S102 1065 588406 3521 0
35 2 S102 1011 589417 4532 0
35 2 S102 973 590390 5505 0
35 2 S102 964 591354 6469 0
0 0 0 744 592098 -6349 0
0 0 0 1095 593193 -5254 0
0 0 0 862 594055 -4392 0
0 0 0 836 594891 -3556 0
0 0 0 809 595700 -2747 0
0 0 0 737 596437 -2010 0
36 1 S106 855 597292 -1155 0
36 1 S106 776 598068 -379 0
36 2 S106 784 598852 405 0
36 2 S106 782 599634 1187 0
36 2 S106 789 600423 1976 0
36 2 S106 807 601230 2783 0
36 2 S106 797 602027 3580 0
36 2 S106 806 602833 4386 0
36 2 S106 747 603580 5133 0
36 2 S106 724 604304 5857 0
36 2 S106 720 605024 6577 0
0 0 0 711 605735 -9074 0
0 0 0 753 606488 -8321 0
0 0 0 774 607262 -7547 0
0 0 0 765 608027 -6782 0
0 0 0 757 608784 -6025 0
0 0 0 775 609559 -5250 0
0 0 0 784 610343 -4466 0
0 0 0 782 611125 -3684 0
0 0 0 779 611904 -2905 0
0 0 0 829 612733 -2076 0
37 1 S116 832 613565 -1244 0
37 1 S116 812 614377 -432 0
37 2 S116 699 615076 267 0
37 2 S116 712 615788 979 0
37 2 S116 951 616739 1930 0
37 2 S116 777 617516 2707 0
37 2 S116 749 618265 3456 0
37 2 S116 770 619035 4226 0
37 2 S116 793 619828 5019 0
37 2 S116 828 620656 5847 0
37 2 S116 715 621371 6562 0
0 0 0 777 622148 -10898 0
0 0 0 1027 623175 -9871 0
0 0 0 813 623988 -9058 0
0 0 0 777 624765 -8281 0
0 0 0 778 625543 -7503 0
0 0 0 780 626323 -6723 0
0 0 0 752 627075 -5971 0
0 0 0 759 627834 -5212 0
0 0 0 803 628637 -4409 0
0 0 0 923 629560 -3486 0
0 0 0 888 630448 -2598 0
38 1 S102 892 631340 -1706 0
38 1 S102 908 632248 -798 0
38 2 S102 883 633131 85 0
38 2 S102 828 633959 913 0
38 2 S102 831 634790 1744 0
38 2 S102 820 635610 2564 0
38 2 S102 789 636399 3353 0
38 2 S102 738 637137 4091 0
38 2 S102 828 637965 4919 0
38 2 S102 822 638787 5741 0
38 2 S102 803 639590 6544 0
0 0 0 849 640439 -9715 0
0 0 0 788 641227 -8927 0
0 0 0 911 642138 -8016 0
0 0 0 791 642929 -7225 0
0 0 0 830 643759 -6395 0
0 0 0 842 644601 -5553 0
0 0 0 815 645416 -4738 0
0 0 0 812 646228 -3926 0
0 0 0 800 647028 -3126 0
0 0 0 735 647763 -2391 0
39 1 S116 903 648666 -1488 0
39 1 S116 780 649446 -708 0
39 2 S116 772 650218 64 0
39 2 S116 776 650994 840 0
39 2 S116 785 651779 1625 0
39 2 S116 806 652585 2431 0
39 2 S116 816 653401 3247 0
39 2 S116 852 654253 4099 0
39 2 S116 852 655105 4951 0
39 2 S116 848 655953 5799 0
39 2 S116 846 656799 6645 0
0 0 0 820 657619 -7207 0
0 0 0 834 658453 -6373 0
0 0 0 850 659303 -5523 0
0 0 0 829 660132 -4694 0
0 0 0 799 660931 -3895 0
0 0 0 815 661746 -3080 0
0 0 0 821 662567 -2259 0
40 1 S112 748 663315 -1511 0
40 1 S112 823 664138 -688 0
40 2 S112 796 664934 108 0
40 2 S112 799 665733 907 0
40 2 S112 794 666527 1701 0
40 2 S112 767 667294 2468 0
40 2 S112 844 668138 3312 0
40 2 S112 795 668933 4107 0
40 2 S112 781 669714 4888 0
40 2 S112 821 670535 5709 0
40 2 S112 789 671324 6498 0
0 0 0 895 672219 -186972 0
0 0 0 780 672999 -186192 0
0 0 0 790 673789 -185402 0
0 0 0 785 674574 -184617 0
0 0 0 755 675329 -183862 0
0 0 0 831 676160 -183031 0
0 0 0 855 677015 -182176 0
0 0 0 814 677829 -181362 0
0 0 0 877 678706 -180485 0
0 0 0 599 679305 -179886 0
0 0 0 678 679983 -179208 0
0 0 0 1517 681500 -177691 1
0 0 0 714 682214 -176977 0
0 0 0 725 682939 -176252 0
0 0 0 740 683679 -175512 0
0 0 0 709 684388 -174803 0
0 0 0 709 685097 -174094 0
0 0 0 692 685789 -173402 0
0 0 0 669 686458 -172733 0
0 0 0 678 687136 -172055 0
0 0 0 665 687801 -171390 0
0 0 0 664 688465 -170726 0
0 0 0 662 689127 -170064 0
0 0 0 660 689787 -169404 0
0 0 0 661 690448 -168743 0
0 0 0 652 691100 -168091 0
0 0 0 631 691731 -167460 0
0 0 0 646 692377 -166814 0
0 0 0 659 693036 -166155 0
0 0 0 693 693729 -165462 0
0 0 0 702 694431 -164760 0
0 0 0 688 695119 -164072 0
0 0 0 668 695787 -163404 0
0 0 0 708 696495 -162696 0
0 0 0 957 697452 -161739 0
0 0 0 715 698167 -161024 0
0 0 0 1107 699274 -159917 0
0 0 0 706 699980 -159211 0
0 0 0 795 700775 -158416 0
0 0 0 751 701526 -157665 0
0 0 0 741 702267 -156924 0
0 0 0 741 703008 -156183 0
0 0 0 798 703806 -155385 0
0 0 0 858 704664 -154527 0
0 0 0 759 705423 -153768 0
0 0 0 884 706307 -152884 0
0 0 0 855 707162 -152029 0
0 0 0 888 708050 -151141 0
0 0 0 865 708915 -150276 0
0 0 0 771 709686 -149505 0
0 0 0 1010 710696 -148495 0
0 0 0 803 711499 -147692 0
0 0 0 814 712313 -146878 0
0 0 0 833 713146 -146045 0
0 0 0 739 713885 -145306 0
0 0 0 978 714863 -144328 0
0 0 0 797 715660 -143531 0
0 0 0 834 716494 -142697 0
0 0 0 900 717394 -141797 0
0 0 0 754 718148 -141043 0
0 0 0 1104 719252 -139939 0
0 0 0 906 720158 -139033 0
0 0 0 962 721120 -138071 0
0 0 0 946 722066 -137125 0
0 0 0 753 722819 -136372 0
0 0 0 645 723464 -135727 0
0 0 0 1140 724604 -134587 0
0 0 0 787 725391 -133800 0
0 0 0 760 726151 -133040 0
0 0 0 729 726880 -132311 0
0 0 0 798 727678 -131513 0
0 0 0 903 728581 -130610 0
0 0 0 684 729265 -129926 0
0 0 0 702 729967 -129224 0
0 0 0 1217 731184 -128007 1
0 0 0 953 732137 -127054 0
0 0 0 907 733044 -126147 0
0 0 0 892 733936 -125255 0
0 0 0 871 734807 -124384 0
0 0 0 856 735663 -123528 0
0 0 0 842 736505 -122686 0
0 0 0 810 737315 -121876 0
0 0 0 833 738148 -121043 0
0 0 0 850 738998 -120193 0
0 0 0 724 739722 -119469 0
0 0 0 1021 740743 -118448 0
0 0 0 876 741619 -117572 0
0 0 0 861 742480 -116711 0
0 0 0 804 743284 -115907 0
0 0 0 775 744059 -115132 0
0 0 0 762 744821 -114370 0
0 0 0 745 745566 -113625 0
0 0 0 776 746342 -112849 0
0 0 0 799 747141 -112050 0
0 0 0 793 747934 -111257 0
0 0 0 876 748810 -110381 0
0 0 0 895 749705 -109486 0
0 0 0 910 750615 -108576 0
0 0 0 726 751341 -107850 0
0 0 0 686 752027 -107164 0
0 0 0 1119 753146 -106045 0
0 0 0 810 753956 -105235 0
0 0 0 788 754744 -104447 0
0 0 0 806 755550 -103641 0
0 0 0 872 756422 -102769 0
0 0 0 1149 757571 -101620 1
0 0 0 950 758521 -100670 0
0 0 0 888 759409 -99782 0
0 0 0 958 760367 -98824 0
0 0 0 1029 761396 -97795 0
0 0 0 948 762344 -96847 0
0 0 0 930 763274 -95917 0
0 0 0 757 764031 -95160 0
0 0 0 656 764687 -94504 0
0 0 0 1166 765853 -93338 1
0 0 0 816 766669 -92522 0
0 0 0 764 767433 -91758 0
0 0 0 729 768162 -91029 0
0 0 0 709 768871 -90320 0
0 0 0 822 769693 -89498 0
0 0 0 655 770348 -88843 0
0 0 0 672 771020 -88171 0
0 0 0 1238 772258 -86933 1
0 0 0 877 773135 -86056 0
0 0 0 858 773993 -85198 0
0 0 0 949 774942 -84249 0
0 0 0 968 775910 -83281 0
0 0 0 923 776833 -82358 0
0 0 0 957 777790 -81401 0
0 0 0 742 778532 -80659 0
0 0 0 661 779193 -79998 0
0 0 0 1203 780396 -78795 1
0 0 0 909 781305 -77886 0
0 0 0 915 782220 -76971 0
0 0 0 927 783147 -76044 0
0 0 0 804 783951 -75240 0
0 0 0 666 784617 -74574 0
0 0 0 1160 785777 -73414 1
0 0 0 931 786708 -72483 0
0 0 0 868 787576 -71615 0
0 0 0 792 788368 -70823 0
0 0 0 768 789136 -70055 0
0 0 0 753 789889 -69302 0
0 0 0 1187 791076 -68115 1
0 0 0 1064 792140 -67051 0
0 0 0 994 793134 -66057 0
0 0 0 978 794112 -65079 0
0 0 0 766 794878 -64313 0
0 0 0 697 795575 -63616 0
0 0 0 1156 796731 -62460 1
0 0 0 843 797574 -61617 0
0 0 0 826 798400 -60791 0
0 0 0 801 799201 -59990 0
0 0 0 764 799965 -59226 0
0 0 0 1050 801015 -58176 0
0 0 0 948 801963 -57228 0
0 0 0 934 802897 -56294 0
0 0 0 914 803811 -55380 0
0 0 0 766 804577 -54614 0
0 0 0 703 805280 -53911 0
0 0 0 1222 806502 -52689 1
0 0 0 898 807400 -51791 0
0 0 0 894 808294 -50897 0
0 0 0 946 809240 -49951 0
0 0 0 960 810200 -48991 0
0 0 0 942 811142 -48049 0
0 0 0 868 812010 -47181 0
0 0 0 776 812786 -46405 0
0 0 0 679 813465 -45726 0
0 0 0 1197 814662 -44529 1
0 0 0 818 815480 -43711 0
0 0 0 782 816262 -42929 0
0 0 0 776 817038 -42153 0
0 0 0 794 817832 -41359 0
0 0 0 819 818651 -40540 0
0 0 0 846 819497 -39694 0
0 0 0 1008 820505 -38686 0
0 0 0 984 821489 -37702 0
0 0 0 913 822402 -36789 0
0 0 0 863 823265 -35926 0
0 0 0 806 824071 -35120 0
0 0 0 684 824755 -34436 0
0 0 0 1183 825938 -33253 1
0 0 0 795 826733 -32458 0
0 0 0 787 827520 -31671 0
0 0 0 789 828309 -30882 0
0 0 0 778 829087 -30104 0
0 0 0 910 829997 -29194 0
0 0 0 842 830839 -28352 0
0 0 0 952 831791 -27400 0
0 0 0 948 832739 -26452 0
0 0 0 894 833633 -25558 0
0 0 0 884 834517 -24674 0
0 0 0 780 835297 -23894 0
0 0 0 710 836007 -23184 0
0 0 0 1075 837082 -22109 0
0 0 0 757 837839 -21352 0
0 0 0 736 838575 -20616 0
0 0 0 755 839330 -19861 0
0 0 0 820 840150 -19041 0
0 0 0 792 840942 -18249 0
0 0 0 775 841717 -17474 0
0 0 0 872 842589 -16602 0
0 0 0 963 843552 -15639 0
0 0 0 724 844276 -14915 0
0 0 0 695 844971 -14220 0
0 0 0 1197 846168 -13023 1
0 0 0 798 846966 -12225 0
0 0 0 918 847884 -11307 0
0 0 0 821 848705 -10486 0
0 0 0 831 849536 -9655 0
0 0 0 897 850433 -8758 0
0 0 0 846 851279 -7912 0
0 0 0 961 852240 -6951 0
0 0 0 1072 853312 -5879 0
0 0 0 942 854254 -4937 0
0 0 0 921 855175 -4016 0
0 0 0 727 855902 -3289 0
0 0 0 1048 856950 -2241 0
41 1 S102 795 857745 -1446 0
41 1 S102 805 858550 -641 0
41 2 S102 837 859387 196 0
41 2 S102 748 860135 944 0
41 2 S102 1030 861165 1974 0
41 2 S102 774 861939 2748 0
41 2 S102 807 862746 3555 0
41 2 S102 846 863592 4401 0
41 2 S102 754 864346 5155 0
41 2 S102 941 865287 6096 0
41 2 S102 874 866161 6970 0
0 0 0 898 867059 -6854 0
0 0 0 890 867949 -5964 0
0 0 0 903 868852 -5061 0
0 0 0 906 869758 -4155 0
0 0 0 898 870656 -3257 0
0 0 0 721 871377 -2536 0
42 1 S112 758 872135 -1778 0
42 1 S112 1100 873235 -678 0
42 2 S112 814 874049 136 0
42 2 S112 822 874871 958 0
42 2 S112 810 875681 1768 0
42 2 S112 768 876449 2536 0
42 2 S112 933 877382 3469 0
42 2 S112 850 878232 4319 0
42 2 S112 897 879129 5216 0
42 2 S112 854 879983 6070 0
42 2 S112 858 880841 6928 0
0 0 0 958 881799 -7714 0
0 0 0 978 882777 -6736 0
0 0 0 871 883648 -5865 0
0 0 0 885 884533 -4980 0
0 0 0 735 885268 -4245 0
0 0 0 1051 886319 -3194 0
0 0 0 823 887142 -2371 0
43 1 S116 812 887954 -1559 0
43 1 S116 829 888783 -730 0
43 2 S116 753 889536 23 0
43 2 S116 906 890442 929 0
43 2 S116 839 891281 1768 0
43 2 S116 886 892167 2654 0
43 2 S116 911 893078 3565 0
43 2 S116 809 893887 4374 0
43 2 S116 669 894556 5043 0
43 2 S116 1172 895728 6215 1
43 2 S116 791 896519 7006 0
0 0 0 791 897310 -6394 0
0 0 0 796 898106 -5598 0
0 0 0 783 898889 -4815 0
0 0 0 816 899705 -3999 0
0 0 0 828 900533 -3171 0
0 0 0 948 901481 -2223 0
44 1 S102 939 902420 -1284 0
44 1 S102 856 903276 -428 0
44 2 S102 876 904152 448 0
44 2 S102 849 905001 1297 0
44 2 S102 800 905801 2097 0
44 2 S102 781 906582 2878 0
44 2 S102 752 907334 3630 0
44 2 S102 854 908188 4484 0
44 2 S102 818 909006 5302 0
44 2 S102 825 909831 6127 0
44 2 S102 774 910605 6901 0
0 0 0 702 911307 -8511 0
0 0 0 943 912250 -7568 0
0 0 0 873 913123 -6695 0
0 0 0 863 913986 -5832 0
0 0 0 849 914835 -4983 0
0 0 0 890 915725 -4093 0
0 0 0 935 916660 -3158 0
0 0 0 923 917583 -2235 0
45 1 S116 893 918476 -1342 0
45 1 S116 861 919337 -481 0
45 2 S116 893 920230 412 0
45 2 S116 907 921137 1319 0
45 2 S116 886 922023 2205 0
45 2 S116 758 922781 2963 0
45 2 S116 670 923451 3633 0
45 2 S116 1209 924660 4842 1
45 2 S116 857 925517 5699 0
45 2 S116 879 926396 6578 0
0 0 0 892 927288 -10684 0
0 0 0 921 928209 -9763 0
0 0 0 930 929139 -8833 0
0 0 0 973 930112 -7860 0
0 0 0 741 930853 -7119 0
0 0 0 644 931497 -6475 0
0 0 0 1226 932723 -5249 1
0 0 0 879 933602 -4370 0
0 0 0 711 934313 -3659 0
0 0 0 1006 935319 -2653 0
46 1 S102 812 936131 -1841 0
46 1 S102 804 936935 -1037 0
46 1 S102 789 937724 -248 0
46 2 S102 749 938473 501 0
46 2 S102 1204 939677 1705 1
46 2 S102 779 940456 2484 0
46 2 S102 725 941181 3209 0
46 2 S102 1193 942374 4402 1
46 2 S102 800 943174 5202 0
46 2 S102 1014 944188 6216 0
0 0 0 854 945042 -8861 0
0 0 0 782 945824 -8079 0
0 0 0 823 946647 -7256 0
0 0 0 778 947425 -6478 0
0 0 0 1054 948479 -5424 0
0 0 0 881 949360 -4543 0
0 0 0 783 950143 -3760 0
0 0 0 760 950903 -3000 0
0 0 0 753 951656 -2247 0
47 1 S112 975 952631 -1272 0
47 1 S112 1042 953673 -230 0
47 2 S112 991 954664 761 0
47 2 S112 979 955643 1740 0
47 2 S112 733 956376 2473 0
47 2 S112 707 957083 3180 0
47 2 S112 1217 958300 4397 1
47 2 S112 912 959212 5309 0
47 2 S112 890 960102 6199 0
0 0 0 886 960988 -10953 0
0 0 0 861 961849 -10092 0
0 0 0 872 962721 -9220 0
0 0 0 792 963513 -8428 0
0 0 0 762 964275 -7666 0
0 0 0 780 965055 -6886 0
0 0 0 833 965888 -6053 0
0 0 0 796 966684 -5257 0
0 0 0 923 967607 -4334 0
0 0 0 906 968513 -3428 0
0 0 0 869 969382 -2559 0
48 1 S116 870 970252 -1689 0
48 1 S116 878 971130 -811 0
48 2 S116 849 971979 38 0
48 2 S116 858 972837 896 0
48 2 S116 715 973552 1611 0
48 2 S116 1049 974601 2660 0
48 2 S116 829 975430 3489 0
48 2 S116 851 976281 4340 0
48 2 S116 816 977097 5156 0
48 2 S116 788 977885 5944 0
48 2 S116 830 978715 6774 0
0 0 0 942 979657 -6558 0
0 0 0 932 980589 -5626 0
0 0 0 877 981466 -4749 0
0 0 0 915 982381 -3834 0
0 0 0 736 983117 -3098 0
0 0 0 1058 984175 -2040 0
49 1 S112 841 985016 -1199 0
49 1 S112 815 985831 -384 0
49 2 S112 805 986636 421 0
49 2 S112 758 987394 1179 0
49 2 S112 907 988301 2086 0
49 2 S112 892 989193 2978 0
49 2 S112 913 990106 3891 0
49 2 S112 898 991004 4789 0
49 2 S112 770 991774 5559 0
49 2 S112 761 992535 6320 0
0 0 0 1167 993702 -10434 1
0 0 0 831 994533 -9603 0
0 0 0 911 995444 -8692 0
0 0 0 779 996223 -7913 0
0 0 0 819 997042 -7094 0
0 0 0 870 997912 -6224 0
0 0 0 936 998848 -5288 0
0 0 0 863 999711 -4425 0
0 0 0 914 1000625 -3511 0
0 0 0 762 1001387 -2749 0
0 0 0 696 1002083 -2053 0
50 1 S106 1174 1003257 -879 1
50 1 S106 867 1004124 -12 0
50 2 S106 853 1004977 841 0
50 2 S106 832 1005809 1673 0
50 2 S106 798 1006607 2471 0
50 2 S106 860 1007467 3331 0
50 2 S106 950 1008417 4281 0
50 2 S106 989 1009406 5270 0
50 2 S106 987 1010393 6257 0
0 0 0 980 1011373 -6755 0
0 0 0 970 1012343 -5785 0
0 0 0 744 1013087 -5041 0
0 0 0 652 1013739 -4389 0
0 0 0 1164 1014903 -3225 1
0 0 0 821 1015724 -2404 0
51 1 S112 781 1016505 -1623 0
51 1 S112 804 1017309 -819 0
51 2 S112 823 1018132 4 0
51 2 S112 816 1018948 820 0
51 2 S112 811 1019759 1631 0
51 2 S112 889 1020648 2520 0
51 2 S112 971 1021619 3491 0
51 2 S112 951 1022570 4442 0
51 2 S112 910 1023480 5352 0
51 2 S112 760 1024240 6112 0
0 0 0 1061 1025301 -6968 0
0 0 0 853 1026154 -6115 0
0 0 0 838 1026992 -5277 0
0 0 0 806 1027798 -4471 0
0 0 0 729 1028527 -3742 0
0 0 0 912 1029439 -2830 0
52 1 S116 882 1030321 -1948 0
52 1 S116 848 1031169 -1100 0
52 1 S116 886 1032055 -214 0
52 2 S116 997 1033052 783 0
52 2 S116 1021 1034073 1804 0
52 2 S116 935 1035008 2739 0
52 2 S116 713 1035721 3452 0
52 2 S116 670 1036391 4122 0
52 2 S116 1112 1037503 5234 0
52 2 S116 790 1038293 6024 0
52 2 S116 771 1039064 6795 0
0 0 0 772 1039836 -9658 0
0 0 0 843 1040679 -8815 0
0 0 0 865 1041544 -7950 0
0 0 0 853 1042397 -7097 0
0 0 0 885 1043282 -6212 0
0 0 0 710 1043992 -5502 0
0 0 0 715 1044707 -4787 0
0 0 0 1180 1045887 -3607 1
0 0 0 874 1046761 -2733 0
53 1 S106 820 1047581 -1913 0
53 1 S106 801 1048382 -1112 0
53 1 S106 892 1049274 -220 0
53 2 S106 722 1049996 502 0
53 2 S106 709 1050705 1211 0
53 2 S106 1228 1051933 2439 1
53 2 S106 800 1052733 3239 0
53 2 S106 1092 1053825 4331 0
53 2 S106 870 1054695 5201 0
53 2 S106 882 1055577 6083 0
53 2 S106 940 1056517 7023 0
0 0 0 804 1057321 -5768 0
0 0 0 673 1057994 -5095 0
0 0 0 1187 1059181 -3908 1
0 0 0 826 1060007 -3082 0
0 0 0 796 1060803 -2286 0
54 1 S102 826 1061629 -1460 0
54 1 S102 789 1062418 -671 0
54 2 S102 1017 1063435 346 0
54 2 S102 877 1064312 1223 0
54 2 S102 952 1065264 2175 0
54 2 S102 944 1066208 3119 0
54 2 S102 761 1066969 3880 0
54 2 S102 664 1067633 4544 0
54 2 S102 1212 1068845 5756 1
54 2 S102 852 1069697 6608 0
0 0 0 826 1070523 -10271 0
0 0 0 839 1071362 -9432 0
0 0 0 754 1072116 -8678 0
0 0 0 877 1072993 -7801 0
0 0 0 795 1073788 -7006 0
0 0 0 818 1074606 -6188 0
0 0 0 808 1075414 -5380 0
0 0 0 763 1076177 -4617 0
0 0 0 838 1077015 -3779 0
0 0 0 980 1077995 -2799 0
55 1 S106 974 1078969 -1825 0
55 1 S106 882 1079851 -943 0
55 1 S106 917 1080768 -26 0
55 2 S106 736 1081504 710 0
55 2 S106 1082 1082586 1792 0
55 2 S106 884 1083470 2676 0
55 2 S106 804 1084274 3480 0
55 2 S106 774 1085048 4254 0
55 2 S106 747 1085795 5001 0
55 2 S106 902 1086697 5903 0
55 2 S106 885 1087582 6788 0
0 0 0 849 1088431 -6654 0
0 0 0 893 1089324 -5761 0
0 0 0 928 1090252 -4833 0
0 0 0 879 1091131 -3954 0
0 0 0 873 1092004 -3081 0
0 0 0 916 1092920 -2165 0
56 1 S116 922 1093842 -1243 0
56 1 S116 900 1094742 -343 0
56 2 S116 874 1095616 531 0
56 2 S116 886 1096502 1417 0
56 2 S116 713 1097215 2130 0
56 2 S116 1058 1098273 3188 0
56 2 S116 851 1099124 4039 0
56 2 S116 849 1099973 4888 0
56 2 S116 870 1100843 5758 0
56 2 S116 730 1101573 6488 0
0 0 0 1098 1102671 -6555 0
0 0 0 853 1103524 -5702 0
0 0 0 874 1104398 -4828 0
0 0 0 908 1105306 -3920 0
0 0 0 881 1106187 -3039 0
0 0 0 831 1107018 -2208 0
57 1 S106 824 1107842 -1384 0
57 1 S106 744 1108586 -640 0
57 2 S106 818 1109404 178 0
57 2 S106 1145 1110549 1323 1
57 2 S106 874 1111423 2197 0
57 2 S106 911 1112334 3108 0
57 2 S106 854 1113188 3962 0
57 2 S106 783 1113971 4745 0
57 2 S106 795 1114766 5540 0
57 2 S106 793 1115559 6333 0
0 0 0 738 1116297 -9856 0
0 0 0 979 1117276 -8877 0
0 0 0 886 1118162 -7991 0
0 0 0 882 1119044 -7109 0
0 0 0 858 1119902 -6251 0
0 0 0 892 1120794 -5359 0
0 0 0 923 1121717 -4436 0
0 0 0 927 1122644 -3509 0
0 0 0 931 1123575 -2578 0
58 1 S102 957 1124532 -1621 0
58 1 S102 796 1125328 -825 0
58 1 S102 704 1126032 -121 0
58 2 S102 1181 1127213 1060 1
58 2 S102 873 1128086 1933 0
58 2 S102 848 1128934 2781 0
58 2 S102 831 1129765 3612 0
58 2 S102 805 1130570 4417 0
58 2 S102 880 1131450 5297 0
58 2 S102 945 1132395 6242 0
0 0 0 994 1133389 -7485 0
0 0 0 925 1134314 -6560 0
0 0 0 943 1135257 -5617 0
0 0 0 957 1136214 -4660 0
0 0 0 783 1136997 -3877 0
0 0 0 654 1137651 -3223 0
0 0 0 1151 1138802 -2072 1
59 1 S112 783 1139585 -1289 0
59 1 S112 777 1140362 -512 0
59 2 S112 803 1141165 291 0
59 2 S112 873 1142038 1164 0
59 2 S112 899 1142937 2063 0
59 2 S112 718 1143655 2781 0
59 2 S112 692 1144347 3473 0
59 2 S112 1224 1145571 4697 1
59 2 S112 810 1146381 5507 0
59 2 S112 718 1147099 6225 0
0 0 0 1057 1148156 -9976 0
0 0 0 882 1149038 -9094 0
0 0 0 843 1149881 -8251 0
0 0 0 916 1150797 -7335 0
0 0 0 951 1151748 -6384 0
0 0 0 950 1152698 -5434 0
0 0 0 963 1153661 -4471 0
0 0 0 729 1154390 -3742 0
0 0 0 685 1155075 -3057 0
60 1 S102 1180 1156255 -1877 1
60 1 S102 812 1157067 -1065 0
60 1 S102 908 1157975 -157 0
60 2 S102 781 1158756 624 0
60 2 S102 790 1159546 1414 0
60 2 S102 857 1160403 2271 0
60 2 S102 762 1161165 3033 0
60 2 S102 1165 1162330 4198 1
60 2 S102 777 1163107 4975 0
60 2 S102 704 1163811 5679 0
60 2 S102 1130 1164941 6809 0
0 0 0 832 1165773 -9866 0
0 0 0 862 1166635 -9004 0
0 0 0 792 1167427 -8212 0
0 0 0 894 1168321 -7318 0
0 0 0 1049 1169370 -6269 0
0 0 0 1030 1170400 -5239 0
0 0 0 1005 1171405 -4234 0
0 0 0 714 1172119 -3520 0
0 0 0 1241 1173360 -2279 1
61 1 S106 757 1174117 -1522 0
61 1 S106 682 1174799 -840 0
61 2 S106 1111 1175910 271 0
61 2 S106 746 1176656 1017 0
61 2 S106 744 1177400 1761 0
61 2 S106 806 1178206 2567 0
61 2 S106 943 1179149 3510 0
61 2 S106 1069 1180218 4579 0
61 2 S106 1020 1181238 5599 0
61 2 S106 1013 1182251 6612 0
0 0 0 1022 1183273 -6458 0
0 0 0 740 1184013 -5718 0
0 0 0 708 1184721 -5010 0
0 0 0 1226 1185947 -3784 1
0 0 0 794 1186741 -2990 0
0 0 0 726 1187467 -2264 0
62 1 S112 1101 1188568 -1163 0
62 1 S112 810 1189378 -353 0
62 2 S112 684 1190062 331 0
62 2 S112 1017 1191079 1348 0
62 2 S112 908 1191987 2256 0
62 2 S112 911 1192898 3167 0
62 2 S112 889 1193787 4056 0
62 2 S112 939 1194726 4995 0
62 2 S112 723 1195449 5718 0
62 2 S112 995 1196444 6713 0
0 0 0 875 1197319 -10880 0
0 0 0 919 1198238 -9961 0
0 0 0 882 1199120 -9079 0
0 0 0 775 1199895 -8304 0
0 0 0 931 1200826 -7373 0
0 0 0 817 1201643 -6556 0
0 0 0 833 1202476 -5723 0
0 0 0 866 1203342 -4857 0
0 0 0 747 1204089 -4110 0
0 0 0 1050 1205139 -3060 0
0 0 0 881 1206020 -2179 0
63 1 S102 895 1206915 -1284 0
63 1 S102 906 1207821 -378 0
63 2 S102 858 1208679 480 0
63 2 S102 945 1209624 1425 0
63 2 S102 999 1210623 2424 0
63 2 S102 947 1211570 3371 0
63 2 S102 944 1212514 4315 0
63 2 S102 770 1213284 5085 0
63 2 S102 716 1214000 5801 0
63 2 S102 1150 1215150 6951 1
0 0 0 851 1216001 -8113 0
0 0 0 872 1216873 -7241 0
0 0 0 814 1217687 -6427 0
0 0 0 847 1218534 -5580 0
0 0 0 1023 1219557 -4557 0
0 0 0 1014 1220571 -3543 0
0 0 0 961 1221532 -2582 0
64 1 S112 978 1222510 -1604 0
64 1 S112 745 1223255 -859 0
64 2 S112 1113 1224368 254 0
64 2 S112 910 1225278 1164 0
64 2 S112 905 1226183 2069 0
64 2 S112 864 1227047 2933 0
64 2 S112 716 1227763 3649 0
64 2 S112 754 1228517 4403 0
64 2 S112 1137 1229654 5540 0
64 2 S112 845 1230499 6385 0
0 0 0 814 1231313 -6611 0
0 0 0 880 1232193 -5731 0
0 0 0 800 1232993 -4931 0
0 0 0 1095 1234088 -3836 0
0 0 0 828 1234916 -3008 0
65 1 S106 1032 1235948 -1976 0
65 1 S106 890 1236838 -1086 0
65 1 S106 875 1237713 -211 0
65 2 S106 934 1238647 723 0
65 2 S106 798 1239445 1521 0
65 2 S106 716 1240161 2237 0
65 2 S106 1193 1241354 3430 1
65 2 S106 915 1242269 4345 0
65 2 S106 912 1243181 5257 0
65 2 S106 926 1244107 6183 0
0 0 0 910 1245017 -6733 0
0 0 0 1006 1246023 -5727 0
0 0 0 1006 1247029 -4721 0
0 0 0 729 1247758 -3992 0
0 0 0 686 1248444 -3306 0
0 0 0 1223 1249667 -2083 1
66 1 S116 806 1250473 -1277 0
66 1 S116 753 1251226 -524 0
66 2 S116 975 1252201 451 0
66 2 S116 841 1253042 1292 0
66 2 S116 883 1253925 2175 0
66 2 S116 994 1254919 3169 0
66 2 S116 875 1255794 4044 0
66 2 S116 850 1256644 4894 0
66 2 S116 907 1257551 5801 0
66 2 S116 720 1258271 6521 0
0 0 0 696 1258967 -11484 0
0 0 0 1212 1260179 -10272 1
0 0 0 797 1260976 -9475 0
0 0 0 757 1261733 -8718 0
0 0 0 945 1262678 -7773 0
0 0 0 825 1263503 -6948 0
0 0 0 773 1264276 -6175 0
0 0 0 800 1265076 -5375 0
0 0 0 859 1265935 -4516 0
0 0 0 902 1266837 -3614 0
0 0 0 866 1267703 -2748 0
67 1 S102 953 1268656 -1795 0
67 1 S102 723 1269379 -1072 0
67 2 S102 1105 1270484 33 0
67 2 S102 851 1271335 884 0
67 2 S102 862 1272197 1746 0
67 2 S102 856 1273053 2602 0
67 2 S102 850 1273903 3452 0
67 2 S102 813 1274716 4265 0
67 2 S102 851 1275567 5116 0
67 2 S102 751 1276318 5867 0
67 2 S102 1128 1277446 6995 0
0 0 0 841 1278287 -5310 0
0 0 0 855 1279142 -4455 0
0 0 0 897 1280039 -3558 0
0 0 0 961 1281000 -2597 0
68 1 S106 886 1281886 -1711 0
68 1 S106 887 1282773 -824 0
68 1 S106 791 1283564 -33 0
68 2 S106 683 1284247 650 0
68 2 S106 1243 1285490 1893 1
68 2 S106 844 1286334 2737 0
68 2 S106 700 1287034 3437 0
68 2 S106 1087 1288121 4524 0
68 2 S106 829 1288950 5353 0
68 2 S106 798 1289748 6151 0
68 2 S106 865 1290613 7016 0
0 0 0 1061 1291674 -10441 0
0 0 0 938 1292612 -9503 0
0 0 0 908 1293520 -8595 0
0 0 0 970 1294490 -7625 0
0 0 0 1033 1295523 -6592 0
0 0 0 902 1296425 -5690 0
0 0 0 886 1297311 -4804 0
0 0 0 732 1298043 -4072 0
0 0 0 1090 1299133 -2982 0
0 0 0 819 1299952 -2163 0
69 1 S102 766 1300718 -1397 0
69 1 S102 787 1301505 -610 0
69 2 S102 837 1302342 227 0
69 2 S102 967 1303309 1194 0
69 2 S102 862 1304171 2056 0
69 2 S102 958 1305129 3014 0
69 2 S102 1035 1306164 4049 0
69 2 S102 747 1306911 4796 0
69 2 S102 693 1307604 5489 0
69 2 S102 1227 1308831 6716 1
0 0 0 832 1309663 -8500 0
0 0 0 1039 1310702 -7461 0
0 0 0 821 1311523 -6640 0
0 0 0 845 1312368 -5795 0
0 0 0 857 1313225 -4938 0
0 0 0 708 1313933 -4230 0
0 0 0 1099 1315032 -3131 0
0 0 0 889 1315921 -2242 0
70 1 S112 893 1316814 -1349 0
70 1 S112 895 1317709 -454 0
70 2 S112 863 1318572 409 0
70 2 S112 946 1319518 1355 0
70 2 S112 942 1320460 2297 0
70 2 S112 865 1321325 3162 0
70 2 S112 807 1322132 3969 0
70 2 S112 726 1322858 4695 0
70 2 S112 929 1323787 5624 0
70 2 S112 836 1324623 6460 0
0 0 0 849 1325472 -10712 0
0 0 0 788 1326260 -9924 0
0 0 0 750 1327010 -9174 0
0 0 0 738 1327748 -8436 0
0 0 0 782 1328530 -7654 0
0 0 0 1041 1329571 -6613 0
0 0 0 1031 1330602 -5582 0
0 0 0 740 1331342 -4842 0
0 0 0 1219 1332561 -3623 1
0 0 0 784 1333345 -2839 0
71 1 S116 1092 1334437 -1747 0
71 1 S116 886 1335323 -861 0
71 2 S116 894 1336217 33 0
71 2 S116 901 1337118 934 0
71 2 S116 955 1338073 1889 0
71 2 S116 938 1339011 2827 0
71 2 S116 971 1339982 3798 0
71 2 S116 752 1340734 4550 0
71 2 S116 663 1341397 5213 0
71 2 S116 1141 1342538 6354 0
0 0 0 865 1343403 -9575 0
0 0 0 908 1344311 -8667 0
0 0 0 805 1345116 -7862 0
0 0 0 852 1345968 -7010 0
0 0 0 893 1346861 -6117 0
0 0 0 938 1347799 -5179 0
0 0 0 893 1348692 -4286 0
0 0 0 742 1349434 -3544 0
0 0 0 1076 1350510 -2468 0
72 1 S102 847 1351357 -1621 0
72 1 S102 834 1352191 -787 0
72 2 S102 860 1353051 73 0
72 2 S102 748 1353799 821 0
72 2 S102 1092 1354891 1913 0
72 2 S102 949 1355840 2862 0
72 2 S102 973 1356813 3835 0
72 2 S102 980 1357793 4815 0
72 2 S102 754 1358547 5569 0
72 2 S102 665 1359212 6234 0
0 0 0 1260 1360472 -6780 1
0 0 0 821 1361293 -5959 0
0 0 0 710 1362003 -5249 0
0 0 0 1096 1363099 -4153 0
0 0 0 825 1363924 -3328 0
0 0 0 837 1364761 -2491 0
73 1 S116 977 1365738 -1514 0
73 1 S116 1101 1366839 -413 0
73 2 S116 983 1367822 570 0
73 2 S116 1025 1368847 1595 0
73 2 S116 737 1369584 2332 0
73 2 S116 1244 1370828 3576 1
73 2 S116 757 1371585 4333 0
73 2 S116 1132 1372717 5465 0
73 2 S116 865 1373582 6330 0
0 0 0 912 1374494 -9535 0
0 0 0 966 1375460 -8569 0
0 0 0 745 1376205 -7824 0
0 0 0 1092 1377297 -6732 0
0 0 0 867 1378164 -5865 0
0 0 0 877 1379041 -4988 0
0 0 0 835 1379876 -4153 0
0 0 0 713 1380589 -3440 0
0 0 0 1100 1381689 -2340 0
74 1 S106 848 1382537 -1492 0
74 1 S106 854 1383391 -638 0
74 2 S106 922 1384313 284 0
74 2 S106 757 1385070 1041 0
74 2 S106 1138 1386208 2179 0
74 2 S106 793 1387001 2972 0
74 2 S106 984 1387985 3956 0
74 2 S106 866 1388851 4822 0
74 2 S106 844 1389695 5666 0
74 2 S106 875 1390570 6541 0
0 0 0 747 1391317 -6472 0
0 0 0 1106 1392423 -5366 0
0 0 0 834 1393257 -4532 0
0 0 0 857 1394114 -3675 0
0 0 0 872 1394986 -2803 0
75 1 S112 843 1395829 -1960 0
75 1 S112 864 1396693 -1096 0
75 1 S112 976 1397669 -120 0
75 2 S112 769 1398438 649 0
75 2 S112 718 1399156 1367 0
75 2 S112 1216 1400372 2583 1
75 2 S112 845 1401217 3428 0
75 2 S112 952 1402169 4380 0
75 2 S112 816 1402985 5196 0
75 2 S112 811 1403796 6007 0
75 2 S112 761 1404557 6768 0
0 0 0 725 1405282 -6367 0
0 0 0 878 1406160 -5489 0
0 0 0 792 1406952 -4697 0
0 0 0 763 1407715 -3934 0
0 0 0 830 1408545 -3104 0
0 0 0 907 1409452 -2197 0
76 1 S116 960 1410412 -1237 0
76 1 S116 927 1411339 -310 0
76 2 S116 875 1412214 565 0
76 2 S116 951 1413165 1516 0
76 2 S116 993 1414158 2509 0
76 2 S116 956 1415114 3465 0
76 2 S116 910 1416024 4375 0
76 2 S116 723 1416747 5098 0
76 2 S116 1143 1417890 6241 0
0 0 0 865 1418755 -7450 0
0 0 0 882 1419637 -6568 0
0 0 0 909 1420546 -5659 0
0 0 0 887 1421433 -4772 0
0 0 0 832 1422265 -3940 0
0 0 0 887 1423152 -3053 0
0 0 0 774 1423926 -2279 0
77 1 S106 1013 1424939 -1266 0
77 1 S106 830 1425769 -436 0
77 2 S106 848 1426617 412 0
77 2 S106 873 1427490 1285 0
77 2 S106 829 1428319 2114 0
77 2 S106 910 1429229 3024 0
77 2 S106 1076 1430305 4100 0
77 2 S106 1012 1431317 5112 0
77 2 S106 964 1432281 6076 0
77 2 S106 745 1433026 6821 0
0 0 0 671 1433697 -8423 0
0 0 0 1210 1434907 -7213 1
0 0 0 839 1435746 -6374 0
0 0 0 716 1436462 -5658 0
0 0 0 966 1437428 -4692 0
0 0 0 795 1438223 -3897 0
0 0 0 770 1438993 -3127 0
0 0 0 796 1439789 -2331 0
78 1 S112 900 1440689 -1431 0
78 1 S112 884 1441573 -547 0
78 2 S112 982 1442555 435 0
78 2 S112 1023 1443578 1458 0
78 2 S112 981 1444559 2439 0
78 2 S112 925 1445484 3364 0
78 2 S112 952 1446436 4316 0
78 2 S112 763 1447199 5079 0
78 2 S112 1074 1448273 6153 0
78 2 S112 857 1449130 7010 0
0 0 0 838 1449968 -10620 0
0 0 0 823 1450791 -9797 0
0 0 0 742 1451533 -9055 0
0 0 0 1060 1452593 -7995 0
0 0 0 856 1453449 -7139 0
0 0 0 911 1454360 -6228 0
0 0 0 895 1455255 -5333 0
0 0 0 784 1456039 -4549 0
0 0 0 691 1456730 -3858 0
0 0 0 1187 1457917 -2671 1
79 1 S102 803 1458720 -1868 0
79 1 S102 749 1459469 -1119 0
79 1 S102 978 1460447 -141 0
79 2 S102 840 1461287 699 0
79 2 S102 845 1462132 1544 0
79 2 S102 928 1463060 2472 0
79 2 S102 1058 1464118 3530 0
79 2 S102 1023 1465141 4553 0
79 2 S102 969 1466110 5522 0
79 2 S102 716 1466826 6238 0
0 0 0 1224 1468050 -7906 1
0 0 0 761 1468811 -7145 0
0 0 0 700 1469511 -6445 0
0 0 0 1153 1470664 -5292 1
0 0 0 769 1471433 -4523 0
0 0 0 736 1472169 -3787 0
0 0 0 715 1472884 -3072 0
0 0 0 704 1473588 -2368 0
80 1 S116 824 1474412 -1544 0
80 1 S116 684 1475096 -860 0
80 1 S116 710 1475806 -150 0
80 2 S116 1122 1476928 972 0
80 2 S116 877 1477805 1849 0
80 2 S116 927 1478732 2776 0
80 2 S116 989 1479721 3765 0
80 2 S116 952 1480673 4717 0
80 2 S116 901 1481574 5618 0
80 2 S116 903 1482477 6521 0
