T_0091
BeatCount Mean SD BeatCountNoOutliers MeanNoOutliers SDNoOutliers
1796 857,16425389755 50,1082090645307 1776 857,329954954955 48,0474378836195

Trial TrialStatus Trialtype IBI AbsPosition RelPosition Outlier
0 0 0 776 1125 -14961 0
0 0 0 800 1925 -14161 0
0 0 0 802 2727 -13359 0
0 0 0 808 3535 -12551 0
0 0 0 790 4325 -11761 0
0 0 0 854 5179 -10907 0
0 0 0 899 6078 -10008 0
0 0 0 912 6990 -9096 0
0 0 0 870 7860 -8226 0
0 0 0 869 8729 -7357 0
0 0 0 906 9635 -6451 0
0 0 0 904 10539 -5547 0
0 0 0 896 11435 -4651 0
0 0 0 832 12267 -3819 0
0 0 0 867 13134 -2952 0
0 0 0 892 14026 -2060 0
1 1 S112 936 14962 -1124 0
1 1 S112 846 15808 -278 0
1 2 S112 868 16676 590 0
1 2 S112 927 17603 1517 0
1 2 S112 916 18519 2433 0
1 2 S112 877 19396 3310 0
1 2 S112 886 20282 4196 0
1 2 S112 900 21182 5096 0
1 2 S112 853 22035 5949 0
1 2 S112 831 22866 6780 0
0 0 0 857 23723 -10334 0
0 0 0 855 24578 -9479 0
0 0 0 827 25405 -8652 0
0 0 0 845 26250 -7807 0
0 0 0 840 27090 -6967 0
0 0 0 783 27873 -6184 0
0 0 0 758 28631 -5426 0
0 0 0 749 29380 -4677 0
0 0 0 864 30244 -3813 0
0 0 0 866 31110 -2947 0
0 0 0 768 31878 -2179 0
2 1 S102 796 32674 -1383 0
2 1 S102 863 33537 -520 0
2 2 S102 910 34447 390 0
2 2 S102 816 35263 1206 0
2 2 S102 904 36167 2110 0
2 2 S102 913 37080 3023 0
2 2 S102 880 37960 3903 0
2 2 S102 908 38868 4811 0
2 2 S102 927 39795 5738 0
2 2 S102 904 40699 6642 0
0 0 0 843 41542 -9956 0
0 0 0 944 42486 -9012 0
0 0 0 973 43459 -8039 0
0 0 0 884 44343 -7155 0
0 0 0 895 45238 -6260 0
0 0 0 907 46145 -5353 0
0 0 0 841 46986 -4512 0
0 0 0 926 47912 -3586 0
0 0 0 947 48859 -2639 0
3 1 S116 869 49728 -1770 0
3 1 S116 919 50647 -851 0
3 2 S116 930 51577 79 0
3 2 S116 866 52443 945 0
3 2 S116 906 53349 1851 0
3 2 S116 902 54251 2753 0
3 2 S116 865 55116 3618 0
3 2 S116 855 55971 4473 0
3 2 S116 911 56882 5384 0
3 2 S116 925 57807 6309 0
0 0 0 854 58661 -13444 0
0 0 0 899 59560 -12545 0
0 0 0 895 60455 -11650 0
0 0 0 797 61252 -10853 0
0 0 0 850 62102 -10003 0
0 0 0 904 63006 -9099 0
0 0 0 873 63879 -8226 0
0 0 0 860 64739 -7366 0
0 0 0 889 65628 -6477 0
0 0 0 841 66469 -5636 0
0 0 0 894 67363 -4742 0
0 0 0 939 68302 -3803 0
0 0 0 917 69219 -2886 0
0 0 0 854 70073 -2032 0
4 1 S106 896 70969 -1136 0
4 1 S106 913 71882 -223 0
4 2 S106 873 72755 650 0
4 2 S106 875 73630 1525 0
4 2 S106 900 74530 2425 0
4 2 S106 892 75422 3317 0
4 2 S106 817 76239 4134 0
4 2 S106 879 77118 5013 0
4 2 S106 884 78002 5897 0
4 2 S106 821 78823 6718 0
0 0 0 864 79687 -7603 0
0 0 0 892 80579 -6711 0
0 0 0 822 81401 -5889 0
0 0 0 884 82285 -5005 0
0 0 0 875 83160 -4130 0
0 0 0 791 83951 -3339 0
0 0 0 858 84809 -2481 0
5 1 S116 879 85688 -1602 0
5 1 S116 830 86518 -772 0
5 2 S116 869 87387 97 0
5 2 S116 945 88332 1042 0
5 2 S116 885 89217 1927 0
5 2 S116 834 90051 2761 0
5 2 S116 895 90946 3656 0
5 2 S116 879 91825 4535 0
5 2 S116 825 92650 5360 0
5 2 S116 884 93534 6244 0
0 0 0 926 94460 -11083 0
0 0 0 899 95359 -10184 0
0 0 0 893 96252 -9291 0
0 0 0 930 97182 -8361 0
0 0 0 897 98079 -7464 0
0 0 0 887 98966 -6577 0
0 0 0 911 99877 -5666 0
0 0 0 867 100744 -4799 0
0 0 0 885 101629 -3914 0
0 0 0 951 102580 -2963 0
0 0 0 932 103512 -2031 0
6 1 S106 858 104370 -1173 0
6 1 S106 921 105291 -252 0
6 2 S106 923 106214 671 0
6 2 S106 864 107078 1535 0
6 2 S106 904 107982 2439 0
6 2 S106 929 108911 3368 0
6 2 S106 846 109757 4214 0
6 2 S106 873 110630 5087 0
6 2 S106 941 111571 6028 0
6 2 S106 929 112500 6957 0
0 0 0 838 113338 -10425 0
0 0 0 901 114239 -9524 0
0 0 0 933 115172 -8591 0
0 0 0 843 116015 -7748 0
0 0 0 884 116899 -6864 0
0 0 0 913 117812 -5951 0
0 0 0 850 118662 -5101 0
0 0 0 888 119550 -4213 0
0 0 0 893 120443 -3320 0
0 0 0 822 121265 -2498 0
7 1 S102 889 122154 -1609 0
7 1 S102 927 123081 -682 0
7 2 S102 835 123916 153 0
7 2 S102 915 124831 1068 0
7 2 S102 961 125792 2029 0
7 2 S102 882 126674 2911 0
7 2 S102 872 127546 3783 0
7 2 S102 902 128448 4685 0
7 2 S102 879 129327 5564 0
7 2 S102 837 130164 6401 0
0 0 0 894 131058 -9499 0
0 0 0 882 131940 -8617 0
0 0 0 838 132778 -7779 0
0 0 0 904 133682 -6875 0
0 0 0 893 134575 -5982 0
0 0 0 860 135435 -5122 0
0 0 0 906 136341 -4216 0
0 0 0 845 137186 -3371 0
0 0 0 871 138057 -2500 0
8 1 S112 906 138963 -1594 0
8 1 S112 821 139784 -773 0
8 2 S112 889 140673 116 0
8 2 S112 929 141602 1045 0
8 2 S112 873 142475 1918 0
8 2 S112 954 143429 2872 0
8 2 S112 963 144392 3835 0
8 2 S112 872 145264 4707 0
8 2 S112 897 146161 5604 0
8 2 S112 949 147110 6553 0
0 0 0 853 147963 -6951 0
0 0 0 907 148870 -6044 0
0 0 0 943 149813 -5101 0
0 0 0 830 150643 -4271 0
0 0 0 870 151513 -3401 0
0 0 0 862 152375 -2539 0
9 1 S116 786 153161 -1753 0
9 1 S116 857 154018 -896 0
9 2 S116 903 154921 7 0
9 2 S116 841 155762 848 0
9 2 S116 919 156681 1767 0
9 2 S116 944 157625 2711 0
9 2 S116 891 158516 3602 0
9 2 S116 863 159379 4465 0
9 2 S116 904 160283 5369 0
9 2 S116 871 161154 6240 0
0 0 0 843 161997 -11120 0
0 0 0 899 162896 -10221 0
0 0 0 882 163778 -9339 0
0 0 0 844 164622 -8495 0
0 0 0 888 165510 -7607 0
0 0 0 842 166352 -6765 0
0 0 0 858 167210 -5907 0
0 0 0 812 168022 -5095 0
0 0 0 843 168865 -4252 0
0 0 0 869 169734 -3383 0
0 0 0 839 170573 -2544 0
10 1 S102 897 171470 -1647 0
10 1 S102 895 172365 -752 0
10 2 S102 829 173194 77 0
10 2 S102 892 174086 969 0
10 2 S102 908 174994 1877 0
10 2 S102 842 175836 2719 0
10 2 S102 820 176656 3539 0
10 2 S102 882 177538 4421 0
10 2 S102 905 178443 5326 0
10 2 S102 855 179298 6181 0
0 0 0 910 180208 -11559 0
0 0 0 925 181133 -10634 0
0 0 0 865 181998 -9769 0
0 0 0 932 182930 -8837 0
0 0 0 894 183824 -7943 0
0 0 0 799 184623 -7144 0
0 0 0 889 185512 -6255 0
0 0 0 938 186450 -5317 0
0 0 0 838 187288 -4479 0
0 0 0 934 188222 -3545 0
0 0 0 994 189216 -2551 1
11 1 S112 904 190120 -1647 0
11 1 S112 970 191090 -677 0
11 2 S112 996 192086 319 1
11 2 S112 930 193016 1249 0
11 2 S112 981 193997 2230 0
11 2 S112 971 194968 3201 0
11 2 S112 887 195855 4088 0
11 2 S112 899 196754 4987 0
11 2 S112 919 197673 5906 0
11 2 S112 865 198538 6771 0
0 0 0 916 199454 -7565 0
0 0 0 948 200402 -6617 0
0 0 0 872 201274 -5745 0
0 0 0 924 202198 -4821 0
0 0 0 893 203091 -3928 0
0 0 0 865 203956 -3063 0
0 0 0 905 204861 -2158 0
12 1 S116 870 205731 -1288 0
12 1 S116 808 206539 -480 0
12 2 S116 871 207410 391 0
12 2 S116 902 208312 1293 0
12 2 S116 808 209120 2101 0
12 2 S116 880 210000 2981 0
12 2 S116 907 210907 3888 0
12 2 S116 842 211749 4730 0
12 2 S116 860 212609 5590 0
12 2 S116 883 213492 6473 0
0 0 0 841 214333 -12398 0
0 0 0 852 215185 -11546 0
0 0 0 875 216060 -10671 0
0 0 0 833 216893 -9838 0
0 0 0 875 217768 -8963 0
0 0 0 889 218657 -8074 0
0 0 0 826 219483 -7248 0
0 0 0 893 220376 -6355 0
0 0 0 926 221302 -5429 0
0 0 0 826 222128 -4603 0
0 0 0 928 223056 -3675 0
0 0 0 962 224018 -2713 0
13 1 S112 887 224905 -1826 0
13 1 S112 932 225837 -894 0
13 2 S112 964 226801 70 0
13 2 S112 920 227721 990 0
13 2 S112 917 228638 1907 0
13 2 S112 977 229615 2884 0
13 2 S112 974 230589 3858 0
13 2 S112 865 231454 4723 0
13 2 S112 883 232337 5606 0
13 2 S112 903 233240 6509 0
0 0 0 851 234091 -10943 0
0 0 0 889 234980 -10054 0
0 0 0 920 235900 -9134 0
0 0 0 855 236755 -8279 0
0 0 0 862 237617 -7417 0
0 0 0 853 238470 -6564 0
0 0 0 808 239278 -5756 0
0 0 0 808 240086 -4948 0
0 0 0 809 240895 -4139 0
0 0 0 849 241744 -3290 0
0 0 0 802 242546 -2488 0
14 1 S106 866 243412 -1622 0
14 1 S106 865 244277 -757 0
14 2 S106 840 245117 83 0
14 2 S106 888 246005 971 0
14 2 S106 919 246924 1890 0
14 2 S106 851 247775 2741 0
14 2 S106 856 248631 3597 0
14 2 S106 835 249466 4432 0
14 2 S106 805 250271 5237 0
14 2 S106 871 251142 6108 0
14 2 S106 898 252040 7006 0
0 0 0 833 252873 -10231 0
0 0 0 939 253812 -9292 0
0 0 0 915 254727 -8377 0
0 0 0 829 255556 -7548 0
0 0 0 910 256466 -6638 0
0 0 0 901 257367 -5737 0
0 0 0 875 258242 -4862 0
0 0 0 925 259167 -3937 0
0 0 0 905 260072 -3032 0
0 0 0 853 260925 -2179 0
15 1 S116 897 261822 -1282 0
15 1 S116 911 262733 -371 0
15 2 S116 840 263573 469 0
15 2 S116 877 264450 1346 0
15 2 S116 912 265362 2258 0
15 2 S116 875 266237 3133 0
15 2 S116 878 267115 4011 0
15 2 S116 913 268028 4924 0
15 2 S116 860 268888 5784 0
15 2 S116 883 269771 6667 0
0 0 0 907 270678 -9784 0
0 0 0 856 271534 -8928 0
0 0 0 906 272440 -8022 0
0 0 0 951 273391 -7071 0
0 0 0 857 274248 -6214 0
0 0 0 898 275146 -5316 0
0 0 0 890 276036 -4426 0
0 0 0 838 276874 -3588 0
0 0 0 920 277794 -2668 0
16 1 S116 886 278680 -1782 0
16 1 S116 856 279536 -926 0
16 2 S116 938 280474 12 0
16 2 S116 902 281376 914 0
16 2 S116 875 282251 1789 0
16 2 S116 919 283170 2708 0
16 2 S116 902 284072 3610 0
16 2 S116 842 284914 4452 0
16 2 S116 901 285815 5353 0
16 2 S116 905 286720 6258 0
0 0 0 835 287555 -8789 0
0 0 0 894 288449 -7895 0
0 0 0 911 289360 -6984 0
0 0 0 833 290193 -6151 0
0 0 0 877 291070 -5274 0
0 0 0 873 291943 -4401 0
0 0 0 789 292732 -3612 0
0 0 0 829 293561 -2783 0
17 1 S106 863 294424 -1920 0
17 1 S106 813 295237 -1107 0
17 1 S106 848 296085 -259 0
17 2 S106 929 297014 670 0
17 2 S106 885 297899 1555 0
17 2 S106 871 298770 2426 0
17 2 S106 898 299668 3324 0
17 2 S106 870 300538 4194 0
17 2 S106 831 301369 5025 0
17 2 S106 888 302257 5913 0
17 2 S106 894 303151 6807 0
0 0 0 856 304007 -10440 0
0 0 0 893 304900 -9547 0
0 0 0 863 305763 -8684 0
0 0 0 835 306598 -7849 0
0 0 0 890 307488 -6959 0
0 0 0 847 308335 -6112 0
0 0 0 848 309183 -5264 0
0 0 0 910 310093 -4354 0
0 0 0 893 310986 -3461 0
0 0 0 855 311841 -2606 0
18 1 S102 906 312747 -1700 0
18 1 S102 895 313642 -805 0
18 2 S102 851 314493 46 0
18 2 S102 897 315390 943 0
18 2 S102 875 316265 1818 0
18 2 S102 785 317050 2603 0
18 2 S102 756 317806 3359 0
18 2 S102 772 318578 4131 0
18 2 S102 822 319400 4953 0
18 2 S102 921 320321 5874 0
18 2 S102 974 321295 6848 0
0 0 0 954 322249 -7417 0
0 0 0 839 323088 -6578 0
0 0 0 875 323963 -5703 0
0 0 0 985 324948 -4718 0
0 0 0 978 325926 -3740 0
0 0 0 836 326762 -2904 0
0 0 0 857 327619 -2047 0
19 1 S106 894 328513 -1153 0
19 1 S106 939 329452 -214 0
19 2 S106 902 330354 688 0
19 2 S106 935 331289 1623 0
19 2 S106 926 332215 2549 0
19 2 S106 905 333120 3454 0
19 2 S106 849 333969 4303 0
19 2 S106 872 334841 5175 0
19 2 S106 889 335730 6064 0
19 2 S106 878 336608 6942 0
0 0 0 937 337545 -10872 0
0 0 0 941 338486 -9931 0
0 0 0 886 339372 -9045 0
0 0 0 895 340267 -8150 0
0 0 0 899 341166 -7251 0
0 0 0 834 342000 -6417 0
0 0 0 853 342853 -5564 0
0 0 0 883 343736 -4681 0
0 0 0 852 344588 -3829 0
0 0 0 858 345446 -2971 0
0 0 0 911 346357 -2060 0
20 1 S112 906 347263 -1154 0
20 1 S112 815 348078 -339 0
20 2 S112 865 348943 526 0
20 2 S112 896 349839 1422 0
20 2 S112 852 350691 2274 0
20 2 S112 809 351500 3083 0
20 2 S112 851 352351 3934 0
20 2 S112 872 353223 4806 0
20 2 S112 850 354073 5656 0
20 2 S112 868 354941 6524 0
0 0 0 895 355836 -9225 0
0 0 0 876 356712 -8349 0
0 0 0 854 357566 -7495 0
0 0 0 892 358458 -6603 0
0 0 0 820 359278 -5783 0
0 0 0 841 360119 -4942 0
0 0 0 789 360908 -4153 0
0 0 0 757 361665 -3396 0
0 0 0 796 362461 -2600 0
21 1 S106 820 363281 -1780 0
21 1 S106 742 364023 -1038 0
21 1 S106 805 364828 -233 0
21 2 S106 852 365680 619 0
21 2 S106 811 366491 1430 0
21 2 S106 815 367306 2245 0
21 2 S106 886 368192 3131 0
21 2 S106 889 369081 4020 0
21 2 S106 806 369887 4826 0
21 2 S106 858 370745 5684 0
21 2 S106 897 371642 6581 0
0 0 0 840 372482 -10103 0
0 0 0 887 373369 -9216 0
0 0 0 921 374290 -8295 0
0 0 0 818 375108 -7477 0
0 0 0 816 375924 -6661 0
0 0 0 869 376793 -5792 0
0 0 0 847 377640 -4945 0
0 0 0 812 378452 -4133 0
0 0 0 877 379329 -3256 0
0 0 0 895 380224 -2361 0
22 1 S116 825 381049 -1536 0
22 1 S116 886 381935 -650 0
22 2 S116 912 382847 262 0
22 2 S116 857 383704 1119 0
22 2 S116 911 384615 2030 0
22 2 S116 915 385530 2945 0
22 2 S116 854 386384 3799 0
22 2 S116 884 387268 4683 0
22 2 S116 912 388180 5595 0
22 2 S116 886 389066 6481 0
0 0 0 875 389941 -10747 0
0 0 0 886 390827 -9861 0
0 0 0 869 391696 -8992 0
0 0 0 876 392572 -8116 0
0 0 0 929 393501 -7187 0
0 0 0 870 394371 -6317 0
0 0 0 797 395168 -5520 0
0 0 0 851 396019 -4669 0
0 0 0 829 396848 -3840 0
0 0 0 751 397599 -3089 0
0 0 0 830 398429 -2259 0
23 1 S112 880 399309 -1379 0
23 1 S112 842 400151 -537 0
23 2 S112 868 401019 331 0
23 2 S112 912 401931 1243 0
23 2 S112 889 402820 2132 0
23 2 S112 848 403668 2980 0
23 2 S112 876 404544 3856 0
23 2 S112 864 405408 4720 0
23 2 S112 810 406218 5530 0
23 2 S112 872 407090 6402 0
0 0 0 917 408007 -9475 0
0 0 0 860 408867 -8615 0
0 0 0 924 409791 -7691 0
0 0 0 957 410748 -6734 0
0 0 0 826 411574 -5908 0
0 0 0 869 412443 -5039 0
0 0 0 923 413366 -4116 0
0 0 0 854 414220 -3262 0
0 0 0 915 415135 -2347 0
24 1 S106 947 416082 -1400 0
24 1 S106 871 416953 -529 0
24 2 S106 896 417849 367 0
24 2 S106 963 418812 1330 0
24 2 S106 904 419716 2234 0
24 2 S106 864 420580 3098 0
24 2 S106 950 421530 4048 0
24 2 S106 907 422437 4955 0
24 2 S106 825 423262 5780 0
24 2 S106 872 424134 6652 0
0 0 0 897 425031 -8532 0
0 0 0 853 425884 -7679 0
0 0 0 891 426775 -6788 0
0 0 0 855 427630 -5933 0
0 0 0 788 428418 -5145 0
0 0 0 879 429297 -4266 0
0 0 0 869 430166 -3397 0
0 0 0 783 430949 -2614 0
25 1 S102 882 431831 -1732 0
25 1 S102 931 432762 -801 0
25 2 S102 867 433629 66 0
25 2 S102 894 434523 960 0
25 2 S102 937 435460 1897 0
25 2 S102 866 436326 2763 0
25 2 S102 790 437116 3553 0
25 2 S102 855 437971 4408 0
25 2 S102 853 438824 5261 0
25 2 S102 786 439610 6047 0
25 2 S102 828 440438 6875 0
0 0 0 899 441337 -6185 0
0 0 0 946 442283 -5239 0
0 0 0 870 443153 -4369 0
0 0 0 871 444024 -3498 0
0 0 0 818 444842 -2680 0
26 1 S116 823 445665 -1857 0
26 1 S116 877 446542 -980 0
26 1 S116 889 447431 -91 0
26 2 S116 843 448274 752 0
26 2 S116 918 449192 1670 0
26 2 S116 925 450117 2595 0
26 2 S116 832 450949 3427 0
26 2 S116 853 451802 4280 0
26 2 S116 878 452680 5158 0
26 2 S116 836 453516 5994 0
26 2 S116 886 454402 6880 0
0 0 0 908 455310 -7298 0
0 0 0 850 456160 -6448 0
0 0 0 803 456963 -5645 0
0 0 0 885 457848 -4760 0
0 0 0 904 458752 -3856 0
0 0 0 841 459593 -3015 0
0 0 0 889 460482 -2126 0
27 1 S106 904 461386 -1222 0
27 1 S106 855 462241 -367 0
27 2 S106 920 463161 553 0
27 2 S106 943 464104 1496 0
27 2 S106 887 464991 2383 0
27 2 S106 847 465838 3230 0
27 2 S106 886 466724 4116 0
27 2 S106 905 467629 5021 0
27 2 S106 863 468492 5884 0
27 2 S106 887 469379 6771 0
0 0 0 906 470285 -6962 0
0 0 0 856 471141 -6106 0
0 0 0 878 472019 -5228 0
0 0 0 907 472926 -4321 0
0 0 0 824 473750 -3497 0
0 0 0 812 474562 -2685 0
28 1 S102 826 475388 -1859 0
28 1 S102 796 476184 -1063 0
28 1 S102 762 476946 -301 0
28 2 S102 792 477738 491 0
28 2 S102 817 478555 1308 0
28 2 S102 797 479352 2105 0
28 2 S102 819 480171 2924 0
28 2 S102 856 481027 3780 0
28 2 S102 819 481846 4599 0
28 2 S102 804 482650 5403 0
28 2 S102 823 483473 6226 0
0 0 0 810 484283 -11118 0
0 0 0 806 485089 -10312 0
0 0 0 847 485936 -9465 0
0 0 0 839 486775 -8626 0
0 0 0 793 487568 -7833 0
0 0 0 840 488408 -6993 0
0 0 0 809 489217 -6184 0
0 0 0 808 490025 -5376 0
0 0 0 871 490896 -4505 0
0 0 0 897 491793 -3608 0
0 0 0 819 492612 -2789 0
29 1 S112 891 493503 -1898 0
29 1 S112 910 494413 -988 0
29 1 S112 864 495277 -124 0
29 2 S112 812 496089 688 0
29 2 S112 870 496959 1558 0
29 2 S112 865 497824 2423 0
29 2 S112 804 498628 3227 0
29 2 S112 846 499474 4073 0
29 2 S112 884 500358 4957 0
29 2 S112 844 501202 5801 0
29 2 S112 879 502081 6680 0
0 0 0 939 503020 -8113 0
0 0 0 842 503862 -7271 0
0 0 0 855 504717 -6416 0
0 0 0 874 505591 -5542 0
0 0 0 867 506458 -4675 0
0 0 0 788 507246 -3887 0
0 0 0 834 508080 -3053 0
0 0 0 795 508875 -2258 0
30 1 S112 773 509648 -1485 0
30 1 S112 801 510449 -684 0
30 2 S112 874 511323 190 0
30 2 S112 878 512201 1068 0
30 2 S112 768 512969 1836 0
30 2 S112 756 513725 2592 0
30 2 S112 792 514517 3384 0
30 2 S112 847 515364 4231 0
30 2 S112 882 516246 5113 0
30 2 S112 815 517061 5928 0
30 2 S112 835 517896 6763 0
0 0 0 884 518780 -8600 0
0 0 0 884 519664 -7716 0
0 0 0 848 520512 -6868 0
0 0 0 875 521387 -5993 0
0 0 0 821 522208 -5172 0
0 0 0 747 522955 -4425 0
0 0 0 749 523704 -3676 0
0 0 0 762 524466 -2914 0
0 0 0 866 525332 -2048 0
31 1 S106 931 526263 -1117 0
31 1 S106 924 527187 -193 0
31 2 S106 918 528105 725 0
31 2 S106 936 529041 1661 0
31 2 S106 886 529927 2547 0
31 2 S106 919 530846 3466 0
31 2 S106 900 531746 4366 0
31 2 S106 892 532638 5258 0
31 2 S106 841 533479 6099 0
31 2 S106 875 534354 6974 0
0 0 0 891 535245 -8913 0
0 0 0 860 536105 -8053 0
0 0 0 790 536895 -7263 0
0 0 0 843 537738 -6420 0
0 0 0 847 538585 -5573 0
0 0 0 807 539392 -4766 0
0 0 0 839 540231 -3927 0
0 0 0 881 541112 -3046 0
0 0 0 849 541961 -2197 0
32 1 S102 880 542841 -1317 0
32 1 S102 912 543753 -405 0
32 2 S102 925 544678 520 0
32 2 S102 877 545555 1397 0
32 2 S102 888 546443 2285 0
32 2 S102 902 547345 3187 0
32 2 S102 857 548202 4044 0
32 2 S102 863 549065 4907 0
32 2 S102 871 549936 5778 0
32 2 S102 864 550800 6642 0
0 0 0 823 551623 -12661 0
0 0 0 855 552478 -11806 0
0 0 0 857 553335 -10949 0
0 0 0 825 554160 -10124 0
0 0 0 887 555047 -9237 0
0 0 0 855 555902 -8382 0
0 0 0 813 556715 -7569 0
0 0 0 896 557611 -6673 0
0 0 0 879 558490 -5794 0
0 0 0 837 559327 -4957 0
0 0 0 890 560217 -4067 0
0 0 0 813 561030 -3254 0
0 0 0 878 561908 -2376 0
33 1 S112 914 562822 -1462 0
33 1 S112 820 563642 -642 0
33 2 S112 879 564521 237 0
33 2 S112 920 565441 1157 0
33 2 S112 846 566287 2003 0
33 2 S112 781 567068 2784 0
33 2 S112 771 567839 3555 0
33 2 S112 807 568646 4362 0
33 2 S112 864 569510 5226 0
33 2 S112 833 570343 6059 0
33 2 S112 820 571163 6879 0
0 0 0 918 572081 -10041 0
0 0 0 896 572977 -9145 0
0 0 0 837 573814 -8308 0
0 0 0 872 574686 -7436 0
0 0 0 859 575545 -6577 0
0 0 0 833 576378 -5744 0
0 0 0 864 577242 -4880 0
0 0 0 868 578110 -4012 0
0 0 0 811 578921 -3201 0
0 0 0 874 579795 -2327 0
34 1 S106 900 580695 -1427 0
34 1 S106 840 581535 -587 0
34 2 S106 849 582384 262 0
34 2 S106 898 583282 1160 0
34 2 S106 886 584168 2046 0
34 2 S106 833 585001 2879 0
34 2 S106 863 585864 3742 0
34 2 S106 859 586723 4601 0
34 2 S106 798 587521 5399 0
34 2 S106 839 588360 6238 0
0 0 0 873 589233 -9202 0
0 0 0 827 590060 -8375 0
0 0 0 865 590925 -7510 0
0 0 0 887 591812 -6623 0
0 0 0 799 592611 -5824 0
0 0 0 822 593433 -5002 0
0 0 0 822 594255 -4180 0
0 0 0 770 595025 -3410 0
0 0 0 784 595809 -2626 0
35 1 S102 811 596620 -1815 0
35 1 S102 838 597458 -977 0
35 1 S102 776 598234 -201 0
35 2 S102 788 599022 587 0
35 2 S102 831 599853 1418 0
35 2 S102 850 600703 2268 0
35 2 S102 790 601493 3058 0
35 2 S102 820 602313 3878 0
35 2 S102 831 603144 4709 0
35 2 S102 788 603932 5497 0
35 2 S102 812 604744 6309 0
0 0 0 855 605599 -6729 0
0 0 0 821 606420 -5908 0
0 0 0 875 607295 -5033 0
0 0 0 859 608154 -4174 0
0 0 0 789 608943 -3385 0
0 0 0 870 609813 -2515 0
36 1 S106 899 610712 -1616 0
36 1 S106 832 611544 -784 0
36 2 S106 883 612427 99 0
36 2 S106 892 613319 991 0
36 2 S106 828 614147 1819 0
36 2 S106 852 614999 2671 0
36 2 S106 857 615856 3528 0
36 2 S106 801 616657 4329 0
36 2 S106 850 617507 5179 0
36 2 S106 869 618376 6048 0
36 2 S106 817 619193 6865 0
0 0 0 867 620060 -8664 0
0 0 0 875 620935 -7789 0
0 0 0 844 621779 -6945 0
0 0 0 869 622648 -6076 0
0 0 0 839 623487 -5237 0
0 0 0 810 624297 -4427 0
0 0 0 855 625152 -3572 0
0 0 0 832 625984 -2740 0
37 1 S116 832 626816 -1908 0
37 1 S116 890 627706 -1018 0
37 1 S116 886 628592 -132 0
37 2 S116 807 629399 675 0
37 2 S116 865 630264 1540 0
37 2 S116 884 631148 2424 0
37 2 S116 817 631965 3241 0
37 2 S116 850 632815 4091 0
37 2 S116 852 633667 4943 0
37 2 S116 808 634475 5751 0
37 2 S116 842 635317 6593 0
0 0 0 886 636203 -10442 0
0 0 0 852 637055 -9590 0
0 0 0 892 637947 -8698 0
0 0 0 864 638811 -7834 0
0 0 0 787 639598 -7047 0
0 0 0 835 640433 -6212 0
0 0 0 873 641306 -5339 0
0 0 0 807 642113 -4532 0
0 0 0 880 642993 -3652 0
0 0 0 884 643877 -2768 0
38 1 S102 816 644693 -1952 0
38 1 S102 860 645553 -1092 0
38 1 S102 863 646416 -229 0
38 2 S102 809 647225 580 0
38 2 S102 842 648067 1422 0
38 2 S102 856 648923 2278 0
38 2 S102 842 649765 3120 0
38 2 S102 842 650607 3962 0
38 2 S102 892 651499 4854 0
38 2 S102 871 652370 5725 0
38 2 S102 821 653191 6546 0
0 0 0 872 654063 -8531 0
0 0 0 863 654926 -7668 0
0 0 0 810 655736 -6858 0
0 0 0 854 656590 -6004 0
0 0 0 813 657403 -5191 0
0 0 0 777 658180 -4414 0
0 0 0 756 658936 -3658 0
0 0 0 823 659759 -2835 0
39 1 S116 859 660618 -1976 0
39 1 S116 805 661423 -1171 0
39 1 S116 870 662293 -301 0
39 2 S116 908 663201 607 0
39 2 S116 845 664046 1452 0
39 2 S116 889 664935 2341 0
39 2 S116 931 665866 3272 0
39 2 S116 863 666729 4135 0
39 2 S116 872 667601 5007 0
39 2 S116 892 668493 5899 0
39 2 S116 841 669334 6740 0
0 0 0 862 670196 -7020 0
0 0 0 900 671096 -6120 0
0 0 0 842 671938 -5278 0
0 0 0 874 672812 -4404 0
0 0 0 872 673684 -3532 0
0 0 0 806 674490 -2726 0
40 1 S112 860 675350 -1866 0
40 1 S112 910 676260 -956 0
40 1 S112 818 677078 -138 0
40 2 S112 874 677952 736 0
40 2 S112 910 678862 1646 0
40 2 S112 822 679684 2468 0
40 2 S112 836 680520 3304 0
40 2 S112 839 681359 4143 0
40 2 S112 837 682196 4980 0
40 2 S112 823 683019 5803 0
40 2 S112 894 683913 6697 0
0 0 0 931 684844 -186604 0
0 0 0 831 685675 -185773 0
0 0 0 891 686566 -184882 0
0 0 0 951 687517 -183931 0
0 0 0 861 688378 -183070 0
0 0 0 783 689161 -182287 0
0 0 0 765 689926 -181522 0
0 0 0 755 690681 -180767 0
0 0 0 885 691566 -179882 0
0 0 0 935 692501 -178947 0
0 0 0 934 693435 -178013 0
0 0 0 932 694367 -177081 0
0 0 0 851 695218 -176230 0
0 0 0 783 696001 -175447 0
0 0 0 810 696811 -174637 0
0 0 0 844 697655 -173793 0
0 0 0 838 698493 -172955 0
0 0 0 851 699344 -172104 0
0 0 0 865 700209 -171239 0
0 0 0 889 701098 -170350 0
0 0 0 887 701985 -169463 0
0 0 0 891 702876 -168572 0
0 0 0 886 703762 -167686 0
0 0 0 819 704581 -166867 0
0 0 0 821 705402 -166046 0
0 0 0 827 706229 -165219 0
0 0 0 806 707035 -164413 0
0 0 0 801 707836 -163612 0
0 0 0 814 708650 -162798 0
0 0 0 839 709489 -161959 0
0 0 0 855 710344 -161104 0
0 0 0 840 711184 -160264 0
0 0 0 847 712031 -159417 0
0 0 0 808 712839 -158609 0
0 0 0 822 713661 -157787 0
0 0 0 795 714456 -156992 0
0 0 0 771 715227 -156221 0
0 0 0 722 715949 -155499 1
0 0 0 739 716688 -154760 0
0 0 0 800 717488 -153960 0
0 0 0 745 718233 -153215 0
0 0 0 794 719027 -152421 0
0 0 0 814 719841 -151607 0
0 0 0 797 720638 -150810 0
0 0 0 835 721473 -149975 0
0 0 0 826 722299 -149149 0
0 0 0 798 723097 -148351 0
0 0 0 795 723892 -147556 0
0 0 0 781 724673 -146775 0
0 0 0 750 725423 -146025 0
0 0 0 733 726156 -145292 0
0 0 0 774 726930 -144518 0
0 0 0 760 727690 -143758 0
0 0 0 727 728417 -143031 1
0 0 0 724 729141 -142307 1
0 0 0 739 729880 -141568 0
0 0 0 791 730671 -140777 0
0 0 0 832 731503 -139945 0
0 0 0 845 732348 -139100 0
0 0 0 850 733198 -138250 0
0 0 0 837 734035 -137413 0
0 0 0 830 734865 -136583 0
0 0 0 822 735687 -135761 0
0 0 0 819 736506 -134942 0
0 0 0 796 737302 -134146 0
0 0 0 742 738044 -133404 0
0 0 0 763 738807 -132641 0
0 0 0 801 739608 -131840 0
0 0 0 865 740473 -130975 0
0 0 0 810 741283 -130165 0
0 0 0 845 742128 -129320 0
0 0 0 868 742996 -128452 0
0 0 0 888 743884 -127564 0
0 0 0 839 744723 -126725 0
0 0 0 882 745605 -125843 0
0 0 0 904 746509 -124939 0
0 0 0 851 747360 -124088 0
0 0 0 797 748157 -123291 0
0 0 0 829 748986 -122462 0
0 0 0 837 749823 -121625 0
0 0 0 789 750612 -120836 0
0 0 0 807 751419 -120029 0
0 0 0 848 752267 -119181 0
0 0 0 902 753169 -118279 0
0 0 0 856 754025 -117423 0
0 0 0 883 754908 -116540 0
0 0 0 911 755819 -115629 0
0 0 0 895 756714 -114734 0
0 0 0 864 757578 -113870 0
0 0 0 901 758479 -112969 0
0 0 0 876 759355 -112093 0
0 0 0 805 760160 -111288 0
0 0 0 839 760999 -110449 0
0 0 0 871 761870 -109578 0
0 0 0 836 762706 -108742 0
0 0 0 888 763594 -107854 0
0 0 0 887 764481 -106967 0
0 0 0 839 765320 -106128 0
0 0 0 893 766213 -105235 0
0 0 0 885 767098 -104350 0
0 0 0 823 767921 -103527 0
0 0 0 878 768799 -102649 0
0 0 0 927 769726 -101722 0
0 0 0 898 770624 -100824 0
0 0 0 915 771539 -99909 0
0 0 0 917 772456 -98992 0
0 0 0 850 773306 -98142 0
0 0 0 904 774210 -97238 0
0 0 0 875 775085 -96363 0
0 0 0 778 775863 -95585 0
0 0 0 824 776687 -94761 0
0 0 0 869 777556 -93892 0
0 0 0 854 778410 -93038 0
0 0 0 774 779184 -92264 0
0 0 0 838 780022 -91426 0
0 0 0 880 780902 -90546 0
0 0 0 855 781757 -89691 0
0 0 0 778 782535 -88913 0
0 0 0 835 783370 -88078 0
0 0 0 774 784144 -87304 0
0 0 0 734 784878 -86570 0
0 0 0 753 785631 -85817 0
0 0 0 730 786361 -85087 0
0 0 0 711 787072 -84376 1
0 0 0 699 787771 -83677 1
0 0 0 692 788463 -82985 1
0 0 0 701 789164 -82284 1
0 0 0 728 789892 -81556 0
0 0 0 742 790634 -80814 0
0 0 0 714 791348 -80100 1
0 0 0 738 792086 -79362 0
0 0 0 753 792839 -78609 0
0 0 0 764 793603 -77845 0
0 0 0 719 794322 -77126 1
0 0 0 770 795092 -76356 0
0 0 0 792 795884 -75564 0
0 0 0 826 796710 -74738 0
0 0 0 802 797512 -73936 0
0 0 0 818 798330 -73118 0
0 0 0 844 799174 -72274 0
0 0 0 839 800013 -71435 0
0 0 0 778 800791 -70657 0
0 0 0 812 801603 -69845 0
0 0 0 848 802451 -68997 0
0 0 0 874 803325 -68123 0
0 0 0 796 804121 -67327 0
0 0 0 857 804978 -66470 0
0 0 0 871 805849 -65599 0
0 0 0 832 806681 -64767 0
0 0 0 774 807455 -63993 0
0 0 0 795 808250 -63198 0
0 0 0 782 809032 -62416 0
0 0 0 725 809757 -61691 1
0 0 0 761 810518 -60930 0
0 0 0 783 811301 -60147 0
0 0 0 735 812036 -59412 0
0 0 0 755 812791 -58657 0
0 0 0 787 813578 -57870 0
0 0 0 763 814341 -57107 0
0 0 0 777 815118 -56330 0
0 0 0 787 815905 -55543 0
0 0 0 779 816684 -54764 0
0 0 0 728 817412 -54036 0
0 0 0 756 818168 -53280 0
0 0 0 764 818932 -52516 0
0 0 0 784 819716 -51732 0
0 0 0 806 820522 -50926 0
0 0 0 862 821384 -50064 0
0 0 0 862 822246 -49202 0
0 0 0 828 823074 -48374 0
0 0 0 891 823965 -47483 0
0 0 0 918 824883 -46565 0
0 0 0 842 825725 -45723 0
0 0 0 850 826575 -44873 0
0 0 0 836 827411 -44037 0
0 0 0 786 828197 -43251 0
0 0 0 754 828951 -42497 0
0 0 0 745 829696 -41752 0
0 0 0 777 830473 -40975 0
0 0 0 777 831250 -40198 0
0 0 0 766 832016 -39432 0
0 0 0 842 832858 -38590 0
0 0 0 853 833711 -37737 0
0 0 0 785 834496 -36952 0
0 0 0 840 835336 -36112 0
0 0 0 855 836191 -35257 0
0 0 0 836 837027 -34421 0
0 0 0 882 837909 -33539 0
0 0 0 907 838816 -32632 0
0 0 0 847 839663 -31785 0
0 0 0 868 840531 -30917 0
0 0 0 844 841375 -30073 0
0 0 0 809 842184 -29264 0
0 0 0 842 843026 -28422 0
0 0 0 841 843867 -27581 0
0 0 0 773 844640 -26808 0
0 0 0 790 845430 -26018 0
0 0 0 759 846189 -25259 0
0 0 0 737 846926 -24522 0
0 0 0 782 847708 -23740 0
0 0 0 803 848511 -22937 0
0 0 0 771 849282 -22166 0
0 0 0 827 850109 -21339 0
0 0 0 892 851001 -20447 0
0 0 0 861 851862 -19586 0
0 0 0 810 852672 -18776 0
0 0 0 870 853542 -17906 0
0 0 0 911 854453 -16995 0
0 0 0 858 855311 -16137 0
0 0 0 843 856154 -15294 0
0 0 0 863 857017 -14431 0
0 0 0 797 857814 -13634 0
0 0 0 841 858655 -12793 0
0 0 0 878 859533 -11915 0
0 0 0 836 860369 -11079 0
0 0 0 834 861203 -10245 0
0 0 0 883 862086 -9362 0
0 0 0 938 863024 -8424 0
0 0 0 843 863867 -7581 0
0 0 0 878 864745 -6703 0
0 0 0 934 865679 -5769 0
0 0 0 893 866572 -4876 0
0 0 0 831 867403 -4045 0
0 0 0 903 868306 -3142 0
0 0 0 971 869277 -2171 0
41 1 S102 991 870268 -1180 1
41 1 S102 833 871101 -347 0
41 2 S102 869 871970 522 0
41 2 S102 898 872868 1420 0
41 2 S102 774 873642 2194 0
41 2 S102 811 874453 3005 0
41 2 S102 870 875323 3875 0
41 2 S102 813 876136 4688 0
41 2 S102 797 876933 5485 0
41 2 S102 869 877802 6354 0
0 0 0 836 878638 -6819 0
0 0 0 795 879433 -6024 0
0 0 0 872 880305 -5152 0
0 0 0 851 881156 -4301 0
0 0 0 757 881913 -3544 0
0 0 0 800 882713 -2744 0
42 1 S112 859 883572 -1885 0
42 1 S112 772 884344 -1113 0
42 1 S112 830 885174 -283 0
42 2 S112 873 886047 590 0
42 2 S112 803 886850 1393 0
42 2 S112 846 887696 2239 0
42 2 S112 851 888547 3090 0
42 2 S112 855 889402 3945 0
42 2 S112 770 890172 4715 0
42 2 S112 772 890944 5487 0
42 2 S112 820 891764 6307 0
0 0 0 771 892535 -8688 0
0 0 0 825 893360 -7863 0
0 0 0 846 894206 -7017 0
0 0 0 856 895062 -6161 0
0 0 0 869 895931 -5292 0
0 0 0 782 896713 -4510 0
0 0 0 843 897556 -3667 0
0 0 0 889 898445 -2778 0
43 1 S116 875 899320 -1903 0
43 1 S116 827 900147 -1076 0
43 1 S116 881 901028 -195 0
43 2 S116 915 901943 720 0
43 2 S116 854 902797 1574 0
43 2 S116 886 903683 2460 0
43 2 S116 925 904608 3385 0
43 2 S116 905 905513 4290 0
43 2 S116 855 906368 5145 0
43 2 S116 889 907257 6034 0
43 2 S116 910 908167 6944 0
0 0 0 826 908993 -7167 0
0 0 0 887 909880 -6280 0
0 0 0 880 910760 -5400 0
0 0 0 814 911574 -4586 0
0 0 0 853 912427 -3733 0
0 0 0 855 913282 -2878 0
0 0 0 784 914066 -2094 0
44 1 S102 851 914917 -1243 0
44 1 S102 847 915764 -396 0
44 2 S102 771 916535 375 0
44 2 S102 870 917405 1245 0
44 2 S102 912 918317 2157 0
44 2 S102 882 919199 3039 0
44 2 S102 836 920035 3875 0
44 2 S102 878 920913 4753 0
44 2 S102 898 921811 5651 0
44 2 S102 814 922625 6465 0
0 0 0 885 923510 -8118 0
0 0 0 952 924462 -7166 0
0 0 0 848 925310 -6318 0
0 0 0 848 926158 -5470 0
0 0 0 837 926995 -4633 0
0 0 0 783 927778 -3850 0
0 0 0 850 928628 -3000 0
0 0 0 902 929530 -2098 0
45 1 S116 879 930409 -1219 0
45 1 S116 918 931327 -301 0
45 2 S116 930 932257 629 0
45 2 S116 836 933093 1465 0
45 2 S116 864 933957 2329 0
45 2 S116 868 934825 3197 0
45 2 S116 815 935640 4012 0
45 2 S116 837 936477 4849 0
45 2 S116 861 937338 5710 0
45 2 S116 839 938177 6549 0
0 0 0 824 939001 -11808 0
0 0 0 896 939897 -10912 0
0 0 0 841 940738 -10071 0
0 0 0 821 941559 -9250 0
0 0 0 882 942441 -8368 0
0 0 0 810 943251 -7558 0
0 0 0 792 944043 -6766 0
0 0 0 832 944875 -5934 0
0 0 0 764 945639 -5170 0
0 0 0 827 946466 -4343 0
0 0 0 867 947333 -3476 0
0 0 0 786 948119 -2690 0
46 1 S102 803 948922 -1887 0
46 1 S102 864 949786 -1023 0
46 1 S102 814 950600 -209 0
46 2 S102 802 951402 593 0
46 2 S102 876 952278 1469 0
46 2 S102 862 953140 2331 0
46 2 S102 786 953926 3117 0
46 2 S102 841 954767 3958 0
46 2 S102 850 955617 4808 0
46 2 S102 796 956413 5604 0
46 2 S102 858 957271 6462 0
0 0 0 896 958167 -9369 0
0 0 0 848 959015 -8521 0
0 0 0 857 959872 -7664 0
0 0 0 903 960775 -6761 0
0 0 0 820 961595 -5941 0
0 0 0 767 962362 -5174 0
0 0 0 796 963158 -4378 0
0 0 0 791 963949 -3587 0
0 0 0 744 964693 -2843 0
0 0 0 782 965475 -2061 0
47 1 S112 826 966301 -1235 0
47 1 S112 801 967102 -434 0
47 2 S112 834 967936 400 0
47 2 S112 864 968800 1264 0
47 2 S112 841 969641 2105 0
47 2 S112 842 970483 2947 0
47 2 S112 873 971356 3820 0
47 2 S112 849 972205 4669 0
47 2 S112 829 973034 5498 0
47 2 S112 840 973874 6338 0
0 0 0 790 974664 -12485 0
0 0 0 775 975439 -11710 0
0 0 0 839 976278 -10871 0
0 0 0 870 977148 -10001 0
0 0 0 845 977993 -9156 0
0 0 0 864 978857 -8292 0
0 0 0 811 979668 -7481 0
0 0 0 810 980478 -6671 0
0 0 0 840 981318 -5831 0
0 0 0 833 982151 -4998 0
0 0 0 794 982945 -4204 0
0 0 0 831 983776 -3373 0
0 0 0 848 984624 -2525 0
48 1 S116 807 985431 -1718 0
48 1 S116 850 986281 -868 0
48 2 S116 883 987164 15 0
48 2 S116 826 987990 841 0
48 2 S116 890 988880 1731 0
48 2 S116 906 989786 2637 0
48 2 S116 825 990611 3462 0
48 2 S116 857 991468 4319 0
48 2 S116 904 992372 5223 0
48 2 S116 817 993189 6040 0
48 2 S116 815 994004 6855 0
0 0 0 844 994848 -8299 0
0 0 0 849 995697 -7450 0
0 0 0 736 996433 -6714 0
0 0 0 721 997154 -5993 1
0 0 0 758 997912 -5235 0
0 0 0 810 998722 -4425 0
0 0 0 904 999626 -3521 0
0 0 0 946 1000572 -2575 0
49 1 S112 929 1001501 -1646 0
49 1 S112 889 1002390 -757 0
49 2 S112 943 1003333 186 0
49 2 S112 956 1004289 1142 0
49 2 S112 920 1005209 2062 0
49 2 S112 918 1006127 2980 0
49 2 S112 929 1007056 3909 0
49 2 S112 971 1008027 4880 0
49 2 S112 884 1008911 5764 0
49 2 S112 889 1009800 6653 0
0 0 0 912 1010712 -12064 0
0 0 0 865 1011577 -11199 0
0 0 0 887 1012464 -10312 0
0 0 0 924 1013388 -9388 0
0 0 0 893 1014281 -8495 0
0 0 0 830 1015111 -7665 0
0 0 0 851 1015962 -6814 0
0 0 0 872 1016834 -5942 0
0 0 0 785 1017619 -5157 0
0 0 0 854 1018473 -4303 0
0 0 0 899 1019372 -3404 0
0 0 0 797 1020169 -2607 0
50 1 S106 880 1021049 -1727 0
50 1 S106 965 1022014 -762 0
50 2 S106 917 1022931 155 0
50 2 S106 831 1023762 986 0
50 2 S106 889 1024651 1875 0
50 2 S106 843 1025494 2718 0
50 2 S106 808 1026302 3526 0
50 2 S106 866 1027168 4392 0
50 2 S106 889 1028057 5281 0
50 2 S106 803 1028860 6084 0
50 2 S106 855 1029715 6939 0
0 0 0 889 1030604 -7722 0
0 0 0 800 1031404 -6922 0
0 0 0 863 1032267 -6059 0
0 0 0 912 1033179 -5147 0
0 0 0 797 1033976 -4350 0
0 0 0 806 1034782 -3544 0
0 0 0 790 1035572 -2754 0
0 0 0 745 1036317 -2009 0
51 1 S112 793 1037110 -1216 0
51 1 S112 817 1037927 -399 0
51 2 S112 779 1038706 380 0
51 2 S112 824 1039530 1204 0
51 2 S112 892 1040422 2096 0
51 2 S112 834 1041256 2930 0
51 2 S112 867 1042123 3797 0
51 2 S112 914 1043037 4711 0
51 2 S112 866 1043903 5577 0
51 2 S112 819 1044722 6396 0
0 0 0 853 1045575 -8534 0
0 0 0 852 1046427 -7682 0
0 0 0 773 1047200 -6909 0
0 0 0 833 1048033 -6076 0
0 0 0 891 1048924 -5185 0
0 0 0 823 1049747 -4362 0
0 0 0 754 1050501 -3608 0
0 0 0 803 1051304 -2805 0
0 0 0 804 1052108 -2001 0
52 1 S116 733 1052841 -1268 0
52 1 S116 746 1053587 -522 0
52 2 S116 744 1054331 222 0
52 2 S116 728 1055059 950 0
52 2 S116 834 1055893 1784 0
52 2 S116 803 1056696 2587 0
52 2 S116 814 1057510 3401 0
52 2 S116 854 1058364 4255 0
52 2 S116 897 1059261 5152 0
52 2 S116 832 1060093 5984 0
52 2 S116 867 1060960 6851 0
0 0 0 901 1061861 -10069 0
0 0 0 852 1062713 -9217 0
0 0 0 773 1063486 -8444 0
0 0 0 816 1064302 -7628 0
0 0 0 899 1065201 -6729 0
0 0 0 855 1066056 -5874 0
0 0 0 785 1066841 -5089 0
0 0 0 870 1067711 -4219 0
0 0 0 886 1068597 -3333 0
0 0 0 808 1069405 -2525 0
53 1 S106 886 1070291 -1639 0
53 1 S106 932 1071223 -707 0
53 2 S106 876 1072099 169 0
53 2 S106 852 1072951 1021 0
53 2 S106 908 1073859 1929 0
53 2 S106 841 1074700 2770 0
53 2 S106 795 1075495 3565 0
53 2 S106 830 1076325 4395 0
53 2 S106 860 1077185 5255 0
53 2 S106 822 1078007 6077 0
53 2 S106 867 1078874 6944 0
0 0 0 903 1079777 -7339 0
0 0 0 872 1080649 -6467 0
0 0 0 925 1081574 -5542 0
0 0 0 918 1082492 -4624 0
0 0 0 783 1083275 -3841 0
0 0 0 795 1084070 -3046 0
0 0 0 837 1084907 -2209 0
54 1 S102 817 1085724 -1392 0
54 1 S102 854 1086578 -538 0
54 2 S102 917 1087495 379 0
54 2 S102 840 1088335 1219 0
54 2 S102 884 1089219 2103 0
54 2 S102 945 1090164 3048 0
54 2 S102 887 1091051 3935 0
54 2 S102 857 1091908 4792 0
54 2 S102 891 1092799 5683 0
54 2 S102 870 1093669 6553 0
0 0 0 785 1094454 -11727 0
0 0 0 841 1095295 -10886 0
0 0 0 883 1096178 -10003 0
0 0 0 816 1096994 -9187 0
0 0 0 862 1097856 -8325 0
0 0 0 849 1098705 -7476 0
0 0 0 771 1099476 -6705 0
0 0 0 852 1100328 -5853 0
0 0 0 914 1101242 -4939 0
0 0 0 872 1102114 -4067 0
0 0 0 912 1103026 -3155 0
0 0 0 961 1103987 -2194 0
55 1 S106 920 1104907 -1274 0
55 1 S106 881 1105788 -393 0
55 2 S106 938 1106726 545 0
55 2 S106 963 1107689 1508 0
55 2 S106 885 1108574 2393 0
55 2 S106 805 1109379 3198 0
55 2 S106 860 1110239 4058 0
55 2 S106 870 1111109 4928 0
55 2 S106 856 1111965 5784 0
55 2 S106 790 1112755 6574 0
0 0 0 872 1113627 -7724 0
0 0 0 922 1114549 -6802 0
0 0 0 836 1115385 -5966 0
0 0 0 837 1116222 -5129 0
0 0 0 875 1117097 -4254 0
0 0 0 874 1117971 -3380 0
0 0 0 783 1118754 -2597 0
56 1 S116 842 1119596 -1755 0
56 1 S116 889 1120485 -866 0
56 2 S116 884 1121369 18 0
56 2 S116 854 1122223 872 0
56 2 S116 937 1123160 1809 0
56 2 S116 917 1124077 2726 0
56 2 S116 839 1124916 3565 0
56 2 S116 887 1125803 4452 0
56 2 S116 904 1126707 5356 0
56 2 S116 881 1127588 6237 0
0 0 0 837 1128425 -9521 0
0 0 0 906 1129331 -8615 0
0 0 0 889 1130220 -7726 0
0 0 0 765 1130985 -6961 0
0 0 0 793 1131778 -6168 0
0 0 0 860 1132638 -5308 0
0 0 0 934 1133572 -4374 0
0 0 0 902 1134474 -3472 0
0 0 0 846 1135320 -2626 0
57 1 S106 938 1136258 -1688 0
57 1 S106 943 1137201 -745 0
57 2 S106 869 1138070 124 0
57 2 S106 907 1138977 1031 0
57 2 S106 974 1139951 2005 0
57 2 S106 936 1140887 2941 0
57 2 S106 813 1141700 3754 0
57 2 S106 841 1142541 4595 0
57 2 S106 854 1143395 5449 0
57 2 S106 815 1144210 6264 0
0 0 0 868 1145078 -8020 0
0 0 0 912 1145990 -7108 0
0 0 0 894 1146884 -6214 0
0 0 0 784 1147668 -5430 0
0 0 0 808 1148476 -4622 0
0 0 0 819 1149295 -3803 0
0 0 0 875 1150170 -2928 0
0 0 0 839 1151009 -2089 0
58 1 S102 819 1151828 -1270 0
58 1 S102 890 1152718 -380 0
58 2 S102 884 1153602 504 0
58 2 S102 807 1154409 1311 0
58 2 S102 844 1155253 2155 0
58 2 S102 870 1156123 3025 0
58 2 S102 819 1156942 3844 0
58 2 S102 828 1157770 4672 0
58 2 S102 830 1158600 5502 0
58 2 S102 788 1159388 6290 0
0 0 0 785 1160173 -7398 0
0 0 0 829 1161002 -6569 0
0 0 0 791 1161793 -5778 0
0 0 0 763 1162556 -5015 0
0 0 0 821 1163377 -4194 0
0 0 0 807 1164184 -3387 0
0 0 0 743 1164927 -2644 0
59 1 S112 771 1165698 -1873 0
59 1 S112 841 1166539 -1032 0
59 1 S112 843 1167382 -189 0
59 2 S112 796 1168178 607 0
59 2 S112 839 1169017 1446 0
59 2 S112 894 1169911 2340 0
59 2 S112 857 1170768 3197 0
59 2 S112 789 1171557 3986 0
59 2 S112 853 1172410 4839 0
59 2 S112 877 1173287 5716 0
59 2 S112 840 1174127 6556 0
0 0 0 805 1174932 -9682 0
0 0 0 864 1175796 -8818 0
0 0 0 904 1176700 -7914 0
0 0 0 843 1177543 -7071 0
0 0 0 864 1178407 -6207 0
0 0 0 843 1179250 -5364 0
0 0 0 779 1180029 -4585 0
0 0 0 821 1180850 -3764 0
0 0 0 869 1181719 -2895 0
0 0 0 801 1182520 -2094 0
60 1 S102 757 1183277 -1337 0
60 1 S102 792 1184069 -545 0
60 2 S102 852 1184921 307 0
60 2 S102 889 1185810 1196 0
60 2 S102 858 1186668 2054 0
60 2 S102 876 1187544 2930 0
60 2 S102 871 1188415 3801 0
60 2 S102 863 1189278 4664 0
60 2 S102 855 1190133 5519 0
60 2 S102 898 1191031 6417 0
0 0 0 907 1191938 -11426 0
0 0 0 837 1192775 -10589 0
0 0 0 817 1193592 -9772 0
0 0 0 862 1194454 -8910 0
0 0 0 856 1195310 -8054 0
0 0 0 772 1196082 -7282 0
0 0 0 769 1196851 -6513 0
0 0 0 832 1197683 -5681 0
0 0 0 855 1198538 -4826 0
0 0 0 803 1199341 -4023 0
0 0 0 863 1200204 -3160 0
0 0 0 915 1201119 -2245 0
61 1 S106 898 1202017 -1347 0
61 1 S106 825 1202842 -522 0
61 2 S106 876 1203718 354 0
61 2 S106 909 1204627 1263 0
61 2 S106 871 1205498 2134 0
61 2 S106 840 1206338 2974 0
61 2 S106 890 1207228 3864 0
61 2 S106 900 1208128 4764 0
61 2 S106 820 1208948 5584 0
61 2 S106 864 1209812 6448 0
0 0 0 896 1210708 -6118 0
0 0 0 892 1211600 -5226 0
0 0 0 807 1212407 -4419 0
0 0 0 828 1213235 -3591 0
0 0 0 834 1214069 -2757 0
62 1 S112 781 1214850 -1976 0
62 1 S112 768 1215618 -1208 0
62 1 S112 803 1216421 -405 0
62 2 S112 854 1217275 449 0
62 2 S112 862 1218137 1311 0
62 2 S112 770 1218907 2081 0
62 2 S112 746 1219653 2827 0
62 2 S112 751 1220404 3578 0
62 2 S112 736 1221140 4314 0
62 2 S112 778 1221918 5092 0
62 2 S112 918 1222836 6010 0
62 2 S112 961 1223797 6971 0
0 0 0 1013 1224810 -10036 1
0 0 0 1016 1225826 -9020 1
0 0 0 908 1226734 -8112 0
0 0 0 830 1227564 -7282 0
0 0 0 953 1228517 -6329 0
0 0 0 974 1229491 -5355 0
0 0 0 857 1230348 -4498 0
0 0 0 859 1231207 -3639 0
0 0 0 903 1232110 -2736 0
63 1 S102 923 1233033 -1813 0
63 1 S102 922 1233955 -891 0
63 1 S102 884 1234839 -7 0
63 2 S102 878 1235717 871 0
63 2 S102 892 1236609 1763 0
63 2 S102 926 1237535 2689 0
63 2 S102 875 1238410 3564 0
63 2 S102 866 1239276 4430 0
63 2 S102 902 1240178 5332 0
63 2 S102 887 1241065 6219 0
0 0 0 835 1241900 -9790 0
0 0 0 889 1242789 -8901 0
0 0 0 912 1243701 -7989 0
0 0 0 903 1244604 -7086 0
0 0 0 836 1245440 -6250 0
0 0 0 856 1246296 -5394 0
0 0 0 838 1247134 -4556 0
0 0 0 796 1247930 -3760 0
0 0 0 850 1248780 -2910 0
0 0 0 883 1249663 -2027 0
64 1 S112 859 1250522 -1168 0
64 1 S112 852 1251374 -316 0
64 2 S112 920 1252294 604 0
64 2 S112 917 1253211 1521 0
64 2 S112 841 1254052 2362 0
64 2 S112 873 1254925 3235 0
64 2 S112 910 1255835 4145 0
64 2 S112 901 1256736 5046 0
64 2 S112 826 1257562 5872 0
64 2 S112 836 1258398 6708 0
0 0 0 864 1259262 -7481 0
0 0 0 848 1260110 -6633 0
0 0 0 856 1260966 -5777 0
0 0 0 917 1261883 -4860 0
0 0 0 844 1262727 -4016 0
0 0 0 779 1263506 -3237 0
0 0 0 816 1264322 -2421 0
65 1 S106 845 1265167 -1576 0
65 1 S106 790 1265957 -786 0
65 2 S106 825 1266782 39 0
65 2 S106 833 1267615 872 0
65 2 S106 800 1268415 1672 0
65 2 S106 869 1269284 2541 0
65 2 S106 887 1270171 3428 0
65 2 S106 831 1271002 4259 0
65 2 S106 823 1271825 5082 0
65 2 S106 875 1272700 5957 0
65 2 S106 910 1273610 6867 0
0 0 0 845 1274455 -6065 0
0 0 0 904 1275359 -5161 0
0 0 0 879 1276238 -4282 0
0 0 0 835 1277073 -3447 0
0 0 0 864 1277937 -2583 0
66 1 S116 881 1278818 -1702 0
66 1 S116 857 1279675 -845 0
66 1 S116 840 1280515 -5 0
66 2 S116 858 1281373 853 0
66 2 S116 838 1282211 1691 0
66 2 S116 777 1282988 2468 0
66 2 S116 814 1283802 3282 0
66 2 S116 885 1284687 4167 0
66 2 S116 925 1285612 5092 0
66 2 S116 858 1286470 5950 0
66 2 S116 886 1287356 6836 0
0 0 0 920 1288276 -12403 0
0 0 0 899 1289175 -11504 0
0 0 0 819 1289994 -10685 0
0 0 0 871 1290865 -9814 0
0 0 0 928 1291793 -8886 0
0 0 0 839 1292632 -8047 0
0 0 0 846 1293478 -7201 0
0 0 0 878 1294356 -6323 0
0 0 0 830 1295186 -5493 0
0 0 0 847 1296033 -4646 0
0 0 0 907 1296940 -3739 0
0 0 0 932 1297872 -2807 0
67 1 S102 822 1298694 -1985 0
67 1 S102 912 1299606 -1073 0
67 1 S102 972 1300578 -101 0
67 2 S102 951 1301529 850 0
67 2 S102 913 1302442 1763 0
67 2 S102 909 1303351 2672 0
67 2 S102 891 1304242 3563 0
67 2 S102 816 1305058 4379 0
67 2 S102 849 1305907 5228 0
67 2 S102 868 1306775 6096 0
67 2 S102 831 1307606 6927 0
0 0 0 869 1308475 -6644 0
0 0 0 890 1309365 -5754 0
0 0 0 840 1310205 -4914 0
0 0 0 879 1311084 -4035 0
0 0 0 845 1311929 -3190 0
0 0 0 800 1312729 -2390 0
68 1 S106 829 1313558 -1561 0
68 1 S106 798 1314356 -763 0
68 2 S106 778 1315134 15 0
68 2 S106 774 1315908 789 0
68 2 S106 834 1316742 1623 0
68 2 S106 897 1317639 2520 0
68 2 S106 885 1318524 3405 0
68 2 S106 805 1319329 4210 0
68 2 S106 874 1320203 5084 0
68 2 S106 903 1321106 5987 0
68 2 S106 837 1321943 6824 0
0 0 0 810 1322753 -12890 0
0 0 0 878 1323631 -12012 0
0 0 0 854 1324485 -11158 0
0 0 0 820 1325305 -10338 0
0 0 0 876 1326181 -9462 0
0 0 0 923 1327104 -8539 0
0 0 0 845 1327949 -7694 0
0 0 0 849 1328798 -6845 0
0 0 0 903 1329701 -5942 0
0 0 0 882 1330583 -5060 0
0 0 0 853 1331436 -4207 0
0 0 0 892 1332328 -3315 0
0 0 0 916 1333244 -2399 0
69 1 S102 852 1334096 -1547 0
69 1 S102 896 1334992 -651 0
69 2 S102 921 1335913 270 0
69 2 S102 883 1336796 1153 0
69 2 S102 827 1337623 1980 0
69 2 S102 823 1338446 2803 0
69 2 S102 815 1339261 3618 0
69 2 S102 754 1340015 4372 0
69 2 S102 798 1340813 5170 0
69 2 S102 858 1341671 6028 0
69 2 S102 810 1342481 6838 0
0 0 0 829 1343310 -8580 0
0 0 0 867 1344177 -7713 0
0 0 0 844 1345021 -6869 0
0 0 0 829 1345850 -6040 0
0 0 0 830 1346680 -5210 0
0 0 0 771 1347451 -4439 0
0 0 0 812 1348263 -3627 0
0 0 0 864 1349127 -2763 0
70 1 S112 879 1350006 -1884 0
70 1 S112 823 1350829 -1061 0
70 1 S112 866 1351695 -195 0
70 2 S112 872 1352567 677 0
70 2 S112 796 1353363 1473 0
70 2 S112 779 1354142 2252 0
70 2 S112 826 1354968 3078 0
70 2 S112 889 1355857 3967 0
70 2 S112 937 1356794 4904 0
70 2 S112 851 1357645 5755 0
70 2 S112 870 1358515 6625 0
0 0 0 898 1359413 -12122 0
0 0 0 898 1360311 -11224 0
0 0 0 836 1361147 -10388 0
0 0 0 907 1362054 -9481 0
0 0 0 920 1362974 -8561 0
0 0 0 841 1363815 -7720 0
0 0 0 828 1364643 -6892 0
0 0 0 861 1365504 -6031 0
0 0 0 881 1366385 -5150 0
0 0 0 828 1367213 -4322 0
0 0 0 858 1368071 -3464 0
0 0 0 905 1368976 -2559 0
71 1 S116 904 1369880 -1655 0
71 1 S116 915 1370795 -740 0
71 2 S116 953 1371748 213 0
71 2 S116 941 1372689 1154 0
71 2 S116 871 1373560 2025 0
71 2 S116 857 1374417 2882 0
71 2 S116 880 1375297 3762 0
71 2 S116 847 1376144 4609 0
71 2 S116 837 1376981 5446 0
71 2 S116 872 1377853 6318 0
0 0 0 906 1378759 -10797 0
0 0 0 871 1379630 -9926 0
0 0 0 825 1380455 -9101 0
0 0 0 890 1381345 -8211 0
0 0 0 913 1382258 -7298 0
0 0 0 840 1383098 -6458 0
0 0 0 859 1383957 -5599 0
0 0 0 845 1384802 -4754 0
0 0 0 788 1385590 -3966 0
0 0 0 857 1386447 -3109 0
0 0 0 885 1387332 -2224 0
72 1 S102 836 1388168 -1388 0
72 1 S102 835 1389003 -553 0
72 2 S102 914 1389917 361 0
72 2 S102 933 1390850 1294 0
72 2 S102 852 1391702 2146 0
72 2 S102 898 1392600 3044 0
72 2 S102 916 1393516 3960 0
72 2 S102 863 1394379 4823 0
72 2 S102 827 1395206 5650 0
72 2 S102 879 1396085 6529 0
0 0 0 918 1397003 -6727 0
0 0 0 841 1397844 -5886 0
0 0 0 896 1398740 -4990 0
0 0 0 906 1399646 -4084 0
0 0 0 819 1400465 -3265 0
0 0 0 859 1401324 -2406 0
73 1 S116 862 1402186 -1544 0
73 1 S116 797 1402983 -747 0
73 2 S116 831 1403814 84 0
73 2 S116 831 1404645 915 0
73 2 S116 805 1405450 1720 0
73 2 S116 754 1406204 2474 0
73 2 S116 740 1406944 3214 0
73 2 S116 738 1407682 3952 0
73 2 S116 768 1408450 4720 0
73 2 S116 893 1409343 5613 0
73 2 S116 958 1410301 6571 0
0 0 0 974 1411275 -9929 0
0 0 0 990 1412265 -8939 1
0 0 0 841 1413106 -8098 0
0 0 0 896 1414002 -7202 0
0 0 0 1003 1415005 -6199 1
0 0 0 1001 1416006 -5198 1
0 0 0 990 1416996 -4208 1
0 0 0 864 1417860 -3344 0
0 0 0 918 1418778 -2426 0
74 1 S106 910 1419688 -1516 0
74 1 S106 919 1420607 -597 0
74 2 S106 848 1421455 251 0
74 2 S106 924 1422379 1175 0
74 2 S106 945 1423324 2120 0
74 2 S106 923 1424247 3043 0
74 2 S106 852 1425099 3895 0
74 2 S106 914 1426013 4809 0
74 2 S106 945 1426958 5754 0
74 2 S106 943 1427901 6697 0
0 0 0 882 1428783 -6761 0
0 0 0 927 1429710 -5834 0
0 0 0 926 1430636 -4908 0
0 0 0 836 1431472 -4072 0
0 0 0 858 1432330 -3214 0
0 0 0 868 1433198 -2346 0
75 1 S112 816 1434014 -1530 0
75 1 S112 842 1434856 -688 0
75 2 S112 878 1435734 190 0
75 2 S112 904 1436638 1094 0
75 2 S112 851 1437489 1945 0
75 2 S112 885 1438374 2830 0
75 2 S112 875 1439249 3705 0
75 2 S112 822 1440071 4527 0
75 2 S112 844 1440915 5371 0
75 2 S112 871 1441786 6242 0
0 0 0 880 1442666 -9473 0
0 0 0 820 1443486 -8653 0
0 0 0 826 1444312 -7827 0
0 0 0 887 1445199 -6940 0
0 0 0 805 1446004 -6135 0
0 0 0 814 1446818 -5321 0
0 0 0 895 1447713 -4426 0
0 0 0 922 1448635 -3504 0
0 0 0 846 1449481 -2658 0
76 1 S116 814 1450295 -1844 0
76 1 S116 880 1451175 -964 0
76 1 S116 913 1452088 -51 0
76 2 S116 826 1452914 775 0
76 2 S116 882 1453796 1657 0
76 2 S116 890 1454686 2547 0
76 2 S116 828 1455514 3375 0
76 2 S116 832 1456346 4207 0
76 2 S116 843 1457189 5050 0
76 2 S116 838 1458027 5888 0
76 2 S116 805 1458832 6693 0
0 0 0 880 1459712 -8144 0
0 0 0 890 1460602 -7254 0
0 0 0 796 1461398 -6458 0
0 0 0 826 1462224 -5632 0
0 0 0 913 1463137 -4719 0
0 0 0 906 1464043 -3813 0
0 0 0 807 1464850 -3006 0
0 0 0 860 1465710 -2146 0
77 1 S106 936 1466646 -1210 0
77 1 S106 872 1467518 -338 0
77 2 S106 895 1468413 557 0
77 2 S106 933 1469346 1490 0
77 2 S106 884 1470230 2374 0
77 2 S106 868 1471098 3242 0
77 2 S106 892 1471990 4134 0
77 2 S106 855 1472845 4989 0
77 2 S106 805 1473650 5794 0
77 2 S106 851 1474501 6645 0
0 0 0 887 1475388 -8383 0
0 0 0 830 1476218 -7553 0
0 0 0 859 1477077 -6694 0
0 0 0 831 1477908 -5863 0
0 0 0 787 1478695 -5076 0
0 0 0 831 1479526 -4245 0
0 0 0 867 1480393 -3378 0
0 0 0 826 1481219 -2552 0
78 1 S112 866 1482085 -1686 0
78 1 S112 889 1482974 -797 0
78 2 S112 840 1483814 43 0
78 2 S112 864 1484678 907 0
78 2 S112 919 1485597 1826 0
78 2 S112 886 1486483 2712 0
78 2 S112 833 1487316 3545 0
78 2 S112 884 1488200 4429 0
78 2 S112 886 1489086 5315 0
78 2 S112 796 1489882 6111 0
78 2 S112 789 1490671 6900 0
0 0 0 852 1491523 -10119 0
0 0 0 938 1492461 -9181 0
0 0 0 813 1493274 -8368 0
0 0 0 822 1494096 -7546 0
0 0 0 845 1494941 -6701 0
0 0 0 785 1495726 -5916 0
0 0 0 786 1496512 -5130 0
0 0 0 783 1497295 -4347 0
0 0 0 824 1498119 -3523 0
0 0 0 782 1498901 -2741 0
79 1 S102 807 1499708 -1934 0
79 1 S102 851 1500559 -1083 0
79 1 S102 905 1501464 -178 0
79 2 S102 832 1502296 654 0
79 2 S102 897 1503193 1551 0
79 2 S102 934 1504127 2485 0
79 2 S102 872 1504999 3357 0
79 2 S102 822 1505821 4179 0
79 2 S102 885 1506706 5064 0
79 2 S102 904 1507610 5968 0
79 2 S102 842 1508452 6810 0
0 0 0 918 1509370 -10890 0
0 0 0 915 1510285 -9975 0
0 0 0 808 1511093 -9167 0
0 0 0 836 1511929 -8331 0
0 0 0 899 1512828 -7432 0
0 0 0 947 1513775 -6485 0
0 0 0 875 1514650 -5610 0
0 0 0 894 1515544 -4716 0
0 0 0 917 1516461 -3799 0
0 0 0 826 1517287 -2973 0
0 0 0 819 1518106 -2154 0
80 1 S116 852 1518958 -1302 0
80 1 S116 899 1519857 -403 0
80 2 S116 827 1520684 424 0
80 2 S116 865 1521549 1289 0
80 2 S116 890 1522439 2179 0
80 2 S116 905 1523344 3084 0
80 2 S116 899 1524243 3983 0
80 2 S116 928 1525171 4911 0
80 2 S116 926 1526097 5837 0
80 2 S116 847 1526944 6684 0
