T_0047
BeatCount Mean SD BeatCountNoOutliers MeanNoOutliers SDNoOutliers
1987 748,884750880725 63,8992575054206 1976 748,728238866397 62,6289271474422

Trial TrialStatus Trialtype IBI AbsPosition RelPosition Outlier
0 0 0 690 818 -15009 0
0 0 0 661 1479 -14348 0
0 0 0 658 2137 -13690 0
0 0 0 673 2810 -13017 0
0 0 0 670 3480 -12347 0
0 0 0 645 4125 -11702 0
0 0 0 648 4773 -11054 0
0 0 0 724 5497 -10330 0
0 0 0 678 6175 -9652 0
0 0 0 681 6856 -8971 0
0 0 0 729 7585 -8242 0
0 0 0 801 8386 -7441 0
0 0 0 858 9244 -6583 0
0 0 0 839 10083 -5744 0
0 0 0 760 10843 -4984 0
0 0 0 791 11634 -4193 0
0 0 0 806 12440 -3387 0
0 0 0 845 13285 -2542 0
1 1 S112 850 14135 -1692 0
1 1 S112 852 14987 -840 0
1 1 S112 824 15811 -16 0
1 2 S112 810 16621 794 0
1 2 S112 824 17445 1618 0
1 2 S112 835 18280 2453 0
1 2 S112 826 19106 3279 0
1 2 S112 787 19893 4066 0
1 2 S112 745 20638 4811 0
1 2 S112 775 21413 5586 0
1 2 S112 794 22207 6380 0
0 0 0 828 23035 -11542 0
0 0 0 835 23870 -10707 0
0 0 0 767 24637 -9940 0
0 0 0 823 25460 -9117 0
0 0 0 819 26279 -8298 0
0 0 0 773 27052 -7525 0
0 0 0 720 27772 -6805 0
0 0 0 748 28520 -6057 0
0 0 0 745 29265 -5312 0
0 0 0 729 29994 -4583 0
0 0 0 744 30738 -3839 0
0 0 0 794 31532 -3045 0
0 0 0 804 32336 -2241 0
2 1 S102 794 33130 -1447 0
2 1 S102 749 33879 -698 0
2 2 S102 772 34651 74 0
2 2 S102 759 35410 833 0
2 2 S102 782 36192 1615 0
2 2 S102 746 36938 2361 0
2 2 S102 752 37690 3113 0
2 2 S102 765 38455 3878 0
2 2 S102 788 39243 4666 0
2 2 S102 796 40039 5462 0
2 2 S102 763 40802 6225 0
2 2 S102 793 41595 7018 0
0 0 0 805 42400 -8606 0
0 0 0 822 43222 -7784 0
0 0 0 787 44009 -6997 0
0 0 0 802 44811 -6195 0
0 0 0 789 45600 -5406 0
0 0 0 730 46330 -4676 0
0 0 0 743 47073 -3933 0
0 0 0 750 47823 -3183 0
0 0 0 796 48619 -2387 0
3 1 S116 801 49420 -1586 0
3 1 S116 747 50167 -839 0
3 1 S116 776 50943 -63 0
3 2 S116 771 51714 708 0
3 2 S116 814 52528 1522 0
3 2 S116 829 53357 2351 0
3 2 S116 771 54128 3122 0
3 2 S116 806 54934 3928 0
3 2 S116 769 55703 4697 0
3 2 S116 705 56408 5402 0
3 2 S116 652 57060 6054 0
3 2 S116 639 57699 6693 0
0 0 0 631 58330 -11028 0
0 0 0 646 58976 -10382 0
0 0 0 701 59677 -9681 0
0 0 0 811 60488 -8870 0
0 0 0 794 61282 -8076 0
0 0 0 737 62019 -7339 0
0 0 0 770 62789 -6569 0
0 0 0 787 63576 -5782 0
0 0 0 785 64361 -4997 0
0 0 0 761 65122 -4236 0
0 0 0 735 65857 -3501 0
0 0 0 689 66546 -2812 0
0 0 0 718 67264 -2094 0
4 1 S106 756 68020 -1338 0
4 1 S106 838 68858 -500 0
4 2 S106 880 69738 380 0
4 2 S106 888 70626 1268 0
4 2 S106 840 71466 2108 0
4 2 S106 770 72236 2878 0
4 2 S106 768 73004 3646 0
4 2 S106 799 73803 4445 0
4 2 S106 826 74629 5271 0
4 2 S106 803 75432 6074 0
4 2 S106 816 76248 6890 0
0 0 0 811 77059 -5529 0
0 0 0 820 77879 -4709 0
0 0 0 783 78662 -3926 0
0 0 0 727 79389 -3199 0
0 0 0 712 80101 -2487 0
5 1 S116 733 80834 -1754 0
5 1 S116 764 81598 -990 0
5 1 S116 790 82388 -200 0
5 2 S116 800 83188 600 0
5 2 S116 773 83961 1373 0
5 2 S116 814 84775 2187 0
5 2 S116 822 85597 3009 0
5 2 S116 832 86429 3841 0
5 2 S116 790 87219 4631 0
5 2 S116 745 87964 5376 0
5 2 S116 771 88735 6147 0
5 2 S116 777 89512 6924 0
0 0 0 805 90317 -8534 0
0 0 0 803 91120 -7731 0
0 0 0 782 91902 -6949 0
0 0 0 791 92693 -6158 0
0 0 0 780 93473 -5378 0
0 0 0 741 94214 -4637 0
0 0 0 701 94915 -3936 0
0 0 0 718 95633 -3218 0
0 0 0 733 96366 -2485 0
6 1 S106 777 97143 -1708 0
6 1 S106 819 97962 -889 0
6 1 S106 794 98756 -95 0
6 2 S106 748 99504 653 0
6 2 S106 784 100288 1437 0
6 2 S106 805 101093 2242 0
6 2 S106 851 101944 3093 0
6 2 S106 880 102824 3973 0
6 2 S106 846 103670 4819 0
6 2 S106 784 104454 5603 0
6 2 S106 797 105251 6400 0
0 0 0 803 106054 -10105 0
0 0 0 817 106871 -9288 0
0 0 0 832 107703 -8456 0
0 0 0 778 108481 -7678 0
0 0 0 785 109266 -6893 0
0 0 0 806 110072 -6087 0
0 0 0 834 110906 -5253 0
0 0 0 831 111737 -4422 0
0 0 0 793 112530 -3629 0
0 0 0 792 113322 -2837 0
0 0 0 768 114090 -2069 0
7 1 S102 744 114834 -1325 0
7 1 S102 706 115540 -619 0
7 2 S102 663 116203 44 0
7 2 S102 661 116864 705 0
7 2 S102 711 117575 1416 0
7 2 S102 744 118319 2160 0
7 2 S102 728 119047 2888 0
7 2 S102 760 119807 3648 0
7 2 S102 776 120583 4424 0
7 2 S102 800 121383 5224 0
7 2 S102 807 122190 6031 0
7 2 S102 744 122934 6775 0
0 0 0 751 123685 -7627 0
0 0 0 763 124448 -6864 0
0 0 0 761 125209 -6103 0
0 0 0 771 125980 -5332 0
0 0 0 720 126700 -4612 0
0 0 0 680 127380 -3932 0
0 0 0 692 128072 -3240 0
0 0 0 701 128773 -2539 0
8 1 S112 727 129500 -1812 0
8 1 S112 819 130319 -993 0
8 1 S112 837 131156 -156 0
8 2 S112 816 131972 660 0
8 2 S112 776 132748 1436 0
8 2 S112 808 133556 2244 0
8 2 S112 799 134355 3043 0
8 2 S112 785 135140 3828 0
8 2 S112 732 135872 4560 0
8 2 S112 711 136583 5271 0
8 2 S112 744 137327 6015 0
8 2 S112 785 138112 6800 0
0 0 0 801 138913 -7469 0
0 0 0 763 139676 -6706 0
0 0 0 820 140496 -5886 0
0 0 0 845 141341 -5041 0
0 0 0 781 142122 -4260 0
0 0 0 737 142859 -3523 0
0 0 0 764 143623 -2759 0
9 1 S116 774 144397 -1985 0
9 1 S116 759 145156 -1226 0
9 1 S116 736 145892 -490 0
9 2 S116 754 146646 264 0
9 2 S116 742 147388 1006 0
9 2 S116 803 148191 1809 0
9 2 S116 760 148951 2569 0
9 2 S116 743 149694 3312 0
9 2 S116 783 150477 4095 0
9 2 S116 831 151308 4926 0
9 2 S116 840 152148 5766 0
9 2 S116 783 152931 6549 0
0 0 0 747 153678 -10642 0
0 0 0 781 154459 -9861 0
0 0 0 809 155268 -9052 0
0 0 0 780 156048 -8272 0
0 0 0 721 156769 -7551 0
0 0 0 737 157506 -6814 0
0 0 0 732 158238 -6082 0
0 0 0 772 159010 -5310 0
0 0 0 769 159779 -4541 0
0 0 0 729 160508 -3812 0
0 0 0 746 161254 -3066 0
0 0 0 764 162018 -2302 0
10 1 S102 781 162799 -1521 0
10 1 S102 739 163538 -782 0
10 1 S102 715 164253 -67 0
10 2 S102 738 164991 671 0
10 2 S102 732 165723 1403 0
10 2 S102 777 166500 2180 0
10 2 S102 783 167283 2963 0
10 2 S102 769 168052 3732 0
10 2 S102 729 168781 4461 0
10 2 S102 728 169509 5189 0
10 2 S102 722 170231 5911 0
10 2 S102 711 170942 6622 0
0 0 0 698 171640 -11960 0
0 0 0 735 172375 -11225 0
0 0 0 794 173169 -10431 0
0 0 0 809 173978 -9622 0
0 0 0 754 174732 -8868 0
0 0 0 735 175467 -8133 0
0 0 0 678 176145 -7455 0
0 0 0 638 176783 -6817 0
0 0 0 633 177416 -6184 0
0 0 0 630 178046 -5554 0
0 0 0 636 178682 -4918 0
0 0 0 667 179349 -4251 0
0 0 0 702 180051 -3549 0
0 0 0 741 180792 -2808 0
0 0 0 790 181582 -2018 0
11 1 S112 807 182389 -1211 0
11 1 S112 751 183140 -460 0
11 2 S112 692 183832 232 0
11 2 S112 668 184500 900 0
11 2 S112 694 185194 1594 0
11 2 S112 724 185918 2318 0
11 2 S112 715 186633 3033 0
11 2 S112 736 187369 3769 0
11 2 S112 749 188118 4518 0
11 2 S112 763 188881 5281 0
11 2 S112 740 189621 6021 0
11 2 S112 725 190346 6746 0
0 0 0 780 191126 -5787 0
0 0 0 824 191950 -4963 0
0 0 0 812 192762 -4151 0
0 0 0 746 193508 -3405 0
0 0 0 763 194271 -2642 0
12 1 S116 780 195051 -1862 0
12 1 S116 830 195881 -1032 0
12 1 S116 792 196673 -240 0
12 2 S116 820 197493 580 0
12 2 S116 861 198354 1441 0
12 2 S116 872 199226 2313 0
12 2 S116 821 200047 3134 0
12 2 S116 818 200865 3952 0
12 2 S116 836 201701 4788 0
12 2 S116 846 202547 5634 0
12 2 S116 830 203377 6464 0
0 0 0 824 204201 -11130 0
0 0 0 859 205060 -10271 0
0 0 0 892 205952 -9379 0
0 0 0 791 206743 -8588 0
0 0 0 803 207546 -7785 0
0 0 0 828 208374 -6957 0
0 0 0 873 209247 -6084 0
0 0 0 813 210060 -5271 0
0 0 0 819 210879 -4452 0
0 0 0 824 211703 -3628 0
0 0 0 808 212511 -2820 0
0 0 0 736 213247 -2084 0
13 1 S112 754 214001 -1330 0
13 1 S112 761 214762 -569 0
13 2 S112 768 215530 199 0
13 2 S112 730 216260 929 0
13 2 S112 768 217028 1697 0
13 2 S112 759 217787 2456 0
13 2 S112 710 218497 3166 0
13 2 S112 673 219170 3839 0
13 2 S112 696 219866 4535 0
13 2 S112 727 220593 5262 0
13 2 S112 695 221288 5957 0
13 2 S112 713 222001 6670 0
0 0 0 725 222726 -11770 0
0 0 0 748 223474 -11022 0
0 0 0 796 224270 -10226 0
0 0 0 747 225017 -9479 0
0 0 0 808 225825 -8671 0
0 0 0 778 226603 -7893 0
0 0 0 725 227328 -7168 0
0 0 0 766 228094 -6402 0
0 0 0 811 228905 -5591 0
0 0 0 833 229738 -4758 0
0 0 0 752 230490 -4006 0
0 0 0 791 231281 -3215 0
0 0 0 819 232100 -2396 0
14 1 S106 860 232960 -1536 0
14 1 S106 816 233776 -720 0
14 2 S106 844 234620 124 0
14 2 S106 861 235481 985 0
14 2 S106 865 236346 1850 0
14 2 S106 810 237156 2660 0
14 2 S106 791 237947 3451 0
14 2 S106 823 238770 4274 0
14 2 S106 864 239634 5138 0
14 2 S106 869 240503 6007 0
14 2 S106 852 241355 6859 0
0 0 0 875 242230 -9474 0
0 0 0 868 243098 -8606 0
0 0 0 826 243924 -7780 0
0 0 0 831 244755 -6949 0
0 0 0 807 245562 -6142 0
0 0 0 807 246369 -5335 0
0 0 0 733 247102 -4602 0
0 0 0 712 247814 -3890 0
0 0 0 736 248550 -3154 0
0 0 0 709 249259 -2445 0
15 1 S116 758 250017 -1687 0
15 1 S116 811 250828 -876 0
15 1 S116 823 251651 -53 0
15 2 S116 779 252430 726 0
15 2 S116 800 253230 1526 0
15 2 S116 842 254072 2368 0
15 2 S116 867 254939 3235 0
15 2 S116 838 255777 4073 0
15 2 S116 772 256549 4845 0
15 2 S116 786 257335 5631 0
15 2 S116 831 258166 6462 0
0 0 0 876 259042 -7914 0
0 0 0 883 259925 -7031 0
0 0 0 797 260722 -6234 0
0 0 0 795 261517 -5439 0
0 0 0 819 262336 -4620 0
0 0 0 844 263180 -3776 0
0 0 0 837 264017 -2939 0
0 0 0 824 264841 -2115 0
16 1 S116 868 265709 -1247 0
16 1 S116 867 266576 -380 0
16 2 S116 824 267400 444 0
16 2 S116 775 268175 1219 0
16 2 S116 830 269005 2049 0
16 2 S116 879 269884 2928 0
16 2 S116 883 270767 3811 0
16 2 S116 832 271599 4643 0
16 2 S116 822 272421 5465 0
16 2 S116 831 273252 6296 0
0 0 0 832 274084 -8589 0
0 0 0 789 274873 -7800 0
0 0 0 796 275669 -7004 0
0 0 0 843 276512 -6161 0
0 0 0 845 277357 -5316 0
0 0 0 800 278157 -4516 0
0 0 0 813 278970 -3703 0
0 0 0 850 279820 -2853 0
17 1 S106 856 280676 -1997 0
17 1 S106 798 281474 -1199 0
17 1 S106 809 282283 -390 0
17 2 S106 843 283126 453 0
17 2 S106 857 283983 1310 0
17 2 S106 830 284813 2140 0
17 2 S106 829 285642 2969 0
17 2 S106 871 286513 3840 0
17 2 S106 855 287368 4695 0
17 2 S106 812 288180 5507 0
17 2 S106 783 288963 6290 0
0 0 0 797 289760 -12077 0
0 0 0 842 290602 -11235 0
0 0 0 855 291457 -10380 0
0 0 0 830 292287 -9550 0
0 0 0 879 293166 -8671 0
0 0 0 800 293966 -7871 0
0 0 0 730 294696 -7141 0
0 0 0 726 295422 -6415 0
0 0 0 737 296159 -5678 0
0 0 0 766 296925 -4912 0
0 0 0 749 297674 -4163 0
0 0 0 706 298380 -3457 0
0 0 0 685 299065 -2772 0
0 0 0 726 299791 -2046 0
18 1 S102 791 300582 -1255 0
18 1 S102 894 301476 -361 0
18 2 S102 873 302349 512 0
18 2 S102 766 303115 1278 0
18 2 S102 709 303824 1987 0
18 2 S102 717 304541 2704 0
18 2 S102 710 305251 3414 0
18 2 S102 680 305931 4094 0
18 2 S102 722 306653 4816 0
18 2 S102 739 307392 5555 0
18 2 S102 761 308153 6316 0
0 0 0 739 308892 -7004 0
0 0 0 748 309640 -6256 0
0 0 0 809 310449 -5447 0
0 0 0 804 311253 -4643 0
0 0 0 745 311998 -3898 0
0 0 0 731 312729 -3167 0
0 0 0 737 313466 -2430 0
19 1 S106 793 314259 -1637 0
19 1 S106 811 315070 -826 0
19 1 S106 759 315829 -67 0
19 2 S106 810 316639 743 0
19 2 S106 793 317432 1536 0
19 2 S106 811 318243 2347 0
19 2 S106 794 319037 3141 0
19 2 S106 824 319861 3965 0
19 2 S106 863 320724 4828 0
19 2 S106 871 321595 5699 0
19 2 S106 852 322447 6551 0
0 0 0 843 323290 -9847 0
0 0 0 809 324099 -9038 0
0 0 0 759 324858 -8279 0
0 0 0 719 325577 -7560 0
0 0 0 710 326287 -6850 0
0 0 0 664 326951 -6186 0
0 0 0 669 327620 -5517 0
0 0 0 650 328270 -4867 0
0 0 0 645 328915 -4222 0
0 0 0 647 329562 -3575 0
0 0 0 735 330297 -2840 0
0 0 0 784 331081 -2056 0
20 1 S112 805 331886 -1251 0
20 1 S112 785 332671 -466 0
20 2 S112 776 333447 310 0
20 2 S112 708 334155 1018 0
20 2 S112 701 334856 1719 0
20 2 S112 717 335573 2436 0
20 2 S112 764 336337 3200 0
20 2 S112 770 337107 3970 0
20 2 S112 728 337835 4698 0
20 2 S112 722 338557 5420 0
20 2 S112 757 339314 6177 0
20 2 S112 758 340072 6935 0
0 0 0 736 340808 -8792 0
0 0 0 723 341531 -8069 0
0 0 0 757 342288 -7312 0
0 0 0 745 343033 -6567 0
0 0 0 695 343728 -5872 0
0 0 0 656 344384 -5216 0
0 0 0 640 345024 -4576 0
0 0 0 641 345665 -3935 0
0 0 0 653 346318 -3282 0
0 0 0 702 347020 -2580 0
21 1 S106 806 347826 -1774 0
21 1 S106 834 348660 -940 0
21 1 S106 769 349429 -171 0
21 2 S106 803 350232 632 0
21 2 S106 827 351059 1459 0
21 2 S106 827 351886 2286 0
21 2 S106 795 352681 3081 0
21 2 S106 760 353441 3841 0
21 2 S106 770 354211 4611 0
21 2 S106 780 354991 5391 0
21 2 S106 781 355772 6172 0
21 2 S106 733 356505 6905 0
0 0 0 755 357260 -9648 0
0 0 0 787 358047 -8861 0
0 0 0 771 358818 -8090 0
0 0 0 721 359539 -7369 0
0 0 0 718 360257 -6651 0
0 0 0 750 361007 -5901 0
0 0 0 808 361815 -5093 0
0 0 0 840 362655 -4253 0
0 0 0 813 363468 -3440 0
0 0 0 783 364251 -2657 0
22 1 S116 770 365021 -1887 0
22 1 S116 707 365728 -1180 0
22 1 S116 682 366410 -498 0
22 2 S116 700 367110 202 0
22 2 S116 700 367810 902 0
22 2 S116 776 368586 1678 0
22 2 S116 879 369465 2557 0
22 2 S116 902 370367 3459 0
22 2 S116 831 371198 4290 0
22 2 S116 751 371949 5041 0
22 2 S116 689 372638 5730 0
22 2 S116 678 373316 6408 0
0 0 0 679 373995 -9325 0
0 0 0 668 374663 -8657 0
0 0 0 676 375339 -7981 0
0 0 0 721 376060 -7260 0
0 0 0 805 376865 -6455 0
0 0 0 887 377752 -5568 0
0 0 0 887 378639 -4681 0
0 0 0 806 379445 -3875 0
0 0 0 847 380292 -3028 0
0 0 0 863 381155 -2165 0
23 1 S112 891 382046 -1274 0
23 1 S112 828 382874 -446 0
23 2 S112 811 383685 365 0
23 2 S112 859 384544 1224 0
23 2 S112 905 385449 2129 0
23 2 S112 899 386348 3028 0
23 2 S112 846 387194 3874 0
23 2 S112 916 388110 4790 1
23 2 S112 931 389041 5721 1
23 2 S112 916 389957 6637 1
0 0 0 842 390799 -10376 0
0 0 0 877 391676 -9499 0
0 0 0 881 392557 -8618 0
0 0 0 808 393365 -7810 0
0 0 0 830 394195 -6980 0
0 0 0 845 395040 -6135 0
0 0 0 780 395820 -5355 0
0 0 0 748 396568 -4607 0
0 0 0 776 397344 -3831 0
0 0 0 834 398178 -2997 0
0 0 0 846 399024 -2151 0
24 1 S106 780 399804 -1371 0
24 1 S106 800 400604 -571 0
24 2 S106 812 401416 241 0
24 2 S106 819 402235 1060 0
24 2 S106 793 403028 1853 0
24 2 S106 733 403761 2586 0
24 2 S106 744 404505 3330 0
24 2 S106 763 405268 4093 0
24 2 S106 747 406015 4840 0
24 2 S106 705 406720 5545 0
24 2 S106 667 407387 6212 0
24 2 S106 673 408060 6885 0
0 0 0 711 408771 -7872 0
0 0 0 721 409492 -7151 0
0 0 0 702 410194 -6449 0
0 0 0 717 410911 -5732 0
0 0 0 755 411666 -4977 0
0 0 0 728 412394 -4249 0
0 0 0 713 413107 -3536 0
0 0 0 756 413863 -2780 0
0 0 0 755 414618 -2025 0
25 1 S102 736 415354 -1289 0
25 1 S102 758 416112 -531 0
25 2 S102 799 416911 268 0
25 2 S102 798 417709 1066 0
25 2 S102 805 418514 1871 0
25 2 S102 769 419283 2640 0
25 2 S102 729 420012 3369 0
25 2 S102 760 420772 4129 0
25 2 S102 788 421560 4917 0
25 2 S102 831 422391 5748 0
25 2 S102 800 423191 6548 0
0 0 0 791 423982 -7051 0
0 0 0 846 424828 -6205 0
0 0 0 866 425694 -5339 0
0 0 0 809 426503 -4530 0
0 0 0 738 427241 -3792 0
0 0 0 730 427971 -3062 0
0 0 0 710 428681 -2352 0
26 1 S116 706 429387 -1646 0
26 1 S116 701 430088 -945 0
26 1 S116 764 430852 -181 0
26 2 S116 807 431659 626 0
26 2 S116 845 432504 1471 0
26 2 S116 785 433289 2256 0
26 2 S116 744 434033 3000 0
26 2 S116 765 434798 3765 0
26 2 S116 771 435569 4536 0
26 2 S116 775 436344 5311 0
26 2 S116 743 437087 6054 0
26 2 S116 798 437885 6852 0
0 0 0 797 438682 -5730 0
0 0 0 799 439481 -4931 0
0 0 0 762 440243 -4169 0
0 0 0 752 440995 -3417 0
0 0 0 798 441793 -2619 0
27 1 S106 838 442631 -1781 0
27 1 S106 842 443473 -939 0
27 1 S106 791 444264 -148 0
27 2 S106 832 445096 684 0
27 2 S106 822 445918 1506 0
27 2 S106 786 446704 2292 0
27 2 S106 744 447448 3036 0
27 2 S106 774 448222 3810 0
27 2 S106 770 448992 4580 0
27 2 S106 747 449739 5327 0
27 2 S106 716 450455 6043 0
27 2 S106 747 451202 6790 0
0 0 0 759 451961 -6741 0
0 0 0 809 452770 -5932 0
0 0 0 795 453565 -5137 0
0 0 0 812 454377 -4325 0
0 0 0 810 455187 -3515 0
0 0 0 801 455988 -2714 0
28 1 S102 772 456760 -1942 0
28 1 S102 793 457553 -1149 0
28 1 S102 767 458320 -382 0
28 2 S102 752 459072 370 0
28 2 S102 755 459827 1125 0
28 2 S102 791 460618 1916 0
28 2 S102 806 461424 2722 0
28 2 S102 788 462212 3510 0
28 2 S102 764 462976 4274 0
28 2 S102 783 463759 5057 0
28 2 S102 781 464540 5838 0
28 2 S102 746 465286 6584 0
0 0 0 727 466013 -10760 0
0 0 0 762 466775 -9998 0
0 0 0 773 467548 -9225 0
0 0 0 743 468291 -8482 0
0 0 0 690 468981 -7792 0
0 0 0 713 469694 -7079 0
0 0 0 706 470400 -6373 0
0 0 0 729 471129 -5644 0
0 0 0 741 471870 -4903 0
0 0 0 707 472577 -4196 0
0 0 0 710 473287 -3486 0
0 0 0 726 474013 -2760 0
0 0 0 730 474743 -2030 0
29 1 S112 693 475436 -1337 0
29 1 S112 668 476104 -669 0
29 1 S112 650 476754 -19 0
29 2 S112 647 477401 628 0
29 2 S112 675 478076 1303 0
29 2 S112 719 478795 2022 0
29 2 S112 694 479489 2716 0
29 2 S112 697 480186 3413 0
29 2 S112 731 480917 4144 0
29 2 S112 774 481691 4918 0
29 2 S112 807 482498 5725 0
29 2 S112 774 483272 6499 0
0 0 0 798 484070 -7010 0
0 0 0 838 484908 -6172 0
0 0 0 791 485699 -5381 0
0 0 0 802 486501 -4579 0
0 0 0 786 487287 -3793 0
0 0 0 755 488042 -3038 0
0 0 0 714 488756 -2324 0
30 1 S112 748 489504 -1576 0
30 1 S112 815 490319 -761 0
30 2 S112 903 491222 142 0
30 2 S112 892 492114 1034 0
30 2 S112 897 493011 1931 0
30 2 S112 937 493948 2868 1
30 2 S112 907 494855 3775 0
30 2 S112 869 495724 4644 0
30 2 S112 868 496592 5512 0
30 2 S112 868 497460 6380 0
0 0 0 870 498330 -9544 0
0 0 0 837 499167 -8707 0
0 0 0 816 499983 -7891 0
0 0 0 832 500815 -7059 0
0 0 0 817 501632 -6242 0
0 0 0 751 502383 -5491 0
0 0 0 804 503187 -4687 0
0 0 0 818 504005 -3869 0
0 0 0 859 504864 -3010 0
0 0 0 795 505659 -2215 0
31 1 S106 830 506489 -1385 0
31 1 S106 835 507324 -550 0
31 2 S106 843 508167 293 0
31 2 S106 792 508959 1085 0
31 2 S106 797 509756 1882 0
31 2 S106 840 510596 2722 0
31 2 S106 815 511411 3537 0
31 2 S106 805 512216 4342 0
31 2 S106 770 512986 5112 0
31 2 S106 794 513780 5906 0
31 2 S106 778 514558 6684 0
0 0 0 725 515283 -7876 0
0 0 0 686 515969 -7190 0
0 0 0 680 516649 -6510 0
0 0 0 685 517334 -5825 0
0 0 0 667 518001 -5158 0
0 0 0 714 518715 -4444 0
0 0 0 728 519443 -3716 0
0 0 0 767 520210 -2949 0
0 0 0 778 520988 -2171 0
32 1 S102 738 521726 -1433 0
32 1 S102 773 522499 -660 0
32 2 S102 783 523282 123 0
32 2 S102 807 524089 930 0
32 2 S102 780 524869 1710 0
32 2 S102 751 525620 2461 0
32 2 S102 769 526389 3230 0
32 2 S102 791 527180 4021 0
32 2 S102 781 527961 4802 0
32 2 S102 756 528717 5558 0
32 2 S102 793 529510 6351 0
0 0 0 802 530312 -11232 0
0 0 0 768 531080 -10464 0
0 0 0 799 531879 -9665 0
0 0 0 835 532714 -8830 0
0 0 0 816 533530 -8014 0
0 0 0 744 534274 -7270 0
0 0 0 763 535037 -6507 0
0 0 0 745 535782 -5762 0
0 0 0 747 536529 -5015 0
0 0 0 736 537265 -4279 0
0 0 0 783 538048 -3496 0
0 0 0 777 538825 -2719 0
33 1 S112 744 539569 -1975 0
33 1 S112 724 540293 -1251 0
33 1 S112 736 541029 -515 0
33 2 S112 737 541766 222 0
33 2 S112 734 542500 956 0
33 2 S112 741 543241 1697 0
33 2 S112 783 544024 2480 0
33 2 S112 827 544851 3307 0
33 2 S112 846 545697 4153 0
33 2 S112 790 546487 4943 0
33 2 S112 820 547307 5763 0
33 2 S112 807 548114 6570 0
0 0 0 811 548925 -11021 0
0 0 0 752 549677 -10269 0
0 0 0 716 550393 -9553 0
0 0 0 753 551146 -8800 0
0 0 0 782 551928 -8018 0
0 0 0 735 552663 -7283 0
0 0 0 710 553373 -6573 0
0 0 0 681 554054 -5892 0
0 0 0 705 554759 -5187 0
0 0 0 684 555443 -4503 0
0 0 0 697 556140 -3806 0
0 0 0 738 556878 -3068 0
0 0 0 833 557711 -2235 0
34 1 S106 860 558571 -1375 0
34 1 S106 847 559418 -528 0
34 2 S106 780 560198 252 0
34 2 S106 806 561004 1058 0
34 2 S106 824 561828 1882 0
34 2 S106 822 562650 2704 0
34 2 S106 779 563429 3483 0
34 2 S106 794 564223 4277 0
34 2 S106 812 565035 5089 0
34 2 S106 822 565857 5911 0
34 2 S106 778 566635 6689 0
0 0 0 762 567397 -8017 0
0 0 0 784 568181 -7233 0
0 0 0 744 568925 -6489 0
0 0 0 705 569630 -5784 0
0 0 0 669 570299 -5115 0
0 0 0 659 570958 -4456 0
0 0 0 687 571645 -3769 0
0 0 0 682 572327 -3087 0
0 0 0 699 573026 -2388 0
35 1 S102 747 573773 -1641 0
35 1 S102 819 574592 -822 0
35 2 S102 843 575435 21 0
35 2 S102 862 576297 883 0
35 2 S102 834 577131 1717 0
35 2 S102 778 577909 2495 0
35 2 S102 806 578715 3301 0
35 2 S102 797 579512 4098 0
35 2 S102 814 580326 4912 0
35 2 S102 757 581083 5669 0
35 2 S102 749 581832 6418 0
0 0 0 758 582590 -7198 0
0 0 0 793 583383 -6405 0
0 0 0 798 584181 -5607 0
0 0 0 796 584977 -4811 0
0 0 0 797 585774 -4014 0
0 0 0 778 586552 -3236 0
0 0 0 741 587293 -2495 0
36 1 S106 773 588066 -1722 0
36 1 S106 820 588886 -902 0
36 1 S106 838 589724 -64 0
36 2 S106 774 590498 710 0
36 2 S106 812 591310 1522 0
36 2 S106 835 592145 2357 0
36 2 S106 888 593033 3245 0
36 2 S106 842 593875 4087 0
36 2 S106 776 594651 4863 0
36 2 S106 802 595453 5665 0
36 2 S106 827 596280 6492 0
0 0 0 818 597098 -8920 0
0 0 0 772 597870 -8148 0
0 0 0 830 598700 -7318 0
0 0 0 836 599536 -6482 0
0 0 0 781 600317 -5701 0
0 0 0 760 601077 -4941 0
0 0 0 787 601864 -4154 0
0 0 0 810 602674 -3344 0
0 0 0 782 603456 -2562 0
37 1 S116 769 604225 -1793 0
37 1 S116 786 605011 -1007 0
37 1 S116 802 605813 -205 0
37 2 S116 781 606594 576 0
37 2 S116 728 607322 1304 0
37 2 S116 723 608045 2027 0
37 2 S116 760 608805 2787 0
37 2 S116 817 609622 3604 0
37 2 S116 826 610448 4430 0
37 2 S116 753 611201 5183 0
37 2 S116 754 611955 5937 0
37 2 S116 743 612698 6680 0
0 0 0 741 613439 -10616 0
0 0 0 762 614201 -9854 0
0 0 0 722 614923 -9132 0
0 0 0 750 615673 -8382 0
0 0 0 718 616391 -7664 0
0 0 0 688 617079 -6976 0
0 0 0 661 617740 -6315 0
0 0 0 663 618403 -5652 0
0 0 0 661 619064 -4991 0
0 0 0 650 619714 -4341 0
0 0 0 645 620359 -3696 0
0 0 0 667 621026 -3029 0
0 0 0 661 621687 -2368 0
38 1 S102 654 622341 -1714 0
38 1 S102 640 622981 -1074 0
38 1 S102 629 623610 -445 0
38 2 S102 622 624232 177 0
38 2 S102 636 624868 813 0
38 2 S102 681 625549 1494 0
38 2 S102 695 626244 2189 0
38 2 S102 697 626941 2886 0
38 2 S102 696 627637 3582 0
38 2 S102 668 628305 4250 0
38 2 S102 644 628949 4894 0
38 2 S102 637 629586 5531 0
38 2 S102 624 630210 6155 0
38 2 S102 618 630828 6773 0
0 0 0 604 631432 -9632 0
0 0 0 586 632018 -9046 0
0 0 0 581 632599 -8465 1
0 0 0 589 633188 -7876 0
0 0 0 612 633800 -7264 0
0 0 0 654 634454 -6610 0
0 0 0 672 635126 -5938 0
0 0 0 653 635779 -5285 0
0 0 0 632 636411 -4653 0
0 0 0 684 637095 -3969 0
0 0 0 687 637782 -3282 0
0 0 0 730 638512 -2552 0
39 1 S116 705 639217 -1847 0
39 1 S116 740 639957 -1107 0
39 1 S116 733 640690 -374 0
39 2 S116 744 641434 370 0
39 2 S116 711 642145 1081 0
39 2 S116 709 642854 1790 0
39 2 S116 747 643601 2537 0
39 2 S116 768 644369 3305 0
39 2 S116 759 645128 4064 0
39 2 S116 764 645892 4828 0
39 2 S116 726 646618 5554 0
39 2 S116 696 647314 6250 0
39 2 S116 712 648026 6962 0
0 0 0 749 648775 -6845 0
0 0 0 777 649552 -6068 0
0 0 0 788 650340 -5280 0
0 0 0 738 651078 -4542 0
0 0 0 681 651759 -3861 0
0 0 0 671 652430 -3190 0
0 0 0 644 653074 -2546 0
40 1 S112 640 653714 -1906 0
40 1 S112 626 654340 -1280 0
40 1 S112 611 654951 -669 0
40 1 S112 606 655557 -63 0
40 2 S112 613 656170 550 0
40 2 S112 634 656804 1184 0
40 2 S112 667 657471 1851 0
40 2 S112 724 658195 2575 0
40 2 S112 789 658984 3364 0
40 2 S112 844 659828 4208 0
40 2 S112 815 660643 5023 0
40 2 S112 809 661452 5832 0
40 2 S112 790 662242 6622 0
0 0 0 773 663015 -186523 0
0 0 0 727 663742 -185796 0
0 0 0 684 664426 -185112 0
0 0 0 687 665113 -184425 0
0 0 0 731 665844 -183694 0
0 0 0 988 666832 -182706 1
0 0 0 951 667783 -181755 1
0 0 0 857 668640 -180898 0
0 0 0 858 669498 -180040 0
0 0 0 855 670353 -179185 0
0 0 0 802 671155 -178383 0
0 0 0 753 671908 -177630 0
0 0 0 720 672628 -176910 0
0 0 0 716 673344 -176194 0
0 0 0 651 673995 -175543 0
0 0 0 635 674630 -174908 0
0 0 0 622 675252 -174286 0
0 0 0 636 675888 -173650 0
0 0 0 641 676529 -173009 0
0 0 0 725 677254 -172284 0
0 0 0 790 678044 -171494 0
0 0 0 714 678758 -170780 0
0 0 0 705 679463 -170075 0
0 0 0 694 680157 -169381 0
0 0 0 667 680824 -168714 0
0 0 0 639 681463 -168075 0
0 0 0 618 682081 -167457 0
0 0 0 599 682680 -166858 0
0 0 0 585 683265 -166273 0
0 0 0 580 683845 -165693 1
0 0 0 583 684428 -165110 1
0 0 0 606 685034 -164504 0
0 0 0 695 685729 -163809 0
0 0 0 730 686459 -163079 0
0 0 0 750 687209 -162329 0
0 0 0 800 688009 -161529 0
0 0 0 825 688834 -160704 0
0 0 0 844 689678 -159860 0
0 0 0 837 690515 -159023 0
0 0 0 788 691303 -158235 0
0 0 0 761 692064 -157474 0
0 0 0 789 692853 -156685 0
0 0 0 850 693703 -155835 0
0 0 0 869 694572 -154966 0
0 0 0 866 695438 -154100 0
0 0 0 852 696290 -153248 0
0 0 0 847 697137 -152401 0
0 0 0 784 697921 -151617 0
0 0 0 771 698692 -150846 0
0 0 0 771 699463 -150075 0
0 0 0 857 700320 -149218 0
0 0 0 871 701191 -148347 0
0 0 0 865 702056 -147482 0
0 0 0 795 702851 -146687 0
0 0 0 799 703650 -145888 0
0 0 0 795 704445 -145093 0
0 0 0 831 705276 -144262 0
0 0 0 838 706114 -143424 0
0 0 0 810 706924 -142614 0
0 0 0 767 707691 -141847 0
0 0 0 764 708455 -141083 0
0 0 0 764 709219 -140319 0
0 0 0 792 710011 -139527 0
0 0 0 766 710777 -138761 0
0 0 0 761 711538 -138000 0
0 0 0 777 712315 -137223 0
0 0 0 769 713084 -136454 0
0 0 0 740 713824 -135714 0
0 0 0 712 714536 -135002 0
0 0 0 724 715260 -134278 0
0 0 0 711 715971 -133567 0
0 0 0 717 716688 -132850 0
0 0 0 749 717437 -132101 0
0 0 0 712 718149 -131389 0
0 0 0 729 718878 -130660 0
0 0 0 742 719620 -129918 0
0 0 0 751 720371 -129167 0
0 0 0 706 721077 -128461 0
0 0 0 663 721740 -127798 0
0 0 0 675 722415 -127123 0
0 0 0 645 723060 -126478 0
0 0 0 622 723682 -125856 0
0 0 0 614 724296 -125242 0
0 0 0 607 724903 -124635 0
0 0 0 602 725505 -124033 0
0 0 0 638 726143 -123395 0
0 0 0 732 726875 -122663 0
0 0 0 818 727693 -121845 0
0 0 0 833 728526 -121012 0
0 0 0 842 729368 -120170 0
0 0 0 826 730194 -119344 0
0 0 0 799 730993 -118545 0
0 0 0 758 731751 -117787 0
0 0 0 734 732485 -117053 0
0 0 0 685 733170 -116368 0
0 0 0 663 733833 -115705 0
0 0 0 664 734497 -115041 0
0 0 0 662 735159 -114379 0
0 0 0 678 735837 -113701 0
0 0 0 710 736547 -112991 0
0 0 0 721 737268 -112270 0
0 0 0 709 737977 -111561 0
0 0 0 700 738677 -110861 0
0 0 0 705 739382 -110156 0
0 0 0 690 740072 -109466 0
0 0 0 659 740731 -108807 0
0 0 0 640 741371 -108167 0
0 0 0 627 741998 -107540 0
0 0 0 620 742618 -106920 0
0 0 0 606 743224 -106314 0
0 0 0 614 743838 -105700 0
0 0 0 620 744458 -105080 0
0 0 0 639 745097 -104441 0
0 0 0 658 745755 -103783 0
0 0 0 780 746535 -103003 0
0 0 0 784 747319 -102219 0
0 0 0 802 748121 -101417 0
0 0 0 764 748885 -100653 0
0 0 0 691 749576 -99962 0
0 0 0 658 750234 -99304 0
0 0 0 649 750883 -98655 0
0 0 0 631 751514 -98024 0
0 0 0 613 752127 -97411 0
0 0 0 599 752726 -96812 0
0 0 0 595 753321 -96217 0
0 0 0 582 753903 -95635 1
0 0 0 582 754485 -95053 1
0 0 0 627 755112 -94426 0
0 0 0 662 755774 -93764 0
0 0 0 661 756435 -93103 0
0 0 0 660 757095 -92443 0
0 0 0 664 757759 -91779 0
0 0 0 655 758414 -91124 0
0 0 0 653 759067 -90471 0
0 0 0 651 759718 -89820 0
0 0 0 653 760371 -89167 0
0 0 0 635 761006 -88532 0
0 0 0 610 761616 -87922 0
0 0 0 612 762228 -87310 0
0 0 0 593 762821 -86717 0
0 0 0 592 763413 -86125 0
0 0 0 617 764030 -85508 0
0 0 0 707 764737 -84801 0
0 0 0 755 765492 -84046 0
0 0 0 758 766250 -83288 0
0 0 0 750 767000 -82538 0
0 0 0 752 767752 -81786 0
0 0 0 718 768470 -81068 0
0 0 0 684 769154 -80384 0
0 0 0 655 769809 -79729 0
0 0 0 650 770459 -79079 0
0 0 0 666 771125 -78413 0
0 0 0 685 771810 -77728 0
0 0 0 716 772526 -77012 0
0 0 0 739 773265 -76273 0
0 0 0 727 773992 -75546 0
0 0 0 699 774691 -74847 0
0 0 0 702 775393 -74145 0
0 0 0 721 776114 -73424 0
0 0 0 743 776857 -72681 0
0 0 0 761 777618 -71920 0
0 0 0 745 778363 -71175 0
0 0 0 731 779094 -70444 0
0 0 0 683 779777 -69761 0
0 0 0 662 780439 -69099 0
0 0 0 657 781096 -68442 0
0 0 0 665 781761 -67777 0
0 0 0 696 782457 -67081 0
0 0 0 742 783199 -66339 0
0 0 0 744 783943 -65595 0
0 0 0 716 784659 -64879 0
0 0 0 725 785384 -64154 0
0 0 0 720 786104 -63434 0
0 0 0 751 786855 -62683 0
0 0 0 763 787618 -61920 0
0 0 0 709 788327 -61211 0
0 0 0 669 788996 -60542 0
0 0 0 646 789642 -59896 0
0 0 0 630 790272 -59266 0
0 0 0 619 790891 -58647 0
0 0 0 610 791501 -58037 0
0 0 0 613 792114 -57424 0
0 0 0 622 792736 -56802 0
0 0 0 649 793385 -56153 0
0 0 0 824 794209 -55329 0
0 0 0 789 794998 -54540 0
0 0 0 788 795786 -53752 0
0 0 0 721 796507 -53031 0
0 0 0 677 797184 -52354 0
0 0 0 655 797839 -51699 0
0 0 0 641 798480 -51058 0
0 0 0 622 799102 -50436 0
0 0 0 612 799714 -49824 0
0 0 0 605 800319 -49219 0
0 0 0 605 800924 -48614 0
0 0 0 612 801536 -48002 0
0 0 0 616 802152 -47386 0
0 0 0 649 802801 -46737 0
0 0 0 667 803468 -46070 0
0 0 0 719 804187 -45351 0
0 0 0 760 804947 -44591 0
0 0 0 797 805744 -43794 0
0 0 0 779 806523 -43015 0
0 0 0 757 807280 -42258 0
0 0 0 723 808003 -41535 0
0 0 0 690 808693 -40845 0
0 0 0 664 809357 -40181 0
0 0 0 667 810024 -39514 0
0 0 0 668 810692 -38846 0
0 0 0 698 811390 -38148 0
0 0 0 749 812139 -37399 0
0 0 0 754 812893 -36645 0
0 0 0 756 813649 -35889 0
0 0 0 761 814410 -35128 0
0 0 0 752 815162 -34376 0
0 0 0 736 815898 -33640 0
0 0 0 725 816623 -32915 0
0 0 0 714 817337 -32201 0
0 0 0 720 818057 -31481 0
0 0 0 743 818800 -30738 0
0 0 0 745 819545 -29993 0
0 0 0 731 820276 -29262 0
0 0 0 715 820991 -28547 0
0 0 0 698 821689 -27849 0
0 0 0 703 822392 -27146 0
0 0 0 688 823080 -26458 0
0 0 0 675 823755 -25783 0
0 0 0 681 824436 -25102 0
0 0 0 712 825148 -24390 0
0 0 0 745 825893 -23645 0
0 0 0 760 826653 -22885 0
0 0 0 784 827437 -22101 0
0 0 0 757 828194 -21344 0
0 0 0 734 828928 -20610 0
0 0 0 702 829630 -19908 0
0 0 0 648 830278 -19260 0
0 0 0 633 830911 -18627 0
0 0 0 617 831528 -18010 0
0 0 0 605 832133 -17405 0
0 0 0 601 832734 -16804 0
0 0 0 615 833349 -16189 0
0 0 0 649 833998 -15540 0
0 0 0 813 834811 -14727 0
0 0 0 820 835631 -13907 0
0 0 0 808 836439 -13099 0
0 0 0 735 837174 -12364 0
0 0 0 700 837874 -11664 0
0 0 0 655 838529 -11009 0
0 0 0 630 839159 -10379 0
0 0 0 622 839781 -9757 0
0 0 0 605 840386 -9152 0
0 0 0 594 840980 -8558 0
0 0 0 591 841571 -7967 0
0 0 0 610 842181 -7357 0
0 0 0 639 842820 -6718 0
0 0 0 690 843510 -6028 0
0 0 0 712 844222 -5316 0
0 0 0 734 844956 -4582 0
0 0 0 727 845683 -3855 0
0 0 0 702 846385 -3153 0
0 0 0 678 847063 -2475 0
41 1 S102 637 847700 -1838 0
41 1 S102 637 848337 -1201 0
41 1 S102 635 848972 -566 0
41 2 S102 662 849634 96 0
41 2 S102 702 850336 798 0
41 2 S102 713 851049 1511 0
41 2 S102 714 851763 2225 0
41 2 S102 735 852498 2960 0
41 2 S102 769 853267 3729 0
41 2 S102 809 854076 4538 0
41 2 S102 815 854891 5353 0
41 2 S102 811 855702 6164 0
41 2 S102 746 856448 6910 0
0 0 0 695 857143 -6221 0
0 0 0 688 857831 -5533 0
0 0 0 693 858524 -4840 0
0 0 0 710 859234 -4130 0
0 0 0 758 859992 -3372 0
0 0 0 733 860725 -2639 0
42 1 S112 708 861433 -1931 0
42 1 S112 747 862180 -1184 0
42 1 S112 772 862952 -412 0
42 2 S112 800 863752 388 0
42 2 S112 828 864580 1216 0
42 2 S112 815 865395 2031 0
42 2 S112 772 866167 2803 0
42 2 S112 727 866894 3530 0
42 2 S112 720 867614 4250 0
42 2 S112 722 868336 4972 0
42 2 S112 760 869096 5732 0
42 2 S112 805 869901 6537 0
0 0 0 792 870693 -9913 0
0 0 0 789 871482 -9124 0
0 0 0 738 872220 -8386 0
0 0 0 697 872917 -7689 0
0 0 0 695 873612 -6994 0
0 0 0 702 874314 -6292 0
0 0 0 742 875056 -5550 0
0 0 0 778 875834 -4772 0
0 0 0 793 876627 -3979 0
0 0 0 755 877382 -3224 0
0 0 0 750 878132 -2474 0
43 1 S116 753 878885 -1721 0
43 1 S116 780 879665 -941 0
43 1 S116 763 880428 -178 0
43 2 S116 720 881148 542 0
43 2 S116 706 881854 1248 0
43 2 S116 706 882560 1954 0
43 2 S116 691 883251 2645 0
43 2 S116 730 883981 3375 0
43 2 S116 776 884757 4151 0
43 2 S116 794 885551 4945 0
43 2 S116 794 886345 5739 0
43 2 S116 782 887127 6521 0
0 0 0 739 887866 -6997 0
0 0 0 705 888571 -6292 0
0 0 0 673 889244 -5619 0
0 0 0 679 889923 -4940 0
0 0 0 670 890593 -4270 0
0 0 0 687 891280 -3583 0
0 0 0 695 891975 -2888 0
0 0 0 706 892681 -2182 0
44 1 S102 704 893385 -1478 0
44 1 S102 709 894094 -769 0
44 1 S102 699 894793 -70 0
44 2 S102 715 895508 645 0
44 2 S102 718 896226 1363 0
44 2 S102 754 896980 2117 0
44 2 S102 766 897746 2883 0
44 2 S102 762 898508 3645 0
44 2 S102 724 899232 4369 0
44 2 S102 696 899928 5065 0
44 2 S102 696 900624 5761 0
44 2 S102 687 901311 6448 0
0 0 0 703 902014 -8930 0
0 0 0 724 902738 -8206 0
0 0 0 738 903476 -7468 0
0 0 0 723 904199 -6745 0
0 0 0 685 904884 -6060 0
0 0 0 668 905552 -5392 0
0 0 0 648 906200 -4744 0
0 0 0 628 906828 -4116 0
0 0 0 639 907467 -3477 0
0 0 0 636 908103 -2841 0
0 0 0 650 908753 -2191 0
45 1 S116 650 909403 -1541 0
45 1 S116 655 910058 -886 0
45 1 S116 642 910700 -244 0
45 2 S116 627 911327 383 0
45 2 S116 625 911952 1008 0
45 2 S116 626 912578 1634 0
45 2 S116 623 913201 2257 0
45 2 S116 622 913823 2879 0
45 2 S116 616 914439 3495 0
45 2 S116 610 915049 4105 0
45 2 S116 609 915658 4714 0
45 2 S116 612 916270 5326 0
45 2 S116 623 916893 5949 0
45 2 S116 614 917507 6563 0
0 0 0 611 918118 -10499 0
0 0 0 599 918717 -9900 0
0 0 0 609 919326 -9291 0
0 0 0 619 919945 -8672 0
0 0 0 614 920559 -8058 0
0 0 0 624 921183 -7434 0
0 0 0 634 921817 -6800 0
0 0 0 655 922472 -6145 0
0 0 0 717 923189 -5428 0
0 0 0 749 923938 -4679 0
0 0 0 775 924713 -3904 0
0 0 0 786 925499 -3118 0
0 0 0 788 926287 -2330 0
46 1 S102 775 927062 -1555 0
46 1 S102 748 927810 -807 0
46 1 S102 733 928543 -74 0
46 2 S102 735 929278 661 0
46 2 S102 713 929991 1374 0
46 2 S102 698 930689 2072 0
46 2 S102 677 931366 2749 0
46 2 S102 688 932054 3437 0
46 2 S102 717 932771 4154 0
46 2 S102 786 933557 4940 0
46 2 S102 819 934376 5759 0
46 2 S102 834 935210 6593 0
0 0 0 809 936019 -10353 0
0 0 0 777 936796 -9576 0
0 0 0 719 937515 -8857 0
0 0 0 708 938223 -8149 0
0 0 0 728 938951 -7421 0
0 0 0 755 939706 -6666 0
0 0 0 748 940454 -5918 0
0 0 0 714 941168 -5204 0
0 0 0 726 941894 -4478 0
0 0 0 736 942630 -3742 0
0 0 0 753 943383 -2989 0
0 0 0 753 944136 -2236 0
47 1 S112 728 944864 -1508 0
47 1 S112 733 945597 -775 0
47 1 S112 735 946332 -40 0
47 2 S112 748 947080 708 0
47 2 S112 781 947861 1489 0
47 2 S112 841 948702 2330 0
47 2 S112 871 949573 3201 0
47 2 S112 841 950414 4042 0
47 2 S112 823 951237 4865 0
47 2 S112 841 952078 5706 0
47 2 S112 836 952914 6542 0
0 0 0 833 953747 -11011 0
0 0 0 830 954577 -10181 0
0 0 0 805 955382 -9376 0
0 0 0 759 956141 -8617 0
0 0 0 741 956882 -7876 0
0 0 0 732 957614 -7144 0
0 0 0 748 958362 -6396 0
0 0 0 768 959130 -5628 0
0 0 0 737 959867 -4891 0
0 0 0 741 960608 -4150 0
0 0 0 738 961346 -3412 0
0 0 0 743 962089 -2669 0
48 1 S116 759 962848 -1910 0
48 1 S116 763 963611 -1147 0
48 1 S116 734 964345 -413 0
48 2 S116 728 965073 315 0
48 2 S116 740 965813 1055 0
48 2 S116 744 966557 1799 0
48 2 S116 747 967304 2546 0
48 2 S116 715 968019 3261 0
48 2 S116 728 968747 3989 0
48 2 S116 733 969480 4722 0
48 2 S116 751 970231 5473 0
48 2 S116 737 970968 6210 0
48 2 S116 731 971699 6941 0
0 0 0 697 972396 -6089 0
0 0 0 701 973097 -5388 0
0 0 0 687 973784 -4701 0
0 0 0 684 974468 -4017 0
0 0 0 669 975137 -3348 0
0 0 0 648 975785 -2700 0
0 0 0 632 976417 -2068 0
49 1 S112 631 977048 -1437 0
49 1 S112 631 977679 -806 0
49 1 S112 640 978319 -166 0
49 2 S112 651 978970 485 0
49 2 S112 680 979650 1165 0
49 2 S112 740 980390 1905 0
49 2 S112 803 981193 2708 0
49 2 S112 797 981990 3505 0
49 2 S112 780 982770 4285 0
49 2 S112 717 983487 5002 0
49 2 S112 695 984182 5697 0
49 2 S112 680 984862 6377 0
0 0 0 686 985548 -11554 0
0 0 0 721 986269 -10833 0
0 0 0 759 987028 -10074 0
0 0 0 738 987766 -9336 0
0 0 0 751 988517 -8585 0
0 0 0 745 989262 -7840 0
0 0 0 738 990000 -7102 0
0 0 0 706 990706 -6396 0
0 0 0 680 991386 -5716 0
0 0 0 668 992054 -5048 0
0 0 0 678 992732 -4370 0
0 0 0 711 993443 -3659 0
0 0 0 807 994250 -2852 0
50 1 S106 864 995114 -1988 0
50 1 S106 882 995996 -1106 0
50 1 S106 864 996860 -242 0
50 2 S106 835 997695 593 0
50 2 S106 815 998510 1408 0
50 2 S106 781 999291 2189 0
50 2 S106 761 1000052 2950 0
50 2 S106 747 1000799 3697 0
50 2 S106 721 1001520 4418 0
50 2 S106 746 1002266 5164 0
50 2 S106 769 1003035 5933 0
50 2 S106 795 1003830 6728 0
0 0 0 790 1004620 -5994 0
0 0 0 777 1005397 -5217 0
0 0 0 764 1006161 -4453 0
0 0 0 765 1006926 -3688 0
0 0 0 784 1007710 -2904 0
0 0 0 786 1008496 -2118 0
51 1 S112 765 1009261 -1353 0
51 1 S112 771 1010032 -582 0
51 2 S112 795 1010827 213 0
51 2 S112 790 1011617 1003 0
51 2 S112 793 1012410 1796 0
51 2 S112 755 1013165 2551 0
51 2 S112 763 1013928 3314 0
51 2 S112 767 1014695 4081 0
51 2 S112 812 1015507 4893 0
51 2 S112 805 1016312 5698 0
51 2 S112 791 1017103 6489 0
0 0 0 815 1017918 -7168 0
0 0 0 804 1018722 -6364 0
0 0 0 793 1019515 -5571 0
0 0 0 738 1020253 -4833 0
0 0 0 734 1020987 -4099 0
0 0 0 717 1021704 -3382 0
0 0 0 708 1022412 -2674 0
52 1 S116 690 1023102 -1984 0
52 1 S116 707 1023809 -1277 0
52 1 S116 738 1024547 -539 0
52 2 S116 784 1025331 245 0
52 2 S116 828 1026159 1073 0
52 2 S116 857 1027016 1930 0
52 2 S116 827 1027843 2757 0
52 2 S116 830 1028673 3587 0
52 2 S116 806 1029479 4393 0
52 2 S116 799 1030278 5192 0
52 2 S116 772 1031050 5964 0
52 2 S116 736 1031786 6700 0
0 0 0 748 1032534 -8418 0
0 0 0 759 1033293 -7659 0
0 0 0 767 1034060 -6892 0
0 0 0 726 1034786 -6166 0
0 0 0 703 1035489 -5463 0
0 0 0 720 1036209 -4743 0
0 0 0 765 1036974 -3978 0
0 0 0 802 1037776 -3176 0
0 0 0 843 1038619 -2333 0
53 1 S106 785 1039404 -1548 0
53 1 S106 799 1040203 -749 0
53 2 S106 801 1041004 52 0
53 2 S106 782 1041786 834 0
53 2 S106 779 1042565 1613 0
53 2 S106 741 1043306 2354 0
53 2 S106 717 1044023 3071 0
53 2 S106 735 1044758 3806 0
53 2 S106 736 1045494 4542 0
53 2 S106 758 1046252 5300 0
53 2 S106 772 1047024 6072 0
53 2 S106 756 1047780 6828 0
0 0 0 734 1048514 -5535 0
0 0 0 741 1049255 -4794 0
0 0 0 735 1049990 -4059 0
0 0 0 731 1050721 -3328 0
0 0 0 729 1051450 -2599 0
54 1 S102 750 1052200 -1849 0
54 1 S102 765 1052965 -1084 0
54 1 S102 781 1053746 -303 0
54 2 S102 768 1054514 465 0
54 2 S102 717 1055231 1182 0
54 2 S102 691 1055922 1873 0
54 2 S102 694 1056616 2567 0
54 2 S102 719 1057335 3286 0
54 2 S102 748 1058083 4034 0
54 2 S102 781 1058864 4815 0
54 2 S102 762 1059626 5577 0
54 2 S102 747 1060373 6324 0
0 0 0 753 1061126 -11673 0
0 0 0 746 1061872 -10927 0
0 0 0 766 1062638 -10161 0
0 0 0 751 1063389 -9410 0
0 0 0 736 1064125 -8674 0
0 0 0 738 1064863 -7936 0
0 0 0 740 1065603 -7196 0
0 0 0 712 1066315 -6484 0
0 0 0 710 1067025 -5774 0
0 0 0 747 1067772 -5027 0
0 0 0 766 1068538 -4261 0
0 0 0 787 1069325 -3474 0
0 0 0 760 1070085 -2714 0
55 1 S106 786 1070871 -1928 0
55 1 S106 787 1071658 -1141 0
55 1 S106 788 1072446 -353 0
55 2 S106 765 1073211 412 0
55 2 S106 783 1073994 1195 0
55 2 S106 793 1074787 1988 0
55 2 S106 785 1075572 2773 0
55 2 S106 763 1076335 3536 0
55 2 S106 760 1077095 4296 0
55 2 S106 760 1077855 5056 0
55 2 S106 759 1078614 5815 0
55 2 S106 759 1079373 6574 0
0 0 0 759 1080132 -5863 0
0 0 0 745 1080877 -5118 0
0 0 0 735 1081612 -4383 0
0 0 0 741 1082353 -3642 0
0 0 0 747 1083100 -2895 0
0 0 0 714 1083814 -2181 0
56 1 S116 707 1084521 -1474 0
56 1 S116 720 1085241 -754 0
56 2 S116 754 1085995 0 0
56 2 S116 764 1086759 764 0
56 2 S116 800 1087559 1564 0
56 2 S116 817 1088376 2381 0
56 2 S116 769 1089145 3150 0
56 2 S116 743 1089888 3893 0
56 2 S116 731 1090619 4624 0
56 2 S116 738 1091357 5362 0
56 2 S116 777 1092134 6139 0
56 2 S116 753 1092887 6892 0
0 0 0 722 1093609 -5948 0
0 0 0 738 1094347 -5210 0
0 0 0 724 1095071 -4486 0
0 0 0 705 1095776 -3781 0
0 0 0 680 1096456 -3101 0
0 0 0 663 1097119 -2438 0
57 1 S106 652 1097771 -1786 0
57 1 S106 657 1098428 -1129 0
57 1 S106 676 1099104 -453 0
57 2 S106 720 1099824 267 0
57 2 S106 788 1100612 1055 0
57 2 S106 812 1101424 1867 0
57 2 S106 767 1102191 2634 0
57 2 S106 752 1102943 3386 0
57 2 S106 747 1103690 4133 0
57 2 S106 747 1104437 4880 0
57 2 S106 711 1105148 5591 0
57 2 S106 697 1105845 6288 0
57 2 S106 715 1106560 7003 0
0 0 0 728 1107288 -7388 0
0 0 0 739 1108027 -6649 0
0 0 0 733 1108760 -5916 0
0 0 0 731 1109491 -5185 0
0 0 0 697 1110188 -4488 0
0 0 0 702 1110890 -3786 0
0 0 0 703 1111593 -3083 0
0 0 0 723 1112316 -2360 0
58 1 S102 732 1113048 -1628 0
58 1 S102 728 1113776 -900 0
58 1 S102 711 1114487 -189 0
58 2 S102 728 1115215 539 0
58 2 S102 712 1115927 1251 0
58 2 S102 719 1116646 1970 0
58 2 S102 708 1117354 2678 0
58 2 S102 675 1118029 3353 0
58 2 S102 664 1118693 4017 0
58 2 S102 688 1119381 4705 0
58 2 S102 676 1120057 5381 0
58 2 S102 646 1120703 6027 0
58 2 S102 630 1121333 6657 0
0 0 0 624 1121957 -6612 0
0 0 0 618 1122575 -5994 0
0 0 0 644 1123219 -5350 0
0 0 0 677 1123896 -4673 0
0 0 0 668 1124564 -4005 0
0 0 0 675 1125239 -3330 0
0 0 0 649 1125888 -2681 0
0 0 0 640 1126528 -2041 0
59 1 S112 624 1127152 -1417 0
59 1 S112 629 1127781 -788 0
59 1 S112 633 1128414 -155 0
59 2 S112 640 1129054 485 0
59 2 S112 721 1129775 1206 0
59 2 S112 783 1130558 1989 0
59 2 S112 791 1131349 2780 0
59 2 S112 792 1132141 3572 0
59 2 S112 789 1132930 4361 0
59 2 S112 755 1133685 5116 0
59 2 S112 730 1134415 5846 0
59 2 S112 703 1135118 6549 0
0 0 0 702 1135820 -10537 0
0 0 0 712 1136532 -9825 0
0 0 0 772 1137304 -9053 0
0 0 0 801 1138105 -8252 0
0 0 0 809 1138914 -7443 0
0 0 0 796 1139710 -6647 0
0 0 0 756 1140466 -5891 0
0 0 0 754 1141220 -5137 0
0 0 0 742 1141962 -4395 0
0 0 0 767 1142729 -3628 0
0 0 0 789 1143518 -2839 0
0 0 0 778 1144296 -2061 0
60 1 S102 759 1145055 -1302 0
60 1 S102 783 1145838 -519 0
60 2 S102 782 1146620 263 0
60 2 S102 793 1147413 1056 0
60 2 S102 785 1148198 1841 0
60 2 S102 748 1148946 2589 0
60 2 S102 752 1149698 3341 0
60 2 S102 740 1150438 4081 0
60 2 S102 747 1151185 4828 0
60 2 S102 759 1151944 5587 0
60 2 S102 737 1152681 6324 0
0 0 0 710 1153391 -11319 0
0 0 0 730 1154121 -10589 0
0 0 0 732 1154853 -9857 0
0 0 0 752 1155605 -9105 0
0 0 0 717 1156322 -8388 0
0 0 0 676 1156998 -7712 0
0 0 0 668 1157666 -7044 0
0 0 0 656 1158322 -6388 0
0 0 0 668 1158990 -5720 0
0 0 0 693 1159683 -5027 0
0 0 0 690 1160373 -4337 0
0 0 0 720 1161093 -3617 0
0 0 0 792 1161885 -2825 0
0 0 0 811 1162696 -2014 0
61 1 S106 809 1163505 -1205 0
61 1 S106 789 1164294 -416 0
61 2 S106 739 1165033 323 0
61 2 S106 736 1165769 1059 0
61 2 S106 744 1166513 1803 0
61 2 S106 764 1167277 2567 0
61 2 S106 776 1168053 3343 0
61 2 S106 751 1168804 4094 0
61 2 S106 747 1169551 4841 0
61 2 S106 743 1170294 5584 0
61 2 S106 749 1171043 6333 0
0 0 0 730 1171773 -6315 0
0 0 0 713 1172486 -5602 0
0 0 0 737 1173223 -4865 0
0 0 0 721 1173944 -4144 0
0 0 0 715 1174659 -3429 0
0 0 0 699 1175358 -2730 0
0 0 0 706 1176064 -2024 0
62 1 S112 716 1176780 -1308 0
62 1 S112 731 1177511 -577 0
62 2 S112 721 1178232 144 0
62 2 S112 707 1178939 851 0
62 2 S112 737 1179676 1588 0
62 2 S112 747 1180423 2335 0
62 2 S112 745 1181168 3080 0
62 2 S112 731 1181899 3811 0
62 2 S112 732 1182631 4543 0
62 2 S112 772 1183403 5315 0
62 2 S112 789 1184192 6104 0
62 2 S112 791 1184983 6895 0
0 0 0 763 1185746 -10794 0
0 0 0 730 1186476 -10064 0
0 0 0 696 1187172 -9368 0
0 0 0 716 1187888 -8652 0
0 0 0 708 1188596 -7944 0
0 0 0 706 1189302 -7238 0
0 0 0 677 1189979 -6561 0
0 0 0 657 1190636 -5904 0
0 0 0 671 1191307 -5233 0
0 0 0 654 1191961 -4579 0
0 0 0 650 1192611 -3929 0
0 0 0 667 1193278 -3262 0
0 0 0 692 1193970 -2570 0
63 1 S102 715 1194685 -1855 0
63 1 S102 732 1195417 -1123 0
63 1 S102 720 1196137 -403 0
63 2 S102 692 1196829 289 0
63 2 S102 684 1197513 973 0
63 2 S102 692 1198205 1665 0
63 2 S102 723 1198928 2388 0
63 2 S102 757 1199685 3145 0
63 2 S102 793 1200478 3938 0
63 2 S102 763 1201241 4701 0
63 2 S102 776 1202017 5477 0
63 2 S102 789 1202806 6266 0
0 0 0 792 1203598 -8194 0
0 0 0 774 1204372 -7420 0
0 0 0 736 1205108 -6684 0
0 0 0 718 1205826 -5966 0
0 0 0 712 1206538 -5254 0
0 0 0 723 1207261 -4531 0
0 0 0 745 1208006 -3786 0
0 0 0 765 1208771 -3021 0
0 0 0 739 1209510 -2282 0
64 1 S112 738 1210248 -1544 0
64 1 S112 755 1211003 -789 0
64 1 S112 781 1211784 -8 0
64 2 S112 800 1212584 792 0
64 2 S112 781 1213365 1573 0
64 2 S112 747 1214112 2320 0
64 2 S112 769 1214881 3089 0
64 2 S112 772 1215653 3861 0
64 2 S112 785 1216438 4646 0
64 2 S112 770 1217208 5416 0
64 2 S112 721 1217929 6137 0
64 2 S112 715 1218644 6852 0
0 0 0 729 1219373 -6793 0
0 0 0 771 1220144 -6022 0
0 0 0 794 1220938 -5228 0
0 0 0 745 1221683 -4483 0
0 0 0 729 1222412 -3754 0
0 0 0 737 1223149 -3017 0
0 0 0 725 1223874 -2292 0
65 1 S106 730 1224604 -1562 0
65 1 S106 711 1225315 -851 0
65 1 S106 731 1226046 -120 0
65 2 S106 731 1226777 611 0
65 2 S106 756 1227533 1367 0
65 2 S106 784 1228317 2151 0
65 2 S106 766 1229083 2917 0
65 2 S106 744 1229827 3661 0
65 2 S106 761 1230588 4422 0
65 2 S106 759 1231347 5181 0
65 2 S106 774 1232121 5955 0
65 2 S106 757 1232878 6712 0
0 0 0 741 1233619 -5909 0
0 0 0 766 1234385 -5143 0
0 0 0 769 1235154 -4374 0
0 0 0 795 1235949 -3579 0
0 0 0 801 1236750 -2778 0
0 0 0 767 1237517 -2011 0
66 1 S116 771 1238288 -1240 0
66 1 S116 782 1239070 -458 0
66 2 S116 784 1239854 326 0
66 2 S116 802 1240656 1128 0
66 2 S116 796 1241452 1924 0
66 2 S116 765 1242217 2689 0
66 2 S116 774 1242991 3463 0
66 2 S116 792 1243783 4255 0
66 2 S116 824 1244607 5079 0
66 2 S116 788 1245395 5867 0
66 2 S116 766 1246161 6633 0
0 0 0 793 1246954 -10628 0
0 0 0 788 1247742 -9840 0
0 0 0 756 1248498 -9084 0
0 0 0 694 1249192 -8390 0
0 0 0 678 1249870 -7712 0
0 0 0 675 1250545 -7037 0
0 0 0 695 1251240 -6342 0
0 0 0 732 1251972 -5610 0
0 0 0 738 1252710 -4872 0
0 0 0 717 1253427 -4155 0
0 0 0 745 1254172 -3410 0
0 0 0 792 1254964 -2618 0
67 1 S102 828 1255792 -1790 0
67 1 S102 807 1256599 -983 0
67 1 S102 773 1257372 -210 0
67 2 S102 725 1258097 515 0
67 2 S102 725 1258822 1240 0
67 2 S102 732 1259554 1972 0
67 2 S102 769 1260323 2741 0
67 2 S102 771 1261094 3512 0
67 2 S102 754 1261848 4266 0
67 2 S102 792 1262640 5058 0
67 2 S102 797 1263437 5855 0
67 2 S102 788 1264225 6643 0
0 0 0 753 1264978 -7060 0
0 0 0 769 1265747 -6291 0
0 0 0 777 1266524 -5514 0
0 0 0 757 1267281 -4757 0
0 0 0 708 1267989 -4049 0
0 0 0 682 1268671 -3367 0
0 0 0 652 1269323 -2715 0
0 0 0 638 1269961 -2077 0
68 1 S106 657 1270618 -1420 0
68 1 S106 725 1271343 -695 0
68 2 S106 749 1272092 54 0
68 2 S106 743 1272835 797 0
68 2 S106 771 1273606 1568 0
68 2 S106 789 1274395 2357 0
68 2 S106 774 1275169 3131 0
68 2 S106 765 1275934 3896 0
68 2 S106 716 1276650 4612 0
68 2 S106 740 1277390 5352 0
68 2 S106 746 1278136 6098 0
68 2 S106 778 1278914 6876 0
0 0 0 754 1279668 -9628 0
0 0 0 762 1280430 -8866 0
0 0 0 755 1281185 -8111 0
0 0 0 745 1281930 -7366 0
0 0 0 723 1282653 -6643 0
0 0 0 724 1283377 -5919 0
0 0 0 751 1284128 -5168 0
0 0 0 776 1284904 -4392 0
0 0 0 763 1285667 -3629 0
0 0 0 742 1286409 -2887 0
0 0 0 767 1287176 -2120 0
69 1 S102 765 1287941 -1355 0
69 1 S102 768 1288709 -587 0
69 2 S102 732 1289441 145 0
69 2 S102 695 1290136 840 0
69 2 S102 695 1290831 1535 0
69 2 S102 689 1291520 2224 0
69 2 S102 729 1292249 2953 0
69 2 S102 776 1293025 3729 0
69 2 S102 795 1293820 4524 0
69 2 S102 753 1294573 5277 0
69 2 S102 766 1295339 6043 0
69 2 S102 768 1296107 6811 0
0 0 0 776 1296883 -8312 0
0 0 0 781 1297664 -7531 0
0 0 0 725 1298389 -6806 0
0 0 0 714 1299103 -6092 0
0 0 0 685 1299788 -5407 0
0 0 0 688 1300476 -4719 0
0 0 0 688 1301164 -4031 0
0 0 0 706 1301870 -3325 0
0 0 0 727 1302597 -2598 0
70 1 S112 783 1303380 -1815 0
70 1 S112 804 1304184 -1011 0
70 1 S112 779 1304963 -232 0
70 2 S112 788 1305751 556 0
70 2 S112 802 1306553 1358 0
70 2 S112 822 1307375 2180 0
70 2 S112 808 1308183 2988 0
70 2 S112 822 1309005 3810 0
70 2 S112 845 1309850 4655 0
70 2 S112 827 1310677 5482 0
70 2 S112 767 1311444 6249 0
70 2 S112 754 1312198 7003 0
0 0 0 765 1312963 -10816 0
0 0 0 792 1313755 -10024 0
0 0 0 753 1314508 -9271 0
0 0 0 780 1315288 -8491 0
0 0 0 755 1316043 -7736 0
0 0 0 728 1316771 -7008 0
0 0 0 721 1317492 -6287 0
0 0 0 726 1318218 -5561 0
0 0 0 748 1318966 -4813 0
0 0 0 756 1319722 -4057 0
0 0 0 723 1320445 -3334 0
0 0 0 746 1321191 -2588 0
71 1 S116 732 1321923 -1856 0
71 1 S116 742 1322665 -1114 0
71 1 S116 742 1323407 -372 0
71 2 S116 712 1324119 340 0
71 2 S116 727 1324846 1067 0
71 2 S116 777 1325623 1844 0
71 2 S116 803 1326426 2647 0
71 2 S116 803 1327229 3450 0
71 2 S116 774 1328003 4224 0
71 2 S116 788 1328791 5012 0
71 2 S116 816 1329607 5828 0
71 2 S116 837 1330444 6665 0
0 0 0 821 1331265 -8396 0
0 0 0 767 1332032 -7629 0
0 0 0 770 1332802 -6859 0
0 0 0 750 1333552 -6109 0
0 0 0 749 1334301 -5360 0
0 0 0 742 1335043 -4618 0
0 0 0 752 1335795 -3866 0
0 0 0 758 1336553 -3108 0
0 0 0 764 1337317 -2344 0
72 1 S102 756 1338073 -1588 0
72 1 S102 727 1338800 -861 0
72 1 S102 740 1339540 -121 0
72 2 S102 753 1340293 632 0
72 2 S102 765 1341058 1397 0
72 2 S102 747 1341805 2144 0
72 2 S102 709 1342514 2853 0
72 2 S102 707 1343221 3560 0
72 2 S102 719 1343940 4279 0
72 2 S102 739 1344679 5018 0
72 2 S102 723 1345402 5741 0
72 2 S102 680 1346082 6421 0
0 0 0 655 1346737 -6751 0
0 0 0 656 1347393 -6095 0
0 0 0 662 1348055 -5433 0
0 0 0 642 1348697 -4791 0
0 0 0 633 1349330 -4158 0
0 0 0 625 1349955 -3533 0
0 0 0 611 1350566 -2922 0
0 0 0 609 1351175 -2313 0
73 1 S116 650 1351825 -1663 0
73 1 S116 659 1352484 -1004 0
73 1 S116 740 1353224 -264 0
73 2 S116 825 1354049 561 0
73 2 S116 867 1354916 1428 0
73 2 S116 885 1355801 2313 0
73 2 S116 896 1356697 3209 0
73 2 S116 874 1357571 4083 0
73 2 S116 849 1358420 4932 0
73 2 S116 788 1359208 5720 0
73 2 S116 741 1359949 6461 0
0 0 0 730 1360679 -9984 0
0 0 0 731 1361410 -9253 0
0 0 0 737 1362147 -8516 0
0 0 0 744 1362891 -7772 0
0 0 0 709 1363600 -7063 0
0 0 0 698 1364298 -6365 0
0 0 0 712 1365010 -5653 0
0 0 0 752 1365762 -4901 0
0 0 0 783 1366545 -4118 0
0 0 0 760 1367305 -3358 0
0 0 0 727 1368032 -2631 0
74 1 S106 733 1368765 -1898 0
74 1 S106 755 1369520 -1143 0
74 1 S106 783 1370303 -360 0
74 2 S106 793 1371096 433 0
74 2 S106 804 1371900 1237 0
74 2 S106 782 1372682 2019 0
74 2 S106 744 1373426 2763 0
74 2 S106 733 1374159 3496 0
74 2 S106 721 1374880 4217 0
74 2 S106 723 1375603 4940 0
74 2 S106 734 1376337 5674 0
74 2 S106 716 1377053 6390 0
0 0 0 699 1377752 -5991 0
0 0 0 716 1378468 -5275 0
0 0 0 720 1379188 -4555 0
0 0 0 750 1379938 -3805 0
0 0 0 757 1380695 -3048 0
0 0 0 754 1381449 -2294 0
75 1 S112 722 1382171 -1572 0
75 1 S112 712 1382883 -860 0
75 1 S112 708 1383591 -152 0
75 2 S112 726 1384317 574 0
75 2 S112 749 1385066 1323 0
75 2 S112 788 1385854 2111 0
75 2 S112 786 1386640 2897 0
75 2 S112 806 1387446 3703 0
75 2 S112 834 1388280 4537 0
75 2 S112 807 1389087 5344 0
75 2 S112 783 1389870 6127 0
75 2 S112 747 1390617 6874 0
0 0 0 705 1391322 -6662 0
0 0 0 674 1391996 -5988 0
0 0 0 700 1392696 -5288 0
0 0 0 718 1393414 -4570 0
0 0 0 708 1394122 -3862 0
0 0 0 690 1394812 -3172 0
0 0 0 667 1395479 -2505 0
76 1 S116 647 1396126 -1858 0
76 1 S116 637 1396763 -1221 0
76 1 S116 632 1397395 -589 0
76 2 S116 628 1398023 39 0
76 2 S116 649 1398672 688 0
76 2 S116 689 1399361 1377 0
76 2 S116 785 1400146 2162 0
76 2 S116 835 1400981 2997 0
76 2 S116 821 1401802 3818 0
76 2 S116 821 1402623 4639 0
76 2 S116 806 1403429 5445 0
76 2 S116 768 1404197 6213 0
76 2 S116 744 1404941 6957 0
0 0 0 735 1405676 -6267 0
0 0 0 702 1406378 -5565 0
0 0 0 673 1407051 -4892 0
0 0 0 681 1407732 -4211 0
0 0 0 702 1408434 -3509 0
0 0 0 766 1409200 -2743 0
0 0 0 739 1409939 -2004 0
77 1 S106 702 1410641 -1302 0
77 1 S106 667 1411308 -635 0
77 2 S106 644 1411952 9 0
77 2 S106 653 1412605 662 0
77 2 S106 660 1413265 1322 0
77 2 S106 675 1413940 1997 0
77 2 S106 718 1414658 2715 0
77 2 S106 729 1415387 3444 0
77 2 S106 724 1416111 4168 0
77 2 S106 712 1416823 4880 0
77 2 S106 724 1417547 5604 0
77 2 S106 737 1418284 6341 0
0 0 0 729 1419013 -8497 0
0 0 0 740 1419753 -7757 0
0 0 0 720 1420473 -7037 0
0 0 0 694 1421167 -6343 0
0 0 0 666 1421833 -5677 0
0 0 0 657 1422490 -5020 0
0 0 0 647 1423137 -4373 0
0 0 0 651 1423788 -3722 0
0 0 0 709 1424497 -3013 0
0 0 0 805 1425302 -2208 0
78 1 S112 884 1426186 -1324 0
78 1 S112 850 1427036 -474 0
78 2 S112 771 1427807 297 0
78 2 S112 721 1428528 1018 0
78 2 S112 688 1429216 1706 0
78 2 S112 691 1429907 2397 0
78 2 S112 676 1430583 3073 0
78 2 S112 648 1431231 3721 0
78 2 S112 647 1431878 4368 0
78 2 S112 654 1432532 5022 0
78 2 S112 699 1433231 5721 0
78 2 S112 783 1434014 6504 0
0 0 0 827 1434841 -11055 0
0 0 0 855 1435696 -10200 0
0 0 0 788 1436484 -9412 0
0 0 0 794 1437278 -8618 0
0 0 0 783 1438061 -7835 0
0 0 0 767 1438828 -7068 0
0 0 0 718 1439546 -6350 0
0 0 0 692 1440238 -5658 0
0 0 0 710 1440948 -4948 0
0 0 0 746 1441694 -4202 0
0 0 0 823 1442517 -3379 0
0 0 0 833 1443350 -2546 0
79 1 S102 820 1444170 -1726 0
79 1 S102 767 1444937 -959 0
79 1 S102 765 1445702 -194 0
79 2 S102 758 1446460 564 0
79 2 S102 799 1447259 1363 0
79 2 S102 809 1448068 2172 0
79 2 S102 804 1448872 2976 0
79 2 S102 756 1449628 3732 0
79 2 S102 760 1450388 4492 0
79 2 S102 779 1451167 5271 0
79 2 S102 816 1451983 6087 0
79 2 S102 831 1452814 6918 0
0 0 0 812 1453626 -8285 0
0 0 0 765 1454391 -7520 0
0 0 0 785 1455176 -6735 0
0 0 0 738 1455914 -5997 0
0 0 0 697 1456611 -5300 0
0 0 0 684 1457295 -4616 0
0 0 0 702 1457997 -3914 0
0 0 0 726 1458723 -3188 0
0 0 0 766 1459489 -2422 0
80 1 S116 777 1460266 -1645 0
80 1 S116 783 1461049 -862 0
80 1 S116 815 1461864 -47 0
80 2 S116 821 1462685 774 0
80 2 S116 830 1463515 1604 0
80 2 S116 804 1464319 2408 0
80 2 S116 754 1465073 3162 0
80 2 S116 783 1465856 3945 0
80 2 S116 815 1466671 4760 0
80 2 S116 871 1467542 5631 0
80 2 S116 856 1468398 6487 0
