T_0051
BeatCount Mean SD BeatCountNoOutliers MeanNoOutliers SDNoOutliers
1841 803,930472569256 67,50606695959 1815 805,733884297521 63,7156608316355

Trial TrialStatus Trialtype IBI AbsPosition RelPosition Outlier
0 0 0 776 1168 -14637 0
0 0 0 707 1875 -13930 0
0 0 0 685 2560 -13245 0
0 0 0 710 3270 -12535 0
0 0 0 772 4042 -11763 0
0 0 0 732 4774 -11031 0
0 0 0 682 5456 -10349 0
0 0 0 648 6104 -9701 0
0 0 0 631 6735 -9070 0
0 0 0 669 7404 -8401 0
0 0 0 797 8201 -7604 0
0 0 0 735 8936 -6869 0
0 0 0 759 9695 -6110 0
0 0 0 777 10472 -5333 0
0 0 0 782 11254 -4551 0
0 0 0 794 12048 -3757 0
0 0 0 802 12850 -2955 0
0 0 0 796 13646 -2159 0
1 1 S112 753 14399 -1406 0
1 1 S112 742 15141 -664 0
1 2 S112 737 15878 73 0
1 2 S112 724 16602 797 0
1 2 S112 699 17301 1496 0
1 2 S112 686 17987 2182 0
1 2 S112 690 18677 2872 0
1 2 S112 714 19391 3586 0
1 2 S112 758 20149 4344 0
1 2 S112 803 20952 5147 0
1 2 S112 790 21742 5937 0
1 2 S112 757 22499 6694 0
0 0 0 778 23277 -10747 0
0 0 0 800 24077 -9947 0
0 0 0 859 24936 -9088 0
0 0 0 760 25696 -8328 0
0 0 0 771 26467 -7557 0
0 0 0 818 27285 -6739 0
0 0 0 841 28126 -5898 0
0 0 0 868 28994 -5030 0
0 0 0 769 29763 -4261 0
0 0 0 755 30518 -3506 0
0 0 0 780 31298 -2726 0
2 1 S102 795 32093 -1931 0
2 1 S102 796 32889 -1135 0
2 1 S102 740 33629 -395 0
2 2 S102 757 34386 362 0
2 2 S102 798 35184 1160 0
2 2 S102 860 36044 2020 0
2 2 S102 834 36878 2854 0
2 2 S102 763 37641 3617 0
2 2 S102 805 38446 4422 0
2 2 S102 826 39272 5248 0
2 2 S102 842 40114 6090 0
2 2 S102 763 40877 6853 0
0 0 0 770 41647 -8575 0
0 0 0 814 42461 -7761 0
0 0 0 824 43285 -6937 0
0 0 0 748 44033 -6189 0
0 0 0 768 44801 -5421 0
0 0 0 785 45586 -4636 0
0 0 0 815 46401 -3821 0
0 0 0 753 47154 -3068 0
0 0 0 754 47908 -2314 0
3 1 S116 781 48689 -1533 0
3 1 S116 855 49544 -678 0
3 2 S116 885 50429 207 0
3 2 S116 876 51305 1083 0
3 2 S116 841 52146 1924 0
3 2 S116 848 52994 2772 0
3 2 S116 838 53832 3610 0
3 2 S116 861 54693 4471 0
3 2 S116 824 55517 5295 0
3 2 S116 808 56325 6103 0
3 2 S116 851 57176 6954 0
0 0 0 852 58028 -10513 0
0 0 0 789 58817 -9724 0
0 0 0 790 59607 -8934 0
0 0 0 810 60417 -8124 0
0 0 0 816 61233 -7308 0
0 0 0 752 61985 -6556 0
0 0 0 751 62736 -5805 0
0 0 0 775 63511 -5030 0
0 0 0 749 64260 -4281 0
0 0 0 684 64944 -3597 0
0 0 0 709 65653 -2888 0
0 0 0 770 66423 -2118 0
4 1 S106 747 67170 -1371 0
4 1 S106 710 67880 -661 0
4 2 S106 731 68611 70 0
4 2 S106 797 69408 867 0
4 2 S106 854 70262 1721 0
4 2 S106 870 71132 2591 0
4 2 S106 771 71903 3362 0
4 2 S106 718 72621 4080 0
4 2 S106 770 73391 4850 0
4 2 S106 860 74251 5710 0
4 2 S106 873 75124 6583 0
0 0 0 856 75980 -5658 0
0 0 0 812 76792 -4846 0
0 0 0 830 77622 -4016 0
0 0 0 792 78414 -3224 0
0 0 0 724 79138 -2500 0
5 1 S116 703 79841 -1797 0
5 1 S116 778 80619 -1019 0
5 1 S116 927 81546 -92 0
5 2 S116 867 82413 775 0
5 2 S116 822 83235 1597 0
5 2 S116 883 84118 2480 0
5 2 S116 895 85013 3375 0
5 2 S116 874 85887 4249 0
5 2 S116 827 86714 5076 0
5 2 S116 868 87582 5944 0
5 2 S116 876 88458 6820 0
0 0 0 862 89320 -7984 0
0 0 0 819 90139 -7165 0
0 0 0 796 90935 -6369 0
0 0 0 835 91770 -5534 0
0 0 0 854 92624 -4680 0
0 0 0 775 93399 -3905 0
0 0 0 825 94224 -3080 0
0 0 0 943 95167 -2137 0
6 1 S106 856 96023 -1281 0
6 1 S106 750 96773 -531 0
6 2 S106 777 97550 246 0
6 2 S106 842 98392 1088 0
6 2 S106 931 99323 2019 0
6 2 S106 825 100148 2844 0
6 2 S106 811 100959 3655 0
6 2 S106 861 101820 4516 0
6 2 S106 855 102675 5371 0
6 2 S106 825 103500 6196 0
6 2 S106 773 104273 6969 0
0 0 0 737 105010 -9967 0
0 0 0 756 105766 -9211 0
0 0 0 775 106541 -8436 0
0 0 0 768 107309 -7668 0
0 0 0 715 108024 -6953 0
0 0 0 703 108727 -6250 0
0 0 0 777 109504 -5473 0
0 0 0 795 110299 -4678 0
0 0 0 744 111043 -3934 0
0 0 0 776 111819 -3158 0
0 0 0 829 112648 -2329 0
7 1 S102 841 113489 -1488 0
7 1 S102 778 114267 -710 0
7 2 S102 736 115003 26 0
7 2 S102 775 115778 801 0
7 2 S102 820 116598 1621 0
7 2 S102 871 117469 2492 0
7 2 S102 847 118316 3339 0
7 2 S102 780 119096 4119 0
7 2 S102 801 119897 4920 0
7 2 S102 868 120765 5788 0
7 2 S102 888 121653 6676 0
0 0 0 839 122492 -8267 0
0 0 0 778 123270 -7489 0
0 0 0 807 124077 -6682 0
0 0 0 827 124904 -5855 0
0 0 0 828 125732 -5027 0
0 0 0 768 126500 -4259 0
0 0 0 798 127298 -3461 0
0 0 0 850 128148 -2611 0
8 1 S112 901 129049 -1710 0
8 1 S112 804 129853 -906 0
8 1 S112 803 130656 -103 0
8 2 S112 795 131451 692 0
8 2 S112 846 132297 1538 0
8 2 S112 829 133126 2367 0
8 2 S112 765 133891 3132 0
8 2 S112 806 134697 3938 0
8 2 S112 853 135550 4791 0
8 2 S112 846 136396 5637 0
8 2 S112 776 137172 6413 0
0 0 0 801 137973 -7375 0
0 0 0 803 138776 -6572 0
0 0 0 814 139590 -5758 0
0 0 0 762 140352 -4996 0
0 0 0 806 141158 -4190 0
0 0 0 825 141983 -3365 0
0 0 0 786 142769 -2579 0
9 1 S116 803 143572 -1776 0
9 1 S116 838 144410 -938 0
9 1 S116 835 145245 -103 0
9 2 S116 789 146034 686 0
9 2 S116 829 146863 1515 0
9 2 S116 852 147715 2367 0
9 2 S116 782 148497 3149 0
9 2 S116 763 149260 3912 0
9 2 S116 793 150053 4705 0
9 2 S116 800 150853 5505 0
9 2 S116 746 151599 6251 0
9 2 S116 752 152351 7003 0
0 0 0 814 153165 -9657 0
0 0 0 859 154024 -8798 0
0 0 0 783 154807 -8015 0
0 0 0 782 155589 -7233 0
0 0 0 791 156380 -6442 0
0 0 0 819 157199 -5623 0
0 0 0 757 157956 -4866 0
0 0 0 759 158715 -4107 0
0 0 0 806 159521 -3301 0
0 0 0 821 160342 -2480 0
10 1 S102 799 161141 -1681 0
10 1 S102 757 161898 -924 0
10 1 S102 802 162700 -122 0
10 2 S102 827 163527 705 0
10 2 S102 861 164388 1566 0
10 2 S102 820 165208 2386 0
10 2 S102 902 166110 3288 0
10 2 S102 941 167051 4229 0
10 2 S102 862 167913 5091 0
10 2 S102 809 168722 5900 0
10 2 S102 834 169556 6734 0
0 0 0 845 170401 -9580 0
0 0 0 855 171256 -8725 0
0 0 0 782 172038 -7943 0
0 0 0 704 172742 -7239 0
0 0 0 779 173521 -6460 0
0 0 0 939 174460 -5521 0
0 0 0 929 175389 -4592 0
0 0 0 856 176245 -3736 0
0 0 0 823 177068 -2913 0
0 0 0 879 177947 -2034 0
11 1 S112 882 178829 -1152 0
11 1 S112 846 179675 -306 0
11 2 S112 806 180481 500 0
11 2 S112 807 181288 1307 0
11 2 S112 892 182180 2199 0
11 2 S112 857 183037 3056 0
11 2 S112 770 183807 3826 0
11 2 S112 787 184594 4613 0
11 2 S112 803 185397 5416 0
11 2 S112 840 186237 6256 0
11 2 S112 772 187009 7028 0
0 0 0 769 187778 -5996 0
0 0 0 813 188591 -5183 0
0 0 0 829 189420 -4354 0
0 0 0 729 190149 -3625 0
0 0 0 718 190867 -2907 0
0 0 0 692 191559 -2215 0
12 1 S116 676 192235 -1539 0
12 1 S116 724 192959 -815 0
12 1 S116 764 193723 -51 0
12 2 S116 793 194516 742 0
12 2 S116 737 195253 1479 0
12 2 S116 843 196096 2322 0
12 2 S116 904 197000 3226 0
12 2 S116 876 197876 4102 0
12 2 S116 782 198658 4884 0
12 2 S116 782 199440 5666 0
12 2 S116 770 200210 6436 0
0 0 0 807 201017 -11507 0
0 0 0 772 201789 -10735 0
0 0 0 740 202529 -9995 0
0 0 0 836 203365 -9159 0
0 0 0 904 204269 -8255 0
0 0 0 837 205106 -7418 0
0 0 0 790 205896 -6628 0
0 0 0 841 206737 -5787 0
0 0 0 839 207576 -4948 0
0 0 0 772 208348 -4176 0
0 0 0 765 209113 -3411 0
0 0 0 819 209932 -2592 0
13 1 S112 880 210812 -1712 0
13 1 S112 837 211649 -875 0
13 1 S112 791 212440 -84 0
13 2 S112 878 213318 794 0
13 2 S112 898 214216 1692 0
13 2 S112 865 215081 2557 0
13 2 S112 815 215896 3372 0
13 2 S112 835 216731 4207 0
13 2 S112 858 217589 5065 0
13 2 S112 860 218449 5925 0
13 2 S112 806 219255 6731 0
0 0 0 825 220080 -12139 0
0 0 0 867 220947 -11272 0
0 0 0 866 221813 -10406 0
0 0 0 812 222625 -9594 0
0 0 0 855 223480 -8739 0
0 0 0 871 224351 -7868 0
0 0 0 821 225172 -7047 0
0 0 0 821 225993 -6226 0
0 0 0 854 226847 -5372 0
0 0 0 855 227702 -4517 0
0 0 0 798 228500 -3719 0
0 0 0 755 229255 -2964 0
0 0 0 748 230003 -2216 0
14 1 S106 821 230824 -1395 0
14 1 S106 837 231661 -558 0
14 2 S106 760 232421 202 0
14 2 S106 826 233247 1028 0
14 2 S106 885 234132 1913 0
14 2 S106 902 235034 2815 0
14 2 S106 854 235888 3669 0
14 2 S106 789 236677 4458 0
14 2 S106 705 237382 5163 0
14 2 S106 669 238051 5832 0
14 2 S106 642 238693 6474 0
0 0 0 694 239387 -10803 0
0 0 0 919 240306 -9884 0
0 0 0 923 241229 -8961 0
0 0 0 942 242171 -8019 0
0 0 0 932 243103 -7087 0
0 0 0 965 244068 -6122 0
0 0 0 922 244990 -5200 0
0 0 0 897 245887 -4303 0
0 0 0 848 246735 -3455 0
0 0 0 812 247547 -2643 0
15 1 S116 783 248330 -1860 0
15 1 S116 812 249142 -1048 0
15 1 S116 816 249958 -232 0
15 2 S116 811 250769 579 0
15 2 S116 824 251593 1403 0
15 2 S116 828 252421 2231 0
15 2 S116 789 253210 3020 0
15 2 S116 769 253979 3789 0
15 2 S116 830 254809 4619 0
15 2 S116 938 255747 5557 0
15 2 S116 951 256698 6508 0
0 0 0 850 257548 -8392 0
0 0 0 823 258371 -7569 0
0 0 0 825 259196 -6744 0
0 0 0 802 259998 -5942 0
0 0 0 802 260800 -5140 0
0 0 0 762 261562 -4378 0
0 0 0 753 262315 -3625 0
0 0 0 726 263041 -2899 0
0 0 0 694 263735 -2205 0
16 1 S116 654 264389 -1551 0
16 1 S116 686 265075 -865 0
16 1 S116 852 265927 -13 0
16 2 S116 891 266818 878 0
16 2 S116 850 267668 1728 0
16 2 S116 790 268458 2518 0
16 2 S116 795 269253 3313 0
16 2 S116 818 270071 4131 0
16 2 S116 823 270894 4954 0
16 2 S116 749 271643 5703 0
16 2 S116 698 272341 6401 0
0 0 0 745 273086 -8752 0
0 0 0 998 274084 -7754 1
0 0 0 946 275030 -6808 0
0 0 0 825 275855 -5983 0
0 0 0 810 276665 -5173 0
0 0 0 845 277510 -4328 0
0 0 0 926 278436 -3402 0
0 0 0 867 279303 -2535 0
17 1 S106 819 280122 -1716 0
17 1 S106 829 280951 -887 0
17 1 S106 811 281762 -76 0
17 2 S106 862 282624 786 0
17 2 S106 830 283454 1616 0
17 2 S106 754 284208 2370 0
17 2 S106 801 285009 3171 0
17 2 S106 882 285891 4053 0
17 2 S106 934 286825 4987 0
17 2 S106 845 287670 5832 0
17 2 S106 868 288538 6700 0
0 0 0 873 289411 -10780 0
0 0 0 881 290292 -9899 0
0 0 0 837 291129 -9062 0
0 0 0 855 291984 -8207 0
0 0 0 853 292837 -7354 0
0 0 0 772 293609 -6582 0
0 0 0 735 294344 -5847 0
0 0 0 765 295109 -5082 0
0 0 0 806 295915 -4276 0
0 0 0 857 296772 -3419 0
0 0 0 785 297557 -2634 0
18 1 S102 791 298348 -1843 0
18 1 S102 870 299218 -973 0
18 1 S102 890 300108 -83 0
18 2 S102 893 301001 810 0
18 2 S102 840 301841 1650 0
18 2 S102 854 302695 2504 0
18 2 S102 863 303558 3367 0
18 2 S102 860 304418 4227 0
18 2 S102 843 305261 5070 0
18 2 S102 862 306123 5932 0
18 2 S102 875 306998 6807 0
0 0 0 886 307884 -6713 0
0 0 0 858 308742 -5855 0
0 0 0 820 309562 -5035 0
0 0 0 809 310371 -4226 0
0 0 0 824 311195 -3402 0
0 0 0 783 311978 -2619 0
19 1 S106 731 312709 -1888 0
19 1 S106 776 313485 -1112 0
19 1 S106 817 314302 -295 0
19 2 S106 824 315126 529 0
19 2 S106 765 315891 1294 0
19 2 S106 795 316686 2089 0
19 2 S106 849 317535 2938 0
19 2 S106 846 318381 3784 0
19 2 S106 773 319154 4557 0
19 2 S106 739 319893 5296 0
19 2 S106 774 320667 6070 0
19 2 S106 867 321534 6937 0
0 0 0 894 322428 -9958 0
0 0 0 781 323209 -9177 0
0 0 0 799 324008 -8378 0
0 0 0 804 324812 -7574 0
0 0 0 730 325542 -6844 0
0 0 0 718 326260 -6126 0
0 0 0 750 327010 -5376 0
0 0 0 801 327811 -4575 0
0 0 0 772 328583 -3803 0
0 0 0 729 329312 -3074 0
0 0 0 803 330115 -2271 0
20 1 S112 890 331005 -1381 0
20 1 S112 893 331898 -488 0
20 2 S112 758 332656 270 0
20 2 S112 777 333433 1047 0
20 2 S112 831 334264 1878 0
20 2 S112 840 335104 2718 0
20 2 S112 779 335883 3497 0
20 2 S112 820 336703 4317 0
20 2 S112 933 337636 5250 0
20 2 S112 873 338509 6123 0
20 2 S112 773 339282 6896 0
0 0 0 802 340084 -9212 0
0 0 0 818 340902 -8394 0
0 0 0 788 341690 -7606 0
0 0 0 782 342472 -6824 0
0 0 0 797 343269 -6027 0
0 0 0 837 344106 -5190 0
0 0 0 785 344891 -4405 0
0 0 0 826 345717 -3579 0
0 0 0 873 346590 -2706 0
21 1 S106 883 347473 -1823 0
21 1 S106 800 348273 -1023 0
21 1 S106 783 349056 -240 0
21 2 S106 796 349852 556 0
21 2 S106 784 350636 1340 0
21 2 S106 736 351372 2076 0
21 2 S106 716 352088 2792 0
21 2 S106 725 352813 3517 0
21 2 S106 743 353556 4260 0
21 2 S106 772 354328 5032 0
21 2 S106 719 355047 5751 0
21 2 S106 757 355804 6508 0
0 0 0 845 356649 -10402 0
0 0 0 880 357529 -9522 0
0 0 0 791 358320 -8731 0
0 0 0 774 359094 -7957 0
0 0 0 771 359865 -7186 0
0 0 0 769 360634 -6417 0
0 0 0 730 361364 -5687 0
0 0 0 719 362083 -4968 0
0 0 0 759 362842 -4209 0
0 0 0 829 363671 -3380 0
0 0 0 858 364529 -2522 0
22 1 S116 799 365328 -1723 0
22 1 S116 830 366158 -893 0
22 1 S116 841 366999 -52 0
22 2 S116 864 367863 812 0
22 2 S116 790 368653 1602 0
22 2 S116 780 369433 2382 0
22 2 S116 784 370217 3166 0
22 2 S116 843 371060 4009 0
22 2 S116 794 371854 4803 0
22 2 S116 743 372597 5546 0
22 2 S116 762 373359 6308 0
0 0 0 803 374162 -8738 0
0 0 0 829 374991 -7909 0
0 0 0 773 375764 -7136 0
0 0 0 782 376546 -6354 0
0 0 0 779 377325 -5575 0
0 0 0 740 378065 -4835 0
0 0 0 735 378800 -4100 0
0 0 0 768 379568 -3332 0
0 0 0 807 380375 -2525 0
23 1 S112 804 381179 -1721 0
23 1 S112 757 381936 -964 0
23 1 S112 762 382698 -202 0
23 2 S112 745 383443 543 0
23 2 S112 751 384194 1294 0
23 2 S112 721 384915 2015 0
23 2 S112 779 385694 2794 0
23 2 S112 852 386546 3646 0
23 2 S112 834 387380 4480 0
23 2 S112 774 388154 5254 0
23 2 S112 843 388997 6097 0
23 2 S112 865 389862 6962 0
0 0 0 806 390668 -8263 0
0 0 0 731 391399 -7532 0
0 0 0 728 392127 -6804 0
0 0 0 718 392845 -6086 0
0 0 0 731 393576 -5355 0
0 0 0 694 394270 -4661 0
0 0 0 735 395005 -3926 0
0 0 0 718 395723 -3208 0
0 0 0 681 396404 -2527 0
24 1 S106 696 397100 -1831 0
24 1 S106 765 397865 -1066 0
24 1 S106 776 398641 -290 0
24 2 S106 702 399343 412 0
24 2 S106 715 400058 1127 0
24 2 S106 749 400807 1876 0
24 2 S106 782 401589 2658 0
24 2 S106 771 402360 3429 0
24 2 S106 701 403061 4130 0
24 2 S106 728 403789 4858 0
24 2 S106 758 404547 5616 0
24 2 S106 756 405303 6372 0
0 0 0 701 406004 -8776 0
0 0 0 728 406732 -8048 0
0 0 0 795 407527 -7253 0
0 0 0 836 408363 -6417 0
0 0 0 744 409107 -5673 0
0 0 0 774 409881 -4899 0
0 0 0 794 410675 -4105 0
0 0 0 867 411542 -3238 0
0 0 0 805 412347 -2433 0
25 1 S102 875 413222 -1558 0
25 1 S102 887 414109 -671 0
25 2 S102 861 414970 190 0
25 2 S102 810 415780 1000 0
25 2 S102 845 416625 1845 0
25 2 S102 856 417481 2701 0
25 2 S102 816 418297 3517 0
25 2 S102 791 419088 4308 0
25 2 S102 838 419926 5146 0
25 2 S102 856 420782 6002 0
25 2 S102 821 421603 6823 0
0 0 0 812 422415 -5943 0
0 0 0 868 423283 -5075 0
0 0 0 865 424148 -4210 0
0 0 0 811 424959 -3399 0
0 0 0 835 425794 -2564 0
26 1 S116 859 426653 -1705 0
26 1 S116 860 427513 -845 0
26 1 S116 808 428321 -37 0
26 2 S116 783 429104 746 0
26 2 S116 815 429919 1561 0
26 2 S116 809 430728 2370 0
26 2 S116 777 431505 3147 0
26 2 S116 849 432354 3996 0
26 2 S116 947 433301 4943 0
26 2 S116 877 434178 5820 0
26 2 S116 837 435015 6657 0
0 0 0 850 435865 -5557 0
0 0 0 849 436714 -4708 0
0 0 0 749 437463 -3959 0
0 0 0 710 438173 -3249 0
0 0 0 669 438842 -2580 0
27 1 S106 649 439491 -1931 0
27 1 S106 691 440182 -1240 0
27 1 S106 803 440985 -437 0
27 2 S106 751 441736 314 0
27 2 S106 846 442582 1160 0
27 2 S106 945 443527 2105 0
27 2 S106 899 444426 3004 0
27 2 S106 802 445228 3806 0
27 2 S106 833 446061 4639 0
27 2 S106 840 446901 5479 0
27 2 S106 766 447667 6245 0
27 2 S106 748 448415 6993 0
0 0 0 771 449186 -7040 0
0 0 0 804 449990 -6236 0
0 0 0 774 450764 -5462 0
0 0 0 838 451602 -4624 0
0 0 0 875 452477 -3749 0
0 0 0 812 453289 -2937 0
0 0 0 749 454038 -2188 0
28 1 S102 773 454811 -1415 0
28 1 S102 766 455577 -649 0
28 2 S102 770 456347 121 0
28 2 S102 740 457087 861 0
28 2 S102 781 457868 1642 0
28 2 S102 817 458685 2459 0
28 2 S102 854 459539 3313 0
28 2 S102 795 460334 4108 0
28 2 S102 831 461165 4939 0
28 2 S102 853 462018 5792 0
28 2 S102 893 462911 6685 0
0 0 0 803 463714 -10633 0
0 0 0 811 464525 -9822 0
0 0 0 837 465362 -8985 0
0 0 0 800 466162 -8185 0
0 0 0 748 466910 -7437 0
0 0 0 793 467703 -6644 0
0 0 0 826 468529 -5818 0
0 0 0 892 469421 -4926 0
0 0 0 813 470234 -4113 0
0 0 0 846 471080 -3267 0
0 0 0 887 471967 -2380 0
29 1 S112 877 472844 -1503 0
29 1 S112 795 473639 -708 0
29 2 S112 802 474441 94 0
29 2 S112 853 475294 947 0
29 2 S112 894 476188 1841 0
29 2 S112 821 477009 2662 0
29 2 S112 819 477828 3481 0
29 2 S112 847 478675 4328 0
29 2 S112 870 479545 5198 0
29 2 S112 814 480359 6012 0
29 2 S112 754 481113 6766 0
0 0 0 780 481893 -6960 0
0 0 0 861 482754 -6099 0
0 0 0 892 483646 -5207 0
0 0 0 838 484484 -4369 0
0 0 0 910 485394 -3459 0
0 0 0 921 486315 -2538 0
30 1 S112 811 487126 -1727 0
30 1 S112 807 487933 -920 0
30 1 S112 800 488733 -120 0
30 2 S112 760 489493 640 0
30 2 S112 703 490196 1343 0
30 2 S112 804 491000 2147 0
30 2 S112 995 491995 3142 1
30 2 S112 931 492926 4073 0
30 2 S112 817 493743 4890 0
30 2 S112 847 494590 5737 0
30 2 S112 864 495454 6601 0
0 0 0 788 496242 -8261 0
0 0 0 789 497031 -7472 0
0 0 0 844 497875 -6628 0
0 0 0 863 498738 -5765 0
0 0 0 761 499499 -5004 0
0 0 0 810 500309 -4194 0
0 0 0 890 501199 -3304 0
0 0 0 849 502048 -2455 0
31 1 S106 756 502804 -1699 0
31 1 S106 771 503575 -928 0
31 1 S106 810 504385 -118 0
31 2 S106 812 505197 694 0
31 2 S106 744 505941 1438 0
31 2 S106 795 506736 2233 0
31 2 S106 828 507564 3061 0
31 2 S106 877 508441 3938 0
31 2 S106 789 509230 4727 0
31 2 S106 755 509985 5482 0
31 2 S106 786 510771 6268 0
0 0 0 897 511668 -8700 0
0 0 0 804 512472 -7896 0
0 0 0 747 513219 -7149 0
0 0 0 688 513907 -6461 0
0 0 0 655 514562 -5806 0
0 0 0 690 515252 -5116 0
0 0 0 764 516016 -4352 0
0 0 0 900 516916 -3452 0
0 0 0 855 517771 -2597 0
32 1 S102 863 518634 -1734 0
32 1 S102 867 519501 -867 0
32 1 S102 852 520353 -15 0
32 2 S102 857 521210 842 0
32 2 S102 806 522016 1648 0
32 2 S102 745 522761 2393 0
32 2 S102 735 523496 3128 0
32 2 S102 737 524233 3865 0
32 2 S102 742 524975 4607 0
32 2 S102 703 525678 5310 0
32 2 S102 687 526365 5997 0
32 2 S102 730 527095 6727 0
0 0 0 815 527910 -10181 0
0 0 0 877 528787 -9304 0
0 0 0 863 529650 -8441 0
0 0 0 823 530473 -7618 0
0 0 0 803 531276 -6815 0
0 0 0 774 532050 -6041 0
0 0 0 760 532810 -5281 0
0 0 0 745 533555 -4536 0
0 0 0 746 534301 -3790 0
0 0 0 745 535046 -3045 0
0 0 0 769 535815 -2276 0
33 1 S112 813 536628 -1463 0
33 1 S112 862 537490 -601 0
33 2 S112 876 538366 275 0
33 2 S112 805 539171 1080 0
33 2 S112 739 539910 1819 0
33 2 S112 769 540679 2588 0
33 2 S112 770 541449 3358 0
33 2 S112 797 542246 4155 0
33 2 S112 730 542976 4885 0
33 2 S112 747 543723 5632 0
33 2 S112 874 544597 6506 0
0 0 0 923 545520 -11238 0
0 0 0 861 546381 -10377 0
0 0 0 750 547131 -9627 0
0 0 0 741 547872 -8886 0
0 0 0 687 548559 -8199 0
0 0 0 660 549219 -7539 0
0 0 0 680 549899 -6859 0
0 0 0 688 550587 -6171 0
0 0 0 663 551250 -5508 0
0 0 0 694 551944 -4814 0
0 0 0 759 552703 -4055 0
0 0 0 866 553569 -3189 0
0 0 0 832 554401 -2357 0
34 1 S106 742 555143 -1615 0
34 1 S106 747 555890 -868 0
34 1 S106 783 556673 -85 0
34 2 S106 798 557471 713 0
34 2 S106 743 558214 1456 0
34 2 S106 734 558948 2190 0
34 2 S106 827 559775 3017 0
34 2 S106 908 560683 3925 0
34 2 S106 864 561547 4789 0
34 2 S106 813 562360 5602 0
34 2 S106 841 563201 6443 0
0 0 0 852 564053 -8255 0
0 0 0 844 564897 -7411 0
0 0 0 790 565687 -6621 0
0 0 0 747 566434 -5874 0
0 0 0 770 567204 -5104 0
0 0 0 818 568022 -4286 0
0 0 0 745 568767 -3541 0
0 0 0 820 569587 -2721 0
35 1 S102 911 570498 -1810 0
35 1 S102 874 571372 -936 0
35 1 S102 823 572195 -113 0
35 2 S102 776 572971 663 0
35 2 S102 689 573660 1352 0
35 2 S102 661 574321 2013 0
35 2 S102 643 574964 2656 0
35 2 S102 628 575592 3284 1
35 2 S102 618 576210 3902 1
35 2 S102 615 576825 4517 1
35 2 S102 671 577496 5188 0
35 2 S102 853 578349 6041 0
35 2 S102 814 579163 6855 0
0 0 0 859 580022 -6046 0
0 0 0 875 580897 -5171 0
0 0 0 868 581765 -4303 0
0 0 0 789 582554 -3514 0
0 0 0 696 583250 -2818 0
0 0 0 673 583923 -2145 0
36 1 S106 639 584562 -1506 0
36 1 S106 624 585186 -882 1
36 1 S106 642 585828 -240 0
36 2 S106 680 586508 440 0
36 2 S106 759 587267 1199 0
36 2 S106 797 588064 1996 0
36 2 S106 751 588815 2747 0
36 2 S106 790 589605 3537 0
36 2 S106 850 590455 4387 0
36 2 S106 899 591354 5286 0
36 2 S106 827 592181 6113 0
36 2 S106 758 592939 6871 0
0 0 0 789 593728 -7360 0
0 0 0 840 594568 -6520 0
0 0 0 866 595434 -5654 0
0 0 0 789 596223 -4865 0
0 0 0 807 597030 -4058 0
0 0 0 877 597907 -3181 0
0 0 0 908 598815 -2273 0
37 1 S116 825 599640 -1448 0
37 1 S116 828 600468 -620 0
37 2 S116 858 601326 238 0
37 2 S116 849 602175 1087 0
37 2 S116 822 602997 1909 0
37 2 S116 713 603710 2622 0
37 2 S116 668 604378 3290 0
37 2 S116 642 605020 3932 0
37 2 S116 630 605650 4562 0
37 2 S116 628 606278 5190 1
37 2 S116 631 606909 5821 0
37 2 S116 630 607539 6451 0
0 0 0 660 608199 -12087 0
0 0 0 840 609039 -11247 0
0 0 0 835 609874 -10412 0
0 0 0 847 610721 -9565 0
0 0 0 869 611590 -8696 0
0 0 0 847 612437 -7849 0
0 0 0 862 613299 -6987 0
0 0 0 814 614113 -6173 0
0 0 0 747 614860 -5426 0
0 0 0 727 615587 -4699 0
0 0 0 716 616303 -3983 0
0 0 0 686 616989 -3297 0
0 0 0 683 617672 -2614 0
38 1 S102 726 618398 -1888 0
38 1 S102 788 619186 -1100 0
38 1 S102 883 620069 -217 0
38 2 S102 828 620897 611 0
38 2 S102 868 621765 1479 0
38 2 S102 926 622691 2405 0
38 2 S102 882 623573 3287 0
38 2 S102 839 624412 4126 0
38 2 S102 889 625301 5015 0
38 2 S102 909 626210 5924 0
38 2 S102 870 627080 6794 0
0 0 0 876 627956 -9373 0
0 0 0 852 628808 -8521 0
0 0 0 838 629646 -7683 0
0 0 0 788 630434 -6895 0
0 0 0 785 631219 -6110 0
0 0 0 795 632014 -5315 0
0 0 0 723 632737 -4592 0
0 0 0 754 633491 -3838 0
0 0 0 758 634249 -3080 0
0 0 0 704 634953 -2376 0
39 1 S116 711 635664 -1665 0
39 1 S116 773 636437 -892 0
39 1 S116 714 637151 -178 0
39 2 S116 748 637899 570 0
39 2 S116 817 638716 1387 0
39 2 S116 881 639597 2268 0
39 2 S116 809 640406 3077 0
39 2 S116 746 641152 3823 0
39 2 S116 800 641952 4623 0
39 2 S116 849 642801 5472 0
39 2 S116 795 643596 6267 0
39 2 S116 735 644331 7002 0
0 0 0 784 645115 -5808 0
0 0 0 905 646020 -4903 0
0 0 0 873 646893 -4030 0
0 0 0 767 647660 -3263 0
0 0 0 791 648451 -2472 0
40 1 S112 820 649271 -1652 0
40 1 S112 852 650123 -800 0
40 1 S112 767 650890 -33 0
40 2 S112 838 651728 805 0
40 2 S112 914 652642 1719 0
40 2 S112 861 653503 2580 0
40 2 S112 800 654303 3380 0
40 2 S112 843 655146 4223 0
40 2 S112 856 656002 5079 0
40 2 S112 790 656792 5869 0
40 2 S112 750 657542 6619 0
0 0 0 823 658365 -186608 0
0 0 0 879 659244 -185729 0
0 0 0 885 660129 -184844 0
0 0 0 794 660923 -184050 0
0 0 0 773 661696 -183277 0
0 0 0 734 662430 -182543 0
0 0 0 695 663125 -181848 0
0 0 0 743 663868 -181105 0
0 0 0 826 664694 -180279 0
0 0 0 795 665489 -179484 0
0 0 0 724 666213 -178760 0
0 0 0 695 666908 -178065 0
0 0 0 672 667580 -177393 0
0 0 0 661 668241 -176732 0
0 0 0 641 668882 -176091 0
0 0 0 626 669508 -175465 1
0 0 0 613 670121 -174852 1
0 0 0 617 670738 -174235 1
0 0 0 608 671346 -173627 1
0 0 0 604 671950 -173023 1
0 0 0 605 672555 -172418 1
0 0 0 619 673174 -171799 1
0 0 0 673 673847 -171126 0
0 0 0 724 674571 -170402 0
0 0 0 707 675278 -169695 0
0 0 0 673 675951 -169022 0
0 0 0 643 676594 -168379 0
0 0 0 615 677209 -167764 1
0 0 0 597 677806 -167167 1
0 0 0 587 678393 -166580 1
0 0 0 632 679025 -165948 0
0 0 0 522 679547 -165426 1
0 0 0 578 680125 -164848 1
0 0 0 605 680730 -164243 1
0 0 0 585 681315 -163658 1
0 0 0 586 681901 -163072 1
0 0 0 606 682507 -162466 1
0 0 0 640 683147 -161826 0
0 0 0 716 683863 -161110 0
0 0 0 801 684664 -160309 0
0 0 0 805 685469 -159504 0
0 0 0 790 686259 -158714 0
0 0 0 793 687052 -157921 0
0 0 0 794 687846 -157127 0
0 0 0 766 688612 -156361 0
0 0 0 738 689350 -155623 0
0 0 0 726 690076 -154897 0
0 0 0 737 690813 -154160 0
0 0 0 740 691553 -153420 0
0 0 0 860 692413 -152560 0
0 0 0 757 693170 -151803 0
0 0 0 726 693896 -151077 0
0 0 0 882 694778 -150195 0
0 0 0 895 695673 -149300 0
0 0 0 888 696561 -148412 0
0 0 0 871 697432 -147541 0
0 0 0 783 698215 -146758 0
0 0 0 797 699012 -145961 0
0 0 0 809 699821 -145152 0
0 0 0 840 700661 -144312 0
0 0 0 844 701505 -143468 0
0 0 0 856 702361 -142612 0
0 0 0 798 703159 -141814 0
0 0 0 819 703978 -140995 0
0 0 0 828 704806 -140167 0
0 0 0 803 705609 -139364 0
0 0 0 863 706472 -138501 0
0 0 0 844 707316 -137657 0
0 0 0 852 708168 -136805 0
0 0 0 816 708984 -135989 0
0 0 0 770 709754 -135219 0
0 0 0 764 710518 -134455 0
0 0 0 875 711393 -133580 0
0 0 0 907 712300 -132673 0
0 0 0 832 713132 -131841 0
0 0 0 839 713971 -131002 0
0 0 0 857 714828 -130145 0
0 0 0 854 715682 -129291 0
0 0 0 797 716479 -128494 0
0 0 0 798 717277 -127696 0
0 0 0 794 718071 -126902 0
0 0 0 882 718953 -126020 0
0 0 0 837 719790 -125183 0
0 0 0 810 720600 -124373 0
0 0 0 803 721403 -123570 0
0 0 0 842 722245 -122728 0
0 0 0 860 723105 -121868 0
0 0 0 848 723953 -121020 0
0 0 0 808 724761 -120212 0
0 0 0 838 725599 -119374 0
0 0 0 853 726452 -118521 0
0 0 0 853 727305 -117668 0
0 0 0 783 728088 -116885 0
0 0 0 768 728856 -116117 0
0 0 0 812 729668 -115305 0
0 0 0 885 730553 -114420 0
0 0 0 811 731364 -113609 0
0 0 0 839 732203 -112770 0
0 0 0 868 733071 -111902 0
0 0 0 852 733923 -111050 0
0 0 0 780 734703 -110270 0
0 0 0 842 735545 -109428 0
0 0 0 895 736440 -108533 0
0 0 0 874 737314 -107659 0
0 0 0 837 738151 -106822 0
0 0 0 854 739005 -105968 0
0 0 0 885 739890 -105083 0
0 0 0 796 740686 -104287 0
0 0 0 802 741488 -103485 0
0 0 0 849 742337 -102636 0
0 0 0 796 743133 -101840 0
0 0 0 783 743916 -101057 0
0 0 0 854 744770 -100203 0
0 0 0 910 745680 -99293 0
0 0 0 861 746541 -98432 0
0 0 0 789 747330 -97643 0
0 0 0 833 748163 -96810 0
0 0 0 835 748998 -95975 0
0 0 0 822 749820 -95153 0
0 0 0 762 750582 -94391 0
0 0 0 794 751376 -93597 0
0 0 0 825 752201 -92772 0
0 0 0 852 753053 -91920 0
0 0 0 784 753837 -91136 0
0 0 0 822 754659 -90314 0
0 0 0 873 755532 -89441 0
0 0 0 845 756377 -88596 0
0 0 0 761 757138 -87835 0
0 0 0 718 757856 -87117 0
0 0 0 662 758518 -86455 0
0 0 0 663 759181 -85792 0
0 0 0 667 759848 -85125 0
0 0 0 874 760722 -84251 0
0 0 0 820 761542 -83431 0
0 0 0 775 762317 -82656 0
0 0 0 699 763016 -81957 0
0 0 0 672 763688 -81285 0
0 0 0 665 764353 -80620 0
0 0 0 661 765014 -79959 0
0 0 0 712 765726 -79247 0
0 0 0 741 766467 -78506 0
0 0 0 805 767272 -77701 0
0 0 0 831 768103 -76870 0
0 0 0 794 768897 -76076 0
0 0 0 774 769671 -75302 0
0 0 0 801 770472 -74501 0
0 0 0 831 771303 -73670 0
0 0 0 843 772146 -72827 0
0 0 0 854 773000 -71973 0
0 0 0 799 773799 -71174 0
0 0 0 834 774633 -70340 0
0 0 0 852 775485 -69488 0
0 0 0 857 776342 -68631 0
0 0 0 792 777134 -67839 0
0 0 0 816 777950 -67023 0
0 0 0 864 778814 -66159 0
0 0 0 983 779797 -65176 1
0 0 0 950 780747 -64226 0
0 0 0 840 781587 -63386 0
0 0 0 875 782462 -62511 0
0 0 0 894 783356 -61617 0
0 0 0 915 784271 -60702 0
0 0 0 847 785118 -59855 0
0 0 0 866 785984 -58989 0
0 0 0 889 786873 -58100 0
0 0 0 904 787777 -57196 0
0 0 0 859 788636 -56337 0
0 0 0 875 789511 -55462 0
0 0 0 881 790392 -54581 0
0 0 0 902 791294 -53679 0
0 0 0 859 792153 -52820 0
0 0 0 846 792999 -51974 0
0 0 0 886 793885 -51088 0
0 0 0 892 794777 -50196 0
0 0 0 838 795615 -49358 0
0 0 0 868 796483 -48490 0
0 0 0 880 797363 -47610 0
0 0 0 863 798226 -46747 0
0 0 0 809 799035 -45938 0
0 0 0 782 799817 -45156 0
0 0 0 779 800596 -44377 0
0 0 0 799 801395 -43578 0
0 0 0 706 802101 -42872 0
0 0 0 699 802800 -42173 0
0 0 0 752 803552 -41421 0
0 0 0 922 804474 -40499 0
0 0 0 885 805359 -39614 0
0 0 0 880 806239 -38734 0
0 0 0 834 807073 -37900 0
0 0 0 731 807804 -37169 0
0 0 0 724 808528 -36445 0
0 0 0 727 809255 -35718 0
0 0 0 754 810009 -34964 0
0 0 0 749 810758 -34215 0
0 0 0 692 811450 -33523 0
0 0 0 702 812152 -32821 0
0 0 0 702 812854 -32119 0
0 0 0 769 813623 -31350 0
0 0 0 832 814455 -30518 0
0 0 0 836 815291 -29682 0
0 0 0 847 816138 -28835 0
0 0 0 821 816959 -28014 0
0 0 0 814 817773 -27200 0
0 0 0 789 818562 -26411 0
0 0 0 786 819348 -25625 0
0 0 0 771 820119 -24854 0
0 0 0 762 820881 -24092 0
0 0 0 739 821620 -23353 0
0 0 0 732 822352 -22621 0
0 0 0 799 823151 -21822 0
0 0 0 887 824038 -20935 0
0 0 0 929 824967 -20006 0
0 0 0 898 825865 -19108 0
0 0 0 813 826678 -18295 0
0 0 0 821 827499 -17474 0
0 0 0 797 828296 -16677 0
0 0 0 799 829095 -15878 0
0 0 0 774 829869 -15104 0
0 0 0 874 830743 -14230 0
0 0 0 903 831646 -13327 0
0 0 0 770 832416 -12557 0
0 0 0 728 833144 -11829 0
0 0 0 705 833849 -11124 0
0 0 0 719 834568 -10405 0
0 0 0 719 835287 -9686 0
0 0 0 682 835969 -9004 0
0 0 0 690 836659 -8314 0
0 0 0 722 837381 -7592 0
0 0 0 789 838170 -6803 0
0 0 0 830 839000 -5973 0
0 0 0 739 839739 -5234 0
0 0 0 801 840540 -4433 0
0 0 0 752 841292 -3681 0
0 0 0 685 841977 -2996 0
0 0 0 677 842654 -2319 0
41 1 S102 661 843315 -1658 0
41 1 S102 686 844001 -972 0
41 1 S102 786 844787 -186 0
41 2 S102 794 845581 608 0
41 2 S102 722 846303 1330 0
41 2 S102 741 847044 2071 0
41 2 S102 805 847849 2876 0
41 2 S102 812 848661 3688 0
41 2 S102 762 849423 4450 0
41 2 S102 759 850182 5209 0
41 2 S102 775 850957 5984 0
41 2 S102 785 851742 6769 0
0 0 0 732 852474 -7121 0
0 0 0 720 853194 -6401 0
0 0 0 808 854002 -5593 0
0 0 0 840 854842 -4753 0
0 0 0 782 855624 -3971 0
0 0 0 772 856396 -3199 0
0 0 0 907 857303 -2292 0
42 1 S112 943 858246 -1349 0
42 1 S112 890 859136 -459 0
42 2 S112 787 859923 328 0
42 2 S112 874 860797 1202 0
42 2 S112 933 861730 2135 0
42 2 S112 864 862594 2999 0
42 2 S112 821 863415 3820 0
42 2 S112 891 864306 4711 0
42 2 S112 904 865210 5615 0
42 2 S112 906 866116 6521 0
0 0 0 839 866955 -11274 0
0 0 0 878 867833 -10396 0
0 0 0 885 868718 -9511 0
0 0 0 835 869553 -8676 0
0 0 0 870 870423 -7806 0
0 0 0 884 871307 -6922 0
0 0 0 854 872161 -6068 0
0 0 0 798 872959 -5270 0
0 0 0 774 873733 -4496 0
0 0 0 769 874502 -3727 0
0 0 0 729 875231 -2998 0
0 0 0 726 875957 -2272 0
43 1 S116 763 876720 -1509 0
43 1 S116 841 877561 -668 0
43 2 S116 855 878416 187 0
43 2 S116 848 879264 1035 0
43 2 S116 899 880163 1934 0
43 2 S116 912 881075 2846 0
43 2 S116 848 881923 3694 0
43 2 S116 845 882768 4539 0
43 2 S116 873 883641 5412 0
43 2 S116 865 884506 6277 0
0 0 0 810 885316 -7038 0
0 0 0 827 886143 -6211 0
0 0 0 851 886994 -5360 0
0 0 0 879 887873 -4481 0
0 0 0 787 888660 -3694 0
0 0 0 807 889467 -2887 0
0 0 0 862 890329 -2025 0
44 1 S102 850 891179 -1175 0
44 1 S102 836 892015 -339 0
44 2 S102 895 892910 556 0
44 2 S102 908 893818 1464 0
44 2 S102 834 894652 2298 0
44 2 S102 769 895421 3067 0
44 2 S102 703 896124 3770 0
44 2 S102 718 896842 4488 0
44 2 S102 789 897631 5277 0
44 2 S102 955 898586 6232 0
0 0 0 939 899525 -8778 0
0 0 0 876 900401 -7902 0
0 0 0 861 901262 -7041 0
0 0 0 877 902139 -6164 0
0 0 0 845 902984 -5319 0
0 0 0 758 903742 -4561 0
0 0 0 754 904496 -3807 0
0 0 0 779 905275 -3028 0
0 0 0 749 906024 -2279 0
45 1 S116 761 906785 -1518 0
45 1 S116 829 907614 -689 0
45 2 S116 860 908474 171 0
45 2 S116 810 909284 981 0
45 2 S116 815 910099 1796 0
45 2 S116 826 910925 2622 0
45 2 S116 822 911747 3444 0
45 2 S116 760 912507 4204 0
45 2 S116 785 913292 4989 0
45 2 S116 819 914111 5808 0
45 2 S116 797 914908 6605 0
0 0 0 759 915667 -11916 0
0 0 0 792 916459 -11124 0
0 0 0 821 917280 -10303 0
0 0 0 787 918067 -9516 0
0 0 0 792 918859 -8724 0
0 0 0 756 919615 -7968 0
0 0 0 719 920334 -7249 0
0 0 0 675 921009 -6574 0
0 0 0 668 921677 -5906 0
0 0 0 684 922361 -5222 0
0 0 0 668 923029 -4554 0
0 0 0 699 923728 -3855 0
0 0 0 736 924464 -3119 0
0 0 0 816 925280 -2303 0
46 1 S102 732 926012 -1571 0
46 1 S102 751 926763 -820 0
46 1 S102 793 927556 -27 0
46 2 S102 818 928374 791 0
46 2 S102 723 929097 1514 0
46 2 S102 738 929835 2252 0
46 2 S102 758 930593 3010 0
46 2 S102 774 931367 3784 0
46 2 S102 716 932083 4500 0
46 2 S102 747 932830 5247 0
46 2 S102 832 933662 6079 0
46 2 S102 891 934553 6970 0
0 0 0 754 935307 -8739 0
0 0 0 785 936092 -7954 0
0 0 0 855 936947 -7099 0
0 0 0 778 937725 -6321 0
0 0 0 724 938449 -5597 0
0 0 0 779 939228 -4818 0
0 0 0 820 940048 -3998 0
0 0 0 807 940855 -3191 0
0 0 0 760 941615 -2431 0
47 1 S112 819 942434 -1612 0
47 1 S112 845 943279 -767 0
47 2 S112 799 944078 32 0
47 2 S112 771 944849 803 0
47 2 S112 855 945704 1658 0
47 2 S112 900 946604 2558 0
47 2 S112 850 947454 3408 0
47 2 S112 774 948228 4182 0
47 2 S112 829 949057 5011 0
47 2 S112 899 949956 5910 0
47 2 S112 839 950795 6749 0
0 0 0 737 951532 -10054 0
0 0 0 828 952360 -9226 0
0 0 0 869 953229 -8357 0
0 0 0 781 954010 -7576 0
0 0 0 772 954782 -6804 0
0 0 0 807 955589 -5997 0
0 0 0 844 956433 -5153 0
0 0 0 775 957208 -4378 0
0 0 0 829 958037 -3549 0
0 0 0 908 958945 -2641 0
48 1 S116 881 959826 -1760 0
48 1 S116 781 960607 -979 0
48 1 S116 839 961446 -140 0
48 2 S116 859 962305 719 0
48 2 S116 774 963079 1493 0
48 2 S116 729 963808 2222 0
48 2 S116 808 964616 3030 0
48 2 S116 841 965457 3871 0
48 2 S116 775 966232 4646 0
48 2 S116 739 966971 5385 0
48 2 S116 828 967799 6213 0
0 0 0 983 968782 -7393 1
0 0 0 879 969661 -6514 0
0 0 0 810 970471 -5704 0
0 0 0 862 971333 -4842 0
0 0 0 834 972167 -4008 0
0 0 0 734 972901 -3274 0
0 0 0 736 973637 -2538 0
49 1 S112 704 974341 -1834 0
49 1 S112 675 975016 -1159 0
49 1 S112 702 975718 -457 0
49 2 S112 803 976521 346 0
49 2 S112 826 977347 1172 0
49 2 S112 802 978149 1974 0
49 2 S112 889 979038 2863 0
49 2 S112 951 979989 3814 0
49 2 S112 904 980893 4718 0
49 2 S112 821 981714 5539 0
49 2 S112 719 982433 6258 0
49 2 S112 721 983154 6979 0
0 0 0 719 983873 -10488 0
0 0 0 795 984668 -9693 0
0 0 0 742 985410 -8951 0
0 0 0 756 986166 -8195 0
0 0 0 882 987048 -7313 0
0 0 0 913 987961 -6400 0
0 0 0 822 988783 -5578 0
0 0 0 886 989669 -4692 0
0 0 0 912 990581 -3780 0
0 0 0 831 991412 -2949 0
0 0 0 759 992171 -2190 0
50 1 S106 787 992958 -1403 0
50 1 S106 828 993786 -575 0
50 2 S106 928 994714 353 0
50 2 S106 852 995566 1205 0
50 2 S106 825 996391 2030 0
50 2 S106 896 997287 2926 0
50 2 S106 907 998194 3833 0
50 2 S106 796 998990 4629 0
50 2 S106 803 999793 5432 0
50 2 S106 830 1000623 6262 0
0 0 0 918 1001541 -6447 0
0 0 0 841 1002382 -5606 0
0 0 0 869 1003251 -4737 0
0 0 0 880 1004131 -3857 0
0 0 0 858 1004989 -2999 0
0 0 0 797 1005786 -2202 0
51 1 S112 831 1006617 -1371 0
51 1 S112 856 1007473 -515 0
51 2 S112 865 1008338 350 0
51 2 S112 794 1009132 1144 0
51 2 S112 838 1009970 1982 0
51 2 S112 873 1010843 2855 0
51 2 S112 896 1011739 3751 0
51 2 S112 815 1012554 4566 0
51 2 S112 835 1013389 5401 0
51 2 S112 862 1014251 6263 0
0 0 0 845 1015096 -6818 0
0 0 0 820 1015916 -5998 0
0 0 0 920 1016836 -5078 0
0 0 0 911 1017747 -4167 0
0 0 0 797 1018544 -3370 0
0 0 0 781 1019325 -2589 0
52 1 S116 717 1020042 -1872 0
52 1 S116 682 1020724 -1190 0
52 1 S116 704 1021428 -486 0
52 2 S116 771 1022199 285 0
52 2 S116 739 1022938 1024 0
52 2 S116 884 1023822 1908 0
52 2 S116 968 1024790 2876 0
52 2 S116 924 1025714 3800 0
52 2 S116 830 1026544 4630 0
52 2 S116 851 1027395 5481 0
52 2 S116 870 1028265 6351 0
0 0 0 857 1029122 -8940 0
0 0 0 759 1029881 -8181 0
0 0 0 740 1030621 -7441 0
0 0 0 784 1031405 -6657 0
0 0 0 876 1032281 -5781 0
0 0 0 801 1033082 -4980 0
0 0 0 763 1033845 -4217 0
0 0 0 855 1034700 -3362 0
0 0 0 917 1035617 -2445 0
53 1 S106 900 1036517 -1545 0
53 1 S106 811 1037328 -734 0
53 1 S106 724 1038052 -10 0
53 2 S106 713 1038765 703 0
53 2 S106 784 1039549 1487 0
53 2 S106 801 1040350 2288 0
53 2 S106 750 1041100 3038 0
53 2 S106 704 1041804 3742 0
53 2 S106 665 1042469 4407 0
53 2 S106 649 1043118 5056 0
53 2 S106 706 1043824 5762 0
53 2 S106 905 1044729 6667 0
0 0 0 885 1045614 -5545 0
0 0 0 905 1046519 -4640 0
0 0 0 872 1047391 -3768 0
0 0 0 856 1048247 -2912 0
0 0 0 842 1049089 -2070 0
54 1 S102 805 1049894 -1265 0
54 1 S102 781 1050675 -484 0
54 2 S102 771 1051446 287 0
54 2 S102 759 1052205 1046 0
54 2 S102 747 1052952 1793 0
54 2 S102 773 1053725 2566 0
54 2 S102 787 1054512 3353 0
54 2 S102 789 1055301 4142 0
54 2 S102 776 1056077 4918 0
54 2 S102 784 1056861 5702 0
54 2 S102 789 1057650 6491 0
0 0 0 803 1058453 -10610 0
0 0 0 753 1059206 -9857 0
0 0 0 774 1059980 -9083 0
0 0 0 760 1060740 -8323 0
0 0 0 755 1061495 -7568 0
0 0 0 706 1062201 -6862 0
0 0 0 742 1062943 -6120 0
0 0 0 765 1063708 -5355 0
0 0 0 760 1064468 -4595 0
0 0 0 848 1065316 -3747 0
0 0 0 920 1066236 -2827 0
55 1 S106 888 1067124 -1939 0
55 1 S106 753 1067877 -1186 0
55 1 S106 757 1068634 -429 0
55 2 S106 756 1069390 327 0
55 2 S106 816 1070206 1143 0
55 2 S106 754 1070960 1897 0
55 2 S106 765 1071725 2662 0
55 2 S106 862 1072587 3524 0
55 2 S106 931 1073518 4455 0
55 2 S106 845 1074363 5300 0
55 2 S106 796 1075159 6096 0
55 2 S106 886 1076045 6982 0
0 0 0 870 1076915 -5726 0
0 0 0 839 1077754 -4887 0
0 0 0 813 1078567 -4074 0
0 0 0 841 1079408 -3233 0
0 0 0 829 1080237 -2404 0
56 1 S116 812 1081049 -1592 0
56 1 S116 825 1081874 -767 0
56 2 S116 833 1082707 66 0
56 2 S116 845 1083552 911 0
56 2 S116 805 1084357 1716 0
56 2 S116 774 1085131 2490 0
56 2 S116 690 1085821 3180 0
56 2 S116 712 1086533 3892 0
56 2 S116 761 1087294 4653 0
56 2 S116 826 1088120 5479 0
56 2 S116 770 1088890 6249 0
56 2 S116 745 1089635 6994 0
0 0 0 718 1090353 -5385 0
0 0 0 702 1091055 -4683 0
0 0 0 670 1091725 -4013 0
0 0 0 648 1092373 -3365 0
0 0 0 643 1093016 -2722 0
0 0 0 647 1093663 -2075 0
57 1 S106 651 1094314 -1424 0
57 1 S106 654 1094968 -770 0
57 1 S106 702 1095670 -68 0
57 2 S106 858 1096528 790 0
57 2 S106 904 1097432 1694 0
57 2 S106 874 1098306 2568 0
57 2 S106 879 1099185 3447 0
57 2 S106 847 1100032 4294 0
57 2 S106 803 1100835 5097 0
57 2 S106 770 1101605 5867 0
57 2 S106 761 1102366 6628 0
0 0 0 831 1103197 -8406 0
0 0 0 789 1103986 -7617 0
0 0 0 848 1104834 -6769 0
0 0 0 903 1105737 -5866 0
0 0 0 875 1106612 -4991 0
0 0 0 809 1107421 -4182 0
0 0 0 811 1108232 -3371 0
0 0 0 841 1109073 -2530 0
58 1 S102 863 1109936 -1667 0
58 1 S102 822 1110758 -845 0
58 1 S102 818 1111576 -27 0
58 2 S102 860 1112436 833 0
58 2 S102 845 1113281 1678 0
58 2 S102 757 1114038 2435 0
58 2 S102 752 1114790 3187 0
58 2 S102 765 1115555 3952 0
58 2 S102 898 1116453 4850 0
58 2 S102 901 1117354 5751 0
58 2 S102 972 1118326 6723 0
0 0 0 930 1119256 -6422 0
0 0 0 880 1120136 -5542 0
0 0 0 856 1120992 -4686 0
0 0 0 882 1121874 -3804 0
0 0 0 868 1122742 -2936 0
0 0 0 794 1123536 -2142 0
59 1 S112 764 1124300 -1378 0
59 1 S112 800 1125100 -578 0
59 2 S112 771 1125871 193 0
59 2 S112 751 1126622 944 0
59 2 S112 932 1127554 1876 0
59 2 S112 908 1128462 2784 0
59 2 S112 792 1129254 3576 0
59 2 S112 800 1130054 4376 0
59 2 S112 865 1130919 5241 0
59 2 S112 868 1131787 6109 0
59 2 S112 781 1132568 6890 0
0 0 0 754 1133322 -8636 0
0 0 0 818 1134140 -7818 0
0 0 0 893 1135033 -6925 0
0 0 0 778 1135811 -6147 0
0 0 0 803 1136614 -5344 0
0 0 0 839 1137453 -4505 0
0 0 0 863 1138316 -3642 0
0 0 0 789 1139105 -2853 0
0 0 0 748 1139853 -2105 0
60 1 S102 797 1140650 -1308 0
60 1 S102 830 1141480 -478 0
60 2 S102 808 1142288 330 0
60 2 S102 781 1143069 1111 0
60 2 S102 904 1143973 2015 0
60 2 S102 940 1144913 2955 0
60 2 S102 883 1145796 3838 0
60 2 S102 776 1146572 4614 0
60 2 S102 799 1147371 5413 0
60 2 S102 834 1148205 6247 0
0 0 0 848 1149053 -11639 0
0 0 0 794 1149847 -10845 0
0 0 0 954 1150801 -9891 0
0 0 0 969 1151770 -8922 0
0 0 0 810 1152580 -8112 0
0 0 0 805 1153385 -7307 0
0 0 0 835 1154220 -6472 0
0 0 0 763 1154983 -5709 0
0 0 0 718 1155701 -4991 0
0 0 0 753 1156454 -4238 0
0 0 0 884 1157338 -3354 0
0 0 0 889 1158227 -2465 0
61 1 S106 826 1159053 -1639 0
61 1 S106 966 1160019 -673 0
61 2 S106 954 1160973 281 0
61 2 S106 863 1161836 1144 0
61 2 S106 912 1162748 2056 0
61 2 S106 911 1163659 2967 0
61 2 S106 842 1164501 3809 0
61 2 S106 794 1165295 4603 0
61 2 S106 837 1166132 5440 0
61 2 S106 867 1166999 6307 0
0 0 0 808 1167807 -5949 0
0 0 0 893 1168700 -5056 0
0 0 0 918 1169618 -4138 0
0 0 0 839 1170457 -3299 0
0 0 0 826 1171283 -2473 0
62 1 S112 868 1172151 -1605 0
62 1 S112 838 1172989 -767 0
62 2 S112 794 1173783 27 0
62 2 S112 877 1174660 904 0
62 2 S112 941 1175601 1845 0
62 2 S112 847 1176448 2692 0
62 2 S112 826 1177274 3518 0
62 2 S112 862 1178136 4380 0
62 2 S112 904 1179040 5284 0
62 2 S112 807 1179847 6091 0
62 2 S112 826 1180673 6917 0
0 0 0 854 1181527 -9918 0
0 0 0 847 1182374 -9071 0
0 0 0 781 1183155 -8290 0
0 0 0 821 1183976 -7469 0
0 0 0 837 1184813 -6632 0
0 0 0 843 1185656 -5789 0
0 0 0 791 1186447 -4998 0
0 0 0 882 1187329 -4116 0
0 0 0 967 1188296 -3149 0
0 0 0 886 1189182 -2263 0
63 1 S102 834 1190016 -1429 0
63 1 S102 892 1190908 -537 0
63 2 S102 925 1191833 388 0
63 2 S102 853 1192686 1241 0
63 2 S102 860 1193546 2101 0
63 2 S102 868 1194414 2969 0
63 2 S102 754 1195168 3723 0
63 2 S102 745 1195913 4468 0
63 2 S102 899 1196812 5367 0
63 2 S102 984 1197796 6351 1
0 0 0 930 1198726 -8485 0
0 0 0 856 1199582 -7629 0
0 0 0 882 1200464 -6747 0
0 0 0 893 1201357 -5854 0
0 0 0 865 1202222 -4989 0
0 0 0 819 1203041 -4170 0
0 0 0 795 1203836 -3375 0
0 0 0 825 1204661 -2550 0
64 1 S112 893 1205554 -1657 0
64 1 S112 828 1206382 -829 0
64 1 S112 822 1207204 -7 0
64 2 S112 897 1208101 890 0
64 2 S112 888 1208989 1778 0
64 2 S112 897 1209886 2675 0
64 2 S112 841 1210727 3516 0
64 2 S112 885 1211612 4401 0
64 2 S112 897 1212509 5298 0
64 2 S112 877 1213386 6175 0
64 2 S112 853 1214239 7028 0
0 0 0 874 1215113 -6952 0
0 0 0 875 1215988 -6077 0
0 0 0 856 1216844 -5221 0
0 0 0 795 1217639 -4426 0
0 0 0 801 1218440 -3625 0
0 0 0 857 1219297 -2768 0
65 1 S106 838 1220135 -1930 0
65 1 S106 847 1220982 -1083 0
65 1 S106 889 1221871 -194 0
65 2 S106 772 1222643 578 0
65 2 S106 707 1223350 1285 0
65 2 S106 669 1224019 1954 0
65 2 S106 649 1224668 2603 0
65 2 S106 684 1225352 3287 0
65 2 S106 922 1226274 4209 0
65 2 S106 879 1227153 5088 0
65 2 S106 814 1227967 5902 0
65 2 S106 770 1228737 6672 0
0 0 0 702 1229439 -6088 0
0 0 0 716 1230155 -5372 0
0 0 0 699 1230854 -4673 0
0 0 0 661 1231515 -4012 0
0 0 0 646 1232161 -3366 0
0 0 0 643 1232804 -2723 0
0 0 0 646 1233450 -2077 0
66 1 S116 663 1234113 -1414 0
66 1 S116 685 1234798 -729 0
66 1 S116 700 1235498 -29 0
66 2 S116 711 1236209 682 0
66 2 S116 720 1236929 1402 0
66 2 S116 689 1237618 2091 0
66 2 S116 713 1238331 2804 0
66 2 S116 778 1239109 3582 0
66 2 S116 817 1239926 4399 0
66 2 S116 815 1240741 5214 0
66 2 S116 757 1241498 5971 0
66 2 S116 748 1242246 6719 0
0 0 0 753 1242999 -11477 0
0 0 0 796 1243795 -10681 0
0 0 0 847 1244642 -9834 0
0 0 0 814 1245456 -9020 0
0 0 0 826 1246282 -8194 0
0 0 0 825 1247107 -7369 0
0 0 0 788 1247895 -6581 0
0 0 0 756 1248651 -5825 0
0 0 0 787 1249438 -5038 0
0 0 0 808 1250246 -4230 0
0 0 0 820 1251066 -3410 0
0 0 0 826 1251892 -2584 0
67 1 S102 777 1252669 -1807 0
67 1 S102 810 1253479 -997 0
67 1 S102 852 1254331 -145 0
67 2 S102 874 1255205 729 0
67 2 S102 809 1256014 1538 0
67 2 S102 824 1256838 2362 0
67 2 S102 864 1257702 3226 0
67 2 S102 907 1258609 4133 0
67 2 S102 848 1259457 4981 0
67 2 S102 828 1260285 5809 0
67 2 S102 867 1261152 6676 0
0 0 0 867 1262019 -6366 0
0 0 0 808 1262827 -5558 0
0 0 0 831 1263658 -4727 0
0 0 0 833 1264491 -3894 0
0 0 0 789 1265280 -3105 0
0 0 0 789 1266069 -2316 0
68 1 S106 860 1266929 -1456 0
68 1 S106 921 1267850 -535 0
68 2 S106 842 1268692 307 0
68 2 S106 859 1269551 1166 0
68 2 S106 906 1270457 2072 0
68 2 S106 892 1271349 2964 0
68 2 S106 859 1272208 3823 0
68 2 S106 802 1273010 4625 0
68 2 S106 785 1273795 5410 0
68 2 S106 827 1274622 6237 0
0 0 0 796 1275418 -10756 0
0 0 0 778 1276196 -9978 0
0 0 0 916 1277112 -9062 0
0 0 0 878 1277990 -8184 0
0 0 0 762 1278752 -7422 0
0 0 0 807 1279559 -6615 0
0 0 0 885 1280444 -5730 0
0 0 0 851 1281295 -4879 0
0 0 0 806 1282101 -4073 0
0 0 0 864 1282965 -3209 0
0 0 0 894 1283859 -2315 0
69 1 S102 881 1284740 -1434 0
69 1 S102 829 1285569 -605 0
69 2 S102 849 1286418 244 0
69 2 S102 855 1287273 1099 0
69 2 S102 853 1288126 1952 0
69 2 S102 794 1288920 2746 0
69 2 S102 793 1289713 3539 0
69 2 S102 880 1290593 4419 0
69 2 S102 849 1291442 5268 0
69 2 S102 820 1292262 6088 0
69 2 S102 883 1293145 6971 0
0 0 0 884 1294029 -7961 0
0 0 0 837 1294866 -7124 0
0 0 0 851 1295717 -6273 0
0 0 0 869 1296586 -5404 0
0 0 0 856 1297442 -4548 0
0 0 0 790 1298232 -3758 0
0 0 0 756 1298988 -3002 0
0 0 0 798 1299786 -2204 0
70 1 S112 906 1300692 -1298 0
70 1 S112 822 1301514 -476 0
70 2 S112 850 1302364 374 0
70 2 S112 875 1303239 1249 0
70 2 S112 851 1304090 2100 0
70 2 S112 828 1304918 2928 0
70 2 S112 870 1305788 3798 0
70 2 S112 882 1306670 4680 0
70 2 S112 818 1307488 5498 0
70 2 S112 831 1308319 6329 0
0 0 0 846 1309165 -10696 0
0 0 0 835 1310000 -9861 0
0 0 0 760 1310760 -9101 0
0 0 0 804 1311564 -8297 0
0 0 0 841 1312405 -7456 0
0 0 0 770 1313175 -6686 0
0 0 0 744 1313919 -5942 0
0 0 0 779 1314698 -5163 0
0 0 0 853 1315551 -4310 0
0 0 0 857 1316408 -3453 0
0 0 0 757 1317165 -2696 0
71 1 S116 803 1317968 -1893 0
71 1 S116 846 1318814 -1047 0
71 1 S116 873 1319687 -174 0
71 2 S116 801 1320488 627 0
71 2 S116 793 1321281 1420 0
71 2 S116 810 1322091 2230 0
71 2 S116 836 1322927 3066 0
71 2 S116 839 1323766 3905 0
71 2 S116 736 1324502 4641 0
71 2 S116 771 1325273 5412 0
71 2 S116 813 1326086 6225 0
0 0 0 844 1326930 -9924 0
0 0 0 761 1327691 -9163 0
0 0 0 758 1328449 -8405 0
0 0 0 736 1329185 -7669 0
0 0 0 748 1329933 -6921 0
0 0 0 698 1330631 -6223 0
0 0 0 675 1331306 -5548 0
0 0 0 707 1332013 -4841 0
0 0 0 733 1332746 -4108 0
0 0 0 694 1333440 -3414 0
0 0 0 752 1334192 -2662 0
72 1 S102 800 1334992 -1862 0
72 1 S102 801 1335793 -1061 0
72 1 S102 736 1336529 -325 0
72 2 S102 715 1337244 390 0
72 2 S102 736 1337980 1126 0
72 2 S102 753 1338733 1879 0
72 2 S102 787 1339520 2666 0
72 2 S102 748 1340268 3414 0
72 2 S102 767 1341035 4181 0
72 2 S102 783 1341818 4964 0
72 2 S102 831 1342649 5795 0
72 2 S102 783 1343432 6578 0
0 0 0 808 1344240 -6142 0
0 0 0 842 1345082 -5300 0
0 0 0 845 1345927 -4455 0
0 0 0 768 1346695 -3687 0
0 0 0 785 1347480 -2902 0
0 0 0 798 1348278 -2104 0
73 1 S116 826 1349104 -1278 0
73 1 S116 765 1349869 -513 0
73 2 S116 782 1350651 269 0
73 2 S116 809 1351460 1078 0
73 2 S116 861 1352321 1939 0
73 2 S116 806 1353127 2745 0
73 2 S116 823 1353950 3568 0
73 2 S116 852 1354802 4420 0
73 2 S116 918 1355720 5338 0
73 2 S116 834 1356554 6172 0
73 2 S116 847 1357401 7019 0
0 0 0 853 1358254 -8822 0
0 0 0 807 1359061 -8015 0
0 0 0 751 1359812 -7264 0
0 0 0 771 1360583 -6493 0
0 0 0 785 1361368 -5708 0
0 0 0 772 1362140 -4936 0
0 0 0 741 1362881 -4195 0
0 0 0 775 1363656 -3420 0
0 0 0 799 1364455 -2621 0
74 1 S106 852 1365307 -1769 0
74 1 S106 775 1366082 -994 0
74 1 S106 802 1366884 -192 0
74 2 S106 811 1367695 619 0
74 2 S106 821 1368516 1440 0
74 2 S106 761 1369277 2201 0
74 2 S106 789 1370066 2990 0
74 2 S106 793 1370859 3783 0
74 2 S106 801 1371660 4584 0
74 2 S106 768 1372428 5352 0
74 2 S106 807 1373235 6159 0
74 2 S106 834 1374069 6993 0
0 0 0 810 1374879 -6107 0
0 0 0 750 1375629 -5357 0
0 0 0 793 1376422 -4564 0
0 0 0 792 1377214 -3772 0
0 0 0 776 1377990 -2996 0
0 0 0 717 1378707 -2279 0
75 1 S112 727 1379434 -1552 0
75 1 S112 690 1380124 -862 0
75 1 S112 670 1380794 -192 0
75 2 S112 697 1381491 505 0
75 2 S112 788 1382279 1293 0
75 2 S112 837 1383116 2130 0
75 2 S112 767 1383883 2897 0
75 2 S112 729 1384612 3626 0
75 2 S112 769 1385381 4395 0
75 2 S112 836 1386217 5231 0
75 2 S112 817 1387034 6048 0
75 2 S112 718 1387752 6766 0
0 0 0 725 1388477 -6633 0
0 0 0 757 1389234 -5876 0
0 0 0 831 1390065 -5045 0
0 0 0 793 1390858 -4252 0
0 0 0 827 1391685 -3425 0
0 0 0 870 1392555 -2555 0
76 1 S116 838 1393393 -1717 0
76 1 S116 760 1394153 -957 0
76 1 S116 779 1394932 -178 0
76 2 S116 791 1395723 613 0
76 2 S116 756 1396479 1369 0
76 2 S116 726 1397205 2095 0
76 2 S116 773 1397978 2868 0
76 2 S116 817 1398795 3685 0
76 2 S116 751 1399546 4436 0
76 2 S116 804 1400350 5240 0
76 2 S116 891 1401241 6131 0
76 2 S116 880 1402121 7011 0
0 0 0 774 1402895 -5246 0
0 0 0 781 1403676 -4465 0
0 0 0 810 1404486 -3655 0
0 0 0 776 1405262 -2879 0
0 0 0 710 1405972 -2169 0
77 1 S106 735 1406707 -1434 0
77 1 S106 782 1407489 -652 0
77 2 S106 812 1408301 160 0
77 2 S106 761 1409062 921 0
77 2 S106 823 1409885 1744 0
77 2 S106 825 1410710 2569 0
77 2 S106 826 1411536 3395 0
77 2 S106 744 1412280 4139 0
77 2 S106 695 1412975 4834 0
77 2 S106 689 1413664 5523 0
77 2 S106 740 1414404 6263 0
0 0 0 778 1415182 -8626 0
0 0 0 755 1415937 -7871 0
0 0 0 817 1416754 -7054 0
0 0 0 860 1417614 -6194 0
0 0 0 825 1418439 -5369 0
0 0 0 744 1419183 -4625 0
0 0 0 813 1419996 -3812 0
0 0 0 861 1420857 -2951 0
0 0 0 840 1421697 -2111 0
78 1 S112 741 1422438 -1370 0
78 1 S112 774 1423212 -596 0
78 2 S112 856 1424068 260 0
78 2 S112 896 1424964 1156 0
78 2 S112 824 1425788 1980 0
78 2 S112 892 1426680 2872 0
78 2 S112 893 1427573 3765 0
78 2 S112 864 1428437 4629 0
78 2 S112 809 1429246 5438 0
78 2 S112 851 1430097 6289 0
0 0 0 860 1430957 -12198 0
0 0 0 870 1431827 -11328 0
0 0 0 809 1432636 -10519 0
0 0 0 841 1433477 -9678 0
0 0 0 884 1434361 -8794 0
0 0 0 850 1435211 -7944 0
0 0 0 811 1436022 -7133 0
0 0 0 845 1436867 -6288 0
0 0 0 798 1437665 -5490 0
0 0 0 742 1438407 -4748 0
0 0 0 825 1439232 -3923 0
0 0 0 872 1440104 -3051 0
0 0 0 887 1440991 -2164 0
79 1 S102 805 1441796 -1359 0
79 1 S102 739 1442535 -620 0
79 2 S102 790 1443325 170 0
79 2 S102 876 1444201 1046 0
79 2 S102 906 1445107 1952 0
79 2 S102 790 1445897 2742 0
79 2 S102 828 1446725 3570 0
79 2 S102 844 1447569 4414 0
79 2 S102 850 1448419 5264 0
79 2 S102 772 1449191 6036 0
79 2 S102 767 1449958 6803 0
0 0 0 829 1450787 -7653 0
0 0 0 883 1451670 -6770 0
0 0 0 779 1452449 -5991 0
0 0 0 795 1453244 -5196 0
0 0 0 836 1454080 -4360 0
0 0 0 828 1454908 -3532 0
0 0 0 728 1455636 -2804 0
0 0 0 732 1456368 -2072 0
80 1 S116 742 1457110 -1330 0
80 1 S116 743 1457853 -587 0
80 2 S116 697 1458550 110 0
80 2 S116 710 1459260 820 0
80 2 S116 754 1460014 1574 0
80 2 S116 900 1460914 2474 0
80 2 S116 831 1461745 3305 0
80 2 S116 827 1462572 4132 0
80 2 S116 841 1463413 4973 0
80 2 S116 857 1464270 5830 0
80 2 S116 814 1465084 6644 0
