T_0014
BeatCount Mean SD BeatCountNoOutliers MeanNoOutliers SDNoOutliers
1478 1053,36468200271 57,0004717722731 1425 1060,80701754386 41,590029768349

Trial TrialStatus Trialtype IBI AbsPosition RelPosition Outlier
0 0 0 1011 1550 -14598 0
0 0 0 1002 2552 -13596 0
0 0 0 1050 3602 -12546 0
0 0 0 1074 4676 -11472 0
0 0 0 1070 5746 -10402 0
0 0 0 1121 6867 -9281 0
0 0 0 1116 7983 -8165 0
0 0 0 1051 9034 -7114 0
0 0 0 1052 10086 -6062 0
0 0 0 1071 11157 -4991 0
0 0 0 1109 12266 -3882 0
0 0 0 1026 13292 -2856 0
1 1 S112 1065 14357 -1791 0
1 1 S112 1115 15472 -676 0
1 2 S112 1087 16559 411 0
1 2 S112 1094 17653 1505 0
1 2 S112 1090 18743 2595 0
1 2 S112 1023 19766 3618 0
1 2 S112 1038 20804 4656 0
1 2 S112 1067 21871 5723 0
1 2 S112 1013 22884 6736 0
0 0 0 956 23840 -12915 0
0 0 0 1018 24858 -11897 0
0 0 0 971 25829 -10926 0
0 0 0 1002 26831 -9924 0
0 0 0 1088 27919 -8836 0
0 0 0 1031 28950 -7805 0
0 0 0 1051 30001 -6754 0
0 0 0 1022 31023 -5732 0
0 0 0 992 32015 -4740 0
0 0 0 998 33013 -3742 0
0 0 0 1009 34022 -2733 0
2 1 S102 985 35007 -1748 0
2 1 S102 973 35980 -775 0
2 2 S102 1025 37005 250 0
2 2 S102 1078 38083 1328 0
2 2 S102 1012 39095 2340 0
2 2 S102 1023 40118 3363 0
2 2 S102 1015 41133 4378 0
2 2 S102 979 42112 5357 0
2 2 S102 1013 43125 6370 0
0 0 0 1062 44187 -8898 0
0 0 0 1011 45198 -7887 0
0 0 0 1045 46243 -6842 0
0 0 0 1044 47287 -5798 0
0 0 0 1018 48305 -4780 0
0 0 0 963 49268 -3817 0
0 0 0 999 50267 -2818 0
3 1 S116 1047 51314 -1771 0
3 1 S116 995 52309 -776 0
3 2 S116 972 53281 196 0
3 2 S116 993 54274 1189 0
3 2 S116 1029 55303 2218 0
3 2 S116 1021 56324 3239 0
3 2 S116 1022 57346 4261 0
3 2 S116 1075 58421 5336 0
3 2 S116 1065 59486 6401 0
0 0 0 992 60478 -11440 0
0 0 0 1000 61478 -10440 0
0 0 0 1015 62493 -9425 0
0 0 0 992 63485 -8433 0
0 0 0 1012 64497 -7421 0
0 0 0 1013 65510 -6408 0
0 0 0 977 66487 -5431 0
0 0 0 1020 67507 -4411 0
0 0 0 1037 68544 -3374 0
0 0 0 1034 69578 -2340 0
4 1 S106 997 70575 -1343 0
4 1 S106 1014 71589 -329 0
4 2 S106 1012 72601 683 0
4 2 S106 1008 73609 1691 0
4 2 S106 968 74577 2659 0
4 2 S106 986 75563 3645 0
4 2 S106 1018 76581 4663 0
4 2 S106 1010 77591 5673 0
4 2 S106 988 78579 6661 0
0 0 0 1029 79608 -7180 0
0 0 0 1035 80643 -6145 0
0 0 0 1028 81671 -5117 0
0 0 0 1026 82697 -4091 0
0 0 0 1001 83698 -3090 0
0 0 0 990 84688 -2100 0
5 1 S116 1013 85701 -1087 0
5 1 S116 1006 86707 -81 0
5 2 S116 977 87684 896 0
5 2 S116 989 88673 1885 0
5 2 S116 990 89663 2875 0
5 2 S116 977 90640 3852 0
5 2 S116 949 91589 4801 0
5 2 S116 990 92579 5791 0
5 2 S116 1016 93595 6807 0
0 0 0 1020 94615 -8752 0
0 0 0 1033 95648 -7719 0
0 0 0 1048 96696 -6671 0
0 0 0 1008 97704 -5663 0
0 0 0 974 98678 -4689 0
0 0 0 980 99658 -3709 0
0 0 0 993 100651 -2716 0
6 1 S106 992 101643 -1724 0
6 1 S106 974 102617 -750 0
6 2 S106 1024 103641 274 0
6 2 S106 1056 104697 1330 0
6 2 S106 1030 105727 2360 0
6 2 S106 1030 106757 3390 0
6 2 S106 978 107735 4368 0
6 2 S106 995 108730 5363 0
6 2 S106 967 109697 6330 0
0 0 0 1023 110720 -10966 0
0 0 0 1069 111789 -9897 0
0 0 0 1018 112807 -8879 0
0 0 0 1038 113845 -7841 0
0 0 0 993 114838 -6848 0
0 0 0 995 115833 -5853 0
0 0 0 941 116774 -4912 0
0 0 0 879 117653 -4033 1
0 0 0 904 118557 -3129 1
0 0 0 962 119519 -2167 0
7 1 S102 1038 120557 -1129 0
7 1 S102 1058 121615 -71 0
7 2 S102 1012 122627 941 0
7 2 S102 1020 123647 1961 0
7 2 S102 1034 124681 2995 0
7 2 S102 1024 125705 4019 0
7 2 S102 993 126698 5012 0
7 2 S102 1014 127712 6026 0
0 0 0 1030 128742 -9837 0
0 0 0 1018 129760 -8819 0
0 0 0 1052 130812 -7767 0
0 0 0 1055 131867 -6712 0
0 0 0 1018 132885 -5694 0
0 0 0 1021 133906 -4673 0
0 0 0 1014 134920 -3659 0
0 0 0 1016 135936 -2643 0
8 1 S112 1058 136994 -1585 0
8 1 S112 1037 138031 -548 0
8 2 S112 1001 139032 453 0
8 2 S112 1046 140078 1499 0
8 2 S112 1080 141158 2579 0
8 2 S112 1043 142201 3622 0
8 2 S112 1034 143235 4656 0
8 2 S112 1077 144312 5733 0
8 2 S112 1108 145420 6841 0
0 0 0 1084 146504 -6283 0
0 0 0 1087 147591 -5196 0
0 0 0 1065 148656 -4131 0
0 0 0 1014 149670 -3117 0
0 0 0 1045 150715 -2072 0
9 1 S116 1059 151774 -1013 0
9 2 S116 1042 152816 29 0
9 2 S116 1081 153897 1110 0
9 2 S116 1111 155008 2221 0
9 2 S116 1066 156074 3287 0
9 2 S116 1065 157139 4352 0
9 2 S116 1065 158204 5417 0
9 2 S116 1011 159215 6428 0
0 0 0 1030 160245 -11408 0
0 0 0 1058 161303 -10350 0
0 0 0 1045 162348 -9305 0
0 0 0 1108 163456 -8197 0
0 0 0 1057 164513 -7140 0
0 0 0 1051 165564 -6089 0
0 0 0 1071 166635 -5018 0
0 0 0 1060 167695 -3958 0
0 0 0 1042 168737 -2916 0
10 1 S102 1067 169804 -1849 0
10 1 S102 1081 170885 -768 0
10 2 S102 1057 171942 289 0
10 2 S102 1086 173028 1375 0
10 2 S102 1105 174133 2480 0
10 2 S102 1082 175215 3562 0
10 2 S102 1038 176253 4600 0
10 2 S102 1060 177313 5660 0
10 2 S102 1043 178356 6703 0
0 0 0 1033 179389 -11677 0
0 0 0 1078 180467 -10599 0
0 0 0 1041 181508 -9558 0
0 0 0 1124 182632 -8434 0
0 0 0 1069 183701 -7365 0
0 0 0 1060 184761 -6305 0
0 0 0 1096 185857 -5209 0
0 0 0 1096 186953 -4113 0
0 0 0 1051 188004 -3062 0
11 1 S112 1082 189086 -1980 0
11 1 S112 1091 190177 -889 0
11 2 S112 1060 191237 171 0
11 2 S112 1083 192320 1254 0
11 2 S112 1150 193470 2404 0
11 2 S112 1100 194570 3504 0
11 2 S112 1100 195670 4604 0
11 2 S112 1127 196797 5731 0
11 2 S112 1073 197870 6804 0
0 0 0 1119 198989 -7147 0
0 0 0 1118 200107 -6029 0
0 0 0 1118 201225 -4911 0
0 0 0 1113 202338 -3798 0
0 0 0 1056 203394 -2742 0
12 1 S116 1088 204482 -1654 0
12 1 S116 1115 205597 -539 0
12 2 S116 1137 206734 598 0
12 2 S116 1065 207799 1663 0
12 2 S116 1098 208897 2761 0
12 2 S116 1095 209992 3856 0
12 2 S116 1067 211059 4923 0
12 2 S116 1068 212127 5991 0
0 0 0 1121 213248 -12517 0
0 0 0 1088 214336 -11429 0
0 0 0 1083 215419 -10346 0
0 0 0 1142 216561 -9204 0
0 0 0 1077 217638 -8127 0
0 0 0 1035 218673 -7092 0
0 0 0 1081 219754 -6011 0
0 0 0 1066 220820 -4945 0
0 0 0 1038 221858 -3907 0
0 0 0 1021 222879 -2886 0
13 1 S112 1045 223924 -1841 0
13 1 S112 1035 224959 -806 0
13 2 S112 1028 225987 222 0
13 2 S112 1087 227074 1309 0
13 2 S112 1080 228154 2389 0
13 2 S112 1037 229191 3426 0
13 2 S112 1069 230260 4495 0
13 2 S112 1090 231350 5585 0
13 2 S112 1071 232421 6656 0
0 0 0 1058 233479 -10821 0
0 0 0 1110 234589 -9711 0
0 0 0 1082 235671 -8629 0
0 0 0 1070 236741 -7559 0
0 0 0 1072 237813 -6487 0
0 0 0 1026 238839 -5461 0
0 0 0 1066 239905 -4395 0
0 0 0 1110 241015 -3285 0
0 0 0 1063 242078 -2222 0
14 1 S106 1048 243126 -1174 0
14 1 S106 1105 244231 -69 0
14 2 S106 1134 245365 1065 0
14 2 S106 1086 246451 2151 0
14 2 S106 1115 247566 3266 0
14 2 S106 1152 248718 4418 0
14 2 S106 1076 249794 5494 0
14 2 S106 1094 250888 6588 0
0 0 0 1123 252011 -9895 0
0 0 0 1094 253105 -8801 0
0 0 0 1095 254200 -7706 0
0 0 0 1066 255266 -6640 0
0 0 0 1044 256310 -5596 0
0 0 0 1119 257429 -4477 0
0 0 0 1129 258558 -3348 0
0 0 0 1053 259611 -2295 0
15 1 S116 1065 260676 -1230 0
15 1 S116 1094 261770 -136 0
15 2 S116 1070 262840 934 0
15 2 S116 1066 263906 2000 0
15 2 S116 1102 265008 3102 0
15 2 S116 1069 266077 4171 0
15 2 S116 1046 267123 5217 0
15 2 S116 1075 268198 6292 0
0 0 0 1074 269272 -11251 0
0 0 0 1069 270341 -10182 0
0 0 0 1103 271444 -9079 0
0 0 0 1108 272552 -7971 0
0 0 0 1073 273625 -6898 0
0 0 0 1040 274665 -5858 0
0 0 0 1112 275777 -4746 0
0 0 0 1065 276842 -3681 0
0 0 0 1046 277888 -2635 0
16 1 S116 1076 278964 -1559 0
16 1 S116 1092 280056 -467 0
16 2 S116 1061 281117 594 0
16 2 S116 1071 282188 1665 0
16 2 S116 1044 283232 2709 0
16 2 S116 1006 284238 3715 0
16 2 S116 1015 285253 4730 0
16 2 S116 1050 286303 5780 0
16 2 S116 1080 287383 6860 0
0 0 0 1045 288428 -8276 0
0 0 0 1097 289525 -7179 0
0 0 0 1109 290634 -6070 0
0 0 0 1038 291672 -5032 0
0 0 0 1074 292746 -3958 0
0 0 0 1070 293816 -2888 0
17 1 S106 1045 294861 -1843 0
17 1 S106 1067 295928 -776 0
17 2 S106 1065 296993 289 0
17 2 S106 1062 298055 1351 0
17 2 S106 1038 299093 2389 0
17 2 S106 1090 300183 3479 0
17 2 S106 1073 301256 4552 0
17 2 S106 1052 302308 5604 0
17 2 S106 1080 303388 6684 0
0 0 0 1055 304443 -11856 0
0 0 0 1066 305509 -10790 0
0 0 0 1085 306594 -9705 0
0 0 0 1070 307664 -8635 0
0 0 0 1052 308716 -7583 0
0 0 0 1044 309760 -6539 0
0 0 0 1049 310809 -5490 0
0 0 0 1054 311863 -4436 0
0 0 0 1100 312963 -3336 0
0 0 0 1064 314027 -2272 0
18 1 S102 1040 315067 -1232 0
18 1 S102 1040 316107 -192 0
18 2 S102 1136 317243 944 0
18 2 S102 1112 318355 2056 0
18 2 S102 1047 319402 3103 0
18 2 S102 1035 320437 4138 0
18 2 S102 1062 321499 5200 0
18 2 S102 1118 322617 6318 0
0 0 0 1097 323714 -7174 0
0 0 0 1126 324840 -6048 0
0 0 0 1082 325922 -4966 0
0 0 0 1103 327025 -3863 0
0 0 0 1085 328110 -2778 0
19 1 S106 1030 329140 -1748 0
19 1 S106 1056 330196 -692 0
19 2 S106 1087 331283 395 0
19 2 S106 1072 332355 1467 0
19 2 S106 1044 333399 2511 0
19 2 S106 1067 334466 3578 0
19 2 S106 1053 335519 4631 0
19 2 S106 1043 336562 5674 0
19 2 S106 1092 337654 6766 0
0 0 0 1089 338743 -9901 0
0 0 0 1081 339824 -8820 0
0 0 0 1060 340884 -7760 0
0 0 0 1029 341913 -6731 0
0 0 0 1017 342930 -5714 0
0 0 0 1041 343971 -4673 0
0 0 0 1034 345005 -3639 0
0 0 0 1031 346036 -2608 0
20 1 S112 1066 347102 -1542 0
20 1 S112 1081 348183 -461 0
20 2 S112 1029 349212 568 0
20 2 S112 1054 350266 1622 0
20 2 S112 1060 351326 2682 0
20 2 S112 1072 352398 3754 0
20 2 S112 1048 353446 4802 0
20 2 S112 1095 354541 5897 0
20 2 S112 1082 355623 6979 0
0 0 0 1028 356651 -9234 0
0 0 0 1065 357716 -8169 0
0 0 0 1074 358790 -7095 0
0 0 0 1026 359816 -6069 0
0 0 0 1026 360842 -5043 0
0 0 0 1027 361869 -4016 0
0 0 0 1019 362888 -2997 0
21 1 S106 1025 363913 -1972 0
21 1 S106 1030 364943 -942 0
21 2 S106 1029 365972 87 0
21 2 S106 1013 366985 1100 0
21 2 S106 1043 368028 2143 0
21 2 S106 1048 369076 3191 0
21 2 S106 1018 370094 4209 0
21 2 S106 1033 371127 5242 0
21 2 S106 1051 372178 6293 0
0 0 0 1030 373208 -11709 0
0 0 0 1056 374264 -10653 0
0 0 0 1070 375334 -9583 0
0 0 0 1053 376387 -8530 0
0 0 0 1064 377451 -7466 0
0 0 0 1051 378502 -6415 0
0 0 0 1053 379555 -5362 0
0 0 0 1072 380627 -4290 0
0 0 0 1061 381688 -3229 0
0 0 0 1051 382739 -2178 0
22 1 S116 1072 383811 -1106 0
22 1 S116 1056 384867 -50 0
22 2 S116 1068 385935 1018 0
22 2 S116 1101 387036 2119 0
22 2 S116 1108 388144 3227 0
22 2 S116 1042 389186 4269 0
22 2 S116 1037 390223 5306 0
22 2 S116 1081 391304 6387 0
0 0 0 1076 392380 -9298 0
0 0 0 1102 393482 -8196 0
0 0 0 1064 394546 -7132 0
0 0 0 1047 395593 -6085 0
0 0 0 1061 396654 -5024 0
0 0 0 1029 397683 -3995 0
0 0 0 1015 398698 -2980 0
23 1 S112 1045 399743 -1935 0
23 1 S112 1045 400788 -890 0
23 2 S112 1039 401827 149 0
23 2 S112 1011 402838 1160 0
23 2 S112 1033 403871 2193 0
23 2 S112 1044 404915 3237 0
23 2 S112 1037 405952 4274 0
23 2 S112 1055 407007 5329 0
23 2 S112 1071 408078 6400 0
0 0 0 1063 409141 -9580 0
0 0 0 1096 410237 -8484 0
0 0 0 1132 411369 -7352 0
0 0 0 1066 412435 -6286 0
0 0 0 1028 413463 -5258 0
0 0 0 1054 414517 -4204 0
0 0 0 1084 415601 -3120 0
0 0 0 1068 416669 -2052 0
24 1 S106 1078 417747 -974 0
24 2 S106 1115 418862 141 0
24 2 S106 1060 419922 1201 0
24 2 S106 1092 421014 2293 0
24 2 S106 1070 422084 3363 0
24 2 S106 1067 423151 4430 0
24 2 S106 1107 424258 5537 0
24 2 S106 1172 425430 6709 0
0 0 0 1160 426590 -7946 0
0 0 0 1123 427713 -6823 0
0 0 0 1093 428806 -5730 0
0 0 0 1105 429911 -4625 0
0 0 0 1083 430994 -3542 0
0 0 0 1118 432112 -2424 0
25 1 S102 1105 433217 -1319 0
25 1 S102 1098 434315 -221 0
25 2 S102 1145 435460 924 0
25 2 S102 1122 436582 2046 0
25 2 S102 1068 437650 3114 0
25 2 S102 1096 438746 4210 0
25 2 S102 1111 439857 5321 0
25 2 S102 1047 440904 6368 0
0 0 0 1103 442007 -7583 0
0 0 0 1109 443116 -6474 0
0 0 0 1069 444185 -5405 0
0 0 0 1110 445295 -4295 0
0 0 0 1061 446356 -3234 0
0 0 0 1044 447400 -2190 0
26 1 S116 1068 448468 -1122 0
26 1 S116 1080 449548 -42 0
26 2 S116 1055 450603 1013 0
26 2 S116 1092 451695 2105 0
26 2 S116 1086 452781 3191 0
26 2 S116 1044 453825 4235 0
26 2 S116 1039 454864 5274 0
26 2 S116 1055 455919 6329 0
0 0 0 1027 456946 -7763 0
0 0 0 1052 457998 -6711 0
0 0 0 1079 459077 -5632 0
0 0 0 1070 460147 -4562 0
0 0 0 1064 461211 -3498 0
0 0 0 1085 462296 -2413 0
27 1 S106 1022 463318 -1391 0
27 1 S106 1038 464356 -353 0
27 2 S106 1064 465420 711 0
27 2 S106 1054 466474 1765 0
27 2 S106 1009 467483 2774 0
27 2 S106 1030 468513 3804 0
27 2 S106 1048 469561 4852 0
27 2 S106 1036 470597 5888 0
27 2 S106 1076 471673 6964 0
0 0 0 1078 472751 -5552 0
0 0 0 1030 473781 -4522 0
0 0 0 1026 474807 -3496 0
0 0 0 1049 475856 -2447 0
28 1 S102 1037 476893 -1410 0
28 1 S102 1044 477937 -366 0
28 2 S102 1089 479026 723 0
28 2 S102 1085 480111 1808 0
28 2 S102 1063 481174 2871 0
28 2 S102 1065 482239 3936 0
28 2 S102 1043 483282 4979 0
28 2 S102 1018 484300 5997 0
0 0 0 1065 485365 -12252 0
0 0 0 1077 486442 -11175 0
0 0 0 1056 487498 -10119 0
0 0 0 1066 488564 -9053 0
0 0 0 1031 489595 -8022 0
0 0 0 1025 490620 -6997 0
0 0 0 1043 491663 -5954 0
0 0 0 1030 492693 -4924 0
0 0 0 1020 493713 -3904 0
0 0 0 1070 494783 -2834 0
29 1 S112 1090 495873 -1744 0
29 1 S112 1039 496912 -705 0
29 2 S112 1062 497974 357 0
29 2 S112 1111 499085 1468 0
29 2 S112 1108 500193 2576 0
29 2 S112 1051 501244 3627 0
29 2 S112 1029 502273 4656 0
29 2 S112 1055 503328 5711 0
29 2 S112 1087 504415 6798 0
0 0 0 1072 505487 -6984 0
0 0 0 1109 506596 -5875 0
0 0 0 1084 507680 -4791 0
0 0 0 1077 508757 -3714 0
0 0 0 1076 509833 -2638 0
30 1 S112 1037 510870 -1601 0
30 1 S112 1042 511912 -559 0
30 2 S112 1058 512970 499 0
30 2 S112 1051 514021 1550 0
30 2 S112 1021 515042 2571 0
30 2 S112 1038 516080 3609 0
30 2 S112 1059 517139 4668 0
30 2 S112 1030 518169 5698 0
30 2 S112 1083 519252 6781 0
0 0 0 1078 520330 -9648 0
0 0 0 1054 521384 -8594 0
0 0 0 1069 522453 -7525 0
0 0 0 1026 523479 -6499 0
0 0 0 1023 524502 -5476 0
0 0 0 1032 525534 -4444 0
0 0 0 1041 526575 -3403 0
0 0 0 1056 527631 -2347 0
31 1 S106 1094 528725 -1253 0
31 1 S106 1113 529838 -140 0
31 2 S106 1070 530908 930 0
31 2 S106 1089 531997 2019 0
31 2 S106 1058 533055 3077 0
31 2 S106 1034 534089 4111 0
31 2 S106 1071 535160 5182 0
31 2 S106 1067 536227 6249 0
0 0 0 1034 537261 -8566 0
0 0 0 1074 538335 -7492 0
0 0 0 1042 539377 -6450 0
0 0 0 1001 540378 -5449 0
0 0 0 967 541345 -4482 0
0 0 0 920 542265 -3562 0
0 0 0 927 543192 -2635 0
32 1 S102 1003 544195 -1632 0
32 1 S102 998 545193 -634 0
32 2 S102 1045 546238 411 0
32 2 S102 1041 547279 1452 0
32 2 S102 1000 548279 2452 0
32 2 S102 1016 549295 3468 0
32 2 S102 1037 550332 4505 0
32 2 S102 1000 551332 5505 0
32 2 S102 1032 552364 6537 0
0 0 0 1074 553438 -10493 0
0 0 0 1046 554484 -9447 0
0 0 0 1081 555565 -8366 0
0 0 0 1074 556639 -7292 0
0 0 0 1024 557663 -6268 0
0 0 0 1061 558724 -5207 0
0 0 0 1073 559797 -4134 0
0 0 0 1087 560884 -3047 0
33 1 S112 1079 561963 -1968 0
33 1 S112 1140 563103 -828 0
33 2 S112 1128 564231 300 0
33 2 S112 1066 565297 1366 0
33 2 S112 1048 566345 2414 0
33 2 S112 1072 567417 3486 0
33 2 S112 1036 568453 4522 0
33 2 S112 1065 569518 5587 0
33 2 S112 1055 570573 6642 0
0 0 0 1072 571645 -11931 0
0 0 0 1094 572739 -10837 0
0 0 0 1062 573801 -9775 0
0 0 0 1098 574899 -8677 0
0 0 0 1092 575991 -7585 0
0 0 0 1057 577048 -6528 0
0 0 0 1023 578071 -5505 0
0 0 0 1043 579114 -4462 0
0 0 0 1040 580154 -3422 0
0 0 0 1022 581176 -2400 0
34 1 S106 1048 582224 -1352 0
34 1 S106 1059 583283 -293 0
34 2 S106 1025 584308 732 0
34 2 S106 1052 585360 1784 0
34 2 S106 1055 586415 2839 0
34 2 S106 1037 587452 3876 0
34 2 S106 1079 588531 4955 0
34 2 S106 1055 589586 6010 0
0 0 0 1038 590624 -8751 0
0 0 0 1097 591721 -7654 0
0 0 0 1082 592803 -6572 0
0 0 0 1063 593866 -5509 0
0 0 0 1086 594952 -4423 0
0 0 0 1079 596031 -3344 0
0 0 0 1064 597095 -2280 0
35 1 S102 1115 598210 -1165 0
35 1 S102 1077 599287 -88 0
35 2 S102 1073 600360 985 0
35 2 S102 1112 601472 2097 0
35 2 S102 1063 602535 3160 0
35 2 S102 1035 603570 4195 0
35 2 S102 1085 604655 5280 0
35 2 S102 1105 605760 6385 0
0 0 0 1062 606822 -6976 0
0 0 0 1086 607908 -5890 0
0 0 0 1124 609032 -4766 0
0 0 0 1043 610075 -3723 0
0 0 0 1050 611125 -2673 0
36 1 S106 1075 612200 -1598 0
36 1 S106 1116 613316 -482 0
36 2 S106 1072 614388 590 0
36 2 S106 1094 615482 1684 0
36 2 S106 1097 616579 2781 0
36 2 S106 1083 617662 3864 0
36 2 S106 1031 618693 4895 0
36 2 S106 1070 619763 5965 0
0 0 0 1128 620891 -9734 0
0 0 0 1141 622032 -8593 0
0 0 0 1070 623102 -7523 0
0 0 0 1105 624207 -6418 0
0 0 0 1059 625266 -5359 0
0 0 0 1042 626308 -4317 0
0 0 0 1063 627371 -3254 0
0 0 0 1033 628404 -2221 0
37 1 S116 996 629400 -1225 0
37 1 S116 1031 630431 -194 0
37 2 S116 1042 631473 848 0
37 2 S116 1021 632494 1869 0
37 2 S116 1029 633523 2898 0
37 2 S116 1035 634558 3933 0
37 2 S116 1021 635579 4954 0
37 2 S116 1024 636603 5978 0
0 0 0 1061 637664 -11877 0
0 0 0 1075 638739 -10802 0
0 0 0 1048 639787 -9754 0
0 0 0 1072 640859 -8682 0
0 0 0 1032 641891 -7650 0
0 0 0 1031 642922 -6619 0
0 0 0 1043 643965 -5576 0
0 0 0 1026 644991 -4550 0
0 0 0 1020 646011 -3530 0
0 0 0 1057 647068 -2473 0
38 1 S102 1093 648161 -1380 0
38 1 S102 1063 649224 -317 0
38 2 S102 1068 650292 751 0
38 2 S102 1077 651369 1828 0
38 2 S102 1055 652424 2883 0
38 2 S102 1010 653434 3893 0
38 2 S102 1027 654461 4920 0
38 2 S102 1026 655487 5946 0
38 2 S102 1050 656537 6996 0
0 0 0 1054 657591 -9076 0
0 0 0 1070 658661 -8006 0
0 0 0 1065 659726 -6941 0
0 0 0 1015 660741 -5926 0
0 0 0 939 661680 -4987 0
0 0 0 957 662637 -4030 0
0 0 0 974 663611 -3056 0
0 0 0 973 664584 -2083 0
39 1 S116 1018 665602 -1065 0
39 1 S116 1051 666653 -14 0
39 2 S116 1025 667678 1011 0
39 2 S116 1040 668718 2051 0
39 2 S116 1072 669790 3123 0
39 2 S116 1062 670852 4185 0
39 2 S116 1022 671874 5207 0
39 2 S116 1026 672900 6233 0
0 0 0 1022 673922 -7798 0
0 0 0 1019 674941 -6779 0
0 0 0 1059 676000 -5720 0
0 0 0 1054 677054 -4666 0
0 0 0 1018 678072 -3648 0
0 0 0 1025 679097 -2623 0
40 1 S112 1040 680137 -1583 0
40 1 S112 1013 681150 -570 0
40 2 S112 1025 682175 455 0
40 2 S112 1064 683239 1519 0
40 2 S112 1039 684278 2558 0
40 2 S112 1003 685281 3561 0
40 2 S112 1016 686297 4577 0
40 2 S112 1031 687328 5608 0
40 2 S112 1010 688338 6618 0
0 0 0 1022 689360 -186426 0
0 0 0 1060 690420 -185366 0
0 0 0 1092 691512 -184274 0
0 0 0 1036 692548 -183238 0
0 0 0 1041 693589 -182197 0
0 0 0 1067 694656 -181130 0
0 0 0 983 695639 -180147 0
0 0 0 964 696603 -179183 0
0 0 0 928 697531 -178255 0
0 0 0 905 698436 -177350 1
0 0 0 839 699275 -176511 1
0 0 0 811 700086 -175700 1
0 0 0 815 700901 -174885 1
0 0 0 839 701740 -174046 1
0 0 0 880 702620 -173166 1
0 0 0 872 703492 -172294 1
0 0 0 832 704324 -171462 1
0 0 0 819 705143 -170643 1
0 0 0 809 705952 -169834 1
0 0 0 798 706750 -169036 1
0 0 0 807 707557 -168229 1
0 0 0 808 708365 -167421 1
0 0 0 795 709160 -166626 1
0 0 0 809 709969 -165817 1
0 0 0 800 710769 -165017 1
0 0 0 785 711554 -164232 1
0 0 0 780 712334 -163452 1
0 0 0 907 713241 -162545 0
0 0 0 929 714170 -161616 0
0 0 0 876 715046 -160740 1
0 0 0 873 715919 -159867 1
0 0 0 911 716830 -158956 0
0 0 0 982 717812 -157974 0
0 0 0 964 718776 -157010 0
0 0 0 899 719675 -156111 1
0 0 0 860 720535 -155251 1
0 0 0 830 721365 -154421 1
0 0 0 857 722222 -153564 1
0 0 0 878 723100 -152686 1
0 0 0 895 723995 -151791 1
0 0 0 900 724895 -150891 1
0 0 0 904 725799 -149987 1
0 0 0 892 726691 -149095 1
0 0 0 842 727533 -148253 1
0 0 0 808 728341 -147445 1
0 0 0 792 729133 -146653 1
0 0 0 789 729922 -145864 1
0 0 0 796 730718 -145068 1
0 0 0 819 731537 -144249 1
0 0 0 837 732374 -143412 1
0 0 0 837 733211 -142575 1
0 0 0 793 734004 -141782 1
0 0 0 866 734870 -140916 1
0 0 0 951 735821 -139965 0
0 0 0 1034 736855 -138931 0
0 0 0 994 737849 -137937 0
0 0 0 1019 738868 -136918 0
0 0 0 1024 739892 -135894 0
0 0 0 1002 740894 -134892 0
0 0 0 1021 741915 -133871 0
0 0 0 1041 742956 -132830 0
0 0 0 1059 744015 -131771 0
0 0 0 1010 745025 -130761 0
0 0 0 1050 746075 -129711 0
0 0 0 1093 747168 -128618 0
0 0 0 1051 748219 -127567 0
0 0 0 1082 749301 -126485 0
0 0 0 1116 750417 -125369 0
0 0 0 1063 751480 -124306 0
0 0 0 1097 752577 -123209 0
0 0 0 1122 753699 -122087 0
0 0 0 1096 754795 -120991 0
0 0 0 1091 755886 -119900 0
0 0 0 1079 756965 -118821 0
0 0 0 1053 758018 -117768 0
0 0 0 1041 759059 -116727 0
0 0 0 1032 760091 -115695 0
0 0 0 1026 761117 -114669 0
0 0 0 944 762061 -113725 0
0 0 0 906 762967 -112819 1
0 0 0 1016 763983 -111803 0
0 0 0 1067 765050 -110736 0
0 0 0 1042 766092 -109694 0
0 0 0 1035 767127 -108659 0
0 0 0 1000 768127 -107659 0
0 0 0 1020 769147 -106639 0
0 0 0 1040 770187 -105599 0
0 0 0 1002 771189 -104597 0
0 0 0 1054 772243 -103543 0
0 0 0 1067 773310 -102476 0
0 0 0 1034 774344 -101442 0
0 0 0 1024 775368 -100418 0
0 0 0 1057 776425 -99361 0
0 0 0 1068 777493 -98293 0
0 0 0 1058 778551 -97235 0
0 0 0 1062 779613 -96173 0
0 0 0 996 780609 -95177 0
0 0 0 1034 781643 -94143 0
0 0 0 1092 782735 -93051 0
0 0 0 1059 783794 -91992 0
0 0 0 1095 784889 -90897 0
0 0 0 1061 785950 -89836 0
0 0 0 1026 786976 -88810 0
0 0 0 1053 788029 -87757 0
0 0 0 1053 789082 -86704 0
0 0 0 1013 790095 -85691 0
0 0 0 1056 791151 -84635 0
0 0 0 1115 792266 -83520 0
0 0 0 1050 793316 -82470 0
0 0 0 1072 794388 -81398 0
0 0 0 1074 795462 -80324 0
0 0 0 1035 796497 -79289 0
0 0 0 1093 797590 -78196 0
0 0 0 1132 798722 -77064 0
0 0 0 1087 799809 -75977 0
0 0 0 1110 800919 -74867 0
0 0 0 1091 802010 -73776 0
0 0 0 1076 803086 -72700 0
0 0 0 1081 804167 -71619 0
0 0 0 1018 805185 -70601 0
0 0 0 1019 806204 -69582 0
0 0 0 1039 807243 -68543 0
0 0 0 1015 808258 -67528 0
0 0 0 1047 809305 -66481 0
0 0 0 1055 810360 -65426 0
0 0 0 1005 811365 -64421 0
0 0 0 1027 812392 -63394 0
0 0 0 979 813371 -62415 0
0 0 0 1011 814382 -61404 0
0 0 0 1045 815427 -60359 0
0 0 0 1052 816479 -59307 0
0 0 0 1094 817573 -58213 0
0 0 0 1106 818679 -57107 0
0 0 0 1035 819714 -56072 0
0 0 0 1064 820778 -55008 0
0 0 0 1047 821825 -53961 0
0 0 0 993 822818 -52968 0
0 0 0 1015 823833 -51953 0
0 0 0 1065 824898 -50888 0
0 0 0 1093 825991 -49795 0
0 0 0 1112 827103 -48683 0
0 0 0 1129 828232 -47554 0
0 0 0 1076 829308 -46478 0
0 0 0 1095 830403 -45383 0
0 0 0 1079 831482 -44304 0
0 0 0 1046 832528 -43258 0
0 0 0 1046 833574 -42212 0
0 0 0 1000 834574 -41212 0
0 0 0 943 835517 -40269 0
0 0 0 959 836476 -39310 0
0 0 0 1001 837477 -38309 0
0 0 0 1138 838615 -37171 0
0 0 0 1073 839688 -36098 0
0 0 0 1089 840777 -35009 0
0 0 0 1074 841851 -33935 0
0 0 0 1087 842938 -32848 0
0 0 0 1050 843988 -31798 0
0 0 0 1033 845021 -30765 0
0 0 0 1025 846046 -29740 0
0 0 0 988 847034 -28752 0
0 0 0 945 847979 -27807 0
0 0 0 904 848883 -26903 1
0 0 0 933 849816 -25970 0
0 0 0 979 850795 -24991 0
0 0 0 993 851788 -23998 0
0 0 0 1037 852825 -22961 0
0 0 0 1067 853892 -21894 0
0 0 0 1021 854913 -20873 0
0 0 0 1046 855959 -19827 0
0 0 0 1012 856971 -18815 0
0 0 0 1043 858014 -17772 0
0 0 0 1052 859066 -16720 0
0 0 0 1047 860113 -15673 0
0 0 0 1083 861196 -14590 0
0 0 0 1064 862260 -13526 0
0 0 0 1056 863316 -12470 0
0 0 0 1120 864436 -11350 0
0 0 0 1121 865557 -10229 0
0 0 0 1058 866615 -9171 0
0 0 0 1087 867702 -8084 0
0 0 0 1075 868777 -7009 0
0 0 0 1033 869810 -5976 0
0 0 0 1032 870842 -4944 0
0 0 0 1086 871928 -3858 0
0 0 0 1012 872940 -2846 0
41 1 S102 1013 873953 -1833 0
41 1 S102 983 874936 -850 0
41 2 S102 931 875867 81 0
41 2 S102 947 876814 1028 0
41 2 S102 1039 877853 2067 0
41 2 S102 1100 878953 3167 0
41 2 S102 1057 880010 4224 0
41 2 S102 1070 881080 5294 0
41 2 S102 1051 882131 6345 0
0 0 0 1019 883150 -7424 0
0 0 0 1052 884202 -6372 0
0 0 0 1106 885308 -5266 0
0 0 0 1051 886359 -4215 0
0 0 0 1055 887414 -3160 0
0 0 0 1137 888551 -2023 0
42 1 S112 1097 889648 -926 0
42 2 S112 1094 890742 168 0
42 2 S112 1119 891861 1287 0
42 2 S112 1052 892913 2339 0
42 2 S112 1052 893965 3391 0
42 2 S112 1065 895030 4456 0
42 2 S112 1048 896078 5504 0
42 2 S112 1061 897139 6565 0
0 0 0 1105 898244 -9373 0
0 0 0 1045 899289 -8328 0
0 0 0 1087 900376 -7241 0
0 0 0 1088 901464 -6153 0
0 0 0 1028 902492 -5125 0
0 0 0 1069 903561 -4056 0
0 0 0 1078 904639 -2978 0
43 1 S116 1046 905685 -1932 0
43 1 S116 1085 906770 -847 0
43 2 S116 1093 907863 246 0
43 2 S116 1078 908941 1324 0
43 2 S116 1045 909986 2369 0
43 2 S116 1061 911047 3430 0
43 2 S116 1037 912084 4467 0
43 2 S116 1089 913173 5556 0
43 2 S116 1057 914230 6613 0
0 0 0 1101 915331 -8499 0
0 0 0 1094 916425 -7405 0
0 0 0 1062 917487 -6343 0
0 0 0 1115 918602 -5228 0
0 0 0 1096 919698 -4132 0
0 0 0 1022 920720 -3110 0
0 0 0 1049 921769 -2061 0
44 1 S102 1051 922820 -1010 0
44 2 S102 1044 923864 34 0
44 2 S102 1033 924897 1067 0
44 2 S102 1062 925959 2129 0
44 2 S102 1042 927001 3171 0
44 2 S102 1042 928043 4213 0
44 2 S102 1069 929112 5282 0
44 2 S102 1060 930172 6342 0
0 0 0 1047 931219 -8510 0
0 0 0 1082 932301 -7428 0
0 0 0 1055 933356 -6373 0
0 0 0 1075 934431 -5298 0
0 0 0 1120 935551 -4178 0
0 0 0 1053 936604 -3125 0
0 0 0 1026 937630 -2099 0
45 1 S116 1023 938653 -1076 0
45 1 S116 1023 939676 -53 0
45 2 S116 951 940627 898 0
45 2 S116 932 941559 1830 0
45 2 S116 1002 942561 2832 0
45 2 S116 1040 943601 3872 0
45 2 S116 1038 944639 4910 0
45 2 S116 986 945625 5896 0
45 2 S116 961 946586 6857 0
0 0 0 980 947566 -10963 0
0 0 0 1023 948589 -9940 0
0 0 0 1012 949601 -8928 0
0 0 0 1050 950651 -7878 0
0 0 0 1045 951696 -6833 0
0 0 0 1019 952715 -5814 0
0 0 0 1028 953743 -4786 0
0 0 0 1027 954770 -3759 0
0 0 0 1034 955804 -2725 0
46 1 S102 1062 956866 -1663 0
46 1 S102 1074 957940 -589 0
46 2 S102 1030 958970 441 0
46 2 S102 1080 960050 1521 0
46 2 S102 1093 961143 2614 0
46 2 S102 1068 962211 3682 0
46 2 S102 1095 963306 4777 0
46 2 S102 1073 964379 5850 0
46 2 S102 1050 965429 6900 0
0 0 0 1079 966508 -8367 0
0 0 0 1069 967577 -7298 0
0 0 0 1096 968673 -6202 0
0 0 0 1091 969764 -5111 0
0 0 0 1047 970811 -4064 0
0 0 0 1075 971886 -2989 0
47 1 S112 1082 972968 -1907 0
47 1 S112 1050 974018 -857 0
47 2 S112 1079 975097 222 0
47 2 S112 1080 976177 1302 0
47 2 S112 1061 977238 2363 0
47 2 S112 1087 978325 3450 0
47 2 S112 1077 979402 4527 0
47 2 S112 1069 980471 5596 0
47 2 S112 1103 981574 6699 0
0 0 0 1145 982719 -10641 0
0 0 0 1065 983784 -9576 0
0 0 0 1097 984881 -8479 0
0 0 0 1094 985975 -7385 0
0 0 0 1062 987037 -6323 0
0 0 0 1068 988105 -5255 0
0 0 0 1082 989187 -4173 0
0 0 0 1041 990228 -3132 0
0 0 0 1086 991314 -2046 0
48 1 S116 1093 992407 -953 0
48 2 S116 1056 993463 103 0
48 2 S116 1093 994556 1196 0
48 2 S116 1121 995677 2317 0
48 2 S116 1061 996738 3378 0
48 2 S116 1099 997837 4477 0
48 2 S116 1109 998946 5586 0
48 2 S116 1078 1000024 6664 0
0 0 0 1116 1001140 -8832 0
0 0 0 1092 1002232 -7740 0
0 0 0 1103 1003335 -6637 0
0 0 0 1134 1004469 -5503 0
0 0 0 1105 1005574 -4398 0
0 0 0 1113 1006687 -3285 0
0 0 0 1105 1007792 -2180 0
49 1 S112 1061 1008853 -1119 0
49 1 S112 1099 1009952 -20 0
49 2 S112 1116 1011068 1096 0
49 2 S112 1094 1012162 2190 0
49 2 S112 1103 1013265 3293 0
49 2 S112 1103 1014368 4396 0
49 2 S112 1064 1015432 5460 0
49 2 S112 1095 1016527 6555 0
0 0 0 1097 1017624 -10833 0
0 0 0 1072 1018696 -9761 0
0 0 0 1100 1019796 -8661 0
0 0 0 1032 1020828 -7629 0
0 0 0 1026 1021854 -6603 0
0 0 0 1055 1022909 -5548 0
0 0 0 1094 1024003 -4454 0
0 0 0 1083 1025086 -3371 0
0 0 0 1103 1026189 -2268 0
50 1 S106 1117 1027306 -1151 0
50 1 S106 1064 1028370 -87 0
50 2 S106 1062 1029432 975 0
50 2 S106 1077 1030509 2052 0
50 2 S106 1091 1031600 3143 0
50 2 S106 1077 1032677 4220 0
50 2 S106 1102 1033779 5322 0
50 2 S106 1106 1034885 6428 0
0 0 0 1083 1035968 -6083 0
0 0 0 1118 1037086 -4965 0
0 0 0 1085 1038171 -3880 0
0 0 0 1085 1039256 -2795 0
51 1 S112 1111 1040367 -1684 0
51 1 S112 1136 1041503 -548 0
51 2 S112 1140 1042643 592 0
51 2 S112 1136 1043779 1728 0
51 2 S112 1115 1044894 2843 0
51 2 S112 1100 1045994 3943 0
51 2 S112 1134 1047128 5077 0
51 2 S112 1077 1048205 6154 0
0 0 0 1089 1049294 -7909 0
0 0 0 1145 1050439 -6764 0
0 0 0 1115 1051554 -5649 0
0 0 0 1157 1052711 -4492 0
0 0 0 1090 1053801 -3402 0
0 0 0 1082 1054883 -2320 0
52 1 S116 1093 1055976 -1227 0
52 1 S116 1062 1057038 -165 0
52 2 S116 1096 1058134 931 0
52 2 S116 1127 1059261 2058 0
52 2 S116 1105 1060366 3163 0
52 2 S116 1076 1061442 4239 0
52 2 S116 1104 1062546 5343 0
52 2 S116 1154 1063700 6497 0
0 0 0 1141 1064841 -9538 0
0 0 0 1145 1065986 -8393 0
0 0 0 1160 1067146 -7233 0
0 0 0 1070 1068216 -6163 0
0 0 0 1088 1069304 -5075 0
0 0 0 1112 1070416 -3963 0
0 0 0 1096 1071512 -2867 0
53 1 S106 1090 1072602 -1777 0
53 1 S106 1121 1073723 -656 0
53 2 S106 1066 1074789 410 0
53 2 S106 1077 1075866 1487 0
53 2 S106 1111 1076977 2598 0
53 2 S106 1071 1078048 3669 0
53 2 S106 1088 1079136 4757 0
53 2 S106 1104 1080240 5861 0
53 2 S106 1090 1081330 6951 0
0 0 0 1151 1082481 -7117 0
0 0 0 1123 1083604 -5994 0
0 0 0 1125 1084729 -4869 0
0 0 0 1117 1085846 -3752 0
0 0 0 1063 1086909 -2689 0
54 1 S102 1045 1087954 -1644 0
54 1 S102 1067 1089021 -577 0
54 2 S102 1089 1090110 512 0
54 2 S102 1069 1091179 1581 0
54 2 S102 1102 1092281 2683 0
54 2 S102 1092 1093373 3775 0
54 2 S102 1071 1094444 4846 0
54 2 S102 1084 1095528 5930 0
0 0 0 1104 1096632 -12147 0
0 0 0 1085 1097717 -11062 0
0 0 0 1110 1098827 -9952 0
0 0 0 1099 1099926 -8853 0
0 0 0 1058 1100984 -7795 0
0 0 0 1060 1102044 -6735 0
0 0 0 1059 1103103 -5676 0
0 0 0 1048 1104151 -4628 0
0 0 0 1077 1105228 -3551 0
0 0 0 1077 1106305 -2474 0
55 1 S106 1036 1107341 -1438 0
55 1 S106 1063 1108404 -375 0
55 2 S106 1109 1109513 734 0
55 2 S106 1073 1110586 1807 0
55 2 S106 1107 1111693 2914 0
55 2 S106 1116 1112809 4030 0
55 2 S106 1076 1113885 5106 0
55 2 S106 1100 1114985 6206 0
0 0 0 1111 1116096 -6492 0
0 0 0 1055 1117151 -5437 0
0 0 0 1090 1118241 -4347 0
0 0 0 1058 1119299 -3289 0
0 0 0 1069 1120368 -2220 0
56 1 S116 1127 1121495 -1093 0
56 2 S116 1114 1122609 21 0
56 2 S116 1115 1123724 1136 0
56 2 S116 1120 1124844 2256 0
56 2 S116 1091 1125935 3347 0
56 2 S116 1069 1127004 4416 0
56 2 S116 1085 1128089 5501 0
56 2 S116 1077 1129166 6578 0
0 0 0 1078 1130244 -7414 0
0 0 0 1096 1131340 -6318 0
0 0 0 1113 1132453 -5205 0
0 0 0 1102 1133555 -4103 0
0 0 0 1083 1134638 -3020 0
57 1 S106 1051 1135689 -1969 0
57 1 S106 1051 1136740 -918 0
57 2 S106 1059 1137799 141 0
57 2 S106 1041 1138840 1182 0
57 2 S106 1060 1139900 2242 0
57 2 S106 1042 1140942 3284 0
57 2 S106 1040 1141982 4324 0
57 2 S106 1090 1143072 5414 0
57 2 S106 1103 1144175 6517 0
0 0 0 1045 1145220 -8055 0
0 0 0 1076 1146296 -6979 0
0 0 0 1049 1147345 -5930 0
0 0 0 1020 1148365 -4910 0
0 0 0 1040 1149405 -3870 0
0 0 0 1076 1150481 -2794 0
58 1 S102 1061 1151542 -1733 0
58 1 S102 1061 1152603 -672 0
58 2 S102 1070 1153673 398 0
58 2 S102 1036 1154709 1434 0
58 2 S102 1081 1155790 2515 0
58 2 S102 1075 1156865 3590 0
58 2 S102 1030 1157895 4620 0
58 2 S102 1047 1158942 5667 0
58 2 S102 1063 1160005 6730 0
0 0 0 1036 1161041 -6889 0
0 0 0 1078 1162119 -5811 0
0 0 0 1095 1163214 -4716 0
0 0 0 1045 1164259 -3671 0
0 0 0 1059 1165318 -2612 0
59 1 S112 1046 1166364 -1566 0
59 1 S112 1018 1167382 -548 0
59 2 S112 1055 1168437 507 0
59 2 S112 1058 1169495 1565 0
59 2 S112 1025 1170520 2590 0
59 2 S112 1056 1171576 3646 0
59 2 S112 1080 1172656 4726 0
59 2 S112 1051 1173707 5777 0
59 2 S112 1074 1174781 6851 0
0 0 0 1089 1175870 -9683 0
0 0 0 1059 1176929 -8624 0
0 0 0 1087 1178016 -7537 0
0 0 0 1112 1179128 -6425 0
0 0 0 1046 1180174 -5379 0
0 0 0 1068 1181242 -4311 0
0 0 0 1071 1182313 -3240 0
0 0 0 1036 1183349 -2204 0
60 1 S102 1056 1184405 -1148 0
60 1 S102 1076 1185481 -72 0
60 2 S102 1044 1186525 972 0
60 2 S102 1039 1187564 2011 0
60 2 S102 1063 1188627 3074 0
60 2 S102 1094 1189721 4168 0
60 2 S102 1069 1190790 5237 0
60 2 S102 1104 1191894 6341 0
0 0 0 1104 1192998 -12366 0
0 0 0 1085 1194083 -11281 0
0 0 0 1101 1195184 -10180 0
0 0 0 1094 1196278 -9086 0
0 0 0 1077 1197355 -8009 0
0 0 0 1069 1198424 -6940 0
0 0 0 1022 1199446 -5918 0
0 0 0 1052 1200498 -4866 0
0 0 0 1075 1201573 -3791 0
0 0 0 1061 1202634 -2730 0
61 1 S106 1061 1203695 -1669 0
61 1 S106 1087 1204782 -582 0
61 2 S106 1075 1205857 493 0
61 2 S106 1066 1206923 1559 0
61 2 S106 1134 1208057 2693 0
61 2 S106 1141 1209198 3834 0
61 2 S106 1080 1210278 4914 0
61 2 S106 1113 1211391 6027 0
0 0 0 1149 1212540 -7364 0
0 0 0 1094 1213634 -6270 0
0 0 0 1121 1214755 -5149 0
0 0 0 1093 1215848 -4056 0
0 0 0 1066 1216914 -2990 0
62 1 S112 1054 1217968 -1936 0
62 1 S112 1053 1219021 -883 0
62 2 S112 1077 1220098 194 0
62 2 S112 1107 1221205 1301 0
62 2 S112 1102 1222307 2403 0
62 2 S112 1048 1223355 3451 0
62 2 S112 1061 1224416 4512 0
62 2 S112 1058 1225474 5570 0
62 2 S112 1032 1226506 6602 0
0 0 0 1053 1227559 -11526 0
0 0 0 1060 1228619 -10466 0
0 0 0 1074 1229693 -9392 0
0 0 0 1050 1230743 -8342 0
0 0 0 1054 1231797 -7288 0
0 0 0 1057 1232854 -6231 0
0 0 0 1022 1233876 -5209 0
0 0 0 1023 1234899 -4186 0
0 0 0 1032 1235931 -3154 0
0 0 0 1023 1236954 -2131 0
63 1 S102 1026 1237980 -1105 0
63 1 S102 1085 1239065 -20 0
63 2 S102 1113 1240178 1093 0
63 2 S102 1051 1241229 2144 0
63 2 S102 1052 1242281 3196 0
63 2 S102 1083 1243364 4279 0
63 2 S102 1050 1244414 5329 0
63 2 S102 1081 1245495 6410 0
0 0 0 1117 1246612 -8736 0
0 0 0 1095 1247707 -7641 0
0 0 0 1149 1248856 -6492 0
0 0 0 1116 1249972 -5376 0
0 0 0 1066 1251038 -4310 0
0 0 0 1091 1252129 -3219 0
0 0 0 1088 1253217 -2131 0
64 1 S112 1026 1254243 -1105 0
64 1 S112 1060 1255303 -45 0
64 2 S112 1086 1256389 1041 0
64 2 S112 1071 1257460 2112 0
64 2 S112 1087 1258547 3199 0
64 2 S112 1098 1259645 4297 0
64 2 S112 1065 1260710 5362 0
64 2 S112 1092 1261802 6454 0
0 0 0 1104 1262906 -7694 0
0 0 0 1053 1263959 -6641 0
0 0 0 1077 1265036 -5564 0
0 0 0 1105 1266141 -4459 0
0 0 0 1005 1267146 -3454 0
0 0 0 975 1268121 -2479 0
65 1 S106 912 1269033 -1567 0
65 1 S106 925 1269958 -642 0
65 2 S106 1044 1271002 402 0
65 2 S106 1062 1272064 1464 0
65 2 S106 1103 1273167 2567 0
65 2 S106 1086 1274253 3653 0
65 2 S106 1069 1275322 4722 0
65 2 S106 1078 1276400 5800 0
65 2 S106 1038 1277438 6838 0
0 0 0 1037 1278475 -5802 0
0 0 0 1105 1279580 -4697 0
0 0 0 1015 1280595 -3682 0
0 0 0 1007 1281602 -2675 0
66 1 S116 1082 1282684 -1593 0
66 1 S116 1107 1283791 -486 0
66 2 S116 1115 1284906 629 0
66 2 S116 1001 1285907 1630 0
66 2 S116 1032 1286939 2662 0
66 2 S116 1100 1288039 3762 0
66 2 S116 1090 1289129 4852 0
66 2 S116 1112 1290241 5964 0
66 2 S116 1060 1291301 7024 0
0 0 0 1090 1292391 -11515 0
0 0 0 1094 1293485 -10421 0
0 0 0 1072 1294557 -9349 0
0 0 0 1093 1295650 -8256 0
0 0 0 1068 1296718 -7188 0
0 0 0 1073 1297791 -6115 0
0 0 0 1109 1298900 -5006 0
0 0 0 1106 1300006 -3900 0
0 0 0 1091 1301097 -2809 0
67 1 S102 1148 1302245 -1661 0
67 1 S102 1217 1303462 -444 1
67 2 S102 1102 1304564 658 0
67 2 S102 1103 1305667 1761 0
67 2 S102 1113 1306780 2874 0
67 2 S102 1088 1307868 3962 0
67 2 S102 1154 1309022 5116 0
67 2 S102 1111 1310133 6227 0
0 0 0 1127 1311260 -6522 0
0 0 0 1174 1312434 -5348 0
0 0 0 1076 1313510 -4272 0
0 0 0 1096 1314606 -3176 0
0 0 0 1096 1315702 -2080 0
68 1 S106 1051 1316753 -1029 0
68 2 S106 1083 1317836 54 0
68 2 S106 1120 1318956 1174 0
68 2 S106 1122 1320078 2296 0
68 2 S106 1064 1321142 3360 0
68 2 S106 1106 1322248 4466 0
68 2 S106 1067 1323315 5533 0
68 2 S106 1136 1324451 6669 0
0 0 0 1147 1325598 -10735 0
0 0 0 1093 1326691 -9642 0
0 0 0 1094 1327785 -8548 0
0 0 0 1085 1328870 -7463 0
0 0 0 1076 1329946 -6387 0
0 0 0 1061 1331007 -5326 0
0 0 0 1098 1332105 -4228 0
0 0 0 1089 1333194 -3139 0
0 0 0 1062 1334256 -2077 0
69 1 S102 1073 1335329 -1004 0
69 2 S102 1103 1336432 99 0
69 2 S102 1073 1337505 1172 0
69 2 S102 1053 1338558 2225 0
69 2 S102 1061 1339619 3286 0
69 2 S102 1053 1340672 4339 0
69 2 S102 1020 1341692 5359 0
69 2 S102 1082 1342774 6441 0
0 0 0 1145 1343919 -8363 0
0 0 0 1105 1345024 -7258 0
0 0 0 1123 1346147 -6135 0
0 0 0 1052 1347199 -5083 0
0 0 0 1044 1348243 -4039 0
0 0 0 1064 1349307 -2975 0
70 1 S112 1049 1350356 -1926 0
70 1 S112 1033 1351389 -893 0
70 2 S112 1046 1352435 153 0
70 2 S112 1076 1353511 1229 0
70 2 S112 1027 1354538 2256 0
70 2 S112 1054 1355592 3310 0
70 2 S112 1054 1356646 4364 0
70 2 S112 1041 1357687 5405 0
70 2 S112 1098 1358785 6503 0
0 0 0 1117 1359902 -11478 0
0 0 0 1091 1360993 -10387 0
0 0 0 1125 1362118 -9262 0
0 0 0 1077 1363195 -8185 0
0 0 0 1062 1364257 -7123 0
0 0 0 1066 1365323 -6057 0
0 0 0 1070 1366393 -4987 0
0 0 0 1072 1367465 -3915 0
0 0 0 1100 1368565 -2815 0
71 1 S116 1076 1369641 -1739 0
71 1 S116 1067 1370708 -672 0
71 2 S116 1063 1371771 391 0
71 2 S116 1075 1372846 1466 0
71 2 S116 1063 1373909 2529 0
71 2 S116 1092 1375001 3621 0
71 2 S116 1066 1376067 4687 0
71 2 S116 1056 1377123 5743 0
71 2 S116 1060 1378183 6803 0
0 0 0 1074 1379257 -8884 0
0 0 0 1070 1380327 -7814 0
0 0 0 1116 1381443 -6698 0
0 0 0 1064 1382507 -5634 0
0 0 0 1078 1383585 -4556 0
0 0 0 1066 1384651 -3490 0
0 0 0 1050 1385701 -2440 0
72 1 S102 1028 1386729 -1412 0
72 1 S102 1061 1387790 -351 0
72 2 S102 1088 1388878 737 0
72 2 S102 1058 1389936 1795 0
72 2 S102 1089 1391025 2884 0
72 2 S102 1077 1392102 3961 0
72 2 S102 1080 1393182 5041 0
72 2 S102 1042 1394224 6083 0
0 0 0 1085 1395309 -6807 0
0 0 0 1102 1396411 -5705 0
0 0 0 1084 1397495 -4621 0
0 0 0 1098 1398593 -3523 0
0 0 0 1096 1399689 -2427 0
73 1 S116 1059 1400748 -1368 0
73 1 S116 1085 1401833 -283 0
73 2 S116 1117 1402950 834 0
73 2 S116 1118 1404068 1952 0
73 2 S116 1056 1405124 3008 0
73 2 S116 1050 1406174 4058 0
73 2 S116 1045 1407219 5103 0
73 2 S116 1041 1408260 6144 0
0 0 0 1062 1409322 -11213 0
0 0 0 1117 1410439 -10096 0
0 0 0 1066 1411505 -9030 0
0 0 0 1107 1412612 -7923 0
0 0 0 1094 1413706 -6829 0
0 0 0 1035 1414741 -5794 0
0 0 0 1051 1415792 -4743 0
0 0 0 1035 1416827 -3708 0
0 0 0 992 1417819 -2716 0
74 1 S106 997 1418816 -1719 0
74 1 S106 1004 1419820 -715 0
74 2 S106 983 1420803 268 0
74 2 S106 972 1421775 1240 0
74 2 S106 994 1422769 2234 0
74 2 S106 1008 1423777 3242 0
74 2 S106 1009 1424786 4251 0
74 2 S106 1047 1425833 5298 0
74 2 S106 1091 1426924 6389 0
0 0 0 1098 1428022 -6555 0
0 0 0 1085 1429107 -5470 0
0 0 0 1113 1430220 -4357 0
0 0 0 1026 1431246 -3331 0
0 0 0 1050 1432296 -2281 0
75 1 S112 1079 1433375 -1202 0
75 1 S112 1083 1434458 -119 0
75 2 S112 1092 1435550 973 0
75 2 S112 1136 1436686 2109 0
75 2 S112 1146 1437832 3255 0
75 2 S112 1103 1438935 4358 0
75 2 S112 1122 1440057 5480 0
75 2 S112 1142 1441199 6622 0
0 0 0 1085 1442284 -7611 0
0 0 0 1094 1443378 -6517 0
0 0 0 1091 1444469 -5426 0
0 0 0 1073 1445542 -4353 0
0 0 0 1074 1446616 -3279 0
0 0 0 1067 1447683 -2212 0
76 1 S116 1045 1448728 -1167 0
76 1 S116 1072 1449800 -95 0
76 2 S116 1070 1450870 975 0
76 2 S116 1065 1451935 2040 0
76 2 S116 1087 1453022 3127 0
76 2 S116 1088 1454110 4215 0
76 2 S116 1062 1455172 5277 0
76 2 S116 1081 1456253 6358 0
0 0 0 1089 1457342 -7921 0
0 0 0 1049 1458391 -6872 0
0 0 0 1108 1459499 -5764 0
0 0 0 1120 1460619 -4644 0
0 0 0 1090 1461709 -3554 0
0 0 0 1089 1462798 -2465 0
77 1 S106 1041 1463839 -1424 0
77 1 S106 1046 1464885 -378 0
77 2 S106 1071 1465956 693 0
77 2 S106 1047 1467003 1740 0
77 2 S106 1060 1468063 2800 0
77 2 S106 1066 1469129 3866 0
77 2 S106 1088 1470217 4954 0
77 2 S106 1083 1471300 6037 0
0 0 0 1120 1472420 -9637 0
0 0 0 1116 1473536 -8521 0
0 0 0 1095 1474631 -7426 0
0 0 0 1122 1475753 -6304 0
0 0 0 1040 1476793 -5264 0
0 0 0 1048 1477841 -4216 0
0 0 0 1071 1478912 -3145 0
0 0 0 1055 1479967 -2090 0
78 1 S112 1061 1481028 -1029 0
78 2 S112 1089 1482117 60 0
78 2 S112 1093 1483210 1153 0
78 2 S112 1092 1484302 2245 0
78 2 S112 1126 1485428 3371 0
78 2 S112 1152 1486580 4523 0
78 2 S112 1067 1487647 5590 0
78 2 S112 1080 1488727 6670 0
0 0 0 1082 1489809 -9954 0
0 0 0 1051 1490860 -8903 0
0 0 0 1068 1491928 -7835 0
0 0 0 1094 1493022 -6741 0
0 0 0 1068 1494090 -5673 0
0 0 0 1078 1495168 -4595 0
0 0 0 1097 1496265 -3498 0
0 0 0 1069 1497334 -2429 0
79 1 S102 1044 1498378 -1385 0
79 1 S102 1062 1499440 -323 0
79 2 S102 1055 1500495 732 0
79 2 S102 1020 1501515 1752 0
79 2 S102 1048 1502563 2800 0
79 2 S102 1093 1503656 3893 0
79 2 S102 1110 1504766 5003 0
79 2 S102 1150 1505916 6153 0
0 0 0 1140 1507056 -10496 0
0 0 0 1102 1508158 -9394 0
0 0 0 1106 1509264 -8288 0
0 0 0 1114 1510378 -7174 0
0 0 0 1089 1511467 -6085 0
0 0 0 1077 1512544 -5008 0
0 0 0 1076 1513620 -3932 0
0 0 0 1029 1514649 -2903 0
80 1 S116 943 1515592 -1960 0
80 1 S116 957 1516549 -1003 0
80 2 S116 1030 1517579 27 0
80 2 S116 1110 1518689 1137 0
80 2 S116 1120 1519809 2257 0
80 2 S116 1086 1520895 3343 0
80 2 S116 1107 1522002 4450 0
80 2 S116 1094 1523096 5544 0
80 2 S116 1051 1524147 6595 0
