T_0013
BeatCount Mean SD BeatCountNoOutliers MeanNoOutliers SDNoOutliers
2031 734,433284096504 67,3528489455443 1944 734,861111111111 47,1289354080871

Trial TrialStatus Trialtype IBI AbsPosition RelPosition Outlier
0 0 0 739 1399 -12349 0
0 0 0 716 2115 -11633 0
0 0 0 741 2856 -10892 0
0 0 0 783 3639 -10109 0
0 0 0 826 4465 -9283 0
0 0 0 525 4990 -8758 1
0 0 0 987 5977 -7771 1
0 0 0 544 6521 -7227 1
0 0 0 1096 7617 -6131 1
0 0 0 896 8513 -5235 0
0 0 0 833 9346 -4402 0
0 0 0 509 9855 -3893 1
0 0 0 1009 10864 -2884 1
0 0 0 866 11730 -2018 0
1 1 S112 852 12582 -1166 0
1 1 S112 555 13137 -611 1
1 2 S112 996 14133 385 1
1 2 S112 829 14962 1214 0
1 2 S112 844 15806 2058 0
1 2 S112 843 16649 2901 0
1 2 S112 549 17198 3450 1
1 2 S112 1034 18232 4484 1
1 2 S112 872 19104 5356 0
1 2 S112 881 19985 6237 0
0 0 0 846 20831 -11949 0
0 0 0 851 21682 -11098 0
0 0 0 850 22532 -10248 0
0 0 0 821 23353 -9427 0
0 0 0 528 23881 -8899 1
0 0 0 950 24831 -7949 1
0 0 0 777 25608 -7172 0
0 0 0 773 26381 -6399 0
0 0 0 773 27154 -5626 0
0 0 0 746 27900 -4880 0
0 0 0 506 28406 -4374 1
0 0 0 962 29368 -3412 1
0 0 0 794 30162 -2618 0
2 1 S102 795 30957 -1823 0
2 1 S102 524 31481 -1299 1
2 1 S102 968 32449 -331 1
2 2 S102 759 33208 428 0
2 2 S102 875 34083 1303 0
2 2 S102 822 34905 2125 0
2 2 S102 781 35686 2906 0
2 2 S102 791 36477 3697 0
2 2 S102 658 37135 4355 0
2 2 S102 1055 38190 5410 1
2 2 S102 857 39047 6267 0
0 0 0 810 39857 -8673 0
0 0 0 529 40386 -8144 1
0 0 0 603 40989 -7541 0
0 0 0 1028 42017 -6513 1
0 0 0 788 42805 -5725 0
0 0 0 777 43582 -4948 0
0 0 0 787 44369 -4161 0
0 0 0 791 45160 -3370 0
0 0 0 521 45681 -2849 1
3 1 S116 976 46657 -1873 1
3 1 S116 792 47449 -1081 0
3 1 S116 802 48251 -279 0
3 2 S116 605 48856 326 0
3 2 S116 1004 49860 1330 1
3 2 S116 783 50643 2113 0
3 2 S116 817 51460 2930 0
3 2 S116 835 52295 3765 0
3 2 S116 834 53129 4599 0
3 2 S116 814 53943 5413 0
3 2 S116 862 54805 6275 0
0 0 0 890 55695 -11701 0
0 0 0 837 56532 -10864 0
0 0 0 949 57481 -9915 1
0 0 0 813 58294 -9102 0
0 0 0 806 59100 -8296 0
0 0 0 805 59905 -7491 0
0 0 0 802 60707 -6689 0
0 0 0 525 61232 -6164 1
0 0 0 933 62165 -5231 1
0 0 0 533 62698 -4698 1
0 0 0 948 63646 -3750 1
0 0 0 784 64430 -2966 0
0 0 0 778 65208 -2188 0
4 1 S106 519 65727 -1669 1
4 1 S106 948 66675 -721 1
4 1 S106 553 67228 -168 1
4 2 S106 1010 68238 842 1
4 2 S106 863 69101 1705 0
4 2 S106 863 69964 2568 0
4 2 S106 829 70793 3397 0
4 2 S106 853 71646 4250 0
4 2 S106 880 72526 5130 0
4 2 S106 886 73412 6016 0
4 2 S106 535 73947 6551 1
0 0 0 1019 74966 -8146 1
0 0 0 854 75820 -7292 0
0 0 0 843 76663 -6449 0
0 0 0 562 77225 -5887 0
0 0 0 978 78203 -4909 1
0 0 0 535 78738 -4374 1
0 0 0 970 79708 -3404 1
0 0 0 727 80435 -2677 0
5 1 S116 702 81137 -1975 0
5 1 S116 703 81840 -1272 0
5 1 S116 712 82552 -560 0
5 2 S116 730 83282 170 0
5 2 S116 728 84010 898 0
5 2 S116 734 84744 1632 0
5 2 S116 764 85508 2396 0
5 2 S116 785 86293 3181 0
5 2 S116 793 87086 3974 0
5 2 S116 770 87856 4744 0
5 2 S116 753 88609 5497 0
5 2 S116 760 89369 6257 0
5 2 S116 754 90123 7011 0
0 0 0 746 90869 -9518 0
0 0 0 738 91607 -8780 0
0 0 0 710 92317 -8070 0
0 0 0 701 93018 -7369 0
0 0 0 701 93719 -6668 0
0 0 0 701 94420 -5967 0
0 0 0 709 95129 -5258 0
0 0 0 735 95864 -4523 0
0 0 0 734 96598 -3789 0
0 0 0 729 97327 -3060 0
0 0 0 750 98077 -2310 0
6 1 S106 768 98845 -1542 0
6 1 S106 784 99629 -758 0
6 2 S106 778 100407 20 0
6 2 S106 752 101159 772 0
6 2 S106 764 101923 1536 0
6 2 S106 784 102707 2320 0
6 2 S106 788 103495 3108 0
6 2 S106 782 104277 3890 0
6 2 S106 761 105038 4651 0
6 2 S106 769 105807 5420 0
6 2 S106 774 106581 6194 0
6 2 S106 769 107350 6963 0
0 0 0 753 108103 -10106 0
0 0 0 748 108851 -9358 0
0 0 0 757 109608 -8601 0
0 0 0 755 110363 -7846 0
0 0 0 749 111112 -7097 0
0 0 0 731 111843 -6366 0
0 0 0 732 112575 -5634 0
0 0 0 748 113323 -4886 0
0 0 0 758 114081 -4128 0
0 0 0 768 114849 -3360 0
0 0 0 748 115597 -2612 0
7 1 S102 745 116342 -1867 0
7 1 S102 762 117104 -1105 0
7 1 S102 777 117881 -328 0
7 2 S102 783 118664 455 0
7 2 S102 770 119434 1225 0
7 2 S102 776 120210 2001 0
7 2 S102 795 121005 2796 0
7 2 S102 794 121799 3590 0
7 2 S102 793 122592 4383 0
7 2 S102 765 123357 5148 0
7 2 S102 764 124121 5912 0
7 2 S102 767 124888 6679 0
0 0 0 765 125653 -8653 0
0 0 0 759 126412 -7894 0
0 0 0 741 127153 -7153 0
0 0 0 740 127893 -6413 0
0 0 0 739 128632 -5674 0
0 0 0 742 129374 -4932 0
0 0 0 742 130116 -4190 0
0 0 0 724 130840 -3466 0
0 0 0 735 131575 -2731 0
8 1 S112 745 132320 -1986 0
8 1 S112 746 133066 -1240 0
8 1 S112 738 133804 -502 0
8 2 S112 732 134536 230 0
8 2 S112 739 135275 969 0
8 2 S112 759 136034 1728 0
8 2 S112 756 136790 2484 0
8 2 S112 741 137531 3225 0
8 2 S112 725 138256 3950 0
8 2 S112 738 138994 4688 0
8 2 S112 745 139739 5433 0
8 2 S112 734 140473 6167 0
8 2 S112 718 141191 6885 0
0 0 0 729 141920 -6727 0
0 0 0 730 142650 -5997 0
0 0 0 733 143383 -5264 0
0 0 0 717 144100 -4547 0
0 0 0 707 144807 -3840 0
0 0 0 707 145514 -3133 0
0 0 0 710 146224 -2423 0
9 1 S116 714 146938 -1709 0
9 1 S116 714 147652 -995 0
9 1 S116 704 148356 -291 0
9 2 S116 709 149065 418 0
9 2 S116 725 149790 1143 0
9 2 S116 731 150521 1874 0
9 2 S116 733 151254 2607 0
9 2 S116 726 151980 3333 0
9 2 S116 729 152709 4062 0
9 2 S116 729 153438 4791 0
9 2 S116 732 154170 5523 0
9 2 S116 733 154903 6256 0
9 2 S116 723 155626 6979 0
0 0 0 722 156348 -11662 0
0 0 0 724 157072 -10938 0
0 0 0 722 157794 -10216 0
0 0 0 707 158501 -9509 0
0 0 0 704 159205 -8805 0
0 0 0 702 159907 -8103 0
0 0 0 707 160614 -7396 0
0 0 0 714 161328 -6682 0
0 0 0 712 162040 -5970 0
0 0 0 705 162745 -5265 0
0 0 0 709 163454 -4556 0
0 0 0 716 164170 -3840 0
0 0 0 724 164894 -3116 0
0 0 0 737 165631 -2379 0
10 1 S102 736 166367 -1643 0
10 1 S102 723 167090 -920 0
10 1 S102 728 167818 -192 0
10 2 S102 723 168541 531 0
10 2 S102 719 169260 1250 0
10 2 S102 705 169965 1955 0
10 2 S102 690 170655 2645 0
10 2 S102 696 171351 3341 0
10 2 S102 701 172052 4042 0
10 2 S102 706 172758 4748 0
10 2 S102 704 173462 5452 0
10 2 S102 687 174149 6139 0
10 2 S102 500 174649 6639 1
0 0 0 748 175397 -10070 0
0 0 0 702 176099 -9368 0
0 0 0 698 176797 -8670 0
0 0 0 686 177483 -7984 0
0 0 0 683 178166 -7301 0
0 0 0 682 178848 -6619 0
0 0 0 691 179539 -5928 0
0 0 0 718 180257 -5210 0
0 0 0 737 180994 -4473 0
0 0 0 757 181751 -3716 0
0 0 0 778 182529 -2938 0
0 0 0 793 183322 -2145 0
11 1 S112 803 184125 -1342 0
11 1 S112 781 184906 -561 0
11 2 S112 793 185699 232 0
11 2 S112 799 186498 1031 0
11 2 S112 809 187307 1840 0
11 2 S112 800 188107 2640 0
11 2 S112 788 188895 3428 0
11 2 S112 750 189645 4178 0
11 2 S112 751 190396 4929 0
11 2 S112 758 191154 5687 0
11 2 S112 747 191901 6434 0
0 0 0 730 192631 -7077 0
0 0 0 718 193349 -6359 0
0 0 0 717 194066 -5642 0
0 0 0 732 194798 -4910 0
0 0 0 727 195525 -4183 0
0 0 0 726 196251 -3457 0
0 0 0 695 196946 -2762 0
0 0 0 697 197643 -2065 0
12 1 S116 687 198330 -1378 0
12 1 S116 668 198998 -710 0
12 1 S116 673 199671 -37 0
12 2 S116 677 200348 640 0
12 2 S116 713 201061 1353 0
12 2 S116 724 201785 2077 0
12 2 S116 732 202517 2809 0
12 2 S116 767 203284 3576 0
12 2 S116 781 204065 4357 0
12 2 S116 785 204850 5142 0
12 2 S116 776 205626 5918 0
12 2 S116 747 206373 6665 0
0 0 0 756 207129 -11362 0
0 0 0 745 207874 -10617 0
0 0 0 730 208604 -9887 0
0 0 0 706 209310 -9181 0
0 0 0 702 210012 -8479 0
0 0 0 698 210710 -7781 0
0 0 0 697 211407 -7084 0
0 0 0 703 212110 -6381 0
0 0 0 713 212823 -5668 0
0 0 0 712 213535 -4956 0
0 0 0 706 214241 -4250 0
0 0 0 719 214960 -3531 0
0 0 0 738 215698 -2793 0
0 0 0 753 216451 -2040 0
13 1 S112 755 217206 -1285 0
13 1 S112 759 217965 -526 0
13 2 S112 734 218699 208 0
13 2 S112 742 219441 950 0
13 2 S112 749 220190 1699 0
13 2 S112 748 220938 2447 0
13 2 S112 751 221689 3198 0
13 2 S112 725 222414 3923 0
13 2 S112 742 223156 4665 0
13 2 S112 743 223899 5408 0
13 2 S112 739 224638 6147 0
13 2 S112 741 225379 6888 0
0 0 0 727 226106 -11434 0
0 0 0 731 226837 -10703 0
0 0 0 740 227577 -9963 0
0 0 0 743 228320 -9220 0
0 0 0 711 229031 -8509 0
0 0 0 717 229748 -7792 0
0 0 0 722 230470 -7070 0
0 0 0 728 231198 -6342 0
0 0 0 725 231923 -5617 0
0 0 0 710 232633 -4907 0
0 0 0 706 233339 -4201 0
0 0 0 716 234055 -3485 0
0 0 0 717 234772 -2768 0
0 0 0 721 235493 -2047 0
14 1 S106 724 236217 -1323 0
14 1 S106 712 236929 -611 0
14 2 S106 718 237647 107 0
14 2 S106 725 238372 832 0
14 2 S106 730 239102 1562 0
14 2 S106 733 239835 2295 0
14 2 S106 726 240561 3021 0
14 2 S106 724 241285 3745 0
14 2 S106 738 242023 4483 0
14 2 S106 746 242769 5229 0
14 2 S106 747 243516 5976 0
14 2 S106 739 244255 6715 0
0 0 0 734 244989 -10290 0
0 0 0 751 245740 -9539 0
0 0 0 747 246487 -8792 0
0 0 0 740 247227 -8052 0
0 0 0 715 247942 -7337 0
0 0 0 718 248660 -6619 0
0 0 0 720 249380 -5899 0
0 0 0 720 250100 -5179 0
0 0 0 721 250821 -4458 0
0 0 0 703 251524 -3755 0
0 0 0 706 252230 -3049 0
0 0 0 716 252946 -2333 0
15 1 S116 721 253667 -1612 0
15 1 S116 733 254400 -879 0
15 1 S116 727 255127 -152 0
15 2 S116 731 255858 579 0
15 2 S116 751 256609 1330 0
15 2 S116 750 257359 2080 0
15 2 S116 749 258108 2829 0
15 2 S116 736 258844 3565 0
15 2 S116 748 259592 4313 0
15 2 S116 765 260357 5078 0
15 2 S116 762 261119 5840 0
15 2 S116 745 261864 6585 0
0 0 0 726 262590 -9217 0
0 0 0 728 263318 -8489 0
0 0 0 730 264048 -7759 0
0 0 0 720 264768 -7039 0
0 0 0 708 265476 -6331 0
0 0 0 694 266170 -5637 0
0 0 0 705 266875 -4932 0
0 0 0 711 267586 -4221 0
0 0 0 719 268305 -3502 0
0 0 0 724 269029 -2778 0
0 0 0 714 269743 -2064 0
16 1 S116 715 270458 -1349 0
16 1 S116 725 271183 -624 0
16 2 S116 730 271913 106 0
16 2 S116 737 272650 843 0
16 2 S116 744 273394 1587 0
16 2 S116 732 274126 2319 0
16 2 S116 719 274845 3038 0
16 2 S116 726 275571 3764 0
16 2 S116 721 276292 4485 0
16 2 S116 723 277015 5208 0
16 2 S116 722 277737 5930 0
16 2 S116 712 278449 6642 0
0 0 0 722 279171 -8850 0
0 0 0 733 279904 -8117 0
0 0 0 722 280626 -7395 0
0 0 0 712 281338 -6683 0
0 0 0 714 282052 -5969 0
0 0 0 726 282778 -5243 0
0 0 0 734 283512 -4509 0
0 0 0 728 284240 -3781 0
0 0 0 714 284954 -3067 0
0 0 0 735 285689 -2332 0
17 1 S106 743 286432 -1589 0
17 1 S106 746 287178 -843 0
17 1 S106 741 287919 -102 0
17 2 S106 500 288419 398 1
17 2 S106 794 289213 1192 0
17 2 S106 744 289957 1936 0
17 2 S106 738 290695 2674 0
17 2 S106 734 291429 3408 0
17 2 S106 725 292154 4133 0
17 2 S106 737 292891 4870 0
17 2 S106 752 293643 5622 0
17 2 S106 758 294401 6380 0
0 0 0 757 295158 -10320 0
0 0 0 754 295912 -9566 0
0 0 0 771 296683 -8795 0
0 0 0 770 297453 -8025 0
0 0 0 763 298216 -7262 0
0 0 0 744 298960 -6518 0
0 0 0 754 299714 -5764 0
0 0 0 758 300472 -5006 0
0 0 0 752 301224 -4254 0
0 0 0 729 301953 -3525 0
0 0 0 718 302671 -2807 0
0 0 0 722 303393 -2085 0
18 1 S102 731 304124 -1354 0
18 1 S102 739 304863 -615 0
18 2 S102 732 305595 117 0
18 2 S102 716 306311 833 0
18 2 S102 724 307035 1557 0
18 2 S102 737 307772 2294 0
18 2 S102 741 308513 3035 0
18 2 S102 738 309251 3773 0
18 2 S102 724 309975 4497 0
18 2 S102 724 310699 5221 0
18 2 S102 727 311426 5948 0
18 2 S102 731 312157 6679 0
0 0 0 728 312885 -6287 0
0 0 0 719 313604 -5568 0
0 0 0 726 314330 -4842 0
0 0 0 724 315054 -4118 0
0 0 0 718 315772 -3400 0
0 0 0 713 316485 -2687 0
19 1 S106 709 317194 -1978 0
19 1 S106 714 317908 -1264 0
19 1 S106 725 318633 -539 0
19 2 S106 742 319375 203 0
19 2 S106 757 320132 960 0
19 2 S106 759 320891 1719 0
19 2 S106 740 321631 2459 0
19 2 S106 753 322384 3212 0
19 2 S106 762 323146 3974 0
19 2 S106 766 323912 4740 0
19 2 S106 756 324668 5496 0
19 2 S106 735 325403 6231 0
19 2 S106 738 326141 6969 0
0 0 0 737 326878 -10430 0
0 0 0 734 327612 -9696 0
0 0 0 718 328330 -8978 0
0 0 0 704 329034 -8274 0
0 0 0 704 329738 -7570 0
0 0 0 707 330445 -6863 0
0 0 0 709 331154 -6154 0
0 0 0 712 331866 -5442 0
0 0 0 712 332578 -4730 0
0 0 0 715 333293 -4015 0
0 0 0 735 334028 -3280 0
0 0 0 756 334784 -2524 0
20 1 S112 766 335550 -1758 0
20 1 S112 767 336317 -991 0
20 1 S112 749 337066 -242 0
20 2 S112 749 337815 507 0
20 2 S112 764 338579 1271 0
20 2 S112 760 339339 2031 0
20 2 S112 754 340093 2785 0
20 2 S112 729 340822 3514 0
20 2 S112 734 341556 4248 0
20 2 S112 725 342281 4973 0
20 2 S112 718 342999 5691 0
20 2 S112 706 343705 6397 0
0 0 0 700 344405 -10095 0
0 0 0 706 345111 -9389 0
0 0 0 717 345828 -8672 0
0 0 0 722 346550 -7950 0
0 0 0 719 347269 -7231 0
0 0 0 717 347986 -6514 0
0 0 0 723 348709 -5791 0
0 0 0 730 349439 -5061 0
0 0 0 730 350169 -4331 0
0 0 0 719 350888 -3612 0
0 0 0 710 351598 -2902 0
0 0 0 716 352314 -2186 0
21 1 S106 716 353030 -1470 0
21 1 S106 715 353745 -755 0
21 1 S106 720 354465 -35 0
21 2 S106 712 355177 677 0
21 2 S106 687 355864 1364 0
21 2 S106 685 356549 2049 0
21 2 S106 682 357231 2731 0
21 2 S106 679 357910 3410 0
21 2 S106 680 358590 4090 0
21 2 S106 671 359261 4761 0
21 2 S106 655 359916 5416 0
21 2 S106 661 360577 6077 0
21 2 S106 666 361243 6743 0
0 0 0 652 361895 -9847 0
0 0 0 646 362541 -9201 0
0 0 0 641 363182 -8560 0
0 0 0 647 363829 -7913 0
0 0 0 649 364478 -7264 0
0 0 0 655 365133 -6609 0
0 0 0 662 365795 -5947 0
0 0 0 653 366448 -5294 0
0 0 0 633 367081 -4661 0
0 0 0 630 367711 -4031 0
0 0 0 622 368333 -3409 0
0 0 0 613 368946 -2796 0
0 0 0 611 369557 -2185 0
22 1 S116 627 370184 -1558 0
22 1 S116 632 370816 -926 0
22 1 S116 636 371452 -290 0
22 2 S116 637 372089 347 0
22 2 S116 640 372729 987 0
22 2 S116 655 373384 1642 0
22 2 S116 659 374043 2301 0
22 2 S116 661 374704 2962 0
22 2 S116 678 375382 3640 0
22 2 S116 702 376084 4342 0
22 2 S116 728 376812 5070 0
22 2 S116 772 377584 5842 0
22 2 S116 783 378367 6625 0
0 0 0 752 379119 -8687 0
0 0 0 748 379867 -7939 0
0 0 0 743 380610 -7196 0
0 0 0 734 381344 -6462 0
0 0 0 724 382068 -5738 0
0 0 0 704 382772 -5034 0
0 0 0 689 383461 -4345 0
0 0 0 667 384128 -3678 0
0 0 0 671 384799 -3007 0
0 0 0 688 385487 -2319 0
23 1 S112 723 386210 -1596 0
23 1 S112 762 386972 -834 0
23 1 S112 775 387747 -59 0
23 2 S112 752 388499 693 0
23 2 S112 738 389237 1431 0
23 2 S112 739 389976 2170 0
23 2 S112 745 390721 2915 0
23 2 S112 753 391474 3668 0
23 2 S112 759 392233 4427 0
23 2 S112 756 392989 5183 0
23 2 S112 742 393731 5925 0
23 2 S112 749 394480 6674 0
0 0 0 755 395235 -9332 0
0 0 0 768 396003 -8564 0
0 0 0 764 396767 -7800 0
0 0 0 737 397504 -7063 0
0 0 0 728 398232 -6335 0
0 0 0 740 398972 -5595 0
0 0 0 748 399720 -4847 0
0 0 0 754 400474 -4093 0
0 0 0 748 401222 -3345 0
0 0 0 738 401960 -2607 0
24 1 S106 750 402710 -1857 0
24 1 S106 752 403462 -1105 0
24 1 S106 750 404212 -355 0
24 2 S106 754 404966 399 0
24 2 S106 743 405709 1142 0
24 2 S106 736 406445 1878 0
24 2 S106 735 407180 2613 0
24 2 S106 750 407930 3363 0
24 2 S106 765 408695 4128 0
24 2 S106 766 409461 4894 0
24 2 S106 770 410231 5664 0
24 2 S106 751 410982 6415 0
0 0 0 754 411736 -8564 0
0 0 0 767 412503 -7797 0
0 0 0 762 413265 -7035 0
0 0 0 749 414014 -6286 0
0 0 0 725 414739 -5561 0
0 0 0 710 415449 -4851 0
0 0 0 717 416166 -4134 0
0 0 0 724 416890 -3410 0
0 0 0 734 417624 -2676 0
25 1 S102 747 418371 -1929 0
25 1 S102 731 419102 -1198 0
25 1 S102 740 419842 -458 0
25 2 S102 750 420592 292 0
25 2 S102 767 421359 1059 0
25 2 S102 536 421895 1595 1
25 2 S102 859 422754 2454 0
25 2 S102 760 423514 3214 0
25 2 S102 758 424272 3972 0
25 2 S102 757 425029 4729 0
25 2 S102 747 425776 5476 0
25 2 S102 743 426519 6219 0
25 2 S102 728 427247 6947 0
0 0 0 742 427989 -5690 0
0 0 0 757 428746 -4933 0
0 0 0 754 429500 -4179 0
0 0 0 746 430246 -3433 0
0 0 0 732 430978 -2701 0
26 1 S116 744 431722 -1957 0
26 1 S116 761 432483 -1196 0
26 1 S116 771 433254 -425 0
26 2 S116 780 434034 355 0
26 2 S116 753 434787 1108 0
26 2 S116 767 435554 1875 0
26 2 S116 783 436337 2658 0
26 2 S116 509 436846 3167 1
26 2 S116 864 437710 4031 0
26 2 S116 776 438486 4807 0
26 2 S116 747 439233 5554 0
26 2 S116 745 439978 6299 0
0 0 0 752 440730 -7173 0
0 0 0 765 441495 -6408 0
0 0 0 749 442244 -5659 0
0 0 0 725 442969 -4934 0
0 0 0 730 443699 -4204 0
0 0 0 740 444439 -3464 0
0 0 0 754 445193 -2710 0
27 1 S106 771 445964 -1939 0
27 1 S106 777 446741 -1162 0
27 1 S106 780 447521 -382 0
27 2 S106 808 448329 426 0
27 2 S106 517 448846 943 1
27 2 S106 1007 449853 1950 1
27 2 S106 849 450702 2799 0
27 2 S106 805 451507 3604 0
27 2 S106 807 452314 4411 0
27 2 S106 799 453113 5210 0
27 2 S106 802 453915 6012 0
27 2 S106 772 454687 6784 0
0 0 0 791 455478 -5638 0
0 0 0 796 456274 -4842 0
0 0 0 784 457058 -4058 0
0 0 0 528 457586 -3530 1
0 0 0 948 458534 -2582 1
0 0 0 558 459092 -2024 1
28 1 S102 989 460081 -1035 1
28 1 S102 799 460880 -236 0
28 2 S102 778 461658 542 0
28 2 S102 774 462432 1316 0
28 2 S102 797 463229 2113 0
28 2 S102 814 464043 2927 0
28 2 S102 815 464858 3742 0
28 2 S102 785 465643 4527 0
28 2 S102 789 466432 5316 0
28 2 S102 802 467234 6118 0
28 2 S102 809 468043 6927 0
0 0 0 799 468842 -10079 0
0 0 0 761 469603 -9318 0
0 0 0 748 470351 -8570 0
0 0 0 741 471092 -7829 0
0 0 0 736 471828 -7093 0
0 0 0 729 472557 -6364 0
0 0 0 727 473284 -5637 0
0 0 0 713 473997 -4924 0
0 0 0 723 474720 -4201 0
0 0 0 738 475458 -3463 0
0 0 0 747 476205 -2716 0
29 1 S112 745 476950 -1971 0
29 1 S112 738 477688 -1233 0
29 1 S112 751 478439 -482 0
29 2 S112 756 479195 274 0
29 2 S112 758 479953 1032 0
29 2 S112 748 480701 1780 0
29 2 S112 763 481464 2543 0
29 2 S112 783 482247 3326 0
29 2 S112 784 483031 4110 0
29 2 S112 758 483789 4868 0
29 2 S112 749 484538 5617 0
29 2 S112 761 485299 6378 0
0 0 0 758 486057 -7834 0
0 0 0 766 486823 -7068 0
0 0 0 745 487568 -6323 0
0 0 0 737 488305 -5586 0
0 0 0 743 489048 -4843 0
0 0 0 740 489788 -4103 0
0 0 0 742 490530 -3361 0
0 0 0 742 491272 -2619 0
30 1 S112 720 491992 -1899 0
30 1 S112 724 492716 -1175 0
30 1 S112 734 493450 -441 0
30 2 S112 742 494192 301 0
30 2 S112 748 494940 1049 0
30 2 S112 745 495685 1794 0
30 2 S112 734 496419 2528 0
30 2 S112 746 497165 3274 0
30 2 S112 762 497927 4036 0
30 2 S112 761 498688 4797 0
30 2 S112 742 499430 5539 0
30 2 S112 755 500185 6294 0
0 0 0 761 500946 -8811 0
0 0 0 763 501709 -8048 0
0 0 0 747 502456 -7301 0
0 0 0 732 503188 -6569 0
0 0 0 730 503918 -5839 0
0 0 0 733 504651 -5106 0
0 0 0 741 505392 -4365 0
0 0 0 748 506140 -3617 0
0 0 0 740 506880 -2877 0
0 0 0 745 507625 -2132 0
31 1 S106 754 508379 -1378 0
31 1 S106 759 509138 -619 0
31 2 S106 757 509895 138 0
31 2 S106 743 510638 881 0
31 2 S106 750 511388 1631 0
31 2 S106 765 512153 2396 0
31 2 S106 772 512925 3168 0
31 2 S106 770 513695 3938 0
31 2 S106 740 514435 4678 0
31 2 S106 751 515186 5429 0
31 2 S106 746 515932 6175 0
31 2 S106 745 516677 6920 0
0 0 0 724 517401 -8785 0
0 0 0 723 518124 -8062 0
0 0 0 728 518852 -7334 0
0 0 0 729 519581 -6605 0
0 0 0 734 520315 -5871 0
0 0 0 730 521045 -5141 0
0 0 0 740 521785 -4401 0
0 0 0 722 522507 -3679 0
0 0 0 743 523250 -2936 0
0 0 0 759 524009 -2177 0
32 1 S102 761 524770 -1416 0
32 1 S102 759 525529 -657 0
32 2 S102 737 526266 80 0
32 2 S102 744 527010 824 0
32 2 S102 751 527761 1575 0
32 2 S102 747 528508 2322 0
32 2 S102 729 529237 3051 0
32 2 S102 712 529949 3763 0
32 2 S102 716 530665 4479 0
32 2 S102 710 531375 5189 0
32 2 S102 708 532083 5897 0
32 2 S102 698 532781 6595 0
0 0 0 698 533479 -9882 0
0 0 0 701 534180 -9181 0
0 0 0 707 534887 -8474 0
0 0 0 715 535602 -7759 0
0 0 0 728 536330 -7031 0
0 0 0 727 537057 -6304 0
0 0 0 730 537787 -5574 0
0 0 0 757 538544 -4817 0
0 0 0 771 539315 -4046 0
0 0 0 780 540095 -3266 0
0 0 0 799 540894 -2467 0
33 1 S112 776 541670 -1691 0
33 1 S112 784 542454 -907 0
33 1 S112 787 543241 -120 0
33 2 S112 781 544022 661 0
33 2 S112 769 544791 1430 0
33 2 S112 778 545569 2208 0
33 2 S112 803 546372 3011 0
33 2 S112 806 547178 3817 0
33 2 S112 778 547956 4595 0
33 2 S112 767 548723 5362 0
33 2 S112 772 549495 6134 0
33 2 S112 777 550272 6911 0
0 0 0 775 551047 -10932 0
0 0 0 753 551800 -10179 0
0 0 0 746 552546 -9433 0
0 0 0 741 553287 -8692 0
0 0 0 737 554024 -7955 0
0 0 0 739 554763 -7216 0
0 0 0 735 555498 -6481 0
0 0 0 717 556215 -5764 0
0 0 0 726 556941 -5038 0
0 0 0 731 557672 -4307 0
0 0 0 739 558411 -3568 0
0 0 0 741 559152 -2827 0
0 0 0 733 559885 -2094 0
34 1 S106 733 560618 -1361 0
34 1 S106 742 561360 -619 0
34 1 S106 546 561906 -73 1
34 2 S106 850 562756 777 0
34 2 S106 506 563262 1283 1
34 2 S106 899 564161 2182 0
34 2 S106 766 564927 2948 0
34 2 S106 771 565698 3719 0
34 2 S106 762 566460 4481 0
34 2 S106 756 567216 5237 0
34 2 S106 741 567957 5978 0
34 2 S106 756 568713 6734 0
0 0 0 769 569482 -7981 0
0 0 0 790 570272 -7191 0
0 0 0 788 571060 -6403 0
0 0 0 774 571834 -5629 0
0 0 0 787 572621 -4842 0
0 0 0 802 573423 -4040 0
0 0 0 803 574226 -3237 0
0 0 0 804 575030 -2433 0
35 1 S102 773 575803 -1660 0
35 1 S102 782 576585 -878 0
35 1 S102 778 577363 -100 0
35 2 S102 781 578144 681 0
35 2 S102 765 578909 1446 0
35 2 S102 743 579652 2189 0
35 2 S102 755 580407 2944 0
35 2 S102 752 581159 3696 0
35 2 S102 749 581908 4445 0
35 2 S102 734 582642 5179 0
35 2 S102 731 583373 5910 0
35 2 S102 746 584119 6656 0
0 0 0 753 584872 -6931 0
0 0 0 766 585638 -6165 0
0 0 0 757 586395 -5408 0
0 0 0 758 587153 -4650 0
0 0 0 767 587920 -3883 0
0 0 0 763 588683 -3120 0
0 0 0 753 589436 -2367 0
36 1 S106 731 590167 -1636 0
36 1 S106 743 590910 -893 0
36 1 S106 753 591663 -140 0
36 2 S106 529 592192 389 1
36 2 S106 870 593062 1259 0
36 2 S106 768 593830 2027 0
36 2 S106 776 594606 2803 0
36 2 S106 779 595385 3582 0
36 2 S106 769 596154 4351 0
36 2 S106 746 596900 5097 0
36 2 S106 758 597658 5855 0
36 2 S106 769 598427 6624 0
0 0 0 775 599202 -8682 0
0 0 0 758 599960 -7924 0
0 0 0 742 600702 -7182 0
0 0 0 738 601440 -6444 0
0 0 0 738 602178 -5706 0
0 0 0 744 602922 -4962 0
0 0 0 738 603660 -4224 0
0 0 0 721 604381 -3503 0
0 0 0 710 605091 -2793 0
0 0 0 716 605807 -2077 0
37 1 S116 726 606533 -1351 0
37 1 S116 740 607273 -611 0
37 2 S116 745 608018 134 0
37 2 S116 734 608752 868 0
37 2 S116 750 609502 1618 0
37 2 S116 761 610263 2379 0
37 2 S116 768 611031 3147 0
37 2 S116 754 611785 3901 0
37 2 S116 733 612518 4634 0
37 2 S116 732 613250 5366 0
37 2 S116 726 613976 6092 0
37 2 S116 723 614699 6815 0
0 0 0 714 615413 -10707 0
0 0 0 706 616119 -10001 0
0 0 0 710 616829 -9291 0
0 0 0 708 617537 -8583 0
0 0 0 710 618247 -7873 0
0 0 0 714 618961 -7159 0
0 0 0 710 619671 -6449 0
0 0 0 699 620370 -5750 0
0 0 0 710 621080 -5040 0
0 0 0 723 621803 -4317 0
0 0 0 734 622537 -3583 0
0 0 0 500 623037 -3083 1
0 0 0 812 623849 -2271 0
38 1 S102 740 624589 -1531 0
38 1 S102 731 625320 -800 0
38 1 S102 743 626063 -57 0
38 2 S102 749 626812 692 0
38 2 S102 757 627569 1449 0
38 2 S102 750 628319 2199 0
38 2 S102 744 629063 2943 0
38 2 S102 756 629819 3699 0
38 2 S102 764 630583 4463 0
38 2 S102 775 631358 5238 0
38 2 S102 758 632116 5996 0
38 2 S102 767 632883 6763 0
0 0 0 786 633669 -7985 0
0 0 0 806 634475 -7179 0
0 0 0 799 635274 -6380 0
0 0 0 764 636038 -5616 0
0 0 0 748 636786 -4868 0
0 0 0 751 637537 -4117 0
0 0 0 753 638290 -3364 0
0 0 0 752 639042 -2612 0
39 1 S116 750 639792 -1862 0
39 1 S116 743 640535 -1119 0
39 1 S116 728 641263 -391 0
39 2 S116 740 642003 349 0
39 2 S116 757 642760 1106 0
39 2 S116 775 643535 1881 0
39 2 S116 788 644323 2669 0
39 2 S116 775 645098 3444 0
39 2 S116 783 645881 4227 0
39 2 S116 807 646688 5034 0
39 2 S116 811 647499 5845 0
39 2 S116 807 648306 6652 0
0 0 0 784 649090 -7584 0
0 0 0 795 649885 -6789 0
0 0 0 799 650684 -5990 0
0 0 0 777 651461 -5213 0
0 0 0 748 652209 -4465 0
0 0 0 733 652942 -3732 0
0 0 0 702 653644 -3030 0
0 0 0 696 654340 -2334 0
40 1 S112 689 655029 -1645 0
40 1 S112 698 655727 -947 0
40 1 S112 713 656440 -234 0
40 2 S112 727 657167 493 0
40 2 S112 724 657891 1217 0
40 2 S112 727 658618 1944 0
40 2 S112 747 659365 2691 0
40 2 S112 753 660118 3444 0
40 2 S112 763 660881 4207 0
40 2 S112 764 661645 4971 0
40 2 S112 760 662405 5731 0
40 2 S112 751 663156 6482 0
0 0 0 740 663896 -186977 0
0 0 0 716 664612 -186261 0
0 0 0 702 665314 -185559 0
0 0 0 698 666012 -184861 0
0 0 0 705 666717 -184156 0
0 0 0 707 667424 -183449 0
0 0 0 712 668136 -182737 0
0 0 0 693 668829 -182044 0
0 0 0 690 669519 -181354 0
0 0 0 686 670205 -180668 0
0 0 0 693 670898 -179975 0
0 0 0 700 671598 -179275 0
0 0 0 708 672306 -178567 0
0 0 0 698 673004 -177869 0
0 0 0 692 673696 -177177 0
0 0 0 689 674385 -176488 0
0 0 0 687 675072 -175801 0
0 0 0 686 675758 -175115 0
0 0 0 671 676429 -174444 0
0 0 0 658 677087 -173786 0
0 0 0 648 677735 -173138 0
0 0 0 648 678383 -172490 0
0 0 0 646 679029 -171844 0
0 0 0 636 679665 -171208 0
0 0 0 632 680297 -170576 0
0 0 0 617 680914 -169959 0
0 0 0 611 681525 -169348 0
0 0 0 603 682128 -168745 0
0 0 0 598 682726 -168147 0
0 0 0 593 683319 -167554 0
0 0 0 590 683909 -166964 0
0 0 0 594 684503 -166370 0
0 0 0 590 685093 -165780 0
0 0 0 595 685688 -165185 0
0 0 0 597 686285 -164588 0
0 0 0 603 686888 -163985 0
0 0 0 605 687493 -163380 0
0 0 0 619 688112 -162761 0
0 0 0 616 688728 -162145 0
0 0 0 631 689359 -161514 0
0 0 0 648 690007 -160866 0
0 0 0 643 690650 -160223 0
0 0 0 645 691295 -159578 0
0 0 0 655 691950 -158923 0
0 0 0 653 692603 -158270 0
0 0 0 635 693238 -157635 0
0 0 0 643 693881 -156992 0
0 0 0 642 694523 -156350 0
0 0 0 639 695162 -155711 0
0 0 0 628 695790 -155083 0
0 0 0 520 696310 -154563 1
0 0 0 688 696998 -153875 0
0 0 0 620 697618 -153255 0
0 0 0 614 698232 -152641 0
0 0 0 609 698841 -152032 0
0 0 0 620 699461 -151412 0
0 0 0 638 700099 -150774 0
0 0 0 503 700602 -150271 1
0 0 0 724 701326 -149547 0
0 0 0 672 701998 -148875 0
0 0 0 677 702675 -148198 0
0 0 0 675 703350 -147523 0
0 0 0 670 704020 -146853 0
0 0 0 671 704691 -146182 0
0 0 0 658 705349 -145524 0
0 0 0 645 705994 -144879 0
0 0 0 632 706626 -144247 0
0 0 0 624 707250 -143623 0
0 0 0 628 707878 -142995 0
0 0 0 523 708401 -142472 1
0 0 0 722 709123 -141750 0
0 0 0 530 709653 -141220 1
0 0 0 795 710448 -140425 0
0 0 0 675 711123 -139750 0
0 0 0 692 711815 -139058 0
0 0 0 1381 713196 -137677 1
0 0 0 763 713959 -136914 0
0 0 0 540 714499 -136374 1
0 0 0 1005 715504 -135369 1
0 0 0 823 716327 -134546 0
0 0 0 506 716833 -134040 1
0 0 0 975 717808 -133065 1
0 0 0 782 718590 -132283 0
0 0 0 525 719115 -131758 1
0 0 0 886 720001 -130872 0
0 0 0 713 720714 -130159 0
0 0 0 696 721410 -129463 0
0 0 0 500 721910 -128963 1
0 0 0 848 722758 -128115 0
0 0 0 700 723458 -127415 0
0 0 0 727 724185 -126688 0
0 0 0 752 724937 -125936 0
0 0 0 774 725711 -125162 0
0 0 0 782 726493 -124380 0
0 0 0 744 727237 -123636 0
0 0 0 759 727996 -122877 0
0 0 0 777 728773 -122100 0
0 0 0 794 729567 -121306 0
0 0 0 801 730368 -120505 0
0 0 0 800 731168 -119705 0
0 0 0 757 731925 -118948 0
0 0 0 757 732682 -118191 0
0 0 0 753 733435 -117438 0
0 0 0 743 734178 -116695 0
0 0 0 746 734924 -115949 0
0 0 0 736 735660 -115213 0
0 0 0 706 736366 -114507 0
0 0 0 704 737070 -113803 0
0 0 0 702 737772 -113101 0
0 0 0 700 738472 -112401 0
0 0 0 704 739176 -111697 0
0 0 0 705 739881 -110992 0
0 0 0 691 740572 -110301 0
0 0 0 679 741251 -109622 0
0 0 0 673 741924 -108949 0
0 0 0 662 742586 -108287 0
0 0 0 641 743227 -107646 0
0 0 0 639 743866 -107007 0
0 0 0 631 744497 -106376 0
0 0 0 613 745110 -105763 0
0 0 0 604 745714 -105159 0
0 0 0 597 746311 -104562 0
0 0 0 595 746906 -103967 0
0 0 0 595 747501 -103372 0
0 0 0 593 748094 -102779 0
0 0 0 589 748683 -102190 0
0 0 0 589 749272 -101601 0
0 0 0 591 749863 -101010 0
0 0 0 590 750453 -100420 0
0 0 0 599 751052 -99821 0
0 0 0 606 751658 -99215 0
0 0 0 614 752272 -98601 0
0 0 0 617 752889 -97984 0
0 0 0 622 753511 -97362 0
0 0 0 625 754136 -96737 0
0 0 0 624 754760 -96113 0
0 0 0 618 755378 -95495 0
0 0 0 617 755995 -94878 0
0 0 0 620 756615 -94258 0
0 0 0 621 757236 -93637 0
0 0 0 635 757871 -93002 0
0 0 0 659 758530 -92343 0
0 0 0 700 759230 -91643 0
0 0 0 746 759976 -90897 0
0 0 0 784 760760 -90113 0
0 0 0 794 761554 -89319 0
0 0 0 812 762366 -88507 0
0 0 0 860 763226 -87647 0
0 0 0 882 764108 -86765 0
0 0 0 889 764997 -85876 0
0 0 0 869 765866 -85007 0
0 0 0 802 766668 -84205 0
0 0 0 799 767467 -83406 0
0 0 0 796 768263 -82610 0
0 0 0 777 769040 -81833 0
0 0 0 759 769799 -81074 0
0 0 0 751 770550 -80323 0
0 0 0 723 771273 -79600 0
0 0 0 729 772002 -78871 0
0 0 0 716 772718 -78155 0
0 0 0 697 773415 -77458 0
0 0 0 684 774099 -76774 0
0 0 0 668 774767 -76106 0
0 0 0 667 775434 -75439 0
0 0 0 658 776092 -74781 0
0 0 0 620 776712 -74161 0
0 0 0 642 777354 -73519 0
0 0 0 636 777990 -72883 0
0 0 0 639 778629 -72244 0
0 0 0 633 779262 -71611 0
0 0 0 650 779912 -70961 0
0 0 0 660 780572 -70301 0
0 0 0 674 781246 -69627 0
0 0 0 689 781935 -68938 0
0 0 0 705 782640 -68233 0
0 0 0 709 783349 -67524 0
0 0 0 703 784052 -66821 0
0 0 0 694 784746 -66127 0
0 0 0 694 785440 -65433 0
0 0 0 686 786126 -64747 0
0 0 0 683 786809 -64064 0
0 0 0 679 787488 -63385 0
0 0 0 672 788160 -62713 0
0 0 0 666 788826 -62047 0
0 0 0 664 789490 -61383 0
0 0 0 667 790157 -60716 0
0 0 0 682 790839 -60034 0
0 0 0 696 791535 -59338 0
0 0 0 706 792241 -58632 0
0 0 0 713 792954 -57919 0
0 0 0 701 793655 -57218 0
0 0 0 700 794355 -56518 0
0 0 0 701 795056 -55817 0
0 0 0 690 795746 -55127 0
0 0 0 687 796433 -54440 0
0 0 0 682 797115 -53758 0
0 0 0 673 797788 -53085 0
0 0 0 664 798452 -52421 0
0 0 0 665 799117 -51756 0
0 0 0 664 799781 -51092 0
0 0 0 666 800447 -50426 0
0 0 0 669 801116 -49757 0
0 0 0 670 801786 -49087 0
0 0 0 673 802459 -48414 0
0 0 0 658 803117 -47756 0
0 0 0 655 803772 -47101 0
0 0 0 645 804417 -46456 0
0 0 0 640 805057 -45816 0
0 0 0 637 805694 -45179 0
0 0 0 632 806326 -44547 0
0 0 0 643 806969 -43904 0
0 0 0 655 807624 -43249 0
0 0 0 679 808303 -42570 0
0 0 0 692 808995 -41878 0
0 0 0 699 809694 -41179 0
0 0 0 708 810402 -40471 0
0 0 0 688 811090 -39783 0
0 0 0 695 811785 -39088 0
0 0 0 685 812470 -38403 0
0 0 0 686 813156 -37717 0
0 0 0 681 813837 -37036 0
0 0 0 695 814532 -36341 0
0 0 0 703 815235 -35638 0
0 0 0 687 815922 -34951 0
0 0 0 701 816623 -34250 0
0 0 0 719 817342 -33531 0
0 0 0 743 818085 -32788 0
0 0 0 767 818852 -32021 0
0 0 0 760 819612 -31261 0
0 0 0 725 820337 -30536 0
0 0 0 698 821035 -29838 0
0 0 0 661 821696 -29177 0
0 0 0 652 822348 -28525 0
0 0 0 654 823002 -27871 0
0 0 0 627 823629 -27244 0
0 0 0 622 824251 -26622 0
0 0 0 634 824885 -25988 0
0 0 0 643 825528 -25345 0
0 0 0 650 826178 -24695 0
0 0 0 652 826830 -24043 0
0 0 0 661 827491 -23382 0
0 0 0 665 828156 -22717 0
0 0 0 662 828818 -22055 0
0 0 0 659 829477 -21396 0
0 0 0 653 830130 -20743 0
0 0 0 645 830775 -20098 0
0 0 0 645 831420 -19453 0
0 0 0 646 832066 -18807 0
0 0 0 648 832714 -18159 0
0 0 0 650 833364 -17509 0
0 0 0 666 834030 -16843 0
0 0 0 674 834704 -16169 0
0 0 0 691 835395 -15478 0
0 0 0 710 836105 -14768 0
0 0 0 726 836831 -14042 0
0 0 0 720 837551 -13322 0
0 0 0 746 838297 -12576 0
0 0 0 769 839066 -11807 0
0 0 0 786 839852 -11021 0
0 0 0 791 840643 -10230 0
0 0 0 745 841388 -9485 0
0 0 0 739 842127 -8746 0
0 0 0 736 842863 -8010 0
0 0 0 719 843582 -7291 0
0 0 0 700 844282 -6591 0
0 0 0 689 844971 -5902 0
0 0 0 671 845642 -5231 0
0 0 0 672 846314 -4559 0
0 0 0 676 846990 -3883 0
0 0 0 674 847664 -3209 0
0 0 0 679 848343 -2530 0
41 1 S102 692 849035 -1838 0
41 1 S102 674 849709 -1164 0
41 1 S102 672 850381 -492 0
41 2 S102 675 851056 183 0
41 2 S102 678 851734 861 0
41 2 S102 686 852420 1547 0
41 2 S102 687 853107 2234 0
41 2 S102 674 853781 2908 0
41 2 S102 681 854462 3589 0
41 2 S102 687 855149 4276 0
41 2 S102 692 855841 4968 0
41 2 S102 697 856538 5665 0
41 2 S102 699 857237 6364 0
0 0 0 684 857921 -6513 0
0 0 0 699 858620 -5814 0
0 0 0 701 859321 -5113 0
0 0 0 698 860019 -4415 0
0 0 0 681 860700 -3734 0
0 0 0 669 861369 -3065 0
0 0 0 674 862043 -2391 0
42 1 S112 674 862717 -1717 0
42 1 S112 687 863404 -1030 0
42 1 S112 697 864101 -333 0
42 2 S112 708 864809 375 0
42 2 S112 682 865491 1057 0
42 2 S112 663 866154 1720 0
42 2 S112 678 866832 2398 0
42 2 S112 669 867501 3067 0
42 2 S112 666 868167 3733 0
42 2 S112 666 868833 4399 0
42 2 S112 667 869500 5066 0
42 2 S112 688 870188 5754 0
42 2 S112 697 870885 6451 0
0 0 0 711 871596 -9069 0
0 0 0 703 872299 -8366 0
0 0 0 689 872988 -7677 0
0 0 0 707 873695 -6970 0
0 0 0 699 874394 -6271 0
0 0 0 693 875087 -5578 0
0 0 0 679 875766 -4899 0
0 0 0 661 876427 -4238 0
0 0 0 670 877097 -3568 0
0 0 0 674 877771 -2894 0
0 0 0 686 878457 -2208 0
43 1 S116 713 879170 -1495 0
43 1 S116 736 879906 -759 0
43 1 S116 720 880626 -39 0
43 2 S116 749 881375 710 0
43 2 S116 778 882153 1488 0
43 2 S116 797 882950 2285 0
43 2 S116 807 883757 3092 0
43 2 S116 776 884533 3868 0
43 2 S116 793 885326 4661 0
43 2 S116 790 886116 5451 0
43 2 S116 789 886905 6240 0
43 2 S116 746 887651 6986 0
0 0 0 743 888394 -7025 0
0 0 0 749 889143 -6276 0
0 0 0 746 889889 -5530 0
0 0 0 719 890608 -4811 0
0 0 0 709 891317 -4102 0
0 0 0 718 892035 -3384 0
0 0 0 728 892763 -2656 0
44 1 S102 734 893497 -1922 0
44 1 S102 731 894228 -1191 0
44 1 S102 718 894946 -473 0
44 2 S102 743 895689 270 0
44 2 S102 756 896445 1026 0
44 2 S102 764 897209 1790 0
44 2 S102 754 897963 2544 0
44 2 S102 733 898696 3277 0
44 2 S102 744 899440 4021 0
44 2 S102 751 900191 4772 0
44 2 S102 752 900943 5524 0
44 2 S102 739 901682 6263 0
44 2 S102 717 902399 6980 0
0 0 0 734 903133 -7704 0
0 0 0 735 903868 -6969 0
0 0 0 726 904594 -6243 0
0 0 0 693 905287 -5550 0
0 0 0 702 905989 -4848 0
0 0 0 711 906700 -4137 0
0 0 0 721 907421 -3416 0
0 0 0 729 908150 -2687 0
45 1 S116 724 908874 -1963 0
45 1 S116 714 909588 -1249 0
45 1 S116 733 910321 -516 0
45 2 S116 735 911056 219 0
45 2 S116 742 911798 961 0
45 2 S116 720 912518 1681 0
45 2 S116 722 913240 2403 0
45 2 S116 742 913982 3145 0
45 2 S116 752 914734 3897 0
45 2 S116 754 915488 4651 0
45 2 S116 724 916212 5375 0
45 2 S116 736 916948 6111 0
45 2 S116 742 917690 6853 0
0 0 0 743 918433 -10276 0
0 0 0 728 919161 -9548 0
0 0 0 715 919876 -8833 0
0 0 0 730 920606 -8103 0
0 0 0 739 921345 -7364 0
0 0 0 749 922094 -6615 0
0 0 0 724 922818 -5891 0
0 0 0 740 923558 -5151 0
0 0 0 754 924312 -4397 0
0 0 0 755 925067 -3642 0
0 0 0 743 925810 -2899 0
0 0 0 725 926535 -2174 0
46 1 S102 739 927274 -1435 0
46 1 S102 734 928008 -701 0
46 2 S102 732 928740 31 0
46 2 S102 511 929251 542 1
46 2 S102 794 930045 1336 0
46 2 S102 731 930776 2067 0
46 2 S102 735 931511 2802 0
46 2 S102 725 932236 3527 0
46 2 S102 706 932942 4233 0
46 2 S102 725 933667 4958 0
46 2 S102 732 934399 5690 0
46 2 S102 742 935141 6432 0
0 0 0 737 935878 -8431 0
0 0 0 731 936609 -7700 0
0 0 0 755 937364 -6945 0
0 0 0 769 938133 -6176 0
0 0 0 774 938907 -5402 0
0 0 0 746 939653 -4656 0
0 0 0 755 940408 -3901 0
0 0 0 765 941173 -3136 0
0 0 0 769 941942 -2367 0
47 1 S112 758 942700 -1609 0
47 1 S112 728 943428 -881 0
47 1 S112 730 944158 -151 0
47 2 S112 733 944891 582 0
47 2 S112 741 945632 1323 0
47 2 S112 747 946379 2070 0
47 2 S112 743 947122 2813 0
47 2 S112 756 947878 3569 0
47 2 S112 500 948378 4069 1
47 2 S112 920 949298 4989 1
47 2 S112 518 949816 5507 1
47 2 S112 919 950735 6426 1
0 0 0 751 951486 -11606 0
0 0 0 755 952241 -10851 0
0 0 0 752 952993 -10099 0
0 0 0 733 953726 -9366 0
0 0 0 723 954449 -8643 0
0 0 0 738 955187 -7905 0
0 0 0 754 955941 -7151 0
0 0 0 765 956706 -6386 0
0 0 0 763 957469 -5623 0
0 0 0 747 958216 -4876 0
0 0 0 794 959010 -4082 0
0 0 0 816 959826 -3266 0
0 0 0 825 960651 -2441 0
48 1 S116 784 961435 -1657 0
48 1 S116 780 962215 -877 0
48 1 S116 767 962982 -110 0
48 2 S116 760 963742 650 0
48 2 S116 755 964497 1405 0
48 2 S116 726 965223 2131 0
48 2 S116 739 965962 2870 0
48 2 S116 735 966697 3605 0
48 2 S116 734 967431 4339 0
48 2 S116 713 968144 5052 0
48 2 S116 722 968866 5774 0
48 2 S116 728 969594 6502 0
0 0 0 737 970331 -7317 0
0 0 0 736 971067 -6581 0
0 0 0 708 971775 -5873 0
0 0 0 514 972289 -5359 1
0 0 0 806 973095 -4553 0
0 0 0 738 973833 -3815 0
0 0 0 736 974569 -3079 0
0 0 0 728 975297 -2351 0
49 1 S112 715 976012 -1636 0
49 1 S112 733 976745 -903 0
49 1 S112 739 977484 -164 0
49 2 S112 748 978232 584 0
49 2 S112 759 978991 1343 0
49 2 S112 747 979738 2090 0
49 2 S112 753 980491 2843 0
49 2 S112 767 981258 3610 0
49 2 S112 763 982021 4373 0
49 2 S112 747 982768 5120 0
49 2 S112 712 983480 5832 0
49 2 S112 720 984200 6552 0
0 0 0 720 984920 -11578 0
0 0 0 727 985647 -10851 0
0 0 0 721 986368 -10130 0
0 0 0 709 987077 -9421 0
0 0 0 729 987806 -8692 0
0 0 0 732 988538 -7960 0
0 0 0 734 989272 -7226 0
0 0 0 719 989991 -6507 0
0 0 0 726 990717 -5781 0
0 0 0 743 991460 -5038 0
0 0 0 749 992209 -4289 0
0 0 0 760 992969 -3529 0
0 0 0 730 993699 -2799 0
0 0 0 747 994446 -2052 0
50 1 S106 753 995199 -1299 0
50 1 S106 752 995951 -547 0
50 2 S106 744 996695 197 0
50 2 S106 737 997432 934 0
50 2 S106 755 998187 1689 0
50 2 S106 762 998949 2451 0
50 2 S106 758 999707 3209 0
50 2 S106 745 1000452 3954 0
50 2 S106 520 1000972 4474 1
50 2 S106 852 1001824 5326 0
50 2 S106 774 1002598 6100 0
50 2 S106 748 1003346 6848 0
0 0 0 752 1004098 -6292 0
0 0 0 768 1004866 -5524 0
0 0 0 761 1005627 -4763 0
0 0 0 741 1006368 -4022 0
0 0 0 729 1007097 -3293 0
0 0 0 744 1007841 -2549 0
51 1 S112 751 1008592 -1798 0
51 1 S112 568 1009160 -1230 0
51 1 S112 859 1010019 -371 0
51 2 S112 503 1010522 132 1
51 2 S112 915 1011437 1047 1
51 2 S112 517 1011954 1564 1
51 2 S112 912 1012866 2476 1
51 2 S112 749 1013615 3225 0
51 2 S112 752 1014367 3977 0
51 2 S112 754 1015121 4731 0
51 2 S112 754 1015875 5485 0
51 2 S112 737 1016612 6222 0
51 2 S112 748 1017360 6970 0
0 0 0 768 1018128 -7763 0
0 0 0 777 1018905 -6986 0
0 0 0 752 1019657 -6234 0
0 0 0 749 1020406 -5485 0
0 0 0 768 1021174 -4717 0
0 0 0 766 1021940 -3951 0
0 0 0 759 1022699 -3192 0
0 0 0 725 1023424 -2467 0
52 1 S116 738 1024162 -1729 0
52 1 S116 739 1024901 -990 0
52 1 S116 739 1025640 -251 0
52 2 S116 728 1026368 477 0
52 2 S116 724 1027092 1201 0
52 2 S116 742 1027834 1943 0
52 2 S116 743 1028577 2686 0
52 2 S116 747 1029324 3433 0
52 2 S116 723 1030047 4156 0
52 2 S116 719 1030766 4875 0
52 2 S116 729 1031495 5604 0
52 2 S116 734 1032229 6338 0
0 0 0 739 1032968 -9468 0
0 0 0 736 1033704 -8732 0
0 0 0 727 1034431 -8005 0
0 0 0 752 1035183 -7253 0
0 0 0 752 1035935 -6501 0
0 0 0 754 1036689 -5747 0
0 0 0 743 1037432 -5004 0
0 0 0 734 1038166 -4270 0
0 0 0 749 1038915 -3521 0
0 0 0 761 1039676 -2760 0
53 1 S106 770 1040446 -1990 0
53 1 S106 771 1041217 -1219 0
53 1 S106 756 1041973 -463 0
53 2 S106 733 1042706 270 0
53 2 S106 746 1043452 1016 0
53 2 S106 758 1044210 1774 0
53 2 S106 755 1044965 2529 0
53 2 S106 522 1045487 3051 1
53 2 S106 812 1046299 3863 0
53 2 S106 753 1047052 4616 0
53 2 S106 752 1047804 5368 0
53 2 S106 749 1048553 6117 0
53 2 S106 734 1049287 6851 0
0 0 0 722 1050009 -6618 0
0 0 0 746 1050755 -5872 0
0 0 0 759 1051514 -5113 0
0 0 0 753 1052267 -4360 0
0 0 0 741 1053008 -3619 0
0 0 0 732 1053740 -2887 0
0 0 0 735 1054475 -2152 0
54 1 S102 748 1055223 -1404 0
54 1 S102 767 1055990 -637 0
54 2 S102 787 1056777 150 0
54 2 S102 790 1057567 940 0
54 2 S102 755 1058322 1695 0
54 2 S102 749 1059071 2444 0
54 2 S102 756 1059827 3200 0
54 2 S102 751 1060578 3951 0
54 2 S102 735 1061313 4686 0
54 2 S102 717 1062030 5403 0
54 2 S102 728 1062758 6131 0
54 2 S102 741 1063499 6872 0
0 0 0 750 1064249 -10648 0
0 0 0 727 1064976 -9921 0
0 0 0 746 1065722 -9175 0
0 0 0 746 1066468 -8429 0
0 0 0 740 1067208 -7689 0
0 0 0 718 1067926 -6971 0
0 0 0 708 1068634 -6263 0
0 0 0 721 1069355 -5542 0
0 0 0 731 1070086 -4811 0
0 0 0 739 1070825 -4072 0
0 0 0 732 1071557 -3340 0
0 0 0 729 1072286 -2611 0
55 1 S106 745 1073031 -1866 0
55 1 S106 743 1073774 -1123 0
55 1 S106 731 1074505 -392 0
55 2 S106 709 1075214 317 0
55 2 S106 720 1075934 1037 0
55 2 S106 727 1076661 1764 0
55 2 S106 725 1077386 2489 0
55 2 S106 714 1078100 3203 0
55 2 S106 715 1078815 3918 0
55 2 S106 728 1079543 4646 0
55 2 S106 736 1080279 5382 0
55 2 S106 734 1081013 6116 0
55 2 S106 725 1081738 6841 0
0 0 0 743 1082481 -5579 0
0 0 0 750 1083231 -4829 0
0 0 0 735 1083966 -4094 0
0 0 0 711 1084677 -3383 0
0 0 0 709 1085386 -2674 0
56 1 S116 718 1086104 -1956 0
56 1 S116 726 1086830 -1230 0
56 1 S116 740 1087570 -490 0
56 2 S116 730 1088300 240 0
56 2 S116 746 1089046 986 0
56 2 S116 765 1089811 1751 0
56 2 S116 767 1090578 2518 0
56 2 S116 763 1091341 3281 0
56 2 S116 742 1092083 4023 0
56 2 S116 754 1092837 4777 0
56 2 S116 765 1093602 5542 0
56 2 S116 759 1094361 6301 0
0 0 0 732 1095093 -7307 0
0 0 0 738 1095831 -6569 0
0 0 0 747 1096578 -5822 0
0 0 0 754 1097332 -5068 0
0 0 0 726 1098058 -4342 0
0 0 0 712 1098770 -3630 0
0 0 0 719 1099489 -2911 0
0 0 0 716 1100205 -2195 0
57 1 S106 710 1100915 -1485 0
57 1 S106 699 1101614 -786 0
57 1 S106 698 1102312 -88 0
57 2 S106 712 1103024 624 0
57 2 S106 727 1103751 1351 0
57 2 S106 749 1104500 2100 0
57 2 S106 737 1105237 2837 0
57 2 S106 732 1105969 3569 0
57 2 S106 752 1106721 4321 0
57 2 S106 759 1107480 5080 0
57 2 S106 758 1108238 5838 0
57 2 S106 732 1108970 6570 0
0 0 0 729 1109699 -7887 0
0 0 0 729 1110428 -7158 0
0 0 0 710 1111138 -6448 0
0 0 0 688 1111826 -5760 0
0 0 0 669 1112495 -5091 0
0 0 0 646 1113141 -4445 0
0 0 0 631 1113772 -3814 0
0 0 0 631 1114403 -3183 0
0 0 0 635 1115038 -2548 0
58 1 S102 623 1115661 -1925 0
58 1 S102 624 1116285 -1301 0
58 1 S102 628 1116913 -673 0
58 1 S102 637 1117550 -36 0
58 2 S102 679 1118229 643 0
58 2 S102 712 1118941 1355 0
58 2 S102 731 1119672 2086 0
58 2 S102 709 1120381 2795 0
58 2 S102 730 1121111 3525 0
58 2 S102 768 1121879 4293 0
58 2 S102 801 1122680 5094 0
58 2 S102 818 1123498 5912 0
58 2 S102 814 1124312 6726 0
0 0 0 781 1125093 -5938 0
0 0 0 784 1125877 -5154 0
0 0 0 775 1126652 -4379 0
0 0 0 769 1127421 -3610 0
0 0 0 742 1128163 -2868 0
0 0 0 714 1128877 -2154 0
59 1 S112 710 1129587 -1444 0
59 1 S112 702 1130289 -742 0
59 1 S112 700 1130989 -42 0
59 2 S112 698 1131687 656 0
59 2 S112 695 1132382 1351 0
59 2 S112 714 1133096 2065 0
59 2 S112 734 1133830 2799 0
59 2 S112 735 1134565 3534 0
59 2 S112 713 1135278 4247 0
59 2 S112 729 1136007 4976 0
59 2 S112 754 1136761 5730 0
59 2 S112 772 1137533 6502 0
0 0 0 757 1138290 -8441 0
0 0 0 740 1139030 -7701 0
0 0 0 749 1139779 -6952 0
0 0 0 743 1140522 -6209 0
0 0 0 730 1141252 -5479 0
0 0 0 704 1141956 -4775 0
0 0 0 699 1142655 -4076 0
0 0 0 701 1143356 -3375 0
0 0 0 699 1144055 -2676 0
60 1 S102 705 1144760 -1971 0
60 1 S102 693 1145453 -1278 0
60 1 S102 698 1146151 -580 0
60 2 S102 707 1146858 127 0
60 2 S102 715 1147573 842 0
60 2 S102 728 1148301 1570 0
60 2 S102 732 1149033 2302 0
60 2 S102 721 1149754 3023 0
60 2 S102 749 1150503 3772 0
60 2 S102 761 1151264 4533 0
60 2 S102 769 1152033 5302 0
60 2 S102 801 1152834 6103 0
60 2 S102 781 1153615 6884 0
0 0 0 754 1154369 -9554 0
0 0 0 758 1155127 -8796 0
0 0 0 750 1155877 -8046 0
0 0 0 742 1156619 -7304 0
0 0 0 714 1157333 -6590 0
0 0 0 698 1158031 -5892 0
0 0 0 707 1158738 -5185 0
0 0 0 715 1159453 -4470 0
0 0 0 732 1160185 -3738 0
0 0 0 746 1160931 -2992 0
0 0 0 726 1161657 -2266 0
61 1 S106 752 1162409 -1514 0
61 1 S106 783 1163192 -731 0
61 2 S106 794 1163986 63 0
61 2 S106 770 1164756 833 0
61 2 S106 793 1165549 1626 0
61 2 S106 795 1166344 2421 0
61 2 S106 786 1167130 3207 0
61 2 S106 757 1167887 3964 0
61 2 S106 510 1168397 4474 1
61 2 S106 838 1169235 5312 0
61 2 S106 768 1170003 6080 0
61 2 S106 735 1170738 6815 0
0 0 0 716 1171454 -5698 0
0 0 0 724 1172178 -4974 0
0 0 0 725 1172903 -4249 0
0 0 0 730 1173633 -3519 0
0 0 0 733 1174366 -2786 0
0 0 0 717 1175083 -2069 0
62 1 S112 715 1175798 -1354 0
62 1 S112 733 1176531 -621 0
62 2 S112 755 1177286 134 0
62 2 S112 792 1178078 926 0
62 2 S112 804 1178882 1730 0
62 2 S112 780 1179662 2510 0
62 2 S112 821 1180483 3331 0
62 2 S112 829 1181312 4160 0
62 2 S112 824 1182136 4984 0
62 2 S112 797 1182933 5781 0
62 2 S112 793 1183726 6574 0
0 0 0 794 1184520 -11183 0
0 0 0 785 1185305 -10398 0
0 0 0 743 1186048 -9655 0
0 0 0 722 1186770 -8933 0
0 0 0 674 1187444 -8259 0
0 0 0 757 1188201 -7502 0
0 0 0 712 1188913 -6790 0
0 0 0 718 1189631 -6072 0
0 0 0 697 1190328 -5375 0
0 0 0 707 1191035 -4668 0
0 0 0 721 1191756 -3947 0
0 0 0 741 1192497 -3206 0
0 0 0 756 1193253 -2450 0
63 1 S102 765 1194018 -1685 0
63 1 S102 741 1194759 -944 0
63 1 S102 748 1195507 -196 0
63 2 S102 765 1196272 569 0
63 2 S102 778 1197050 1347 0
63 2 S102 778 1197828 2125 0
63 2 S102 759 1198587 2884 0
63 2 S102 789 1199376 3673 0
63 2 S102 784 1200160 4457 0
63 2 S102 772 1200932 5229 0
63 2 S102 745 1201677 5974 0
63 2 S102 760 1202437 6734 0
0 0 0 765 1203202 -7853 0
0 0 0 764 1203966 -7089 0
0 0 0 726 1204692 -6363 0
0 0 0 720 1205412 -5643 0
0 0 0 721 1206133 -4922 0
0 0 0 721 1206854 -4201 0
0 0 0 732 1207586 -3469 0
0 0 0 743 1208329 -2726 0
64 1 S112 736 1209065 -1990 0
64 1 S112 722 1209787 -1268 0
64 1 S112 739 1210526 -529 0
64 2 S112 744 1211270 215 0
64 2 S112 767 1212037 982 0
64 2 S112 753 1212790 1735 0
64 2 S112 749 1213539 2484 0
64 2 S112 765 1214304 3249 0
64 2 S112 775 1215079 4024 0
64 2 S112 742 1215821 4766 0
64 2 S112 738 1216559 5504 0
64 2 S112 754 1217313 6258 0
64 2 S112 763 1218076 7021 0
0 0 0 749 1218825 -5973 0
0 0 0 722 1219547 -5251 0
0 0 0 734 1220281 -4517 0
0 0 0 732 1221013 -3785 0
0 0 0 733 1221746 -3052 0
0 0 0 721 1222467 -2331 0
65 1 S106 715 1223182 -1616 0
65 1 S106 728 1223910 -888 0
65 1 S106 733 1224643 -155 0
65 2 S106 735 1225378 580 0
65 2 S106 740 1226118 1320 0
65 2 S106 733 1226851 2053 0
65 2 S106 751 1227602 2804 0
65 2 S106 758 1228360 3562 0
65 2 S106 757 1229117 4319 0
65 2 S106 730 1229847 5049 0
65 2 S106 741 1230588 5790 0
65 2 S106 741 1231329 6531 0
0 0 0 736 1232065 -6129 0
0 0 0 501 1232566 -5628 1
0 0 0 776 1233342 -4852 0
0 0 0 710 1234052 -4142 0
0 0 0 709 1234761 -3433 0
0 0 0 715 1235476 -2718 0
0 0 0 711 1236187 -2007 0
66 1 S116 707 1236894 -1300 0
66 1 S116 740 1237634 -560 0
66 2 S116 768 1238402 208 0
66 2 S116 806 1239208 1014 0
66 2 S116 805 1240013 1819 0
66 2 S116 835 1240848 2654 0
66 2 S116 895 1241743 3549 0
66 2 S116 909 1242652 4458 1
66 2 S116 859 1243511 5317 0
66 2 S116 863 1244374 6180 0
0 0 0 855 1245229 -11002 0
0 0 0 823 1246052 -10179 0
0 0 0 768 1246820 -9411 0
0 0 0 749 1247569 -8662 0
0 0 0 735 1248304 -7927 0
0 0 0 729 1249033 -7198 0
0 0 0 727 1249760 -6471 0
0 0 0 722 1250482 -5749 0
0 0 0 705 1251187 -5044 0
0 0 0 714 1251901 -4330 0
0 0 0 727 1252628 -3603 0
0 0 0 748 1253376 -2855 0
0 0 0 773 1254149 -2082 0
67 1 S102 790 1254939 -1292 0
67 1 S102 769 1255708 -523 0
67 2 S102 773 1256481 250 0
67 2 S102 795 1257276 1045 0
67 2 S102 796 1258072 1841 0
67 2 S102 783 1258855 2624 0
67 2 S102 749 1259604 3373 0
67 2 S102 760 1260364 4133 0
67 2 S102 757 1261121 4890 0
67 2 S102 754 1261875 5644 0
67 2 S102 729 1262604 6373 0
0 0 0 745 1263349 -7090 0
0 0 0 776 1264125 -6314 0
0 0 0 797 1264922 -5517 0
0 0 0 789 1265711 -4728 0
0 0 0 751 1266462 -3977 0
0 0 0 755 1267217 -3222 0
0 0 0 763 1267980 -2459 0
68 1 S106 764 1268744 -1695 0
68 1 S106 740 1269484 -955 0
68 1 S106 726 1270210 -229 0
68 2 S106 738 1270948 509 0
68 2 S106 750 1271698 1259 0
68 2 S106 766 1272464 2025 0
68 2 S106 749 1273213 2774 0
68 2 S106 769 1273982 3543 0
68 2 S106 783 1274765 4326 0
68 2 S106 793 1275558 5119 0
68 2 S106 765 1276323 5884 0
68 2 S106 761 1277084 6645 0
0 0 0 775 1277859 -10700 0
0 0 0 782 1278641 -9918 0
0 0 0 764 1279405 -9154 0
0 0 0 732 1280137 -8422 0
0 0 0 732 1280869 -7690 0
0 0 0 721 1281590 -6969 0
0 0 0 720 1282310 -6249 0
0 0 0 698 1283008 -5551 0
0 0 0 698 1283706 -4853 0
0 0 0 703 1284409 -4150 0
0 0 0 703 1285112 -3447 0
0 0 0 622 1285734 -2825 0
0 0 0 806 1286540 -2019 0
69 1 S102 727 1287267 -1292 0
69 1 S102 754 1288021 -538 0
69 2 S102 780 1288801 242 0
69 2 S102 790 1289591 1032 0
69 2 S102 769 1290360 1801 0
69 2 S102 776 1291136 2577 0
69 2 S102 784 1291920 3361 0
69 2 S102 779 1292699 4140 0
69 2 S102 752 1293451 4892 0
69 2 S102 750 1294201 5642 0
69 2 S102 757 1294958 6399 0
0 0 0 767 1295725 -8981 0
0 0 0 759 1296484 -8222 0
0 0 0 731 1297215 -7491 0
0 0 0 733 1297948 -6758 0
0 0 0 728 1298676 -6030 0
0 0 0 713 1299389 -5317 0
0 0 0 691 1300080 -4626 0
0 0 0 680 1300760 -3946 0
0 0 0 678 1301438 -3268 0
0 0 0 675 1302113 -2593 0
70 1 S112 684 1302797 -1909 0
70 1 S112 698 1303495 -1211 0
70 1 S112 712 1304207 -499 0
70 2 S112 708 1304915 209 0
70 2 S112 718 1305633 927 0
70 2 S112 724 1306357 1651 0
70 2 S112 723 1307080 2374 0
70 2 S112 705 1307785 3079 0
70 2 S112 712 1308497 3791 0
70 2 S112 708 1309205 4499 0
70 2 S112 708 1309913 5207 0
70 2 S112 702 1310615 5909 0
70 2 S112 692 1311307 6601 0
0 0 0 700 1312007 -11201 0
0 0 0 704 1312711 -10497 0
0 0 0 709 1313420 -9788 0
0 0 0 709 1314129 -9079 0
0 0 0 705 1314834 -8374 0
0 0 0 711 1315545 -7663 0
0 0 0 721 1316266 -6942 0
0 0 0 729 1316995 -6213 0
0 0 0 737 1317732 -5476 0
0 0 0 730 1318462 -4746 0
0 0 0 738 1319200 -4008 0
0 0 0 748 1319948 -3260 0
0 0 0 756 1320704 -2504 0
71 1 S116 748 1321452 -1756 0
71 1 S116 726 1322178 -1030 0
71 1 S116 734 1322912 -296 0
71 2 S116 738 1323650 442 0
71 2 S116 738 1324388 1180 0
71 2 S116 734 1325122 1914 0
71 2 S116 720 1325842 2634 0
71 2 S116 728 1326570 3362 0
71 2 S116 735 1327305 4097 0
71 2 S116 733 1328038 4830 0
71 2 S116 728 1328766 5558 0
71 2 S116 727 1329493 6285 0
0 0 0 754 1330247 -9323 0
0 0 0 773 1331020 -8550 0
0 0 0 781 1331801 -7769 0
0 0 0 748 1332549 -7021 0
0 0 0 743 1333292 -6278 0
0 0 0 745 1334037 -5533 0
0 0 0 751 1334788 -4782 0
0 0 0 750 1335538 -4032 0
0 0 0 736 1336274 -3296 0
0 0 0 723 1336997 -2573 0
72 1 S102 731 1337728 -1842 0
72 1 S102 738 1338466 -1104 0
72 1 S102 734 1339200 -370 0
72 2 S102 729 1339929 359 0
72 2 S102 714 1340643 1073 0
72 2 S102 731 1341374 1804 0
72 2 S102 743 1342117 2547 0
72 2 S102 749 1342866 3296 0
72 2 S102 754 1343620 4050 0
72 2 S102 738 1344358 4788 0
72 2 S102 747 1345105 5535 0
72 2 S102 754 1345859 6289 0
0 0 0 756 1346615 -6715 0
0 0 0 758 1347373 -5957 0
0 0 0 739 1348112 -5218 0
0 0 0 747 1348859 -4471 0
0 0 0 746 1349605 -3725 0
0 0 0 735 1350340 -2990 0
0 0 0 707 1351047 -2283 0
73 1 S116 689 1351736 -1594 0
73 1 S116 681 1352417 -913 0
73 1 S116 663 1353080 -250 0
73 2 S116 649 1353729 399 0
73 2 S116 642 1354371 1041 0
73 2 S116 658 1355029 1699 0
73 2 S116 681 1355710 2380 0
73 2 S116 716 1356426 3096 0
73 2 S116 735 1357161 3831 0
73 2 S116 735 1357896 4566 0
73 2 S116 745 1358641 5311 0
73 2 S116 767 1359408 6078 0
73 2 S116 785 1360193 6863 0
0 0 0 767 1360960 -8435 0
0 0 0 734 1361694 -7701 0
0 0 0 737 1362431 -6964 0
0 0 0 725 1363156 -6239 0
0 0 0 713 1363869 -5526 0
0 0 0 709 1364578 -4817 0
0 0 0 702 1365280 -4115 0
0 0 0 680 1365960 -3435 0
0 0 0 685 1366645 -2750 0
0 0 0 687 1367332 -2063 0
74 1 S106 720 1368052 -1343 0
74 1 S106 776 1368828 -567 0
74 2 S106 841 1369669 274 0
74 2 S106 811 1370480 1085 0
74 2 S106 842 1371322 1927 0
74 2 S106 530 1371852 2457 1
74 2 S106 1068 1372920 3525 1
74 2 S106 928 1373848 4453 1
74 2 S106 523 1374371 4976 1
74 2 S106 1040 1375411 6016 1
74 2 S106 918 1376329 6934 1
0 0 0 911 1377240 -5799 1
0 0 0 521 1377761 -5278 1
0 0 0 986 1378747 -4292 1
0 0 0 835 1379582 -3457 0
0 0 0 809 1380391 -2648 0
75 1 S112 731 1381122 -1917 0
75 1 S112 714 1381836 -1203 0
75 1 S112 720 1382556 -483 0
75 2 S112 722 1383278 239 0
75 2 S112 737 1384015 976 0
75 2 S112 735 1384750 1711 0
75 2 S112 765 1385515 2476 0
75 2 S112 806 1386321 3282 0
75 2 S112 833 1387154 4115 0
75 2 S112 808 1387962 4923 0
75 2 S112 813 1388775 5736 0
75 2 S112 842 1389617 6578 0
0 0 0 867 1390484 -7293 0
0 0 0 831 1391315 -6462 0
0 0 0 808 1392123 -5654 0
0 0 0 813 1392936 -4841 0
0 0 0 785 1393721 -4056 0
0 0 0 740 1394461 -3316 0
0 0 0 738 1395199 -2578 0
76 1 S116 742 1395941 -1836 0
76 1 S116 746 1396687 -1090 0
76 1 S116 749 1397436 -341 0
76 2 S116 740 1398176 399 0
76 2 S116 742 1398918 1141 0
76 2 S116 770 1399688 1911 0
76 2 S116 791 1400479 2702 0
76 2 S116 800 1401279 3502 0
76 2 S116 776 1402055 4278 0
76 2 S116 776 1402831 5054 0
76 2 S116 791 1403622 5845 0
76 2 S116 792 1404414 6637 0
0 0 0 782 1405196 -6523 0
0 0 0 756 1405952 -5767 0
0 0 0 775 1406727 -4992 0
0 0 0 769 1407496 -4223 0
0 0 0 758 1408254 -3465 0
0 0 0 720 1408974 -2745 0
0 0 0 718 1409692 -2027 0
77 1 S106 730 1410422 -1297 0
77 1 S106 745 1411167 -552 0
77 2 S106 764 1411931 212 0
77 2 S106 774 1412705 986 0
77 2 S106 755 1413460 1741 0
77 2 S106 762 1414222 2503 0
77 2 S106 777 1414999 3280 0
77 2 S106 784 1415783 4064 0
77 2 S106 778 1416561 4842 0
77 2 S106 744 1417305 5586 0
77 2 S106 745 1418050 6331 0
0 0 0 752 1418802 -8750 0
0 0 0 753 1419555 -7997 0
0 0 0 758 1420313 -7239 0
0 0 0 731 1421044 -6508 0
0 0 0 739 1421783 -5769 0
0 0 0 744 1422527 -5025 0
0 0 0 751 1423278 -4274 0
0 0 0 753 1424031 -3521 0
0 0 0 724 1424755 -2797 0
0 0 0 737 1425492 -2060 0
78 1 S112 763 1426255 -1297 0
78 1 S112 783 1427038 -514 0
78 2 S112 796 1427834 282 0
78 2 S112 789 1428623 1071 0
78 2 S112 803 1429426 1874 0
78 2 S112 506 1429932 2380 1
78 2 S112 951 1430883 3331 1
78 2 S112 806 1431689 4137 0
78 2 S112 767 1432456 4904 0
78 2 S112 778 1433234 5682 0
78 2 S112 784 1434018 6466 0
0 0 0 785 1434803 -11068 0
0 0 0 770 1435573 -10298 0
0 0 0 751 1436324 -9547 0
0 0 0 765 1437089 -8782 0
0 0 0 766 1437855 -8016 0
0 0 0 772 1438627 -7244 0
0 0 0 744 1439371 -6500 0
0 0 0 763 1440134 -5737 0
0 0 0 791 1440925 -4946 0
0 0 0 811 1441736 -4135 0
0 0 0 824 1442560 -3311 0
0 0 0 778 1443338 -2533 0
79 1 S102 803 1444141 -1730 0
79 1 S102 828 1444969 -902 0
79 1 S102 820 1445789 -82 0
79 2 S102 788 1446577 706 0
79 2 S102 795 1447372 1501 0
79 2 S102 799 1448171 2300 0
79 2 S102 791 1448962 3091 0
79 2 S102 762 1449724 3853 0
79 2 S102 737 1450461 4590 0
79 2 S102 764 1451225 5354 0
79 2 S102 778 1452003 6132 0
79 2 S102 781 1452784 6913 0
0 0 0 763 1453547 -7593 0
0 0 0 763 1454310 -6830 0
0 0 0 778 1455088 -6052 0
0 0 0 786 1455874 -5266 0
0 0 0 771 1456645 -4495 0
0 0 0 747 1457392 -3748 0
0 0 0 770 1458162 -2978 0
0 0 0 763 1458925 -2215 0
80 1 S116 723 1459648 -1492 0
80 1 S116 711 1460359 -781 0
80 1 S116 668 1461027 -113 0
80 2 S116 661 1461688 548 0
80 2 S116 645 1462333 1193 0
80 2 S116 640 1462973 1833 0
80 2 S116 641 1463614 2474 0
80 2 S116 650 1464264 3124 0
80 2 S116 683 1464947 3807 0
80 2 S116 711 1465658 4518 0
80 2 S116 720 1466378 5238 0
80 2 S116 704 1467082 5942 0
80 2 S116 719 1467801 6661 0
