T_0070
BeatCount Mean SD BeatCountNoOutliers MeanNoOutliers SDNoOutliers
2222 674,665166516652 50,6796708130422 2190 671,83105022831 43,4885241329451

Trial TrialStatus Trialtype IBI AbsPosition RelPosition Outlier
0 0 0 617 799 -15942 0
0 0 0 606 1405 -15336 0
0 0 0 593 1998 -14743 0
0 0 0 586 2584 -14157 0
0 0 0 595 3179 -13562 0
0 0 0 609 3788 -12953 0
0 0 0 600 4388 -12353 0
0 0 0 589 4977 -11764 0
0 0 0 599 5576 -11165 0
0 0 0 625 6201 -10540 0
0 0 0 664 6865 -9876 0
0 0 0 744 7609 -9132 0
0 0 0 807 8416 -8325 1
0 0 0 775 9191 -7550 0
0 0 0 752 9943 -6798 0
0 0 0 706 10649 -6092 0
0 0 0 695 11344 -5397 0
0 0 0 678 12022 -4719 0
0 0 0 672 12694 -4047 0
0 0 0 651 13345 -3396 0
0 0 0 665 14010 -2731 0
0 0 0 656 14666 -2075 0
1 1 S112 662 15328 -1413 0
1 1 S112 640 15968 -773 0
1 1 S112 622 16590 -151 0
1 2 S112 644 17234 493 0
1 2 S112 657 17891 1150 0
1 2 S112 715 18606 1865 0
1 2 S112 729 19335 2594 0
1 2 S112 697 20032 3291 0
1 2 S112 650 20682 3941 0
1 2 S112 625 21307 4566 0
1 2 S112 634 21941 5200 0
1 2 S112 640 22581 5840 0
1 2 S112 648 23229 6488 0
0 0 0 632 23861 -10868 0
0 0 0 606 24467 -10262 0
0 0 0 608 25075 -9654 0
0 0 0 616 25691 -9038 0
0 0 0 607 26298 -8431 0
0 0 0 588 26886 -7843 0
0 0 0 583 27469 -7260 0
0 0 0 599 28068 -6661 0
0 0 0 624 28692 -6037 0
0 0 0 651 29343 -5386 0
0 0 0 663 30006 -4723 0
0 0 0 653 30659 -4070 0
0 0 0 627 31286 -3443 0
0 0 0 621 31907 -2822 0
0 0 0 615 32522 -2207 0
2 1 S102 624 33146 -1583 0
2 1 S102 637 33783 -946 0
2 1 S102 636 34419 -310 0
2 2 S102 648 35067 338 0
2 2 S102 646 35713 984 0
2 2 S102 658 36371 1642 0
2 2 S102 665 37036 2307 0
2 2 S102 711 37747 3018 0
2 2 S102 726 38473 3744 0
2 2 S102 708 39181 4452 0
2 2 S102 699 39880 5151 0
2 2 S102 679 40559 5830 0
2 2 S102 684 41243 6514 0
0 0 0 682 41925 -8553 0
0 0 0 706 42631 -7847 0
0 0 0 718 43349 -7129 0
0 0 0 710 44059 -6419 0
0 0 0 680 44739 -5739 0
0 0 0 660 45399 -5079 0
0 0 0 665 46064 -4414 0
0 0 0 668 46732 -3746 0
0 0 0 673 47405 -3073 0
0 0 0 647 48052 -2426 0
3 1 S116 637 48689 -1789 0
3 1 S116 627 49316 -1162 0
3 1 S116 620 49936 -542 0
3 2 S116 645 50581 103 0
3 2 S116 671 51252 774 0
3 2 S116 713 51965 1487 0
3 2 S116 764 52729 2251 0
3 2 S116 750 53479 3001 0
3 2 S116 735 54214 3736 0
3 2 S116 723 54937 4459 0
3 2 S116 697 55634 5156 0
3 2 S116 676 56310 5832 0
3 2 S116 663 56973 6495 0
0 0 0 658 57631 -11001 0
0 0 0 683 58314 -10318 0
0 0 0 742 59056 -9576 0
0 0 0 774 59830 -8802 0
0 0 0 730 60560 -8072 0
0 0 0 689 61249 -7383 0
0 0 0 675 61924 -6708 0
0 0 0 679 62603 -6029 0
0 0 0 699 63302 -5330 0
0 0 0 718 64020 -4612 0
0 0 0 708 64728 -3904 0
0 0 0 676 65404 -3228 0
0 0 0 668 66072 -2560 0
4 1 S106 663 66735 -1897 0
4 1 S106 656 67391 -1241 0
4 1 S106 666 68057 -575 0
4 2 S106 654 68711 79 0
4 2 S106 641 69352 720 0
4 2 S106 666 70018 1386 0
4 2 S106 694 70712 2080 0
4 2 S106 729 71441 2809 0
4 2 S106 738 72179 3547 0
4 2 S106 748 72927 4295 0
4 2 S106 714 73641 5009 0
4 2 S106 717 74358 5726 0
4 2 S106 734 75092 6460 0
0 0 0 743 75835 -6441 0
0 0 0 738 76573 -5703 0
0 0 0 698 77271 -5005 0
0 0 0 660 77931 -4345 0
0 0 0 641 78572 -3704 0
0 0 0 623 79195 -3081 0
0 0 0 611 79806 -2470 0
5 1 S116 606 80412 -1864 0
5 1 S116 609 81021 -1255 0
5 1 S116 598 81619 -657 0
5 1 S116 607 82226 -50 0
5 2 S116 626 82852 576 0
5 2 S116 657 83509 1233 0
5 2 S116 685 84194 1918 0
5 2 S116 687 84881 2605 0
5 2 S116 659 85540 3264 0
5 2 S116 646 86186 3910 0
5 2 S116 654 86840 4564 0
5 2 S116 667 87507 5231 0
5 2 S116 674 88181 5905 0
5 2 S116 686 88867 6591 0
0 0 0 677 89544 -9194 0
0 0 0 664 90208 -8530 0
0 0 0 688 90896 -7842 0
0 0 0 704 91600 -7138 0
0 0 0 709 92309 -6429 0
0 0 0 678 92987 -5751 0
0 0 0 653 93640 -5098 0
0 0 0 646 94286 -4452 0
0 0 0 661 94947 -3791 0
0 0 0 691 95638 -3100 0
0 0 0 687 96325 -2413 0
6 1 S106 671 96996 -1742 0
6 1 S106 707 97703 -1035 0
6 1 S106 700 98403 -335 0
6 2 S106 712 99115 377 0
6 2 S106 707 99822 1084 0
6 2 S106 688 100510 1772 0
6 2 S106 704 101214 2476 0
6 2 S106 714 101928 3190 0
6 2 S106 702 102630 3892 0
6 2 S106 705 103335 4597 0
6 2 S106 696 104031 5293 0
6 2 S106 670 104701 5963 0
6 2 S106 658 105359 6621 0
0 0 0 653 106012 -9935 0
0 0 0 675 106687 -9260 0
0 0 0 730 107417 -8530 0
0 0 0 697 108114 -7833 0
0 0 0 658 108772 -7175 0
0 0 0 646 109418 -6529 0
0 0 0 636 110054 -5893 0
0 0 0 619 110673 -5274 0
0 0 0 637 111310 -4637 0
0 0 0 686 111996 -3951 0
0 0 0 655 112651 -3296 0
0 0 0 652 113303 -2644 0
7 1 S102 689 113992 -1955 0
7 1 S102 697 114689 -1258 0
7 1 S102 697 115386 -561 0
7 2 S102 659 116045 98 0
7 2 S102 666 116711 764 0
7 2 S102 676 117387 1440 0
7 2 S102 687 118074 2127 0
7 2 S102 684 118758 2811 0
7 2 S102 666 119424 3477 0
7 2 S102 660 120084 4137 0
7 2 S102 694 120778 4831 0
7 2 S102 720 121498 5551 0
7 2 S102 750 122248 6301 0
7 2 S102 705 122953 7006 0
0 0 0 709 123662 -7421 0
0 0 0 743 124405 -6678 0
0 0 0 709 125114 -5969 0
0 0 0 711 125825 -5258 0
0 0 0 661 126486 -4597 0
0 0 0 621 127107 -3976 0
0 0 0 626 127733 -3350 0
0 0 0 649 128382 -2701 0
8 1 S112 707 129089 -1994 0
8 1 S112 735 129824 -1259 0
8 1 S112 698 130522 -561 0
8 2 S112 688 131210 127 0
8 2 S112 700 131910 827 0
8 2 S112 783 132693 1610 0
8 2 S112 795 133488 2405 0
8 2 S112 757 134245 3162 0
8 2 S112 740 134985 3902 0
8 2 S112 730 135715 4632 0
8 2 S112 728 136443 5360 0
8 2 S112 722 137165 6082 0
8 2 S112 695 137860 6777 0
0 0 0 694 138554 -8825 0
0 0 0 705 139259 -8120 0
0 0 0 735 139994 -7385 0
0 0 0 733 140727 -6652 0
0 0 0 702 141429 -5950 0
0 0 0 731 142160 -5219 0
0 0 0 736 142896 -4483 0
0 0 0 694 143590 -3789 0
0 0 0 665 144255 -3124 0
0 0 0 650 144905 -2474 0
9 1 S116 645 145550 -1829 0
9 1 S116 673 146223 -1156 0
9 1 S116 684 146907 -472 0
9 2 S116 672 147579 200 0
9 2 S116 675 148254 875 0
9 2 S116 677 148931 1552 0
9 2 S116 674 149605 2226 0
9 2 S116 687 150292 2913 0
9 2 S116 681 150973 3594 0
9 2 S116 672 151645 4266 0
9 2 S116 674 152319 4940 0
9 2 S116 678 152997 5618 0
9 2 S116 697 153694 6315 0
9 2 S116 712 154406 7027 0
0 0 0 703 155109 -10490 0
0 0 0 739 155848 -9751 0
0 0 0 768 156616 -8983 0
0 0 0 766 157382 -8217 0
0 0 0 726 158108 -7491 0
0 0 0 703 158811 -6788 0
0 0 0 704 159515 -6084 0
0 0 0 702 160217 -5382 0
0 0 0 707 160924 -4675 0
0 0 0 679 161603 -3996 0
0 0 0 666 162269 -3330 0
0 0 0 668 162937 -2662 0
10 1 S102 671 163608 -1991 0
10 1 S102 693 164301 -1298 0
10 1 S102 673 164974 -625 0
10 2 S102 661 165635 36 0
10 2 S102 661 166296 697 0
10 2 S102 672 166968 1369 0
10 2 S102 697 167665 2066 0
10 2 S102 703 168368 2769 0
10 2 S102 690 169058 3459 0
10 2 S102 707 169765 4166 0
10 2 S102 710 170475 4876 0
10 2 S102 729 171204 5605 0
10 2 S102 697 171901 6302 0
10 2 S102 674 172575 6976 0
0 0 0 673 173248 -11085 0
0 0 0 677 173925 -10408 0
0 0 0 690 174615 -9718 0
0 0 0 693 175308 -9025 0
0 0 0 649 175957 -8376 0
0 0 0 649 176606 -7727 0
0 0 0 657 177263 -7070 0
0 0 0 639 177902 -6431 0
0 0 0 630 178532 -5801 0
0 0 0 616 179148 -5185 0
0 0 0 626 179774 -4559 0
0 0 0 636 180410 -3923 0
0 0 0 656 181066 -3267 0
0 0 0 648 181714 -2619 0
11 1 S112 629 182343 -1990 0
11 1 S112 645 182988 -1345 0
11 1 S112 672 183660 -673 0
11 1 S112 672 184332 -1 0
11 2 S112 683 185015 682 0
11 2 S112 678 185693 1360 0
11 2 S112 672 186365 2032 0
11 2 S112 687 187052 2719 0
11 2 S112 685 187737 3404 0
11 2 S112 696 188433 4100 0
11 2 S112 687 189120 4787 0
11 2 S112 685 189805 5472 0
11 2 S112 697 190502 6169 0
11 2 S112 692 191194 6861 0
0 0 0 689 191883 -9045 0
0 0 0 665 192548 -8380 0
0 0 0 660 193208 -7720 0
0 0 0 689 193897 -7031 0
0 0 0 699 194596 -6332 0
0 0 0 712 195308 -5620 0
0 0 0 684 195992 -4936 0
0 0 0 685 196677 -4251 0
0 0 0 681 197358 -3570 0
0 0 0 693 198051 -2877 0
0 0 0 657 198708 -2220 0
12 1 S116 631 199339 -1589 0
12 1 S116 628 199967 -961 0
12 1 S116 632 200599 -329 0
12 2 S116 636 201235 307 0
12 2 S116 627 201862 934 0
12 2 S116 622 202484 1556 0
12 2 S116 639 203123 2195 0
12 2 S116 667 203790 2862 0
12 2 S116 687 204477 3549 0
12 2 S116 714 205191 4263 0
12 2 S116 696 205887 4959 0
12 2 S116 684 206571 5643 0
12 2 S116 687 207258 6330 0
0 0 0 716 207974 -11538 0
0 0 0 742 208716 -10796 0
0 0 0 764 209480 -10032 0
0 0 0 746 210226 -9286 0
0 0 0 726 210952 -8560 0
0 0 0 715 211667 -7845 0
0 0 0 698 212365 -7147 0
0 0 0 678 213043 -6469 0
0 0 0 644 213687 -5825 0
0 0 0 641 214328 -5184 0
0 0 0 669 214997 -4515 0
0 0 0 693 215690 -3822 0
0 0 0 697 216387 -3125 0
0 0 0 683 217070 -2442 0
13 1 S112 697 217767 -1745 0
13 1 S112 703 218470 -1042 0
13 1 S112 716 219186 -326 0
13 2 S112 693 219879 367 0
13 2 S112 678 220557 1045 0
13 2 S112 696 221253 1741 0
13 2 S112 707 221960 2448 0
13 2 S112 717 222677 3165 0
13 2 S112 704 223381 3869 0
13 2 S112 687 224068 4556 0
13 2 S112 667 224735 5223 0
13 2 S112 688 225423 5911 0
13 2 S112 704 226127 6615 0
0 0 0 729 226856 -12119 0
0 0 0 718 227574 -11401 0
0 0 0 693 228267 -10708 0
0 0 0 706 228973 -10002 0
0 0 0 734 229707 -9268 0
0 0 0 731 230438 -8537 0
0 0 0 666 231104 -7871 0
0 0 0 657 231761 -7214 0
0 0 0 654 232415 -6560 0
0 0 0 664 233079 -5896 0
0 0 0 656 233735 -5240 0
0 0 0 630 234365 -4610 0
0 0 0 633 234998 -3977 0
0 0 0 635 235633 -3342 0
0 0 0 679 236312 -2663 0
14 1 S106 691 237003 -1972 0
14 1 S106 660 237663 -1312 0
14 1 S106 686 238349 -626 0
14 2 S106 687 239036 61 0
14 2 S106 726 239762 787 0
14 2 S106 721 240483 1508 0
14 2 S106 700 241183 2208 0
14 2 S106 698 241881 2906 0
14 2 S106 717 242598 3623 0
14 2 S106 739 243337 4362 0
14 2 S106 724 244061 5086 0
14 2 S106 705 244766 5791 0
14 2 S106 682 245448 6473 0
0 0 0 671 246119 -9998 0
0 0 0 696 246815 -9302 0
0 0 0 714 247529 -8588 0
0 0 0 698 248227 -7890 0
0 0 0 670 248897 -7220 0
0 0 0 652 249549 -6568 0
0 0 0 639 250188 -5929 0
0 0 0 650 250838 -5279 0
0 0 0 668 251506 -4611 0
0 0 0 655 252161 -3956 0
0 0 0 646 252807 -3310 0
0 0 0 661 253468 -2649 0
15 1 S116 678 254146 -1971 0
15 1 S116 682 254828 -1289 0
15 1 S116 687 255515 -602 0
15 2 S116 682 256197 80 0
15 2 S116 698 256895 778 0
15 2 S116 719 257614 1497 0
15 2 S116 732 258346 2229 0
15 2 S116 743 259089 2972 0
15 2 S116 706 259795 3678 0
15 2 S116 687 260482 4365 0
15 2 S116 695 261177 5060 0
15 2 S116 706 261883 5766 0
15 2 S116 761 262644 6527 0
0 0 0 766 263410 -8672 0
0 0 0 762 264172 -7910 0
0 0 0 775 264947 -7135 0
0 0 0 751 265698 -6384 0
0 0 0 717 266415 -5667 0
0 0 0 689 267104 -4978 0
0 0 0 697 267801 -4281 0
0 0 0 690 268491 -3591 0
0 0 0 697 269188 -2894 0
0 0 0 685 269873 -2209 0
16 1 S116 668 270541 -1541 0
16 1 S116 674 271215 -867 0
16 1 S116 662 271877 -205 0
16 2 S116 667 272544 462 0
16 2 S116 658 273202 1120 0
16 2 S116 660 273862 1780 0
16 2 S116 678 274540 2458 0
16 2 S116 719 275259 3177 0
16 2 S116 746 276005 3923 0
16 2 S116 792 276797 4715 0
16 2 S116 785 277582 5500 0
16 2 S116 753 278335 6253 0
16 2 S116 719 279054 6972 0
0 0 0 713 279767 -7915 0
0 0 0 720 280487 -7195 0
0 0 0 700 281187 -6495 0
0 0 0 674 281861 -5821 0
0 0 0 655 282516 -5166 0
0 0 0 663 283179 -4503 0
0 0 0 662 283841 -3841 0
0 0 0 683 284524 -3158 0
0 0 0 684 285208 -2474 0
17 1 S106 668 285876 -1806 0
17 1 S106 679 286555 -1127 0
17 1 S106 681 287236 -446 0
17 2 S106 692 287928 246 0
17 2 S106 715 288643 961 0
17 2 S106 684 289327 1645 0
17 2 S106 664 289991 2309 0
17 2 S106 672 290663 2981 0
17 2 S106 669 291332 3650 0
17 2 S106 678 292010 4328 0
17 2 S106 701 292711 5029 0
17 2 S106 701 293412 5730 0
17 2 S106 704 294116 6434 0
0 0 0 721 294837 -11894 0
0 0 0 735 295572 -11159 0
0 0 0 751 296323 -10408 0
0 0 0 716 297039 -9692 0
0 0 0 714 297753 -8978 0
0 0 0 699 298452 -8279 0
0 0 0 687 299139 -7592 0
0 0 0 660 299799 -6932 0
0 0 0 640 300439 -6292 0
0 0 0 644 301083 -5648 0
0 0 0 652 301735 -4996 0
0 0 0 677 302412 -4319 0
0 0 0 671 303083 -3648 0
0 0 0 659 303742 -2989 0
0 0 0 668 304410 -2321 0
18 1 S102 680 305090 -1641 0
18 1 S102 669 305759 -972 0
18 1 S102 646 306405 -326 0
18 2 S102 643 307048 317 0
18 2 S102 656 307704 973 0
18 2 S102 668 308372 1641 0
18 2 S102 660 309032 2301 0
18 2 S102 631 309663 2932 0
18 2 S102 609 310272 3541 0
18 2 S102 634 310906 4175 0
18 2 S102 935 311841 5110 1
18 2 S102 718 312559 5828 0
18 2 S102 673 313232 6501 0
0 0 0 641 313873 -7016 0
0 0 0 612 314485 -6404 0
0 0 0 610 315095 -5794 0
0 0 0 637 315732 -5157 0
0 0 0 626 316358 -4531 0
0 0 0 616 316974 -3915 0
0 0 0 609 317583 -3306 0
0 0 0 592 318175 -2714 0
0 0 0 582 318757 -2132 0
19 1 S106 572 319329 -1560 0
19 1 S106 570 319899 -990 0
19 1 S106 579 320478 -411 0
19 2 S106 598 321076 187 0
19 2 S106 612 321688 799 0
19 2 S106 637 322325 1436 0
19 2 S106 647 322972 2083 0
19 2 S106 650 323622 2733 0
19 2 S106 664 324286 3397 0
19 2 S106 663 324949 4060 0
19 2 S106 679 325628 4739 0
19 2 S106 680 326308 5419 0
19 2 S106 693 327001 6112 0
19 2 S106 699 327700 6811 0
0 0 0 691 328391 -10552 0
0 0 0 725 329116 -9827 0
0 0 0 693 329809 -9134 0
0 0 0 678 330487 -8456 0
0 0 0 667 331154 -7789 0
0 0 0 711 331865 -7078 0
0 0 0 688 332553 -6390 0
0 0 0 663 333216 -5727 0
0 0 0 660 333876 -5067 0
0 0 0 670 334546 -4397 0
0 0 0 693 335239 -3704 0
0 0 0 708 335947 -2996 0
0 0 0 713 336660 -2283 0
20 1 S112 667 337327 -1616 0
20 1 S112 661 337988 -955 0
20 1 S112 682 338670 -273 0
20 2 S112 664 339334 391 0
20 2 S112 676 340010 1067 0
20 2 S112 659 340669 1726 0
20 2 S112 649 341318 2375 0
20 2 S112 657 341975 3032 0
20 2 S112 670 342645 3702 0
20 2 S112 675 343320 4377 0
20 2 S112 671 343991 5048 0
20 2 S112 644 344635 5692 0
20 2 S112 639 345274 6331 0
20 2 S112 663 345937 6994 0
0 0 0 699 346636 -9167 0
0 0 0 720 347356 -8447 0
0 0 0 704 348060 -7743 0
0 0 0 675 348735 -7068 0
0 0 0 684 349419 -6384 0
0 0 0 662 350081 -5722 0
0 0 0 647 350728 -5075 0
0 0 0 626 351354 -4449 0
0 0 0 623 351977 -3826 0
0 0 0 623 352600 -3203 0
0 0 0 622 353222 -2581 0
21 1 S106 641 353863 -1940 0
21 1 S106 662 354525 -1278 0
21 1 S106 658 355183 -620 0
21 2 S106 668 355851 48 0
21 2 S106 676 356527 724 0
21 2 S106 697 357224 1421 0
21 2 S106 709 357933 2130 0
21 2 S106 720 358653 2850 0
21 2 S106 693 359346 3543 0
21 2 S106 686 360032 4229 0
21 2 S106 693 360725 4922 0
21 2 S106 686 361411 5608 0
21 2 S106 694 362105 6302 0
21 2 S106 699 362804 7001 0
0 0 0 693 363497 -10078 0
0 0 0 707 364204 -9371 0
0 0 0 712 364916 -8659 0
0 0 0 708 365624 -7951 0
0 0 0 684 366308 -7267 0
0 0 0 661 366969 -6606 0
0 0 0 646 367615 -5960 0
0 0 0 647 368262 -5313 0
0 0 0 646 368908 -4667 0
0 0 0 654 369562 -4013 0
0 0 0 636 370198 -3377 0
0 0 0 615 370813 -2762 0
0 0 0 627 371440 -2135 0
22 1 S116 623 372063 -1512 0
22 1 S116 644 372707 -868 0
22 1 S116 654 373361 -214 0
22 2 S116 642 374003 428 0
22 2 S116 646 374649 1074 0
22 2 S116 666 375315 1740 0
22 2 S116 666 375981 2406 0
22 2 S116 664 376645 3070 0
22 2 S116 661 377306 3731 0
22 2 S116 672 377978 4403 0
22 2 S116 728 378706 5131 0
22 2 S116 771 379477 5902 0
22 2 S116 751 380228 6653 0
0 0 0 736 380964 -9322 0
0 0 0 739 381703 -8583 0
0 0 0 731 382434 -7852 0
0 0 0 739 383173 -7113 0
0 0 0 735 383908 -6378 0
0 0 0 685 384593 -5693 0
0 0 0 678 385271 -5015 0
0 0 0 659 385930 -4356 0
0 0 0 653 386583 -3703 0
0 0 0 670 387253 -3033 0
0 0 0 655 387908 -2378 0
23 1 S112 674 388582 -1704 0
23 1 S112 703 389285 -1001 0
23 1 S112 726 390011 -275 0
23 2 S112 710 390721 435 0
23 2 S112 692 391413 1127 0
23 2 S112 683 392096 1810 0
23 2 S112 700 392796 2510 0
23 2 S112 691 393487 3201 0
23 2 S112 682 394169 3883 0
23 2 S112 653 394822 4536 0
23 2 S112 630 395452 5166 0
23 2 S112 627 396079 5793 0
23 2 S112 627 396706 6420 0
0 0 0 633 397339 -9178 0
0 0 0 619 397958 -8559 0
0 0 0 626 398584 -7933 0
0 0 0 677 399261 -7256 0
0 0 0 681 399942 -6575 0
0 0 0 670 400612 -5905 0
0 0 0 645 401257 -5260 0
0 0 0 650 401907 -4610 0
0 0 0 650 402557 -3960 0
0 0 0 665 403222 -3295 0
0 0 0 647 403869 -2648 0
0 0 0 632 404501 -2016 0
24 1 S106 626 405127 -1390 0
24 1 S106 642 405769 -748 0
24 1 S106 658 406427 -90 0
24 2 S106 679 407106 589 0
24 2 S106 716 407822 1305 0
24 2 S106 670 408492 1975 0
24 2 S106 660 409152 2635 0
24 2 S106 689 409841 3324 0
24 2 S106 688 410529 4012 0
24 2 S106 744 411273 4756 0
24 2 S106 713 411986 5469 0
24 2 S106 685 412671 6154 0
24 2 S106 684 413355 6838 0
0 0 0 690 414045 -8204 0
0 0 0 697 414742 -7507 0
0 0 0 668 415410 -6839 0
0 0 0 633 416043 -6206 0
0 0 0 641 416684 -5565 0
0 0 0 713 417397 -4852 0
0 0 0 685 418082 -4167 0
0 0 0 720 418802 -3447 0
0 0 0 677 419479 -2770 0
0 0 0 642 420121 -2128 0
25 1 S102 632 420753 -1496 0
25 1 S102 637 421390 -859 0
25 1 S102 647 422037 -212 0
25 2 S102 680 422717 468 0
25 2 S102 670 423387 1138 0
25 2 S102 644 424031 1782 0
25 2 S102 650 424681 2432 0
25 2 S102 658 425339 3090 0
25 2 S102 666 426005 3756 0
25 2 S102 656 426661 4412 0
25 2 S102 643 427304 5055 0
25 2 S102 660 427964 5715 0
25 2 S102 679 428643 6394 0
0 0 0 701 429344 -6732 0
0 0 0 701 430045 -6031 0
0 0 0 674 430719 -5357 0
0 0 0 710 431429 -4647 0
0 0 0 673 432102 -3974 0
0 0 0 663 432765 -3311 0
0 0 0 637 433402 -2674 0
0 0 0 642 434044 -2032 0
26 1 S116 649 434693 -1383 0
26 1 S116 646 435339 -737 0
26 1 S116 639 435978 -98 0
26 2 S116 626 436604 528 0
26 2 S116 637 437241 1165 0
26 2 S116 639 437880 1804 0
26 2 S116 662 438542 2466 0
26 2 S116 661 439203 3127 0
26 2 S116 644 439847 3771 0
26 2 S116 642 440489 4413 0
26 2 S116 653 441142 5066 0
26 2 S116 664 441806 5730 0
26 2 S116 672 442478 6402 0
0 0 0 675 443153 -6517 0
0 0 0 673 443826 -5844 0
0 0 0 666 444492 -5178 0
0 0 0 656 445148 -4522 0
0 0 0 648 445796 -3874 0
0 0 0 643 446439 -3231 0
0 0 0 633 447072 -2598 0
27 1 S106 621 447693 -1977 0
27 1 S106 639 448332 -1338 0
27 1 S106 661 448993 -677 0
27 1 S106 674 449667 -3 0
27 2 S106 715 450382 712 0
27 2 S106 694 451076 1406 0
27 2 S106 709 451785 2115 0
27 2 S106 713 452498 2828 0
27 2 S106 727 453225 3555 0
27 2 S106 681 453906 4236 0
27 2 S106 655 454561 4891 0
27 2 S106 662 455223 5553 0
27 2 S106 655 455878 6208 0
27 2 S106 672 456550 6880 0
0 0 0 714 457264 -5453 0
0 0 0 686 457950 -4767 0
0 0 0 671 458621 -4096 0
0 0 0 666 459287 -3430 0
0 0 0 660 459947 -2770 0
0 0 0 653 460600 -2117 0
28 1 S102 642 461242 -1475 0
28 1 S102 645 461887 -830 0
28 1 S102 662 462549 -168 0
28 2 S102 669 463218 501 0
28 2 S102 689 463907 1190 0
28 2 S102 670 464577 1860 0
28 2 S102 688 465265 2548 0
28 2 S102 698 465963 3246 0
28 2 S102 690 466653 3936 0
28 2 S102 682 467335 4618 0
28 2 S102 677 468012 5295 0
28 2 S102 670 468682 5965 0
28 2 S102 682 469364 6647 0
0 0 0 671 470035 -10670 0
0 0 0 653 470688 -10017 0
0 0 0 684 471372 -9333 0
0 0 0 695 472067 -8638 0
0 0 0 689 472756 -7949 0
0 0 0 656 473412 -7293 0
0 0 0 678 474090 -6615 0
0 0 0 679 474769 -5936 0
0 0 0 689 475458 -5247 0
0 0 0 677 476135 -4570 0
0 0 0 666 476801 -3904 0
0 0 0 677 477478 -3227 0
0 0 0 722 478200 -2505 0
29 1 S112 740 478940 -1765 0
29 1 S112 696 479636 -1069 0
29 1 S112 709 480345 -360 0
29 2 S112 722 481067 362 0
29 2 S112 741 481808 1103 0
29 2 S112 719 482527 1822 0
29 2 S112 688 483215 2510 0
29 2 S112 673 483888 3183 0
29 2 S112 671 484559 3854 0
29 2 S112 670 485229 4524 0
29 2 S112 688 485917 5212 0
29 2 S112 743 486660 5955 0
29 2 S112 728 487388 6683 0
0 0 0 712 488100 -7360 0
0 0 0 742 488842 -6618 0
0 0 0 780 489622 -5838 0
0 0 0 811 490433 -5027 1
0 0 0 719 491152 -4308 0
0 0 0 696 491848 -3612 0
0 0 0 689 492537 -2923 0
0 0 0 669 493206 -2254 0
30 1 S112 648 493854 -1606 0
30 1 S112 629 494483 -977 0
30 1 S112 627 495110 -350 0
30 2 S112 623 495733 273 0
30 2 S112 621 496354 894 0
30 2 S112 614 496968 1508 0
30 2 S112 609 497577 2117 0
30 2 S112 616 498193 2733 0
30 2 S112 631 498824 3364 0
30 2 S112 644 499468 4008 0
30 2 S112 636 500104 4644 0
30 2 S112 637 500741 5281 0
30 2 S112 660 501401 5941 0
30 2 S112 672 502073 6613 0
0 0 0 703 502776 -9312 0
0 0 0 711 503487 -8601 0
0 0 0 707 504194 -7894 0
0 0 0 701 504895 -7193 0
0 0 0 698 505593 -6495 0
0 0 0 657 506250 -5838 0
0 0 0 651 506901 -5187 0
0 0 0 644 507545 -4543 0
0 0 0 648 508193 -3895 0
0 0 0 655 508848 -3240 0
0 0 0 641 509489 -2599 0
31 1 S106 656 510145 -1943 0
31 1 S106 669 510814 -1274 0
31 1 S106 700 511514 -574 0
31 2 S106 695 512209 121 0
31 2 S106 684 512893 805 0
31 2 S106 685 513578 1490 0
31 2 S106 684 514262 2174 0
31 2 S106 695 514957 2869 0
31 2 S106 685 515642 3554 0
31 2 S106 668 516310 4222 0
31 2 S106 668 516978 4890 0
31 2 S106 703 517681 5593 0
31 2 S106 715 518396 6308 0
31 2 S106 719 519115 7027 0
0 0 0 705 519820 -7934 0
0 0 0 696 520516 -7238 0
0 0 0 679 521195 -6559 0
0 0 0 662 521857 -5897 0
0 0 0 652 522509 -5245 0
0 0 0 628 523137 -4617 0
0 0 0 630 523767 -3987 0
0 0 0 634 524401 -3353 0
0 0 0 654 525055 -2699 0
0 0 0 644 525699 -2055 0
32 1 S102 631 526330 -1424 0
32 1 S102 639 526969 -785 0
32 1 S102 666 527635 -119 0
32 2 S102 689 528324 570 0
32 2 S102 703 529027 1273 0
32 2 S102 655 529682 1928 0
32 2 S102 644 530326 2572 0
32 2 S102 648 530974 3220 0
32 2 S102 638 531612 3858 0
32 2 S102 634 532246 4492 0
32 2 S102 622 532868 5114 0
32 2 S102 608 533476 5722 0
32 2 S102 591 534067 6313 0
32 2 S102 593 534660 6906 0
0 0 0 787 535447 -9980 0
0 0 0 693 536140 -9287 0
0 0 0 681 536821 -8606 0
0 0 0 689 537510 -7917 0
0 0 0 667 538177 -7250 0
0 0 0 638 538815 -6612 0
0 0 0 627 539442 -5985 0
0 0 0 620 540062 -5365 0
0 0 0 614 540676 -4751 0
0 0 0 609 541285 -4142 0
0 0 0 596 541881 -3546 0
0 0 0 595 542476 -2951 0
0 0 0 595 543071 -2356 0
33 1 S112 602 543673 -1754 0
33 1 S112 618 544291 -1136 0
33 1 S112 634 544925 -502 0
33 2 S112 637 545562 135 0
33 2 S112 630 546192 765 0
33 2 S112 652 546844 1417 0
33 2 S112 701 547545 2118 0
33 2 S112 713 548258 2831 0
33 2 S112 725 548983 3556 0
33 2 S112 710 549693 4266 0
33 2 S112 682 550375 4948 0
33 2 S112 668 551043 5616 0
33 2 S112 682 551725 6298 0
33 2 S112 689 552414 6987 0
0 0 0 709 553123 -10043 0
0 0 0 707 553830 -9336 0
0 0 0 668 554498 -8668 0
0 0 0 667 555165 -8001 0
0 0 0 653 555818 -7348 0
0 0 0 648 556466 -6700 0
0 0 0 628 557094 -6072 0
0 0 0 626 557720 -5446 0
0 0 0 635 558355 -4811 0
0 0 0 643 558998 -4168 0
0 0 0 671 559669 -3497 0
0 0 0 660 560329 -2837 0
0 0 0 664 560993 -2173 0
34 1 S106 666 561659 -1507 0
34 1 S106 659 562318 -848 0
34 1 S106 666 562984 -182 0
34 2 S106 650 563634 468 0
34 2 S106 640 564274 1108 0
34 2 S106 656 564930 1764 0
34 2 S106 649 565579 2413 0
34 2 S106 669 566248 3082 0
34 2 S106 685 566933 3767 0
34 2 S106 679 567612 4446 0
34 2 S106 664 568276 5110 0
34 2 S106 665 568941 5775 0
34 2 S106 680 569621 6455 0
0 0 0 722 570343 -9037 0
0 0 0 762 571105 -8275 0
0 0 0 753 571858 -7522 0
0 0 0 710 572568 -6812 0
0 0 0 687 573255 -6125 0
0 0 0 670 573925 -5455 0
0 0 0 659 574584 -4796 0
0 0 0 634 575218 -4162 0
0 0 0 630 575848 -3532 0
0 0 0 635 576483 -2897 0
0 0 0 633 577116 -2264 0
35 1 S102 633 577749 -1631 0
35 1 S102 624 578373 -1007 0
35 1 S102 639 579012 -368 0
35 2 S102 646 579658 278 0
35 2 S102 681 580339 959 0
35 2 S102 707 581046 1666 0
35 2 S102 688 581734 2354 0
35 2 S102 657 582391 3011 0
35 2 S102 644 583035 3655 0
35 2 S102 623 583658 4278 0
35 2 S102 630 584288 4908 0
35 2 S102 737 585025 5645 0
35 2 S102 791 585816 6436 0
0 0 0 794 586610 -8038 0
0 0 0 790 587400 -7248 0
0 0 0 751 588151 -6497 0
0 0 0 725 588876 -5772 0
0 0 0 687 589563 -5085 0
0 0 0 663 590226 -4422 0
0 0 0 632 590858 -3790 0
0 0 0 601 591459 -3189 0
0 0 0 590 592049 -2599 0
0 0 0 585 592634 -2014 0
36 1 S106 638 593272 -1376 0
36 1 S106 686 593958 -690 0
36 2 S106 718 594676 28 0
36 2 S106 764 595440 792 0
36 2 S106 818 596258 1610 1
36 2 S106 806 597064 2416 1
36 2 S106 834 597898 3250 1
36 2 S106 911 598809 4161 1
36 2 S106 1031 599840 5192 1
36 2 S106 837 600677 6029 1
36 2 S106 759 601436 6788 0
0 0 0 722 602158 -8439 0
0 0 0 707 602865 -7732 0
0 0 0 695 603560 -7037 0
0 0 0 675 604235 -6362 0
0 0 0 654 604889 -5708 0
0 0 0 624 605513 -5084 0
0 0 0 615 606128 -4469 0
0 0 0 629 606757 -3840 0
0 0 0 649 607406 -3191 0
0 0 0 693 608099 -2498 0
37 1 S116 724 608823 -1774 0
37 1 S116 712 609535 -1062 0
37 1 S116 691 610226 -371 0
37 2 S116 705 610931 334 0
37 2 S116 715 611646 1049 0
37 2 S116 732 612378 1781 0
37 2 S116 731 613109 2512 0
37 2 S116 707 613816 3219 0
37 2 S116 680 614496 3899 0
37 2 S116 662 615158 4561 0
37 2 S116 660 615818 5221 0
37 2 S116 660 616478 5881 0
37 2 S116 684 617162 6565 0
0 0 0 714 617876 -10592 0
0 0 0 703 618579 -9889 0
0 0 0 697 619276 -9192 0
0 0 0 691 619967 -8501 0
0 0 0 674 620641 -7827 0
0 0 0 674 621315 -7153 0
0 0 0 643 621958 -6510 0
0 0 0 634 622592 -5876 0
0 0 0 645 623237 -5231 0
0 0 0 651 623888 -4580 0
0 0 0 682 624570 -3898 0
0 0 0 679 625249 -3219 0
0 0 0 651 625900 -2568 0
38 1 S102 659 626559 -1909 0
38 1 S102 671 627230 -1238 0
38 1 S102 678 627908 -560 0
38 2 S102 686 628594 126 0
38 2 S102 667 629261 793 0
38 2 S102 670 629931 1463 0
38 2 S102 676 630607 2139 0
38 2 S102 680 631287 2819 0
38 2 S102 667 631954 3486 0
38 2 S102 647 632601 4133 0
38 2 S102 648 633249 4781 0
38 2 S102 657 633906 5438 0
38 2 S102 669 634575 6107 0
38 2 S102 676 635251 6783 0
0 0 0 653 635904 -9574 0
0 0 0 698 636602 -8876 0
0 0 0 719 637321 -8157 0
0 0 0 782 638103 -7375 0
0 0 0 739 638842 -6636 0
0 0 0 696 639538 -5940 0
0 0 0 680 640218 -5260 0
0 0 0 663 640881 -4597 0
0 0 0 638 641519 -3959 0
0 0 0 625 642144 -3334 0
0 0 0 619 642763 -2715 0
0 0 0 621 643384 -2094 0
39 1 S116 656 644040 -1438 0
39 1 S116 671 644711 -767 0
39 1 S116 657 645368 -110 0
39 2 S116 672 646040 562 0
39 2 S116 711 646751 1273 0
39 2 S116 746 647497 2019 0
39 2 S116 746 648243 2765 0
39 2 S116 718 648961 3483 0
39 2 S116 722 649683 4205 0
39 2 S116 721 650404 4926 0
39 2 S116 719 651123 5645 0
39 2 S116 689 651812 6334 0
39 2 S116 676 652488 7010 0
0 0 0 684 653172 -6348 0
0 0 0 701 653873 -5647 0
0 0 0 694 654567 -4953 0
0 0 0 658 655225 -4295 0
0 0 0 637 655862 -3658 0
0 0 0 644 656506 -3014 0
0 0 0 643 657149 -2371 0
40 1 S112 663 657812 -1708 0
40 1 S112 648 658460 -1060 0
40 1 S112 648 659108 -412 0
40 2 S112 684 659792 272 0
40 2 S112 680 660472 952 0
40 2 S112 703 661175 1655 0
40 2 S112 677 661852 2332 0
40 2 S112 668 662520 3000 0
40 2 S112 688 663208 3688 0
40 2 S112 689 663897 4377 0
40 2 S112 692 664589 5069 0
40 2 S112 665 665254 5734 0
40 2 S112 662 665916 6396 0
0 0 0 671 666587 -186801 0
0 0 0 685 667272 -186116 0
0 0 0 689 667961 -185427 0
0 0 0 669 668630 -184758 0
0 0 0 696 669326 -184062 0
0 0 0 699 670025 -183363 0
0 0 0 692 670717 -182671 0
0 0 0 656 671373 -182015 0
0 0 0 668 672041 -181347 0
0 0 0 696 672737 -180651 0
0 0 0 713 673450 -179938 0
0 0 0 692 674142 -179246 0
0 0 0 658 674800 -178588 0
0 0 0 670 675470 -177918 0
0 0 0 666 676136 -177252 0
0 0 0 703 676839 -176549 0
0 0 0 697 677536 -175852 0
0 0 0 667 678203 -175185 0
0 0 0 653 678856 -174532 0
0 0 0 638 679494 -173894 0
0 0 0 644 680138 -173250 0
0 0 0 634 680772 -172616 0
0 0 0 630 681402 -171986 0
0 0 0 623 682025 -171363 0
0 0 0 655 682680 -170708 0
0 0 0 680 683360 -170028 0
0 0 0 708 684068 -169320 0
0 0 0 758 684826 -168562 0
0 0 0 704 685530 -167858 0
0 0 0 734 686264 -167124 0
0 0 0 727 686991 -166397 0
0 0 0 719 687710 -165678 0
0 0 0 684 688394 -164994 0
0 0 0 703 689097 -164291 0
0 0 0 745 689842 -163546 0
0 0 0 781 690623 -162765 0
0 0 0 800 691423 -161965 0
0 0 0 734 692157 -161231 0
0 0 0 705 692862 -160526 0
0 0 0 658 693520 -159868 0
0 0 0 633 694153 -159235 0
0 0 0 617 694770 -158618 0
0 0 0 620 695390 -157998 0
0 0 0 625 696015 -157373 0
0 0 0 630 696645 -156743 0
0 0 0 629 697274 -156114 0
0 0 0 644 697918 -155470 0
0 0 0 651 698569 -154819 0
0 0 0 638 699207 -154181 0
0 0 0 612 699819 -153569 0
0 0 0 622 700441 -152947 0
0 0 0 908 701349 -152039 1
0 0 0 697 702046 -151342 0
0 0 0 653 702699 -150689 0
0 0 0 609 703308 -150080 0
0 0 0 584 703892 -149496 0
0 0 0 566 704458 -148930 0
0 0 0 559 705017 -148371 0
0 0 0 550 705567 -147821 0
0 0 0 542 706109 -147279 1
0 0 0 546 706655 -146733 0
0 0 0 588 707243 -146145 0
0 0 0 592 707835 -145553 0
0 0 0 596 708431 -144957 0
0 0 0 585 709016 -144372 0
0 0 0 602 709618 -143770 0
0 0 0 607 710225 -143163 0
0 0 0 588 710813 -142575 0
0 0 0 582 711395 -141993 0
0 0 0 580 711975 -141413 0
0 0 0 588 712563 -140825 0
0 0 0 623 713186 -140202 0
0 0 0 669 713855 -139533 0
0 0 0 632 714487 -138901 0
0 0 0 603 715090 -138298 0
0 0 0 594 715684 -137704 0
0 0 0 748 716432 -136956 0
0 0 0 767 717199 -136189 0
0 0 0 753 717952 -135436 0
0 0 0 711 718663 -134725 0
0 0 0 697 719360 -134028 0
0 0 0 695 720055 -133333 0
0 0 0 667 720722 -132666 0
0 0 0 682 721404 -131984 0
0 0 0 675 722079 -131309 0
0 0 0 666 722745 -130643 0
0 0 0 661 723406 -129982 0
0 0 0 645 724051 -129337 0
0 0 0 647 724698 -128690 0
0 0 0 659 725357 -128031 0
0 0 0 677 726034 -127354 0
0 0 0 683 726717 -126671 0
0 0 0 708 727425 -125963 0
0 0 0 682 728107 -125281 0
0 0 0 668 728775 -124613 0
0 0 0 677 729452 -123936 0
0 0 0 707 730159 -123229 0
0 0 0 741 730900 -122488 0
0 0 0 765 731665 -121723 0
0 0 0 738 732403 -120985 0
0 0 0 730 733133 -120255 0
0 0 0 681 733814 -119574 0
0 0 0 682 734496 -118892 0
0 0 0 675 735171 -118217 0
0 0 0 677 735848 -117540 0
0 0 0 695 736543 -116845 0
0 0 0 729 737272 -116116 0
0 0 0 734 738006 -115382 0
0 0 0 789 738795 -114593 0
0 0 0 721 739516 -113872 0
0 0 0 693 740209 -113179 0
0 0 0 662 740871 -112517 0
0 0 0 657 741528 -111860 0
0 0 0 641 742169 -111219 0
0 0 0 674 742843 -110545 0
0 0 0 782 743625 -109763 0
0 0 0 751 744376 -109012 0
0 0 0 725 745101 -108287 0
0 0 0 689 745790 -107598 0
0 0 0 660 746450 -106938 0
0 0 0 632 747082 -106306 0
0 0 0 601 747683 -105705 0
0 0 0 1182 748865 -104523 1
0 0 0 597 749462 -103926 0
0 0 0 603 750065 -103323 0
0 0 0 610 750675 -102713 0
0 0 0 628 751303 -102085 0
0 0 0 692 751995 -101393 0
0 0 0 772 752767 -100621 0
0 0 0 736 753503 -99885 0
0 0 0 736 754239 -99149 0
0 0 0 734 754973 -98415 0
0 0 0 738 755711 -97677 0
0 0 0 741 756452 -96936 0
0 0 0 687 757139 -96249 0
0 0 0 637 757776 -95612 0
0 0 0 616 758392 -94996 0
0 0 0 641 759033 -94355 0
0 0 0 730 759763 -93625 0
0 0 0 727 760490 -92898 0
0 0 0 686 761176 -92212 0
0 0 0 664 761840 -91548 0
0 0 0 717 762557 -90831 0
0 0 0 736 763293 -90095 0
0 0 0 689 763982 -89406 0
0 0 0 693 764675 -88713 0
0 0 0 661 765336 -88052 0
0 0 0 641 765977 -87411 0
0 0 0 622 766599 -86789 0
0 0 0 600 767199 -86189 0
0 0 0 589 767788 -85600 0
0 0 0 586 768374 -85014 0
0 0 0 588 768962 -84426 0
0 0 0 573 769535 -83853 0
0 0 0 567 770102 -83286 0
0 0 0 577 770679 -82709 0
0 0 0 575 771254 -82134 0
0 0 0 627 771881 -81507 0
0 0 0 744 772625 -80763 0
0 0 0 1000 773625 -79763 1
0 0 0 887 774512 -78876 1
0 0 0 818 775330 -78058 1
0 0 0 776 776106 -77282 0
0 0 0 726 776832 -76556 0
0 0 0 717 777549 -75839 0
0 0 0 702 778251 -75137 0
0 0 0 663 778914 -74474 0
0 0 0 656 779570 -73818 0
0 0 0 642 780212 -73176 0
0 0 0 641 780853 -72535 0
0 0 0 643 781496 -71892 0
0 0 0 633 782129 -71259 0
0 0 0 608 782737 -70651 0
0 0 0 605 783342 -70046 0
0 0 0 600 783942 -69446 0
0 0 0 610 784552 -68836 0
0 0 0 634 785186 -68202 0
0 0 0 631 785817 -67571 0
0 0 0 640 786457 -66931 0
0 0 0 624 787081 -66307 0
0 0 0 618 787699 -65689 0
0 0 0 629 788328 -65060 0
0 0 0 638 788966 -64422 0
0 0 0 634 789600 -63788 0
0 0 0 629 790229 -63159 0
0 0 0 644 790873 -62515 0
0 0 0 628 791501 -61887 0
0 0 0 627 792128 -61260 0
0 0 0 644 792772 -60616 0
0 0 0 680 793452 -59936 0
0 0 0 673 794125 -59263 0
0 0 0 663 794788 -58600 0
0 0 0 651 795439 -57949 0
0 0 0 631 796070 -57318 0
0 0 0 622 796692 -56696 0
0 0 0 600 797292 -56096 0
0 0 0 590 797882 -55506 0
0 0 0 582 798464 -54924 0
0 0 0 603 799067 -54321 0
0 0 0 645 799712 -53676 0
0 0 0 726 800438 -52950 0
0 0 0 697 801135 -52253 0
0 0 0 821 801956 -51432 1
0 0 0 835 802791 -50597 1
0 0 0 737 803528 -49860 0
0 0 0 700 804228 -49160 0
0 0 0 644 804872 -48516 0
0 0 0 618 805490 -47898 0
0 0 0 608 806098 -47290 0
0 0 0 589 806687 -46701 0
0 0 0 580 807267 -46121 0
0 0 0 577 807844 -45544 0
0 0 0 584 808428 -44960 0
0 0 0 584 809012 -44376 0
0 0 0 588 809600 -43788 0
0 0 0 593 810193 -43195 0
0 0 0 592 810785 -42603 0
0 0 0 599 811384 -42004 0
0 0 0 621 812005 -41383 0
0 0 0 613 812618 -40770 0
0 0 0 604 813222 -40166 0
0 0 0 596 813818 -39570 0
0 0 0 607 814425 -38963 0
0 0 0 669 815094 -38294 0
0 0 0 734 815828 -37560 0
0 0 0 749 816577 -36811 0
0 0 0 712 817289 -36099 0
0 0 0 695 817984 -35404 0
0 0 0 682 818666 -34722 0
0 0 0 687 819353 -34035 0
0 0 0 661 820014 -33374 0
0 0 0 641 820655 -32733 0
0 0 0 605 821260 -32128 0
0 0 0 600 821860 -31528 0
0 0 0 588 822448 -30940 0
0 0 0 593 823041 -30347 0
0 0 0 581 823622 -29766 0
0 0 0 574 824196 -29192 0
0 0 0 566 824762 -28626 0
0 0 0 560 825322 -28066 0
0 0 0 564 825886 -27502 0
0 0 0 564 826450 -26938 0
0 0 0 560 827010 -26378 0
0 0 0 568 827578 -25810 0
0 0 0 595 828173 -25215 0
0 0 0 659 828832 -24556 0
0 0 0 667 829499 -23889 0
0 0 0 683 830182 -23206 0
0 0 0 647 830829 -22559 0
0 0 0 641 831470 -21918 0
0 0 0 644 832114 -21274 0
0 0 0 625 832739 -20649 0
0 0 0 636 833375 -20013 0
0 0 0 638 834013 -19375 0
0 0 0 659 834672 -18716 0
0 0 0 751 835423 -17965 0
0 0 0 816 836239 -17149 1
0 0 0 846 837085 -16303 1
0 0 0 864 837949 -15439 1
0 0 0 836 838785 -14603 1
0 0 0 758 839543 -13845 0
0 0 0 736 840279 -13109 0
0 0 0 723 841002 -12386 0
0 0 0 737 841739 -11649 0
0 0 0 694 842433 -10955 0
0 0 0 673 843106 -10282 0
0 0 0 686 843792 -9596 0
0 0 0 714 844506 -8882 0
0 0 0 729 845235 -8153 0
0 0 0 696 845931 -7457 0
0 0 0 730 846661 -6727 0
0 0 0 777 847438 -5950 0
0 0 0 765 848203 -5185 0
0 0 0 749 848952 -4436 0
0 0 0 700 849652 -3736 0
0 0 0 670 850322 -3066 0
0 0 0 647 850969 -2419 0
41 1 S102 644 851613 -1775 0
41 1 S102 628 852241 -1147 0
41 1 S102 608 852849 -539 0
41 2 S102 606 853455 67 0
41 2 S102 606 854061 673 0
41 2 S102 628 854689 1301 0
41 2 S102 653 855342 1954 0
41 2 S102 632 855974 2586 0
41 2 S102 615 856589 3201 0
41 2 S102 623 857212 3824 0
41 2 S102 621 857833 4445 0
41 2 S102 646 858479 5091 0
41 2 S102 673 859152 5764 0
41 2 S102 647 859799 6411 0
0 0 0 632 860431 -6783 0
0 0 0 627 861058 -6156 0
0 0 0 649 861707 -5507 0
0 0 0 682 862389 -4825 0
0 0 0 675 863064 -4150 0
0 0 0 641 863705 -3509 0
0 0 0 628 864333 -2881 0
0 0 0 632 864965 -2249 0
42 1 S112 629 865594 -1620 0
42 1 S112 639 866233 -981 0
42 1 S112 629 866862 -352 0
42 2 S112 616 867478 264 0
42 2 S112 621 868099 885 0
42 2 S112 643 868742 1528 0
42 2 S112 666 869408 2194 0
42 2 S112 673 870081 2867 0
42 2 S112 649 870730 3516 0
42 2 S112 638 871368 4154 0
42 2 S112 652 872020 4806 0
42 2 S112 650 872670 5456 0
42 2 S112 667 873337 6123 0
42 2 S112 635 873972 6758 0
0 0 0 611 874583 -10005 0
0 0 0 609 875192 -9396 0
0 0 0 611 875803 -8785 0
0 0 0 660 876463 -8125 0
0 0 0 669 877132 -7456 0
0 0 0 658 877790 -6798 0
0 0 0 630 878420 -6168 0
0 0 0 622 879042 -5546 0
0 0 0 619 879661 -4927 0
0 0 0 621 880282 -4306 0
0 0 0 621 880903 -3685 0
0 0 0 635 881538 -3050 0
0 0 0 624 882162 -2426 0
43 1 S116 620 882782 -1806 0
43 1 S116 624 883406 -1182 0
43 1 S116 622 884028 -560 0
43 2 S116 626 884654 66 0
43 2 S116 616 885270 682 0
43 2 S116 606 885876 1288 0
43 2 S116 604 886480 1892 0
43 2 S116 689 887169 2581 0
43 2 S116 761 887930 3342 0
43 2 S116 684 888614 4026 0
43 2 S116 644 889258 4670 0
43 2 S116 632 889890 5302 0
43 2 S116 649 890539 5951 0
43 2 S116 665 891204 6616 0
0 0 0 654 891858 -6175 0
0 0 0 657 892515 -5518 0
0 0 0 649 893164 -4869 0
0 0 0 628 893792 -4241 0
0 0 0 610 894402 -3631 0
0 0 0 605 895007 -3026 0
0 0 0 595 895602 -2431 0
44 1 S102 585 896187 -1846 0
44 1 S102 590 896777 -1256 0
44 1 S102 596 897373 -660 0
44 1 S102 611 897984 -49 0
44 2 S102 636 898620 587 0
44 2 S102 647 899267 1234 0
44 2 S102 668 899935 1902 0
44 2 S102 660 900595 2562 0
44 2 S102 641 901236 3203 0
44 2 S102 624 901860 3827 0
44 2 S102 627 902487 4454 0
44 2 S102 703 903190 5157 0
44 2 S102 712 903902 5869 0
44 2 S102 767 904669 6636 0
0 0 0 760 905429 -9001 0
0 0 0 754 906183 -8247 0
0 0 0 729 906912 -7518 0
0 0 0 712 907624 -6806 0
0 0 0 655 908279 -6151 0
0 0 0 642 908921 -5509 0
0 0 0 630 909551 -4879 0
0 0 0 639 910190 -4240 0
0 0 0 659 910849 -3581 0
0 0 0 648 911497 -2933 0
0 0 0 640 912137 -2293 0
45 1 S116 636 912773 -1657 0
45 1 S116 646 913419 -1011 0
45 1 S116 700 914119 -311 0
45 2 S116 730 914849 419 0
45 2 S116 756 915605 1175 0
45 2 S116 782 916387 1957 0
45 2 S116 765 917152 2722 0
45 2 S116 771 917923 3493 0
45 2 S116 756 918679 4249 0
45 2 S116 746 919425 4995 0
45 2 S116 709 920134 5704 0
45 2 S116 678 920812 6382 0
0 0 0 672 921484 -11165 0
0 0 0 668 922152 -10497 0
0 0 0 710 922862 -9787 0
0 0 0 772 923634 -9015 0
0 0 0 738 924372 -8277 0
0 0 0 698 925070 -7579 0
0 0 0 664 925734 -6915 0
0 0 0 665 926399 -6250 0
0 0 0 685 927084 -5565 0
0 0 0 713 927797 -4852 0
0 0 0 742 928539 -4110 0
0 0 0 719 929258 -3391 0
0 0 0 690 929948 -2701 0
0 0 0 669 930617 -2032 0
46 1 S102 678 931295 -1354 0
46 1 S102 697 931992 -657 0
46 2 S102 727 932719 70 0
46 2 S102 744 933463 814 0
46 2 S102 740 934203 1554 0
46 2 S102 700 934903 2254 0
46 2 S102 680 935583 2934 0
46 2 S102 678 936261 3612 0
46 2 S102 676 936937 4288 0
46 2 S102 686 937623 4974 0
46 2 S102 698 938321 5672 0
46 2 S102 708 939029 6380 0
0 0 0 684 939713 -9216 0
0 0 0 690 940403 -8526 0
0 0 0 691 941094 -7835 0
0 0 0 713 941807 -7122 0
0 0 0 714 942521 -6408 0
0 0 0 667 943188 -5741 0
0 0 0 670 943858 -5071 0
0 0 0 684 944542 -4387 0
0 0 0 750 945292 -3637 0
0 0 0 766 946058 -2871 0
0 0 0 728 946786 -2143 0
47 1 S112 755 947541 -1388 0
47 1 S112 780 948321 -608 0
47 2 S112 759 949080 151 0
47 2 S112 764 949844 915 0
47 2 S112 736 950580 1651 0
47 2 S112 764 951344 2415 0
47 2 S112 774 952118 3189 0
47 2 S112 781 952899 3970 0
47 2 S112 777 953676 4747 0
47 2 S112 728 954404 5475 0
47 2 S112 716 955120 6191 0
47 2 S112 723 955843 6914 0
0 0 0 747 956590 -10708 0
0 0 0 749 957339 -9959 0
0 0 0 718 958057 -9241 0
0 0 0 697 958754 -8544 0
0 0 0 690 959444 -7854 0
0 0 0 684 960128 -7170 0
0 0 0 668 960796 -6502 0
0 0 0 648 961444 -5854 0
0 0 0 663 962107 -5191 0
0 0 0 667 962774 -4524 0
0 0 0 708 963482 -3816 0
0 0 0 704 964186 -3112 0
0 0 0 687 964873 -2425 0
48 1 S116 704 965577 -1721 0
48 1 S116 712 966289 -1009 0
48 1 S116 713 967002 -296 0
48 2 S116 702 967704 406 0
48 2 S116 689 968393 1095 0
48 2 S116 682 969075 1777 0
48 2 S116 698 969773 2475 0
48 2 S116 715 970488 3190 0
48 2 S116 708 971196 3898 0
48 2 S116 689 971885 4587 0
48 2 S116 667 972552 5254 0
48 2 S116 653 973205 5907 0
48 2 S116 658 973863 6565 0
0 0 0 677 974540 -5905 0
0 0 0 722 975262 -5183 0
0 0 0 744 976006 -4439 0
0 0 0 684 976690 -3755 0
0 0 0 658 977348 -3097 0
0 0 0 665 978013 -2432 0
49 1 S112 662 978675 -1770 0
49 1 S112 694 979369 -1076 0
49 1 S112 666 980035 -410 0
49 2 S112 661 980696 251 0
49 2 S112 654 981350 905 0
49 2 S112 657 982007 1562 0
49 2 S112 660 982667 2222 0
49 2 S112 660 983327 2882 0
49 2 S112 636 983963 3518 0
49 2 S112 622 984585 4140 0
49 2 S112 622 985207 4762 0
49 2 S112 621 985828 5383 0
49 2 S112 640 986468 6023 0
49 2 S112 650 987118 6673 0
0 0 0 666 987784 -10284 0
0 0 0 650 988434 -9634 0
0 0 0 660 989094 -8974 0
0 0 0 651 989745 -8323 0
0 0 0 650 990395 -7673 0
0 0 0 636 991031 -7037 0
0 0 0 619 991650 -6418 0
0 0 0 626 992276 -5792 0
0 0 0 630 992906 -5162 0
0 0 0 659 993565 -4503 0
0 0 0 672 994237 -3831 0
0 0 0 670 994907 -3161 0
0 0 0 646 995553 -2515 0
50 1 S106 661 996214 -1854 0
50 1 S106 664 996878 -1190 0
50 1 S106 666 997544 -524 0
50 2 S106 672 998216 148 0
50 2 S106 674 998890 822 0
50 2 S106 667 999557 1489 0
50 2 S106 667 1000224 2156 0
50 2 S106 666 1000890 2822 0
50 2 S106 653 1001543 3475 0
50 2 S106 643 1002186 4118 0
50 2 S106 649 1002835 4767 0
50 2 S106 656 1003491 5423 0
50 2 S106 669 1004160 6092 0
50 2 S106 681 1004841 6773 0
0 0 0 678 1005519 -5695 0
0 0 0 665 1006184 -5030 0
0 0 0 653 1006837 -4377 0
0 0 0 646 1007483 -3731 0
0 0 0 634 1008117 -3097 0
0 0 0 632 1008749 -2465 0
51 1 S112 613 1009362 -1852 0
51 1 S112 605 1009967 -1247 0
51 1 S112 612 1010579 -635 0
51 1 S112 616 1011195 -19 0
51 2 S112 631 1011826 612 0
51 2 S112 671 1012497 1283 0
51 2 S112 646 1013143 1929 0
51 2 S112 654 1013797 2583 0
51 2 S112 669 1014466 3252 0
51 2 S112 671 1015137 3923 0
51 2 S112 674 1015811 4597 0
51 2 S112 645 1016456 5242 0
51 2 S112 643 1017099 5885 0
51 2 S112 647 1017746 6532 0
0 0 0 642 1018388 -7051 0
0 0 0 637 1019025 -6414 0
0 0 0 638 1019663 -5776 0
0 0 0 631 1020294 -5145 0
0 0 0 641 1020935 -4504 0
0 0 0 632 1021567 -3872 0
0 0 0 640 1022207 -3232 0
0 0 0 630 1022837 -2602 0
52 1 S116 626 1023463 -1976 0
52 1 S116 635 1024098 -1341 0
52 1 S116 662 1024760 -679 0
52 2 S116 688 1025448 9 0
52 2 S116 689 1026137 698 0
52 2 S116 704 1026841 1402 0
52 2 S116 740 1027581 2142 0
52 2 S116 755 1028336 2897 0
52 2 S116 793 1029129 3690 0
52 2 S116 807 1029936 4497 1
52 2 S116 809 1030745 5306 1
52 2 S116 779 1031524 6085 0
52 2 S116 746 1032270 6831 0
0 0 0 737 1033007 -8894 0
0 0 0 716 1033723 -8178 0
0 0 0 697 1034420 -7481 0
0 0 0 682 1035102 -6799 0
0 0 0 661 1035763 -6138 0
0 0 0 655 1036418 -5483 0
0 0 0 645 1037063 -4838 0
0 0 0 653 1037716 -4185 0
0 0 0 635 1038351 -3550 0
0 0 0 620 1038971 -2930 0
0 0 0 613 1039584 -2317 0
53 1 S106 610 1040194 -1707 0
53 1 S106 691 1040885 -1016 0
53 1 S106 705 1041590 -311 0
53 2 S106 699 1042289 388 0
53 2 S106 1060 1043349 1448 1
53 2 S106 771 1044120 2219 0
53 2 S106 714 1044834 2933 0
53 2 S106 661 1045495 3594 0
53 2 S106 627 1046122 4221 0
53 2 S106 603 1046725 4824 0
53 2 S106 598 1047323 5422 0
53 2 S106 601 1047924 6023 0
53 2 S106 589 1048513 6612 0
0 0 0 604 1049117 -6445 0
0 0 0 608 1049725 -5837 0
0 0 0 612 1050337 -5225 0
0 0 0 610 1050947 -4615 0
0 0 0 589 1051536 -4026 0
0 0 0 592 1052128 -3434 0
0 0 0 584 1052712 -2850 0
0 0 0 581 1053293 -2269 0
54 1 S102 604 1053897 -1665 0
54 1 S102 620 1054517 -1045 0
54 1 S102 643 1055160 -402 0
54 2 S102 641 1055801 239 0
54 2 S102 642 1056443 881 0
54 2 S102 636 1057079 1517 0
54 2 S102 629 1057708 2146 0
54 2 S102 651 1058359 2797 0
54 2 S102 670 1059029 3467 0
54 2 S102 693 1059722 4160 0
54 2 S102 703 1060425 4863 0
54 2 S102 706 1061131 5569 0
54 2 S102 690 1061821 6259 0
54 2 S102 659 1062480 6918 0
0 0 0 664 1063144 -9958 0
0 0 0 677 1063821 -9281 0
0 0 0 669 1064490 -8612 0
0 0 0 663 1065153 -7949 0
0 0 0 638 1065791 -7311 0
0 0 0 625 1066416 -6686 0
0 0 0 627 1067043 -6059 0
0 0 0 644 1067687 -5415 0
0 0 0 709 1068396 -4706 0
0 0 0 709 1069105 -3997 0
0 0 0 765 1069870 -3232 0
0 0 0 754 1070624 -2478 0
55 1 S106 708 1071332 -1770 0
55 1 S106 680 1072012 -1090 0
55 1 S106 656 1072668 -434 0
55 2 S106 649 1073317 215 0
55 2 S106 653 1073970 868 0
55 2 S106 668 1074638 1536 0
55 2 S106 670 1075308 2206 0
55 2 S106 662 1075970 2868 0
55 2 S106 665 1076635 3533 0
55 2 S106 652 1077287 4185 0
55 2 S106 667 1077954 4852 0
55 2 S106 695 1078649 5547 0
55 2 S106 701 1079350 6248 0
55 2 S106 712 1080062 6960 0
0 0 0 691 1080753 -5644 0
0 0 0 690 1081443 -4954 0
0 0 0 655 1082098 -4299 0
0 0 0 628 1082726 -3671 0
0 0 0 628 1083354 -3043 0
0 0 0 630 1083984 -2413 0
56 1 S116 635 1084619 -1778 0
56 1 S116 674 1085293 -1104 0
56 1 S116 688 1085981 -416 0
56 2 S116 673 1086654 257 0
56 2 S116 719 1087373 976 0
56 2 S116 753 1088126 1729 0
56 2 S116 794 1088920 2523 0
56 2 S116 751 1089671 3274 0
56 2 S116 713 1090384 3987 0
56 2 S116 702 1091086 4689 0
56 2 S116 709 1091795 5398 0
56 2 S116 734 1092529 6132 0
56 2 S116 754 1093283 6886 0
0 0 0 749 1094032 -5595 0
0 0 0 735 1094767 -4860 0
0 0 0 694 1095461 -4166 0
0 0 0 677 1096138 -3489 0
0 0 0 681 1096819 -2808 0
0 0 0 715 1097534 -2093 0
57 1 S106 795 1098329 -1298 0
57 1 S106 807 1099136 -491 1
57 2 S106 781 1099917 290 0
57 2 S106 733 1100650 1023 0
57 2 S106 701 1101351 1724 0
57 2 S106 712 1102063 2436 0
57 2 S106 701 1102764 3137 0
57 2 S106 703 1103467 3840 0
57 2 S106 700 1104167 4540 0
57 2 S106 693 1104860 5233 0
57 2 S106 683 1105543 5916 0
57 2 S106 686 1106229 6602 0
0 0 0 700 1106929 -8414 0
0 0 0 731 1107660 -7683 0
0 0 0 730 1108390 -6953 0
0 0 0 727 1109117 -6226 0
0 0 0 705 1109822 -5521 0
0 0 0 694 1110516 -4827 0
0 0 0 707 1111223 -4120 0
0 0 0 706 1111929 -3414 0
0 0 0 718 1112647 -2696 0
58 1 S102 713 1113360 -1983 0
58 1 S102 677 1114037 -1306 0
58 1 S102 651 1114688 -655 0
58 2 S102 655 1115343 0 0
58 2 S102 671 1116014 671 0
58 2 S102 701 1116715 1372 0
58 2 S102 701 1117416 2073 0
58 2 S102 664 1118080 2737 0
58 2 S102 650 1118730 3387 0
58 2 S102 654 1119384 4041 0
58 2 S102 647 1120031 4688 0
58 2 S102 642 1120673 5330 0
58 2 S102 626 1121299 5956 0
58 2 S102 624 1121923 6580 0
0 0 0 634 1122557 -6679 0
0 0 0 655 1123212 -6024 0
0 0 0 688 1123900 -5336 0
0 0 0 662 1124562 -4674 0
0 0 0 647 1125209 -4027 0
0 0 0 636 1125845 -3391 0
0 0 0 636 1126481 -2755 0
0 0 0 630 1127111 -2125 0
59 1 S112 612 1127723 -1513 0
59 1 S112 609 1128332 -904 0
59 1 S112 607 1128939 -297 0
59 2 S112 610 1129549 313 0
59 2 S112 630 1130179 943 0
59 2 S112 636 1130815 1579 0
59 2 S112 621 1131436 2200 0
59 2 S112 643 1132079 2843 0
59 2 S112 670 1132749 3513 0
59 2 S112 687 1133436 4200 0
59 2 S112 666 1134102 4866 0
59 2 S112 645 1134747 5511 0
59 2 S112 666 1135413 6177 0
59 2 S112 679 1136092 6856 0
0 0 0 693 1136785 -8615 0
0 0 0 697 1137482 -7918 0
0 0 0 671 1138153 -7247 0
0 0 0 688 1138841 -6559 0
0 0 0 661 1139502 -5898 0
0 0 0 648 1140150 -5250 0
0 0 0 622 1140772 -4628 0
0 0 0 612 1141384 -4016 0
0 0 0 600 1141984 -3416 0
0 0 0 601 1142585 -2815 0
0 0 0 595 1143180 -2220 0
60 1 S102 597 1143777 -1623 0
60 1 S102 602 1144379 -1021 0
60 1 S102 600 1144979 -421 0
60 2 S102 595 1145574 174 0
60 2 S102 602 1146176 776 0
60 2 S102 610 1146786 1386 0
60 2 S102 623 1147409 2009 0
60 2 S102 623 1148032 2632 0
60 2 S102 625 1148657 3257 0
60 2 S102 617 1149274 3874 0
60 2 S102 624 1149898 4498 0
60 2 S102 650 1150548 5148 0
60 2 S102 654 1151202 5802 0
60 2 S102 684 1151886 6486 0
0 0 0 766 1152652 -11747 0
0 0 0 759 1153411 -10988 0
0 0 0 754 1154165 -10234 0
0 0 0 824 1154989 -9410 1
0 0 0 870 1155859 -8540 1
0 0 0 763 1156622 -7777 0
0 0 0 705 1157327 -7072 0
0 0 0 682 1158009 -6390 0
0 0 0 676 1158685 -5714 0
0 0 0 694 1159379 -5020 0
0 0 0 693 1160072 -4327 0
0 0 0 660 1160732 -3667 0
0 0 0 664 1161396 -3003 0
0 0 0 658 1162054 -2345 0
61 1 S106 664 1162718 -1681 0
61 1 S106 658 1163376 -1023 0
61 1 S106 646 1164022 -377 0
61 2 S106 655 1164677 278 0
61 2 S106 670 1165347 948 0
61 2 S106 694 1166041 1642 0
61 2 S106 749 1166790 2391 0
61 2 S106 716 1167506 3107 0
61 2 S106 687 1168193 3794 0
61 2 S106 686 1168879 4480 0
61 2 S106 692 1169571 5172 0
61 2 S106 711 1170282 5883 0
61 2 S106 740 1171022 6623 0
0 0 0 725 1171747 -6047 0
0 0 0 733 1172480 -5314 0
0 0 0 724 1173204 -4590 0
0 0 0 694 1173898 -3896 0
0 0 0 687 1174585 -3209 0
0 0 0 665 1175250 -2544 0
62 1 S112 654 1175904 -1890 0
62 1 S112 668 1176572 -1222 0
62 1 S112 692 1177264 -530 0
62 2 S112 686 1177950 156 0
62 2 S112 684 1178634 840 0
62 2 S112 693 1179327 1533 0
62 2 S112 705 1180032 2238 0
62 2 S112 743 1180775 2981 0
62 2 S112 737 1181512 3718 0
62 2 S112 698 1182210 4416 0
62 2 S112 706 1182916 5122 0
62 2 S112 702 1183618 5824 0
62 2 S112 697 1184315 6521 0
0 0 0 687 1185002 -11924 0
0 0 0 667 1185669 -11257 0
0 0 0 672 1186341 -10585 0
0 0 0 674 1187015 -9911 0
0 0 0 696 1187711 -9215 0
0 0 0 691 1188402 -8524 0
0 0 0 656 1189058 -7868 0
0 0 0 651 1189709 -7217 0
0 0 0 650 1190359 -6567 0
0 0 0 662 1191021 -5905 0
0 0 0 646 1191667 -5259 0
0 0 0 644 1192311 -4615 0
0 0 0 655 1192966 -3960 0
0 0 0 691 1193657 -3269 0
0 0 0 707 1194364 -2562 0
63 1 S102 716 1195080 -1846 0
63 1 S102 682 1195762 -1164 0
63 1 S102 689 1196451 -475 0
63 2 S102 705 1197156 230 0
63 2 S102 720 1197876 950 0
63 2 S102 731 1198607 1681 0
63 2 S102 713 1199320 2394 0
63 2 S102 701 1200021 3095 0
63 2 S102 706 1200727 3801 0
63 2 S102 715 1201442 4516 0
63 2 S102 713 1202155 5229 0
63 2 S102 704 1202859 5933 0
63 2 S102 693 1203552 6626 0
0 0 0 710 1204262 -8446 0
0 0 0 710 1204972 -7736 0
0 0 0 710 1205682 -7026 0
0 0 0 676 1206358 -6350 0
0 0 0 646 1207004 -5704 0
0 0 0 647 1207651 -5057 0
0 0 0 653 1208304 -4404 0
0 0 0 664 1208968 -3740 0
0 0 0 668 1209636 -3072 0
0 0 0 647 1210283 -2425 0
64 1 S112 660 1210943 -1765 0
64 1 S112 666 1211609 -1099 0
64 1 S112 669 1212278 -430 0
64 2 S112 660 1212938 230 0
64 2 S112 638 1213576 868 0
64 2 S112 648 1214224 1516 0
64 2 S112 650 1214874 2166 0
64 2 S112 663 1215537 2829 0
64 2 S112 665 1216202 3494 0
64 2 S112 649 1216851 4143 0
64 2 S112 651 1217502 4794 0
64 2 S112 663 1218165 5457 0
64 2 S112 658 1218823 6115 0
64 2 S112 665 1219488 6780 0
0 0 0 649 1220137 -8105 0
0 0 0 648 1220785 -7457 0
0 0 0 684 1221469 -6773 0
0 0 0 665 1222134 -6108 0
0 0 0 654 1222788 -5454 0
0 0 0 645 1223433 -4809 0
0 0 0 638 1224071 -4171 0
0 0 0 641 1224712 -3530 0
0 0 0 639 1225351 -2891 0
0 0 0 619 1225970 -2272 0
65 1 S106 616 1226586 -1656 0
65 1 S106 638 1227224 -1018 0
65 1 S106 696 1227920 -322 0
65 2 S106 708 1228628 386 0
65 2 S106 684 1229312 1070 0
65 2 S106 662 1229974 1732 0
65 2 S106 674 1230648 2406 0
65 2 S106 681 1231329 3087 0
65 2 S106 694 1232023 3781 0
65 2 S106 690 1232713 4471 0
65 2 S106 683 1233396 5154 0
65 2 S106 675 1234071 5829 0
65 2 S106 676 1234747 6505 0
0 0 0 690 1235437 -5969 0
0 0 0 695 1236132 -5274 0
0 0 0 708 1236840 -4566 0
0 0 0 685 1237525 -3881 0
0 0 0 660 1238185 -3221 0
0 0 0 657 1238842 -2564 0
66 1 S116 662 1239504 -1902 0
66 1 S116 688 1240192 -1214 0
66 1 S116 702 1240894 -512 0
66 2 S116 685 1241579 173 0
66 2 S116 690 1242269 863 0
66 2 S116 708 1242977 1571 0
66 2 S116 748 1243725 2319 0
66 2 S116 765 1244490 3084 0
66 2 S116 762 1245252 3846 0
66 2 S116 717 1245969 4563 0
66 2 S116 708 1246677 5271 0
66 2 S116 705 1247382 5976 0
66 2 S116 727 1248109 6703 0
0 0 0 729 1248838 -11036 0
0 0 0 747 1249585 -10289 0
0 0 0 719 1250304 -9570 0
0 0 0 724 1251028 -8846 0
0 0 0 698 1251726 -8148 0
0 0 0 685 1252411 -7463 0
0 0 0 652 1253063 -6811 0
0 0 0 624 1253687 -6187 0
0 0 0 627 1254314 -5560 0
0 0 0 628 1254942 -4932 0
0 0 0 677 1255619 -4255 0
0 0 0 721 1256340 -3534 0
0 0 0 677 1257017 -2857 0
0 0 0 661 1257678 -2196 0
67 1 S102 672 1258350 -1524 0
67 1 S102 681 1259031 -843 0
67 1 S102 685 1259716 -158 0
67 2 S102 676 1260392 518 0
67 2 S102 660 1261052 1178 0
67 2 S102 659 1261711 1837 0
67 2 S102 674 1262385 2511 0
67 2 S102 677 1263062 3188 0
67 2 S102 679 1263741 3867 0
67 2 S102 657 1264398 4524 0
67 2 S102 642 1265040 5166 0
67 2 S102 686 1265726 5852 0
67 2 S102 682 1266408 6534 0
0 0 0 699 1267107 -8185 0
0 0 0 699 1267806 -7486 0
0 0 0 668 1268474 -6818 0
0 0 0 706 1269180 -6112 0
0 0 0 695 1269875 -5417 0
0 0 0 700 1270575 -4717 0
0 0 0 658 1271233 -4059 0
0 0 0 649 1271882 -3410 0
0 0 0 680 1272562 -2730 0
0 0 0 692 1273254 -2038 0
68 1 S106 670 1273924 -1368 0
68 1 S106 647 1274571 -721 0
68 1 S106 628 1275199 -93 0
68 2 S106 620 1275819 527 0
68 2 S106 601 1276420 1128 0
68 2 S106 600 1277020 1728 0
68 2 S106 616 1277636 2344 0
68 2 S106 641 1278277 2985 0
68 2 S106 669 1278946 3654 0
68 2 S106 698 1279644 4352 0
68 2 S106 738 1280382 5090 0
68 2 S106 728 1281110 5818 0
68 2 S106 724 1281834 6542 0
0 0 0 733 1282567 -11144 0
0 0 0 785 1283352 -10359 0
0 0 0 842 1284194 -9517 1
0 0 0 766 1284960 -8751 0
0 0 0 721 1285681 -8030 0
0 0 0 673 1286354 -7357 0
0 0 0 659 1287013 -6698 0
0 0 0 635 1287648 -6063 0
0 0 0 621 1288269 -5442 0
0 0 0 640 1288909 -4802 0
0 0 0 623 1289532 -4179 0
0 0 0 624 1290156 -3555 0
0 0 0 648 1290804 -2907 0
0 0 0 659 1291463 -2248 0
69 1 S102 682 1292145 -1566 0
69 1 S102 681 1292826 -885 0
69 1 S102 712 1293538 -173 0
69 2 S102 707 1294245 534 0
69 2 S102 675 1294920 1209 0
69 2 S102 655 1295575 1864 0
69 2 S102 649 1296224 2513 0
69 2 S102 640 1296864 3153 0
69 2 S102 641 1297505 3794 0
69 2 S102 621 1298126 4415 0
69 2 S102 612 1298738 5027 0
69 2 S102 613 1299351 5640 0
69 2 S102 623 1299974 6263 0
69 2 S102 649 1300623 6912 0
0 0 0 682 1301305 -8155 0
0 0 0 679 1301984 -7476 0
0 0 0 698 1302682 -6778 0
0 0 0 686 1303368 -6092 0
0 0 0 675 1304043 -5417 0
0 0 0 656 1304699 -4761 0
0 0 0 637 1305336 -4124 0
0 0 0 678 1306014 -3446 0
0 0 0 669 1306683 -2777 0
0 0 0 690 1307373 -2087 0
70 1 S112 659 1308032 -1428 0
70 1 S112 694 1308726 -734 0
70 1 S112 688 1309414 -46 0
70 2 S112 686 1310100 640 0
70 2 S112 687 1310787 1327 0
70 2 S112 661 1311448 1988 0
70 2 S112 661 1312109 2649 0
70 2 S112 674 1312783 3323 0
70 2 S112 678 1313461 4001 0
70 2 S112 669 1314130 4670 0
70 2 S112 633 1314763 5303 0
70 2 S112 625 1315388 5928 0
70 2 S112 633 1316021 6561 0
0 0 0 654 1316675 -11370 0
0 0 0 682 1317357 -10688 0
0 0 0 662 1318019 -10026 0
0 0 0 654 1318673 -9372 0
0 0 0 706 1319379 -8666 0
0 0 0 664 1320043 -8002 0
0 0 0 656 1320699 -7346 0
0 0 0 635 1321334 -6711 0
0 0 0 650 1321984 -6061 0
0 0 0 655 1322639 -5406 0
0 0 0 664 1323303 -4742 0
0 0 0 646 1323949 -4096 0
0 0 0 646 1324595 -3450 0
0 0 0 657 1325252 -2793 0
0 0 0 647 1325899 -2146 0
71 1 S116 647 1326546 -1499 0
71 1 S116 635 1327181 -864 0
71 1 S116 621 1327802 -243 0
71 2 S116 615 1328417 372 0
71 2 S116 624 1329041 996 0
71 2 S116 657 1329698 1653 0
71 2 S116 793 1330491 2446 0
71 2 S116 746 1331237 3192 0
71 2 S116 1028 1332265 4220 1
71 2 S116 831 1333096 5051 1
71 2 S116 801 1333897 5852 0
71 2 S116 790 1334687 6642 0
0 0 0 733 1335420 -8755 0
0 0 0 716 1336136 -8039 0
0 0 0 680 1336816 -7359 0
0 0 0 657 1337473 -6702 0
0 0 0 632 1338105 -6070 0
0 0 0 612 1338717 -5458 0
0 0 0 591 1339308 -4867 0
0 0 0 579 1339887 -4288 0
0 0 0 570 1340457 -3718 0
0 0 0 569 1341026 -3149 0
0 0 0 579 1341605 -2570 0
72 1 S102 630 1342235 -1940 0
72 1 S102 667 1342902 -1273 0
72 1 S102 706 1343608 -567 0
72 2 S102 748 1344356 181 0
72 2 S102 889 1345245 1070 1
72 2 S102 803 1346048 1873 0
72 2 S102 740 1346788 2613 0
72 2 S102 730 1347518 3343 0
72 2 S102 727 1348245 4070 0
72 2 S102 734 1348979 4804 0
72 2 S102 703 1349682 5507 0
72 2 S102 695 1350377 6202 0
72 2 S102 656 1351033 6858 0
0 0 0 663 1351696 -6140 0
0 0 0 664 1352360 -5476 0
0 0 0 689 1353049 -4787 0
0 0 0 660 1353709 -4127 0
0 0 0 644 1354353 -3483 0
0 0 0 657 1355010 -2826 0
0 0 0 669 1355679 -2157 0
73 1 S116 681 1356360 -1476 0
73 1 S116 651 1357011 -825 0
73 1 S116 657 1357668 -168 0
73 2 S116 696 1358364 528 0
73 2 S116 714 1359078 1242 0
73 2 S116 725 1359803 1967 0
73 2 S116 702 1360505 2669 0
73 2 S116 717 1361222 3386 0
73 2 S116 725 1361947 4111 0
73 2 S116 715 1362662 4826 0
73 2 S116 715 1363377 5541 0
73 2 S116 691 1364068 6232 0
73 2 S116 675 1364743 6907 0
0 0 0 677 1365420 -8315 0
0 0 0 692 1366112 -7623 0
0 0 0 708 1366820 -6915 0
0 0 0 696 1367516 -6219 0
0 0 0 663 1368179 -5556 0
0 0 0 656 1368835 -4900 0
0 0 0 652 1369487 -4248 0
0 0 0 669 1370156 -3579 0
0 0 0 697 1370853 -2882 0
0 0 0 730 1371583 -2152 0
74 1 S106 709 1372292 -1443 0
74 1 S106 697 1372989 -746 0
74 1 S106 726 1373715 -20 0
74 2 S106 713 1374428 693 0
74 2 S106 722 1375150 1415 0
74 2 S106 720 1375870 2135 0
74 2 S106 699 1376569 2834 0
74 2 S106 682 1377251 3516 0
74 2 S106 687 1377938 4203 0
74 2 S106 694 1378632 4897 0
74 2 S106 715 1379347 5612 0
74 2 S106 697 1380044 6309 0
74 2 S106 697 1380741 7006 0
0 0 0 723 1381464 -6014 0
0 0 0 724 1382188 -5290 0
0 0 0 688 1382876 -4602 0
0 0 0 666 1383542 -3936 0
0 0 0 638 1384180 -3298 0
0 0 0 651 1384831 -2647 0
75 1 S112 662 1385493 -1985 0
75 1 S112 708 1386201 -1277 0
75 1 S112 708 1386909 -569 0
75 2 S112 697 1387606 128 0
75 2 S112 674 1388280 802 0
75 2 S112 713 1388993 1515 0
75 2 S112 732 1389725 2247 0
75 2 S112 749 1390474 2996 0
75 2 S112 731 1391205 3727 0
75 2 S112 757 1391962 4484 0
75 2 S112 786 1392748 5270 0
75 2 S112 884 1393632 6154 1
75 2 S112 787 1394419 6941 0
0 0 0 714 1395133 -5956 0
0 0 0 682 1395815 -5274 0
0 0 0 681 1396496 -4593 0
0 0 0 658 1397154 -3935 0
0 0 0 642 1397796 -3293 0
0 0 0 614 1398410 -2679 0
0 0 0 613 1399023 -2066 0
76 1 S116 615 1399638 -1451 0
76 1 S116 630 1400268 -821 0
76 1 S116 658 1400926 -163 0
76 2 S116 646 1401572 483 0
76 2 S116 696 1402268 1179 0
76 2 S116 763 1403031 1942 0
76 2 S116 758 1403789 2700 0
76 2 S116 743 1404532 3443 0
76 2 S116 705 1405237 4148 0
76 2 S116 705 1405942 4853 0
76 2 S116 722 1406664 5575 0
76 2 S116 708 1407372 6283 0
76 2 S116 704 1408076 6987 0
0 0 0 682 1408758 -5478 0
0 0 0 674 1409432 -4804 0
0 0 0 665 1410097 -4139 0
0 0 0 651 1410748 -3488 0
0 0 0 652 1411400 -2836 0
0 0 0 647 1412047 -2189 0
77 1 S106 650 1412697 -1539 0
77 1 S106 698 1413395 -841 0
77 1 S106 728 1414123 -113 0
77 2 S106 751 1414874 638 0
77 2 S106 726 1415600 1364 0
77 2 S106 703 1416303 2067 0
77 2 S106 706 1417009 2773 0
77 2 S106 730 1417739 3503 0
77 2 S106 740 1418479 4243 0
77 2 S106 716 1419195 4959 0
77 2 S106 681 1419876 5640 0
77 2 S106 673 1420549 6313 0
77 2 S106 675 1421224 6988 0
0 0 0 689 1421913 -7989 0
0 0 0 707 1422620 -7282 0
0 0 0 678 1423298 -6604 0
0 0 0 675 1423973 -5929 0
0 0 0 683 1424656 -5246 0
0 0 0 667 1425323 -4579 0
0 0 0 665 1425988 -3914 0
0 0 0 638 1426626 -3276 0
0 0 0 638 1427264 -2638 0
0 0 0 631 1427895 -2007 0
78 1 S112 658 1428553 -1349 0
78 1 S112 694 1429247 -655 0
78 2 S112 672 1429919 17 0
78 2 S112 653 1430572 670 0
78 2 S112 694 1431266 1364 0
78 2 S112 719 1431985 2083 0
78 2 S112 735 1432720 2818 0
78 2 S112 705 1433425 3523 0
78 2 S112 674 1434099 4197 0
78 2 S112 673 1434772 4870 0
78 2 S112 674 1435446 5544 0
78 2 S112 674 1436120 6218 0
78 2 S112 647 1436767 6865 0
0 0 0 637 1437404 -9872 0
0 0 0 649 1438053 -9223 0
0 0 0 657 1438710 -8566 0
0 0 0 654 1439364 -7912 0
0 0 0 633 1439997 -7279 0
0 0 0 629 1440626 -6650 0
0 0 0 658 1441284 -5992 0
0 0 0 660 1441944 -5332 0
0 0 0 680 1442624 -4652 0
0 0 0 661 1443285 -3991 0
0 0 0 663 1443948 -3328 0
0 0 0 671 1444619 -2657 0
79 1 S102 679 1445298 -1978 0
79 1 S102 681 1445979 -1297 0
79 1 S102 653 1446632 -644 0
79 2 S102 650 1447282 6 0
79 2 S102 648 1447930 654 0
79 2 S102 656 1448586 1310 0
79 2 S102 663 1449249 1973 0
79 2 S102 650 1449899 2623 0
79 2 S102 631 1450530 3254 0
79 2 S102 647 1451177 3901 0
79 2 S102 660 1451837 4561 0
79 2 S102 662 1452499 5223 0
79 2 S102 717 1453216 5940 0
79 2 S102 708 1453924 6648 0
0 0 0 676 1454600 -9122 0
0 0 0 656 1455256 -8466 0
0 0 0 658 1455914 -7808 0
0 0 0 665 1456579 -7143 0
0 0 0 665 1457244 -6478 0
0 0 0 635 1457879 -5843 0
0 0 0 612 1458491 -5231 0
0 0 0 607 1459098 -4624 0
0 0 0 596 1459694 -4028 0
0 0 0 589 1460283 -3439 0
0 0 0 590 1460873 -2849 0
0 0 0 588 1461461 -2261 0
80 1 S116 576 1462037 -1685 0
80 1 S116 580 1462617 -1105 0
80 1 S116 578 1463195 -527 0
80 2 S116 596 1463791 69 0
80 2 S116 612 1464403 681 0
80 2 S116 639 1465042 1320 0
80 2 S116 654 1465696 1974 0
80 2 S116 627 1466323 2601 0
80 2 S116 634 1466957 3235 0
80 2 S116 611 1467568 3846 0
80 2 S116 609 1468177 4455 0
80 2 S116 608 1468785 5063 0
80 2 S116 611 1469396 5674 0
80 2 S116 618 1470014 6292 0
80 2 S116 626 1470640 6918 0
