T_0032
BeatCount Mean SD BeatCountNoOutliers MeanNoOutliers SDNoOutliers
1960 788,439285714286 52,7577354500867 1924 791,54158004158 48,1079708059702

Trial TrialStatus Trialtype IBI AbsPosition RelPosition Outlier
0 0 0 873 909 -17170 0
0 0 0 865 1774 -16305 0
0 0 0 842 2616 -15463 0
0 0 0 812 3428 -14651 0
0 0 0 803 4231 -13848 0
0 0 0 778 5009 -13070 0
0 0 0 781 5790 -12289 0
0 0 0 786 6576 -11503 0
0 0 0 784 7360 -10719 0
0 0 0 766 8126 -9953 0
0 0 0 736 8862 -9217 0
0 0 0 758 9620 -8459 0
0 0 0 779 10399 -7680 0
0 0 0 822 11221 -6858 0
0 0 0 840 12061 -6018 0
0 0 0 845 12906 -5173 0
0 0 0 809 13715 -4364 0
0 0 0 769 14484 -3595 0
0 0 0 757 15241 -2838 0
0 0 0 748 15989 -2090 0
1 1 S112 754 16743 -1336 0
1 1 S112 758 17501 -578 0
1 2 S112 797 18298 219 0
1 2 S112 813 19111 1032 0
1 2 S112 785 19896 1817 0
1 2 S112 793 20689 2610 0
1 2 S112 817 21506 3427 0
1 2 S112 853 22359 4280 0
1 2 S112 860 23219 5140 0
1 2 S112 839 24058 5979 0
1 2 S112 842 24900 6821 0
0 0 0 839 25739 -10709 0
0 0 0 814 26553 -9895 0
0 0 0 784 27337 -9111 0
0 0 0 778 28115 -8333 0
0 0 0 790 28905 -7543 0
0 0 0 786 29691 -6757 0
0 0 0 778 30469 -5979 0
0 0 0 753 31222 -5226 0
0 0 0 769 31991 -4457 0
0 0 0 790 32781 -3667 0
0 0 0 809 33590 -2858 0
0 0 0 828 34418 -2030 0
2 1 S102 800 35218 -1230 0
2 1 S102 778 35996 -452 0
2 2 S102 786 36782 334 0
2 2 S102 799 37581 1133 0
2 2 S102 834 38415 1967 0
2 2 S102 854 39269 2821 0
2 2 S102 844 40113 3665 0
2 2 S102 841 40954 4506 0
2 2 S102 870 41824 5376 0
2 2 S102 866 42690 6242 0
0 0 0 862 43552 -9226 0
0 0 0 843 44395 -8383 0
0 0 0 829 45224 -7554 0
0 0 0 822 46046 -6732 0
0 0 0 802 46848 -5930 0
0 0 0 787 47635 -5143 0
0 0 0 763 48398 -4380 0
0 0 0 782 49180 -3598 0
0 0 0 789 49969 -2809 0
3 1 S116 829 50798 -1980 0
3 1 S116 859 51657 -1121 0
3 1 S116 865 52522 -256 0
3 2 S116 843 53365 587 0
3 2 S116 824 54189 1411 0
3 2 S116 808 54997 2219 0
3 2 S116 792 55789 3011 0
3 2 S116 813 56602 3824 0
3 2 S116 826 57428 4650 0
3 2 S116 821 58249 5471 0
3 2 S116 825 59074 6296 0
0 0 0 836 59910 -11518 0
0 0 0 863 60773 -10655 0
0 0 0 841 61614 -9814 0
0 0 0 817 62431 -8997 0
0 0 0 810 63241 -8187 0
0 0 0 785 64026 -7402 0
0 0 0 780 64806 -6622 0
0 0 0 750 65556 -5872 0
0 0 0 744 66300 -5128 0
0 0 0 759 67059 -4369 0
0 0 0 799 67858 -3570 0
0 0 0 841 68699 -2729 0
4 1 S106 837 69536 -1892 0
4 1 S106 821 70357 -1071 0
4 1 S106 829 71186 -242 0
4 2 S106 843 72029 601 0
4 2 S106 856 72885 1457 0
4 2 S106 852 73737 2309 0
4 2 S106 831 74568 3140 0
4 2 S106 822 75390 3962 0
4 2 S106 826 76216 4788 0
4 2 S106 823 77039 5611 0
4 2 S106 843 77882 6454 0
0 0 0 823 78705 -7163 0
0 0 0 827 79532 -6336 0
0 0 0 846 80378 -5490 0
0 0 0 849 81227 -4641 0
0 0 0 831 82058 -3810 0
0 0 0 805 82863 -3005 0
0 0 0 783 83646 -2222 0
5 1 S116 789 84435 -1433 0
5 1 S116 807 85242 -626 0
5 2 S116 837 86079 211 0
5 2 S116 879 86958 1090 0
5 2 S116 839 87797 1929 0
5 2 S116 827 88624 2756 0
5 2 S116 840 89464 3596 0
5 2 S116 842 90306 4438 0
5 2 S116 852 91158 5290 0
5 2 S116 835 91993 6125 0
5 2 S116 819 92812 6944 0
0 0 0 826 93638 -9355 0
0 0 0 825 94463 -8530 0
0 0 0 817 95280 -7713 0
0 0 0 795 96075 -6918 0
0 0 0 784 96859 -6134 0
0 0 0 788 97647 -5346 0
0 0 0 803 98450 -4543 0
0 0 0 810 99260 -3733 0
0 0 0 790 100050 -2943 0
0 0 0 817 100867 -2126 0
6 1 S106 837 101704 -1289 0
6 1 S106 871 102575 -418 0
6 2 S106 871 103446 453 0
6 2 S106 853 104299 1306 0
6 2 S106 829 105128 2135 0
6 2 S106 826 105954 2961 0
6 2 S106 826 106780 3787 0
6 2 S106 830 107610 4617 0
6 2 S106 812 108422 5429 0
6 2 S106 787 109209 6216 0
6 2 S106 802 110011 7018 0
0 0 0 816 110827 -9789 0
0 0 0 861 111688 -8928 0
0 0 0 868 112556 -8060 0
0 0 0 839 113395 -7221 0
0 0 0 794 114189 -6427 0
0 0 0 817 115006 -5610 0
0 0 0 810 115816 -4800 0
0 0 0 820 116636 -3980 0
0 0 0 814 117450 -3166 0
0 0 0 816 118266 -2350 0
7 1 S102 811 119077 -1539 0
7 1 S102 777 119854 -762 0
7 2 S102 784 120638 22 0
7 2 S102 806 121444 828 0
7 2 S102 821 122265 1649 0
7 2 S102 843 123108 2492 0
7 2 S102 835 123943 3327 0
7 2 S102 822 124765 4149 0
7 2 S102 832 125597 4981 0
7 2 S102 832 126429 5813 0
7 2 S102 839 127268 6652 0
0 0 0 844 128112 -8022 0
0 0 0 837 128949 -7185 0
0 0 0 807 129756 -6378 0
0 0 0 801 130557 -5577 0
0 0 0 789 131346 -4788 0
0 0 0 798 132144 -3990 0
0 0 0 799 132943 -3191 0
0 0 0 802 133745 -2389 0
8 1 S112 800 134545 -1589 0
8 1 S112 773 135318 -816 0
8 1 S112 764 136082 -52 0
8 2 S112 780 136862 728 0
8 2 S112 814 137676 1542 0
8 2 S112 845 138521 2387 0
8 2 S112 838 139359 3225 0
8 2 S112 826 140185 4051 0
8 2 S112 840 141025 4891 0
8 2 S112 834 141859 5725 0
8 2 S112 826 142685 6551 0
0 0 0 817 143502 -8016 0
0 0 0 786 144288 -7230 0
0 0 0 785 145073 -6445 0
0 0 0 774 145847 -5671 0
0 0 0 802 146649 -4869 0
0 0 0 757 147406 -4112 0
0 0 0 749 148155 -3363 0
0 0 0 754 148909 -2609 0
9 1 S116 782 149691 -1827 0
9 1 S116 812 150503 -1015 0
9 1 S116 842 151345 -173 0
9 2 S116 845 152190 672 0
9 2 S116 805 152995 1477 0
9 2 S116 774 153769 2251 0
9 2 S116 781 154550 3032 0
9 2 S116 799 155349 3831 0
9 2 S116 813 156162 4644 0
9 2 S116 817 156979 5461 0
9 2 S116 825 157804 6286 0
0 0 0 785 158589 -13072 0
0 0 0 810 159399 -12262 0
0 0 0 799 160198 -11463 0
0 0 0 827 161025 -10636 0
0 0 0 791 161816 -9845 0
0 0 0 810 162626 -9035 0
0 0 0 801 163427 -8234 0
0 0 0 821 164248 -7413 0
0 0 0 811 165059 -6602 0
0 0 0 779 165838 -5823 0
0 0 0 773 166611 -5050 0
0 0 0 784 167395 -4266 0
0 0 0 799 168194 -3467 0
0 0 0 824 169018 -2643 0
10 1 S102 804 169822 -1839 0
10 1 S102 779 170601 -1060 0
10 1 S102 773 171374 -287 0
10 2 S102 776 172150 489 0
10 2 S102 797 172947 1286 0
10 2 S102 820 173767 2106 0
10 2 S102 826 174593 2932 0
10 2 S102 810 175403 3742 0
10 2 S102 839 176242 4581 0
10 2 S102 850 177092 5431 0
10 2 S102 860 177952 6291 0
0 0 0 829 178781 -11829 0
0 0 0 795 179576 -11034 0
0 0 0 812 180388 -10222 0
0 0 0 808 181196 -9414 0
0 0 0 817 182013 -8597 0
0 0 0 778 182791 -7819 0
0 0 0 758 183549 -7061 0
0 0 0 769 184318 -6292 0
0 0 0 781 185099 -5511 0
0 0 0 824 185923 -4687 0
0 0 0 834 186757 -3853 0
0 0 0 849 187606 -3004 0
0 0 0 808 188414 -2196 0
11 1 S112 825 189239 -1371 0
11 1 S112 805 190044 -566 0
11 2 S112 814 190858 248 0
11 2 S112 805 191663 1053 0
11 2 S112 801 192464 1854 0
11 2 S112 784 193248 2638 0
11 2 S112 793 194041 3431 0
11 2 S112 805 194846 4236 0
11 2 S112 826 195672 5062 0
11 2 S112 834 196506 5896 0
11 2 S112 831 197337 6727 0
0 0 0 828 198165 -8079 0
0 0 0 842 199007 -7237 0
0 0 0 839 199846 -6398 0
0 0 0 839 200685 -5559 0
0 0 0 805 201490 -4754 0
0 0 0 786 202276 -3968 0
0 0 0 778 203054 -3190 0
0 0 0 793 203847 -2397 0
12 1 S116 799 204646 -1598 0
12 1 S116 796 205442 -802 0
12 1 S116 789 206231 -13 0
12 2 S116 803 207034 790 0
12 2 S116 825 207859 1615 0
12 2 S116 845 208704 2460 0
12 2 S116 849 209553 3309 0
12 2 S116 835 210388 4144 0
12 2 S116 824 211212 4968 0
12 2 S116 800 212012 5768 0
12 2 S116 805 212817 6573 0
0 0 0 804 213621 -12599 0
0 0 0 811 214432 -11788 0
0 0 0 785 215217 -11003 0
0 0 0 776 215993 -10227 0
0 0 0 799 216792 -9428 0
0 0 0 809 217601 -8619 0
0 0 0 791 218392 -7828 0
0 0 0 760 219152 -7068 0
0 0 0 765 219917 -6303 0
0 0 0 766 220683 -5537 0
0 0 0 774 221457 -4763 0
0 0 0 794 222251 -3969 0
0 0 0 791 223042 -3178 0
0 0 0 762 223804 -2416 0
13 1 S112 780 224584 -1636 0
13 1 S112 766 225350 -870 0
13 1 S112 782 226132 -88 0
13 2 S112 809 226941 721 0
13 2 S112 817 227758 1538 0
13 2 S112 789 228547 2327 0
13 2 S112 802 229349 3129 0
13 2 S112 813 230162 3942 0
13 2 S112 826 230988 4768 0
13 2 S112 846 231834 5614 0
13 2 S112 826 232660 6440 0
0 0 0 795 233455 -12477 0
0 0 0 778 234233 -11699 0
0 0 0 783 235016 -10916 0
0 0 0 820 235836 -10096 0
0 0 0 847 236683 -9249 0
0 0 0 814 237497 -8435 0
0 0 0 805 238302 -7630 0
0 0 0 815 239117 -6815 0
0 0 0 831 239948 -5984 0
0 0 0 816 240764 -5168 0
0 0 0 798 241562 -4370 0
0 0 0 757 242319 -3613 0
0 0 0 775 243094 -2838 0
0 0 0 785 243879 -2053 0
14 1 S106 811 244690 -1242 0
14 1 S106 883 245573 -359 0
14 2 S106 897 246470 538 0
14 2 S106 879 247349 1417 0
14 2 S106 866 248215 2283 0
14 2 S106 858 249073 3141 0
14 2 S106 835 249908 3976 0
14 2 S106 824 250732 4800 0
14 2 S106 819 251551 5619 0
14 2 S106 808 252359 6427 0
0 0 0 813 253172 -12074 0
0 0 0 823 253995 -11251 0
0 0 0 842 254837 -10409 0
0 0 0 843 255680 -9566 0
0 0 0 837 256517 -8729 0
0 0 0 848 257365 -7881 0
0 0 0 832 258197 -7049 0
0 0 0 810 259007 -6239 0
0 0 0 781 259788 -5458 0
0 0 0 761 260549 -4697 0
0 0 0 771 261320 -3926 0
0 0 0 756 262076 -3170 0
0 0 0 738 262814 -2432 0
15 1 S116 701 263515 -1731 0
15 1 S116 710 264225 -1021 0
15 1 S116 731 264956 -290 0
15 2 S116 719 265675 429 0
15 2 S116 735 266410 1164 0
15 2 S116 760 267170 1924 0
15 2 S116 820 267990 2744 0
15 2 S116 860 268850 3604 0
15 2 S116 873 269723 4477 0
15 2 S116 852 270575 5329 0
15 2 S116 837 271412 6166 0
15 2 S116 822 272234 6988 0
0 0 0 803 273037 -10213 0
0 0 0 775 273812 -9438 0
0 0 0 742 274554 -8696 0
0 0 0 756 275310 -7940 0
0 0 0 788 276098 -7152 0
0 0 0 814 276912 -6338 0
0 0 0 811 277723 -5527 0
0 0 0 797 278520 -4730 0
0 0 0 810 279330 -3920 0
0 0 0 824 280154 -3096 0
0 0 0 837 280991 -2259 0
16 1 S116 843 281834 -1416 0
16 1 S116 819 282653 -597 0
16 2 S116 801 283454 204 0
16 2 S116 772 284226 976 0
16 2 S116 763 284989 1739 0
16 2 S116 761 285750 2500 0
16 2 S116 777 286527 3277 0
16 2 S116 808 287335 4085 0
16 2 S116 806 288141 4891 0
16 2 S116 786 288927 5677 0
16 2 S116 805 289732 6482 0
0 0 0 826 290558 -9685 0
0 0 0 858 291416 -8827 0
0 0 0 854 292270 -7973 0
0 0 0 825 293095 -7148 0
0 0 0 817 293912 -6331 0
0 0 0 792 294704 -5539 0
0 0 0 781 295485 -4758 0
0 0 0 793 296278 -3965 0
0 0 0 762 297040 -3203 0
0 0 0 773 297813 -2430 0
17 1 S106 801 298614 -1629 0
17 1 S106 846 299460 -783 0
17 2 S106 872 300332 89 0
17 2 S106 875 301207 964 0
17 2 S106 837 302044 1801 0
17 2 S106 840 302884 2641 0
17 2 S106 831 303715 3472 0
17 2 S106 838 304553 4310 0
17 2 S106 813 305366 5123 0
17 2 S106 787 306153 5910 0
17 2 S106 799 306952 6709 0
0 0 0 797 307749 -11642 0
0 0 0 832 308581 -10810 0
0 0 0 829 309410 -9981 0
0 0 0 833 310243 -9148 0
0 0 0 830 311073 -8318 0
0 0 0 810 311883 -7508 0
0 0 0 810 312693 -6698 0
0 0 0 788 313481 -5910 0
0 0 0 755 314236 -5155 0
0 0 0 770 315006 -4385 0
0 0 0 775 315781 -3610 0
0 0 0 807 316588 -2803 0
18 1 S102 812 317400 -1991 0
18 1 S102 813 318213 -1178 0
18 1 S102 802 319015 -376 0
18 2 S102 809 319824 433 0
18 2 S102 826 320650 1259 0
18 2 S102 817 321467 2076 0
18 2 S102 815 322282 2891 0
18 2 S102 789 323071 3680 0
18 2 S102 788 323859 4468 0
18 2 S102 800 324659 5268 0
18 2 S102 801 325460 6069 0
18 2 S102 829 326289 6898 0
0 0 0 837 327126 -7981 0
0 0 0 803 327929 -7178 0
0 0 0 818 328747 -6360 0
0 0 0 850 329597 -5510 0
0 0 0 854 330451 -4656 0
0 0 0 810 331261 -3846 0
0 0 0 771 332032 -3075 0
0 0 0 769 332801 -2306 0
19 1 S106 778 333579 -1528 0
19 1 S106 806 334385 -722 0
19 2 S106 866 335251 144 0
19 2 S106 873 336124 1017 0
19 2 S106 840 336964 1857 0
19 2 S106 812 337776 2669 0
19 2 S106 808 338584 3477 0
19 2 S106 799 339383 4276 0
19 2 S106 828 340211 5104 0
19 2 S106 844 341055 5948 0
19 2 S106 825 341880 6773 0
0 0 0 805 342685 -10211 0
0 0 0 834 343519 -9377 0
0 0 0 813 344332 -8564 0
0 0 0 804 345136 -7760 0
0 0 0 805 345941 -6955 0
0 0 0 772 346713 -6183 0
0 0 0 779 347492 -5404 0
0 0 0 796 348288 -4608 0
0 0 0 828 349116 -3780 0
0 0 0 862 349978 -2918 0
0 0 0 875 350853 -2043 0
20 1 S112 850 351703 -1193 0
20 1 S112 838 352541 -355 0
20 2 S112 832 353373 477 0
20 2 S112 843 354216 1320 0
20 2 S112 825 355041 2145 0
20 2 S112 811 355852 2956 0
20 2 S112 791 356643 3747 0
20 2 S112 785 357428 4532 0
20 2 S112 788 358216 5320 0
20 2 S112 788 359004 6108 0
20 2 S112 805 359809 6913 0
0 0 0 812 360621 -9732 0
0 0 0 822 361443 -8910 0
0 0 0 821 362264 -8089 0
0 0 0 815 363079 -7274 0
0 0 0 809 363888 -6465 0
0 0 0 822 364710 -5643 0
0 0 0 802 365512 -4841 0
0 0 0 791 366303 -4050 0
0 0 0 766 367069 -3284 0
0 0 0 744 367813 -2540 0
21 1 S106 735 368548 -1805 0
21 1 S106 737 369285 -1068 0
21 1 S106 790 370075 -278 0
21 2 S106 822 370897 544 0
21 2 S106 865 371762 1409 0
21 2 S106 844 372606 2253 0
21 2 S106 838 373444 3091 0
21 2 S106 855 374299 3946 0
21 2 S106 856 375155 4802 0
21 2 S106 866 376021 5668 0
21 2 S106 846 376867 6514 0
0 0 0 820 377687 -11864 0
0 0 0 830 378517 -11034 0
0 0 0 835 379352 -10199 0
0 0 0 812 380164 -9387 0
0 0 0 803 380967 -8584 0
0 0 0 794 381761 -7790 0
0 0 0 790 382551 -7000 0
0 0 0 794 383345 -6206 0
0 0 0 785 384130 -5421 0
0 0 0 786 384916 -4635 0
0 0 0 797 385713 -3838 0
0 0 0 802 386515 -3036 0
0 0 0 820 387335 -2216 0
22 1 S116 831 388166 -1385 0
22 1 S116 816 388982 -569 0
22 2 S116 793 389775 224 0
22 2 S116 795 390570 1019 0
22 2 S116 808 391378 1827 0
22 2 S116 834 392212 2661 0
22 2 S116 857 393069 3518 0
22 2 S116 844 393913 4362 0
22 2 S116 885 394798 5247 0
22 2 S116 880 395678 6127 0
22 2 S116 852 396530 6979 0
0 0 0 819 397349 -9327 0
0 0 0 764 398113 -8563 0
0 0 0 736 398849 -7827 0
0 0 0 757 399606 -7070 0
0 0 0 771 400377 -6299 0
0 0 0 785 401162 -5514 0
0 0 0 767 401929 -4747 0
0 0 0 762 402691 -3985 0
0 0 0 765 403456 -3220 0
0 0 0 771 404227 -2449 0
23 1 S112 727 404954 -1722 0
23 1 S112 742 405696 -980 0
23 1 S112 756 406452 -224 0
23 2 S112 740 407192 516 0
23 2 S112 727 407919 1243 0
23 2 S112 698 408617 1941 0
23 2 S112 662 409279 2603 0
23 2 S112 653 409932 3256 0
23 2 S112 647 410579 3903 1
23 2 S112 657 411236 4560 0
23 2 S112 685 411921 5245 0
23 2 S112 738 412659 5983 0
23 2 S112 795 413454 6778 0
0 0 0 783 414237 -9880 0
0 0 0 746 414983 -9134 0
0 0 0 764 415747 -8370 0
0 0 0 760 416507 -7610 0
0 0 0 781 417288 -6829 0
0 0 0 769 418057 -6060 0
0 0 0 751 418808 -5309 0
0 0 0 726 419534 -4583 0
0 0 0 699 420233 -3884 0
0 0 0 705 420938 -3179 0
0 0 0 744 421682 -2435 0
24 1 S106 775 422457 -1660 0
24 1 S106 788 423245 -872 0
24 1 S106 773 424018 -99 0
24 2 S106 725 424743 626 0
24 2 S106 704 425447 1330 0
24 2 S106 711 426158 2041 0
24 2 S106 720 426878 2761 0
24 2 S106 732 427610 3493 0
24 2 S106 737 428347 4230 0
24 2 S106 747 429094 4977 0
24 2 S106 741 429835 5718 0
24 2 S106 731 430566 6449 0
0 0 0 707 431273 -9024 0
0 0 0 698 431971 -8326 0
0 0 0 697 432668 -7629 0
0 0 0 725 433393 -6904 0
0 0 0 752 434145 -6152 0
0 0 0 783 434928 -5369 0
0 0 0 807 435735 -4562 0
0 0 0 787 436522 -3775 0
0 0 0 764 437286 -3011 0
0 0 0 737 438023 -2274 0
25 1 S102 728 438751 -1546 0
25 1 S102 741 439492 -805 0
25 1 S102 746 440238 -59 0
25 2 S102 744 440982 685 0
25 2 S102 763 441745 1448 0
25 2 S102 739 442484 2187 0
25 2 S102 735 443219 2922 0
25 2 S102 746 443965 3668 0
25 2 S102 773 444738 4441 0
25 2 S102 783 445521 5224 0
25 2 S102 791 446312 6015 0
25 2 S102 785 447097 6800 0
0 0 0 750 447847 -5696 0
0 0 0 717 448564 -4979 0
0 0 0 698 449262 -4281 0
0 0 0 687 449949 -3594 0
0 0 0 699 450648 -2895 0
0 0 0 712 451360 -2183 0
26 1 S116 720 452080 -1463 0
26 1 S116 702 452782 -761 0
26 1 S116 692 453474 -69 0
26 2 S116 704 454178 635 0
26 2 S116 747 454925 1382 0
26 2 S116 794 455719 2176 0
26 2 S116 785 456504 2961 0
26 2 S116 726 457230 3687 0
26 2 S116 736 457966 4423 0
26 2 S116 742 458708 5165 0
26 2 S116 704 459412 5869 0
26 2 S116 681 460093 6550 0
0 0 0 679 460772 -7675 0
0 0 0 709 461481 -6966 0
0 0 0 770 462251 -6196 0
0 0 0 809 463060 -5387 0
0 0 0 778 463838 -4609 0
0 0 0 760 464598 -3849 0
0 0 0 764 465362 -3085 0
0 0 0 784 466146 -2301 0
27 1 S106 775 466921 -1526 0
27 1 S106 807 467728 -719 0
27 2 S106 779 468507 60 0
27 2 S106 757 469264 817 0
27 2 S106 774 470038 1591 0
27 2 S106 764 470802 2355 0
27 2 S106 772 471574 3127 0
27 2 S106 745 472319 3872 0
27 2 S106 735 473054 4607 0
27 2 S106 731 473785 5338 0
27 2 S106 748 474533 6086 0
27 2 S106 776 475309 6862 0
0 0 0 825 476134 -7184 0
0 0 0 863 476997 -6321 0
0 0 0 835 477832 -5486 0
0 0 0 793 478625 -4693 0
0 0 0 787 479412 -3906 0
0 0 0 794 480206 -3112 0
0 0 0 798 481004 -2314 0
28 1 S102 785 481789 -1529 0
28 1 S102 754 482543 -775 0
28 1 S102 736 483279 -39 0
28 2 S102 707 483986 668 0
28 2 S102 712 484698 1380 0
28 2 S102 736 485434 2116 0
28 2 S102 768 486202 2884 0
28 2 S102 823 487025 3707 0
28 2 S102 818 487843 4525 0
28 2 S102 800 488643 5325 0
28 2 S102 829 489472 6154 0
28 2 S102 849 490321 7003 0
0 0 0 856 491177 -10493 0
0 0 0 811 491988 -9682 0
0 0 0 819 492807 -8863 0
0 0 0 783 493590 -8080 0
0 0 0 756 494346 -7324 0
0 0 0 740 495086 -6584 0
0 0 0 723 495809 -5861 0
0 0 0 745 496554 -5116 0
0 0 0 789 497343 -4327 0
0 0 0 850 498193 -3477 0
0 0 0 843 499036 -2634 0
29 1 S112 817 499853 -1817 0
29 1 S112 834 500687 -983 0
29 1 S112 832 501519 -151 0
29 2 S112 801 502320 650 0
29 2 S112 800 503120 1450 0
29 2 S112 780 503900 2230 0
29 2 S112 753 504653 2983 0
29 2 S112 802 505455 3785 0
29 2 S112 831 506286 4616 0
29 2 S112 850 507136 5466 0
29 2 S112 818 507954 6284 0
0 0 0 811 508765 -7080 0
0 0 0 829 509594 -6251 0
0 0 0 826 510420 -5425 0
0 0 0 797 511217 -4628 0
0 0 0 754 511971 -3874 0
0 0 0 739 512710 -3135 0
0 0 0 728 513438 -2407 0
30 1 S112 749 514187 -1658 0
30 1 S112 745 514932 -913 0
30 1 S112 760 515692 -153 0
30 2 S112 813 516505 660 0
30 2 S112 828 517333 1488 0
30 2 S112 845 518178 2333 0
30 2 S112 836 519014 3169 0
30 2 S112 799 519813 3968 0
30 2 S112 800 520613 4768 0
30 2 S112 821 521434 5589 0
30 2 S112 834 522268 6423 0
0 0 0 828 523096 -9940 0
0 0 0 804 523900 -9136 0
0 0 0 795 524695 -8341 0
0 0 0 808 525503 -7533 0
0 0 0 837 526340 -6696 0
0 0 0 814 527154 -5882 0
0 0 0 798 527952 -5084 0
0 0 0 848 528800 -4236 0
0 0 0 865 529665 -3371 0
0 0 0 884 530549 -2487 0
31 1 S106 850 531399 -1637 0
31 1 S106 804 532203 -833 0
31 1 S106 815 533018 -18 0
31 2 S106 819 533837 801 0
31 2 S106 822 534659 1623 0
31 2 S106 822 535481 2445 0
31 2 S106 793 536274 3238 0
31 2 S106 782 537056 4020 0
31 2 S106 790 537846 4810 0
31 2 S106 799 538645 5609 0
31 2 S106 843 539488 6452 0
0 0 0 866 540354 -11002 0
0 0 0 860 541214 -10142 0
0 0 0 824 542038 -9318 0
0 0 0 798 542836 -8520 0
0 0 0 830 543666 -7690 0
0 0 0 851 544517 -6839 0
0 0 0 833 545350 -6006 0
0 0 0 804 546154 -5202 0
0 0 0 759 546913 -4443 0
0 0 0 748 547661 -3695 0
0 0 0 735 548396 -2960 0
0 0 0 740 549136 -2220 0
32 1 S102 782 549918 -1438 0
32 1 S102 846 550764 -592 0
32 2 S102 844 551608 252 0
32 2 S102 863 552471 1115 0
32 2 S102 881 553352 1996 0
32 2 S102 871 554223 2867 0
32 2 S102 855 555078 3722 0
32 2 S102 815 555893 4537 0
32 2 S102 780 556673 5317 0
32 2 S102 787 557460 6104 0
32 2 S102 798 558258 6902 0
0 0 0 807 559065 -9930 0
0 0 0 836 559901 -9094 0
0 0 0 792 560693 -8302 0
0 0 0 763 561456 -7539 0
0 0 0 751 562207 -6788 0
0 0 0 759 562966 -6029 0
0 0 0 797 563763 -5232 0
0 0 0 816 564579 -4416 0
0 0 0 801 565380 -3615 0
0 0 0 780 566160 -2835 0
0 0 0 805 566965 -2030 0
33 1 S112 808 567773 -1222 0
33 1 S112 802 568575 -420 0
33 2 S112 791 569366 371 0
33 2 S112 795 570161 1166 0
33 2 S112 765 570926 1931 0
33 2 S112 758 571684 2689 0
33 2 S112 769 572453 3458 0
33 2 S112 792 573245 4250 0
33 2 S112 807 574052 5057 0
33 2 S112 808 574860 5865 0
33 2 S112 816 575676 6681 0
0 0 0 806 576482 -12755 0
0 0 0 763 577245 -11992 0
0 0 0 763 578008 -11229 0
0 0 0 742 578750 -10487 0
0 0 0 732 579482 -9755 0
0 0 0 764 580246 -8991 0
0 0 0 785 581031 -8206 0
0 0 0 775 581806 -7431 0
0 0 0 763 582569 -6668 0
0 0 0 730 583299 -5938 0
0 0 0 749 584048 -5189 0
0 0 0 780 584828 -4409 0
0 0 0 792 585620 -3617 0
0 0 0 808 586428 -2809 0
0 0 0 780 587208 -2029 0
34 1 S106 798 588006 -1231 0
34 1 S106 823 588829 -408 0
34 2 S106 828 589657 420 0
34 2 S106 834 590491 1254 0
34 2 S106 812 591303 2066 0
34 2 S106 787 592090 2853 0
34 2 S106 799 592889 3652 0
34 2 S106 795 593684 4447 0
34 2 S106 793 594477 5240 0
34 2 S106 793 595270 6033 0
34 2 S106 760 596030 6793 0
0 0 0 739 596769 -9793 0
0 0 0 768 597537 -9025 0
0 0 0 798 598335 -8227 0
0 0 0 852 599187 -7375 0
0 0 0 822 600009 -6553 0
0 0 0 823 600832 -5730 0
0 0 0 814 601646 -4916 0
0 0 0 774 602420 -4142 0
0 0 0 746 603166 -3396 0
0 0 0 745 603911 -2651 0
35 1 S102 728 604639 -1923 0
35 1 S102 700 605339 -1223 0
35 1 S102 719 606058 -504 0
35 2 S102 755 606813 251 0
35 2 S102 843 607656 1094 0
35 2 S102 863 608519 1957 0
35 2 S102 858 609377 2815 0
35 2 S102 829 610206 3644 0
35 2 S102 839 611045 4483 0
35 2 S102 837 611882 5320 0
35 2 S102 838 612720 6158 0
35 2 S102 813 613533 6971 0
0 0 0 774 614307 -7739 0
0 0 0 762 615069 -6977 0
0 0 0 762 615831 -6215 0
0 0 0 827 616658 -5388 0
0 0 0 908 617566 -4480 0
0 0 0 873 618439 -3607 0
0 0 0 847 619286 -2760 0
36 1 S106 828 620114 -1932 0
36 1 S106 851 620965 -1081 0
36 1 S106 882 621847 -199 0
36 2 S106 875 622722 676 0
36 2 S106 884 623606 1560 0
36 2 S106 852 624458 2412 0
36 2 S106 816 625274 3228 0
36 2 S106 817 626091 4045 0
36 2 S106 822 626913 4867 0
36 2 S106 835 627748 5702 0
36 2 S106 832 628580 6534 0
0 0 0 825 629405 -9949 0
0 0 0 795 630200 -9154 0
0 0 0 810 631010 -8344 0
0 0 0 815 631825 -7529 0
0 0 0 835 632660 -6694 0
0 0 0 820 633480 -5874 0
0 0 0 804 634284 -5070 0
0 0 0 772 635056 -4298 0
0 0 0 777 635833 -3521 0
0 0 0 799 636632 -2722 0
37 1 S116 842 637474 -1880 0
37 1 S116 862 638336 -1018 0
37 1 S116 849 639185 -169 0
37 2 S116 843 640028 674 0
37 2 S116 863 640891 1537 0
37 2 S116 863 641754 2400 0
37 2 S116 878 642632 3278 0
37 2 S116 847 643479 4125 0
37 2 S116 814 644293 4939 0
37 2 S116 819 645112 5758 0
37 2 S116 806 645918 6564 0
0 0 0 804 646722 -13238 0
0 0 0 809 647531 -12429 0
0 0 0 785 648316 -11644 0
0 0 0 818 649134 -10826 0
0 0 0 842 649976 -9984 0
0 0 0 861 650837 -9123 0
0 0 0 846 651683 -8277 0
0 0 0 846 652529 -7431 0
0 0 0 845 653374 -6586 0
0 0 0 837 654211 -5749 0
0 0 0 831 655042 -4918 0
0 0 0 794 655836 -4124 0
0 0 0 796 656632 -3328 0
0 0 0 788 657420 -2540 0
38 1 S102 820 658240 -1720 0
38 1 S102 848 659088 -872 0
38 1 S102 835 659923 -37 0
38 2 S102 845 660768 808 0
38 2 S102 867 661635 1675 0
38 2 S102 873 662508 2548 0
38 2 S102 864 663372 3412 0
38 2 S102 840 664212 4252 0
38 2 S102 808 665020 5060 0
38 2 S102 825 665845 5885 0
38 2 S102 830 666675 6715 0
0 0 0 836 667511 -8182 0
0 0 0 804 668315 -7378 0
0 0 0 806 669121 -6572 0
0 0 0 789 669910 -5783 0
0 0 0 769 670679 -5014 0
0 0 0 765 671444 -4249 0
0 0 0 747 672191 -3502 0
0 0 0 763 672954 -2739 0
39 1 S116 781 673735 -1958 0
39 1 S116 822 674557 -1136 0
39 1 S116 842 675399 -294 0
39 2 S116 828 676227 534 0
39 2 S116 847 677074 1381 0
39 2 S116 857 677931 2238 0
39 2 S116 848 678779 3086 0
39 2 S116 852 679631 3938 0
39 2 S116 819 680450 4757 0
39 2 S116 807 681257 5564 0
39 2 S116 803 682060 6367 0
0 0 0 795 682855 -8240 0
0 0 0 823 683678 -7417 0
0 0 0 788 684466 -6629 0
0 0 0 813 685279 -5816 0
0 0 0 848 686127 -4968 0
0 0 0 841 686968 -4127 0
0 0 0 815 687783 -3312 0
0 0 0 786 688569 -2526 0
40 1 S112 813 689382 -1713 0
40 1 S112 853 690235 -860 0
40 1 S112 849 691084 -11 0
40 2 S112 843 691927 832 0
40 2 S112 804 692731 1636 0
40 2 S112 819 693550 2455 0
40 2 S112 807 694357 3262 0
40 2 S112 825 695182 4087 0
40 2 S112 859 696041 4946 0
40 2 S112 830 696871 5776 0
40 2 S112 840 697711 6616 0
0 0 0 865 698576 -187364 0
0 0 0 896 699472 -186468 0
0 0 0 866 700338 -185602 0
0 0 0 875 701213 -184727 0
0 0 0 869 702082 -183858 0
0 0 0 848 702930 -183010 0
0 0 0 798 703728 -182212 0
0 0 0 728 704456 -181484 0
0 0 0 753 705209 -180731 0
0 0 0 797 706006 -179934 0
0 0 0 841 706847 -179093 0
0 0 0 827 707674 -178266 0
0 0 0 786 708460 -177480 0
0 0 0 712 709172 -176768 0
0 0 0 694 709866 -176074 0
0 0 0 720 710586 -175354 0
0 0 0 709 711295 -174645 0
0 0 0 736 712031 -173909 0
0 0 0 759 712790 -173150 0
0 0 0 732 713522 -172418 0
0 0 0 702 714224 -171716 0
0 0 0 767 714991 -170949 0
0 0 0 607 715598 -170342 1
0 0 0 672 716270 -169670 0
0 0 0 648 716918 -169022 1
0 0 0 662 717580 -168360 0
0 0 0 666 718246 -167694 0
0 0 0 670 718916 -167024 0
0 0 0 663 719579 -166361 0
0 0 0 658 720237 -165703 0
0 0 0 651 720888 -165052 1
0 0 0 648 721536 -164404 1
0 0 0 661 722197 -163743 0
0 0 0 662 722859 -163081 0
0 0 0 675 723534 -162406 0
0 0 0 670 724204 -161736 0
0 0 0 646 724850 -161090 1
0 0 0 639 725489 -160451 1
0 0 0 624 726113 -159827 1
0 0 0 615 726728 -159212 1
0 0 0 609 727337 -158603 1
0 0 0 598 727935 -158005 1
0 0 0 608 728543 -157397 1
0 0 0 607 729150 -156790 1
0 0 0 609 729759 -156181 1
0 0 0 670 730429 -155511 0
0 0 0 699 731128 -154812 0
0 0 0 713 731841 -154099 0
0 0 0 745 732586 -153354 0
0 0 0 752 733338 -152602 0
0 0 0 805 734143 -151797 0
0 0 0 882 735025 -150915 0
0 0 0 840 735865 -150075 0
0 0 0 785 736650 -149290 0
0 0 0 751 737401 -148539 0
0 0 0 728 738129 -147811 0
0 0 0 701 738830 -147110 0
0 0 0 653 739483 -146457 0
0 0 0 625 740108 -145832 1
0 0 0 611 740719 -145221 1
0 0 0 607 741326 -144614 1
0 0 0 627 741953 -143987 1
0 0 0 712 742665 -143275 0
0 0 0 672 743337 -142603 0
0 0 0 684 744021 -141919 0
0 0 0 843 744864 -141076 0
0 0 0 886 745750 -140190 0
0 0 0 888 746638 -139302 0
0 0 0 830 747468 -138472 0
0 0 0 812 748280 -137660 0
0 0 0 784 749064 -136876 0
0 0 0 741 749805 -136135 0
0 0 0 776 750581 -135359 0
0 0 0 759 751340 -134600 0
0 0 0 770 752110 -133830 0
0 0 0 743 752853 -133087 0
0 0 0 688 753541 -132399 0
0 0 0 665 754206 -131734 0
0 0 0 653 754859 -131081 0
0 0 0 651 755510 -130430 1
0 0 0 704 756214 -129726 0
0 0 0 761 756975 -128965 0
0 0 0 832 757807 -128133 0
0 0 0 784 758591 -127349 0
0 0 0 718 759309 -126631 0
0 0 0 712 760021 -125919 0
0 0 0 677 760698 -125242 0
0 0 0 680 761378 -124562 0
0 0 0 676 762054 -123886 0
0 0 0 689 762743 -123197 0
0 0 0 757 763500 -122440 0
0 0 0 822 764322 -121618 0
0 0 0 820 765142 -120798 0
0 0 0 804 765946 -119994 0
0 0 0 779 766725 -119215 0
0 0 0 792 767517 -118423 0
0 0 0 760 768277 -117663 0
0 0 0 726 769003 -116937 0
0 0 0 695 769698 -116242 0
0 0 0 667 770365 -115575 0
0 0 0 648 771013 -114927 1
0 0 0 635 771648 -114292 1
0 0 0 629 772277 -113663 1
0 0 0 653 772930 -113010 0
0 0 0 727 773657 -112283 0
0 0 0 782 774439 -111501 0
0 0 0 861 775300 -110640 0
0 0 0 878 776178 -109762 0
0 0 0 868 777046 -108894 0
0 0 0 834 777880 -108060 0
0 0 0 797 778677 -107263 0
0 0 0 735 779412 -106528 0
0 0 0 741 780153 -105787 0
0 0 0 721 780874 -105066 0
0 0 0 753 781627 -104313 0
0 0 0 778 782405 -103535 0
0 0 0 798 783203 -102737 0
0 0 0 800 784003 -101937 0
0 0 0 777 784780 -101160 0
0 0 0 802 785582 -100358 0
0 0 0 794 786376 -99564 0
0 0 0 790 787166 -98774 0
0 0 0 788 787954 -97986 0
0 0 0 770 788724 -97216 0
0 0 0 731 789455 -96485 0
0 0 0 721 790176 -95764 0
0 0 0 683 790859 -95081 0
0 0 0 654 791513 -94427 0
0 0 0 618 792131 -93809 1
0 0 0 610 792741 -93199 1
0 0 0 601 793342 -92598 1
0 0 0 599 793941 -91999 1
0 0 0 602 794543 -91397 1
0 0 0 597 795140 -90800 1
0 0 0 601 795741 -90199 1
0 0 0 603 796344 -89596 1
0 0 0 605 796949 -88991 1
0 0 0 710 797659 -88281 0
0 0 0 743 798402 -87538 0
0 0 0 742 799144 -86796 0
0 0 0 733 799877 -86063 0
0 0 0 725 800602 -85338 0
0 0 0 692 801294 -84646 0
0 0 0 666 801960 -83980 0
0 0 0 666 802626 -83314 0
0 0 0 688 803314 -82626 0
0 0 0 686 804000 -81940 0
0 0 0 695 804695 -81245 0
0 0 0 684 805379 -80561 0
0 0 0 651 806030 -79910 1
0 0 0 655 806685 -79255 0
0 0 0 677 807362 -78578 0
0 0 0 694 808056 -77884 0
0 0 0 732 808788 -77152 0
0 0 0 745 809533 -76407 0
0 0 0 775 810308 -75632 0
0 0 0 748 811056 -74884 0
0 0 0 717 811773 -74167 0
0 0 0 691 812464 -73476 0
0 0 0 689 813153 -72787 0
0 0 0 683 813836 -72104 0
0 0 0 726 814562 -71378 0
0 0 0 770 815332 -70608 0
0 0 0 778 816110 -69830 0
0 0 0 762 816872 -69068 0
0 0 0 803 817675 -68265 0
0 0 0 820 818495 -67445 0
0 0 0 814 819309 -66631 0
0 0 0 801 820110 -65830 0
0 0 0 783 820893 -65047 0
0 0 0 755 821648 -64292 0
0 0 0 738 822386 -63554 0
0 0 0 722 823108 -62832 0
0 0 0 711 823819 -62121 0
0 0 0 708 824527 -61413 0
0 0 0 735 825262 -60678 0
0 0 0 715 825977 -59963 0
0 0 0 729 826706 -59234 0
0 0 0 776 827482 -58458 0
0 0 0 836 828318 -57622 0
0 0 0 878 829196 -56744 0
0 0 0 858 830054 -55886 0
0 0 0 833 830887 -55053 0
0 0 0 867 831754 -54186 0
0 0 0 853 832607 -53333 0
0 0 0 849 833456 -52484 0
0 0 0 811 834267 -51673 0
0 0 0 791 835058 -50882 0
0 0 0 783 835841 -50099 0
0 0 0 779 836620 -49320 0
0 0 0 798 837418 -48522 0
0 0 0 820 838238 -47702 0
0 0 0 831 839069 -46871 0
0 0 0 837 839906 -46034 0
0 0 0 844 840750 -45190 0
0 0 0 831 841581 -44359 0
0 0 0 821 842402 -43538 0
0 0 0 814 843216 -42724 0
0 0 0 798 844014 -41926 0
0 0 0 795 844809 -41131 0
0 0 0 773 845582 -40358 0
0 0 0 772 846354 -39586 0
0 0 0 786 847140 -38800 0
0 0 0 803 847943 -37997 0
0 0 0 806 848749 -37191 0
0 0 0 788 849537 -36403 0
0 0 0 787 850324 -35616 0
0 0 0 790 851114 -34826 0
0 0 0 800 851914 -34026 0
0 0 0 790 852704 -33236 0
0 0 0 798 853502 -32438 0
0 0 0 776 854278 -31662 0
0 0 0 761 855039 -30901 0
0 0 0 750 855789 -30151 0
0 0 0 712 856501 -29439 0
0 0 0 703 857204 -28736 0
0 0 0 722 857926 -28014 0
0 0 0 714 858640 -27300 0
0 0 0 716 859356 -26584 0
0 0 0 716 860072 -25868 0
0 0 0 680 860752 -25188 0
0 0 0 691 861443 -24497 0
0 0 0 693 862136 -23804 0
0 0 0 681 862817 -23123 0
0 0 0 690 863507 -22433 0
0 0 0 690 864197 -21743 0
0 0 0 674 864871 -21069 0
0 0 0 705 865576 -20364 0
0 0 0 697 866273 -19667 0
0 0 0 717 866990 -18950 0
0 0 0 765 867755 -18185 0
0 0 0 762 868517 -17423 0
0 0 0 718 869235 -16705 0
0 0 0 696 869931 -16009 0
0 0 0 700 870631 -15309 0
0 0 0 707 871338 -14602 0
0 0 0 721 872059 -13881 0
0 0 0 750 872809 -13131 0
0 0 0 722 873531 -12409 0
0 0 0 723 874254 -11686 0
0 0 0 722 874976 -10964 0
0 0 0 686 875662 -10278 0
0 0 0 705 876367 -9573 0
0 0 0 708 877075 -8865 0
0 0 0 703 877778 -8162 0
0 0 0 708 878486 -7454 0
0 0 0 723 879209 -6731 0
0 0 0 725 879934 -6006 0
0 0 0 719 880653 -5287 0
0 0 0 704 881357 -4583 0
0 0 0 726 882083 -3857 0
0 0 0 718 882801 -3139 0
0 0 0 743 883544 -2396 0
41 1 S102 778 884322 -1618 0
41 1 S102 782 885104 -836 0
41 1 S102 814 885918 -22 0
41 2 S102 828 886746 806 0
41 2 S102 826 887572 1632 0
41 2 S102 814 888386 2446 0
41 2 S102 802 889188 3248 0
41 2 S102 785 889973 4033 0
41 2 S102 769 890742 4802 0
41 2 S102 757 891499 5559 0
41 2 S102 756 892255 6315 0
0 0 0 756 893011 -7767 0
0 0 0 736 893747 -7031 0
0 0 0 747 894494 -6284 0
0 0 0 761 895255 -5523 0
0 0 0 786 896041 -4737 0
0 0 0 798 896839 -3939 0
0 0 0 806 897645 -3133 0
0 0 0 803 898448 -2330 0
42 1 S112 778 899226 -1552 0
42 1 S112 755 899981 -797 0
42 1 S112 749 900730 -48 0
42 2 S112 756 901486 708 0
42 2 S112 777 902263 1485 0
42 2 S112 810 903073 2295 0
42 2 S112 826 903899 3121 0
42 2 S112 843 904742 3964 0
42 2 S112 836 905578 4800 0
42 2 S112 829 906407 5629 0
42 2 S112 826 907233 6455 0
0 0 0 814 908047 -10006 0
0 0 0 812 908859 -9194 0
0 0 0 789 909648 -8405 0
0 0 0 763 910411 -7642 0
0 0 0 756 911167 -6886 0
0 0 0 749 911916 -6137 0
0 0 0 724 912640 -5413 0
0 0 0 730 913370 -4683 0
0 0 0 739 914109 -3944 0
0 0 0 782 914891 -3162 0
0 0 0 828 915719 -2334 0
43 1 S116 833 916552 -1501 0
43 1 S116 826 917378 -675 0
43 2 S116 811 918189 136 0
43 2 S116 815 919004 951 0
43 2 S116 814 919818 1765 0
43 2 S116 798 920616 2563 0
43 2 S116 797 921413 3360 0
43 2 S116 782 922195 4142 0
43 2 S116 773 922968 4915 0
43 2 S116 755 923723 5670 0
43 2 S116 742 924465 6412 0
0 0 0 752 925217 -8287 0
0 0 0 759 925976 -7528 0
0 0 0 761 926737 -6767 0
0 0 0 762 927499 -6005 0
0 0 0 748 928247 -5257 0
0 0 0 745 928992 -4512 0
0 0 0 730 929722 -3782 0
0 0 0 744 930466 -3038 0
0 0 0 758 931224 -2280 0
44 1 S102 748 931972 -1532 0
44 1 S102 732 932704 -800 0
44 1 S102 721 933425 -79 0
44 2 S102 714 934139 635 0
44 2 S102 738 934877 1373 0
44 2 S102 780 935657 2153 0
44 2 S102 818 936475 2971 0
44 2 S102 832 937307 3803 0
44 2 S102 822 938129 4625 0
44 2 S102 800 938929 5425 0
44 2 S102 775 939704 6200 0
44 2 S102 759 940463 6959 0
0 0 0 764 941227 -9568 0
0 0 0 770 941997 -8798 0
0 0 0 798 942795 -8000 0
0 0 0 813 943608 -7187 0
0 0 0 776 944384 -6411 0
0 0 0 756 945140 -5655 0
0 0 0 767 945907 -4888 0
0 0 0 764 946671 -4124 0
0 0 0 772 947443 -3352 0
0 0 0 763 948206 -2589 0
45 1 S116 762 948968 -1827 0
45 1 S116 747 949715 -1080 0
45 1 S116 740 950455 -340 0
45 2 S116 783 951238 443 0
45 2 S116 802 952040 1245 0
45 2 S116 819 952859 2064 0
45 2 S116 821 953680 2885 0
45 2 S116 820 954500 3705 0
45 2 S116 792 955292 4497 0
45 2 S116 780 956072 5277 0
45 2 S116 782 956854 6059 0
45 2 S116 759 957613 6818 0
0 0 0 765 958378 -11581 0
0 0 0 755 959133 -10826 0
0 0 0 740 959873 -10086 0
0 0 0 734 960607 -9352 0
0 0 0 759 961366 -8593 0
0 0 0 743 962109 -7850 0
0 0 0 749 962858 -7101 0
0 0 0 748 963606 -6353 0
0 0 0 733 964339 -5620 0
0 0 0 730 965069 -4890 0
0 0 0 748 965817 -4142 0
0 0 0 775 966592 -3367 0
0 0 0 788 967380 -2579 0
46 1 S102 797 968177 -1782 0
46 1 S102 789 968966 -993 0
46 1 S102 750 969716 -243 0
46 2 S102 731 970447 488 0
46 2 S102 741 971188 1229 0
46 2 S102 724 971912 1953 0
46 2 S102 743 972655 2696 0
46 2 S102 768 973423 3464 0
46 2 S102 766 974189 4230 0
46 2 S102 757 974946 4987 0
46 2 S102 749 975695 5736 0
46 2 S102 770 976465 6506 0
0 0 0 764 977229 -9226 0
0 0 0 766 977995 -8460 0
0 0 0 749 978744 -7711 0
0 0 0 753 979497 -6958 0
0 0 0 730 980227 -6228 0
0 0 0 736 980963 -5492 0
0 0 0 750 981713 -4742 0
0 0 0 762 982475 -3980 0
0 0 0 779 983254 -3201 0
0 0 0 789 984043 -2412 0
47 1 S112 786 984829 -1626 0
47 1 S112 773 985602 -853 0
47 1 S112 779 986381 -74 0
47 2 S112 797 987178 723 0
47 2 S112 805 987983 1528 0
47 2 S112 782 988765 2310 0
47 2 S112 758 989523 3068 0
47 2 S112 715 990238 3783 0
47 2 S112 718 990956 4501 0
47 2 S112 691 991647 5192 0
47 2 S112 677 992324 5869 0
47 2 S112 646 992970 6515 1
0 0 0 661 993631 -10712 0
0 0 0 658 994289 -10054 0
0 0 0 675 994964 -9379 0
0 0 0 666 995630 -8713 0
0 0 0 699 996329 -8014 0
0 0 0 711 997040 -7303 0
0 0 0 712 997752 -6591 0
0 0 0 689 998441 -5902 0
0 0 0 707 999148 -5195 0
0 0 0 710 999858 -4485 0
0 0 0 699 1000557 -3786 0
0 0 0 689 1001246 -3097 0
0 0 0 716 1001962 -2381 0
48 1 S116 742 1002704 -1639 0
48 1 S116 765 1003469 -874 0
48 1 S116 797 1004266 -77 0
48 2 S116 787 1005053 710 0
48 2 S116 768 1005821 1478 0
48 2 S116 774 1006595 2252 0
48 2 S116 774 1007369 3026 0
48 2 S116 779 1008148 3805 0
48 2 S116 775 1008923 4580 0
48 2 S116 782 1009705 5362 0
48 2 S116 757 1010462 6119 0
48 2 S116 751 1011213 6870 0
0 0 0 781 1011994 -8314 0
0 0 0 796 1012790 -7518 0
0 0 0 806 1013596 -6712 0
0 0 0 797 1014393 -5915 0
0 0 0 819 1015212 -5096 0
0 0 0 819 1016031 -4277 0
0 0 0 773 1016804 -3504 0
0 0 0 716 1017520 -2788 0
0 0 0 697 1018217 -2091 0
49 1 S112 669 1018886 -1422 0
49 1 S112 665 1019551 -757 0
49 1 S112 694 1020245 -63 0
49 2 S112 778 1021023 715 0
49 2 S112 830 1021853 1545 0
49 2 S112 871 1022724 2416 0
49 2 S112 865 1023589 3281 0
49 2 S112 853 1024442 4134 0
49 2 S112 867 1025309 5001 0
49 2 S112 874 1026183 5875 0
49 2 S112 864 1027047 6739 0
0 0 0 836 1027883 -11822 0
0 0 0 836 1028719 -10986 0
0 0 0 791 1029510 -10195 0
0 0 0 771 1030281 -9424 0
0 0 0 769 1031050 -8655 0
0 0 0 739 1031789 -7916 0
0 0 0 744 1032533 -7172 0
0 0 0 770 1033303 -6402 0
0 0 0 821 1034124 -5581 0
0 0 0 857 1034981 -4724 0
0 0 0 854 1035835 -3870 0
0 0 0 831 1036666 -3039 0
0 0 0 842 1037508 -2197 0
50 1 S106 861 1038369 -1336 0
50 1 S106 848 1039217 -488 0
50 2 S106 820 1040037 332 0
50 2 S106 806 1040843 1138 0
50 2 S106 821 1041664 1959 0
50 2 S106 826 1042490 2785 0
50 2 S106 828 1043318 3613 0
50 2 S106 813 1044131 4426 0
50 2 S106 788 1044919 5214 0
50 2 S106 782 1045701 5996 0
50 2 S106 788 1046489 6784 0
0 0 0 807 1047296 -6185 0
0 0 0 820 1048116 -5365 0
0 0 0 828 1048944 -4537 0
0 0 0 783 1049727 -3754 0
0 0 0 779 1050506 -2975 0
0 0 0 816 1051322 -2159 0
51 1 S112 842 1052164 -1317 0
51 1 S112 870 1053034 -447 0
51 2 S112 851 1053885 404 0
51 2 S112 826 1054711 1230 0
51 2 S112 810 1055521 2040 0
51 2 S112 824 1056345 2864 0
51 2 S112 815 1057160 3679 0
51 2 S112 819 1057979 4498 0
51 2 S112 778 1058757 5276 0
51 2 S112 772 1059529 6048 0
51 2 S112 781 1060310 6829 0
0 0 0 761 1061071 -5623 0
0 0 0 765 1061836 -4858 0
0 0 0 751 1062587 -4107 0
0 0 0 729 1063316 -3378 0
0 0 0 744 1064060 -2634 0
52 1 S116 808 1064868 -1826 0
52 1 S116 846 1065714 -980 0
52 1 S116 875 1066589 -105 0
52 2 S116 874 1067463 769 0
52 2 S116 835 1068298 1604 0
52 2 S116 837 1069135 2441 0
52 2 S116 830 1069965 3271 0
52 2 S116 804 1070769 4075 0
52 2 S116 761 1071530 4836 0
52 2 S116 751 1072281 5587 0
52 2 S116 772 1073053 6359 0
0 0 0 796 1073849 -10236 0
0 0 0 825 1074674 -9411 0
0 0 0 789 1075463 -8622 0
0 0 0 780 1076243 -7842 0
0 0 0 787 1077030 -7055 0
0 0 0 777 1077807 -6278 0
0 0 0 735 1078542 -5543 0
0 0 0 717 1079259 -4826 0
0 0 0 703 1079962 -4123 0
0 0 0 666 1080628 -3457 0
0 0 0 675 1081303 -2782 0
0 0 0 718 1082021 -2064 0
53 1 S106 752 1082773 -1312 0
53 1 S106 742 1083515 -570 0
53 2 S106 792 1084307 222 0
53 2 S106 853 1085160 1075 0
53 2 S106 873 1086033 1948 0
53 2 S106 883 1086916 2831 0
53 2 S106 858 1087774 3689 0
53 2 S106 832 1088606 4521 0
53 2 S106 809 1089415 5330 0
53 2 S106 779 1090194 6109 0
53 2 S106 763 1090957 6872 0
0 0 0 764 1091721 -6157 0
0 0 0 818 1092539 -5339 0
0 0 0 852 1093391 -4487 0
0 0 0 874 1094265 -3613 0
0 0 0 857 1095122 -2756 0
54 1 S102 831 1095953 -1925 0
54 1 S102 860 1096813 -1065 0
54 1 S102 849 1097662 -216 0
54 2 S102 850 1098512 634 0
54 2 S102 816 1099328 1450 0
54 2 S102 785 1100113 2235 0
54 2 S102 799 1100912 3034 0
54 2 S102 806 1101718 3840 0
54 2 S102 831 1102549 4671 0
54 2 S102 845 1103394 5516 0
54 2 S102 838 1104232 6354 0
0 0 0 824 1105056 -12136 0
0 0 0 846 1105902 -11290 0
0 0 0 828 1106730 -10462 0
0 0 0 814 1107544 -9648 0
0 0 0 819 1108363 -8829 0
0 0 0 841 1109204 -7988 0
0 0 0 823 1110027 -7165 0
0 0 0 818 1110845 -6347 0
0 0 0 773 1111618 -5574 0
0 0 0 766 1112384 -4808 0
0 0 0 787 1113171 -4021 0
0 0 0 834 1114005 -3187 0
0 0 0 866 1114871 -2321 0
55 1 S106 851 1115722 -1470 0
55 1 S106 859 1116581 -611 0
55 2 S106 845 1117426 234 0
55 2 S106 827 1118253 1061 0
55 2 S106 782 1119035 1843 0
55 2 S106 790 1119825 2633 0
55 2 S106 795 1120620 3428 0
55 2 S106 792 1121412 4220 0
55 2 S106 778 1122190 4998 0
55 2 S106 809 1122999 5807 0
55 2 S106 814 1123813 6621 0
0 0 0 840 1124653 -8272 0
0 0 0 812 1125465 -7460 0
0 0 0 818 1126283 -6642 0
0 0 0 806 1127089 -5836 0
0 0 0 791 1127880 -5045 0
0 0 0 787 1128667 -4258 0
0 0 0 765 1129432 -3493 0
0 0 0 764 1130196 -2729 0
56 1 S116 739 1130935 -1990 0
56 1 S116 725 1131660 -1265 0
56 1 S116 763 1132423 -502 0
56 2 S116 804 1133227 302 0
56 2 S116 856 1134083 1158 0
56 2 S116 852 1134935 2010 0
56 2 S116 787 1135722 2797 0
56 2 S116 803 1136525 3600 0
56 2 S116 776 1137301 4376 0
56 2 S116 762 1138063 5138 0
56 2 S116 741 1138804 5879 0
56 2 S116 752 1139556 6631 0
0 0 0 774 1140330 -7897 0
0 0 0 839 1141169 -7058 0
0 0 0 878 1142047 -6180 0
0 0 0 865 1142912 -5315 0
0 0 0 879 1143791 -4436 0
0 0 0 838 1144629 -3598 0
0 0 0 808 1145437 -2790 0
0 0 0 773 1146210 -2017 0
57 1 S106 742 1146952 -1275 0
57 1 S106 747 1147699 -528 0
57 2 S106 756 1148455 228 0
57 2 S106 809 1149264 1037 0
57 2 S106 850 1150114 1887 0
57 2 S106 836 1150950 2723 0
57 2 S106 851 1151801 3574 0
57 2 S106 859 1152660 4433 0
57 2 S106 868 1153528 5301 0
57 2 S106 844 1154372 6145 0
57 2 S106 791 1155163 6936 0
0 0 0 760 1155923 -8136 0
0 0 0 751 1156674 -7385 0
0 0 0 762 1157436 -6623 0
0 0 0 772 1158208 -5851 0
0 0 0 782 1158990 -5069 0
0 0 0 754 1159744 -4315 0
0 0 0 773 1160517 -3542 0
0 0 0 796 1161313 -2746 0
58 1 S102 796 1162109 -1950 0
58 1 S102 788 1162897 -1162 0
58 1 S102 805 1163702 -357 0
58 2 S102 824 1164526 467 0
58 2 S102 831 1165357 1298 0
58 2 S102 791 1166148 2089 0
58 2 S102 782 1166930 2871 0
58 2 S102 783 1167713 3654 0
58 2 S102 773 1168486 4427 0
58 2 S102 759 1169245 5186 0
58 2 S102 736 1169981 5922 0
58 2 S102 730 1170711 6652 0
0 0 0 774 1171485 -7528 0
0 0 0 811 1172296 -6717 0
0 0 0 847 1173143 -5870 0
0 0 0 802 1173945 -5068 0
0 0 0 829 1174774 -4239 0
0 0 0 816 1175590 -3423 0
0 0 0 799 1176389 -2624 0
59 1 S112 752 1177141 -1872 0
59 1 S112 743 1177884 -1129 0
59 1 S112 741 1178625 -388 0
59 2 S112 781 1179406 393 0
59 2 S112 826 1180232 1219 0
59 2 S112 840 1181072 2059 0
59 2 S112 833 1181905 2892 0
59 2 S112 813 1182718 3705 0
59 2 S112 811 1183529 4516 0
59 2 S112 854 1184383 5370 0
59 2 S112 886 1185269 6256 0
0 0 0 875 1186144 -9779 0
0 0 0 838 1186982 -8941 0
0 0 0 779 1187761 -8162 0
0 0 0 737 1188498 -7425 0
0 0 0 733 1189231 -6692 0
0 0 0 749 1189980 -5943 0
0 0 0 786 1190766 -5157 0
0 0 0 812 1191578 -4345 0
0 0 0 807 1192385 -3538 0
0 0 0 808 1193193 -2730 0
60 1 S102 830 1194023 -1900 0
60 1 S102 857 1194880 -1043 0
60 1 S102 835 1195715 -208 0
60 2 S102 816 1196531 608 0
60 2 S102 818 1197349 1426 0
60 2 S102 801 1198150 2227 0
60 2 S102 777 1198927 3004 0
60 2 S102 768 1199695 3772 0
60 2 S102 730 1200425 4502 0
60 2 S102 712 1201137 5214 0
60 2 S102 711 1201848 5925 0
60 2 S102 751 1202599 6676 0
0 0 0 796 1203395 -12405 0
0 0 0 848 1204243 -11557 0
0 0 0 877 1205120 -10680 0
0 0 0 861 1205981 -9819 0
0 0 0 898 1206879 -8921 0
0 0 0 872 1207751 -8049 0
0 0 0 861 1208612 -7188 0
0 0 0 821 1209433 -6367 0
0 0 0 764 1210197 -5603 0
0 0 0 756 1210953 -4847 0
0 0 0 739 1211692 -4108 0
0 0 0 747 1212439 -3361 0
0 0 0 812 1213251 -2549 0
61 1 S106 828 1214079 -1721 0
61 1 S106 824 1214903 -897 0
61 1 S106 888 1215791 -9 0
61 2 S106 908 1216699 899 0
61 2 S106 862 1217561 1761 0
61 2 S106 869 1218430 2630 0
61 2 S106 889 1219319 3519 0
61 2 S106 897 1220216 4416 0
61 2 S106 889 1221105 5305 0
61 2 S106 838 1221943 6143 0
61 2 S106 840 1222783 6983 0
0 0 0 837 1223620 -8443 0
0 0 0 827 1224447 -7616 0
0 0 0 796 1225243 -6820 0
0 0 0 832 1226075 -5988 0
0 0 0 829 1226904 -5159 0
0 0 0 838 1227742 -4321 0
0 0 0 794 1228536 -3527 0
0 0 0 761 1229297 -2766 0
62 1 S112 780 1230077 -1986 0
62 1 S112 766 1230843 -1220 0
62 1 S112 762 1231605 -458 0
62 2 S112 777 1232382 319 0
62 2 S112 802 1233184 1121 0
62 2 S112 767 1233951 1888 0
62 2 S112 772 1234723 2660 0
62 2 S112 812 1235535 3472 0
62 2 S112 813 1236348 4285 0
62 2 S112 823 1237171 5108 0
62 2 S112 773 1237944 5881 0
62 2 S112 776 1238720 6657 0
0 0 0 766 1239486 -10930 0
0 0 0 743 1240229 -10187 0
0 0 0 765 1240994 -9422 0
0 0 0 783 1241777 -8639 0
0 0 0 777 1242554 -7862 0
0 0 0 739 1243293 -7123 0
0 0 0 737 1244030 -6386 0
0 0 0 756 1244786 -5630 0
0 0 0 783 1245569 -4847 0
0 0 0 816 1246385 -4031 0
0 0 0 768 1247153 -3263 0
0 0 0 777 1247930 -2486 0
63 1 S102 778 1248708 -1708 0
63 1 S102 794 1249502 -914 0
63 1 S102 806 1250308 -108 0
63 2 S102 787 1251095 679 0
63 2 S102 816 1251911 1495 0
63 2 S102 823 1252734 2318 0
63 2 S102 833 1253567 3151 0
63 2 S102 832 1254399 3983 0
63 2 S102 806 1255205 4789 0
63 2 S102 819 1256024 5608 0
63 2 S102 817 1256841 6425 0
0 0 0 806 1257647 -8734 0
0 0 0 810 1258457 -7924 0
0 0 0 787 1259244 -7137 0
0 0 0 803 1260047 -6334 0
0 0 0 794 1260841 -5540 0
0 0 0 804 1261645 -4736 0
0 0 0 792 1262437 -3944 0
0 0 0 756 1263193 -3188 0
0 0 0 760 1263953 -2428 0
64 1 S112 784 1264737 -1644 0
64 1 S112 824 1265561 -820 0
64 2 S112 844 1266405 24 0
64 2 S112 847 1267252 871 0
64 2 S112 808 1268060 1679 0
64 2 S112 821 1268881 2500 0
64 2 S112 829 1269710 3329 0
64 2 S112 822 1270532 4151 0
64 2 S112 822 1271354 4973 0
64 2 S112 784 1272138 5757 0
64 2 S112 775 1272913 6532 0
0 0 0 780 1273693 -6713 0
0 0 0 776 1274469 -5937 0
0 0 0 822 1275291 -5115 0
0 0 0 817 1276108 -4298 0
0 0 0 786 1276894 -3512 0
0 0 0 792 1277686 -2720 0
65 1 S106 788 1278474 -1932 0
65 1 S106 804 1279278 -1128 0
65 1 S106 798 1280076 -330 0
65 2 S106 790 1280866 460 0
65 2 S106 829 1281695 1289 0
65 2 S106 830 1282525 2119 0
65 2 S106 842 1283367 2961 0
65 2 S106 826 1284193 3787 0
65 2 S106 797 1284990 4584 0
65 2 S106 801 1285791 5385 0
65 2 S106 791 1286582 6176 0
65 2 S106 787 1287369 6963 0
0 0 0 802 1288171 -5365 0
0 0 0 781 1288952 -4584 0
0 0 0 757 1289709 -3827 0
0 0 0 756 1290465 -3071 0
0 0 0 770 1291235 -2301 0
66 1 S116 757 1291992 -1544 0
66 1 S116 772 1292764 -772 0
66 1 S116 770 1293534 -2 0
66 2 S116 825 1294359 823 0
66 2 S116 825 1295184 1648 0
66 2 S116 783 1295967 2431 0
66 2 S116 769 1296736 3200 0
66 2 S116 765 1297501 3965 0
66 2 S116 776 1298277 4741 0
66 2 S116 786 1299063 5527 0
66 2 S116 803 1299866 6330 0
0 0 0 797 1300663 -10778 0
0 0 0 789 1301452 -9989 0
0 0 0 753 1302205 -9236 0
0 0 0 711 1302916 -8525 0
0 0 0 668 1303584 -7857 0
0 0 0 641 1304225 -7216 1
0 0 0 628 1304853 -6588 1
0 0 0 624 1305477 -5964 1
0 0 0 711 1306188 -5253 0
0 0 0 848 1307036 -4405 0
0 0 0 882 1307918 -3523 0
0 0 0 849 1308767 -2674 0
67 1 S102 878 1309645 -1796 0
67 1 S102 901 1310546 -895 0
67 1 S102 885 1311431 -10 0
67 2 S102 842 1312273 832 0
67 2 S102 792 1313065 1624 0
67 2 S102 794 1313859 2418 0
67 2 S102 808 1314667 3226 0
67 2 S102 814 1315481 4040 0
67 2 S102 810 1316291 4850 0
67 2 S102 764 1317055 5614 0
67 2 S102 779 1317834 6393 0
0 0 0 776 1318610 -7552 0
0 0 0 799 1319409 -6753 0
0 0 0 788 1320197 -5965 0
0 0 0 831 1321028 -5134 0
0 0 0 810 1321838 -4324 0
0 0 0 811 1322649 -3513 0
0 0 0 758 1323407 -2755 0
0 0 0 742 1324149 -2013 0
68 1 S106 754 1324903 -1259 0
68 1 S106 787 1325690 -472 0
68 2 S106 813 1326503 341 0
68 2 S106 819 1327322 1160 0
68 2 S106 819 1328141 1979 0
68 2 S106 835 1328976 2814 0
68 2 S106 865 1329841 3679 0
68 2 S106 838 1330679 4517 0
68 2 S106 825 1331504 5342 0
68 2 S106 835 1332339 6177 0
68 2 S106 836 1333175 7013 0
0 0 0 833 1334008 -11468 0
0 0 0 783 1334791 -10685 0
0 0 0 789 1335580 -9896 0
0 0 0 801 1336381 -9095 0
0 0 0 794 1337175 -8301 0
0 0 0 771 1337946 -7530 0
0 0 0 744 1338690 -6786 0
0 0 0 783 1339473 -6003 0
0 0 0 802 1340275 -5201 0
0 0 0 819 1341094 -4382 0
0 0 0 788 1341882 -3594 0
0 0 0 795 1342677 -2799 0
69 1 S102 813 1343490 -1986 0
69 1 S102 831 1344321 -1155 0
69 1 S102 833 1345154 -322 0
69 2 S102 809 1345963 487 0
69 2 S102 822 1346785 1309 0
69 2 S102 814 1347599 2123 0
69 2 S102 791 1348390 2914 0
69 2 S102 784 1349174 3698 0
69 2 S102 737 1349911 4435 0
69 2 S102 720 1350631 5155 0
69 2 S102 729 1351360 5884 0
69 2 S102 767 1352127 6651 0
0 0 0 812 1352939 -8966 0
0 0 0 822 1353761 -8144 0
0 0 0 916 1354677 -7228 0
0 0 0 898 1355575 -6330 0
0 0 0 878 1356453 -5452 0
0 0 0 846 1357299 -4606 0
0 0 0 810 1358109 -3796 0
0 0 0 805 1358914 -2991 0
0 0 0 809 1359723 -2182 0
70 1 S112 837 1360560 -1345 0
70 1 S112 798 1361358 -547 0
70 2 S112 803 1362161 256 0
70 2 S112 804 1362965 1060 0
70 2 S112 796 1363761 1856 0
70 2 S112 794 1364555 2650 0
70 2 S112 823 1365378 3473 0
70 2 S112 843 1366221 4316 0
70 2 S112 844 1367065 5160 0
70 2 S112 825 1367890 5985 0
70 2 S112 856 1368746 6841 0
0 0 0 819 1369565 -10958 0
0 0 0 825 1370390 -10133 0
0 0 0 826 1371216 -9307 0
0 0 0 811 1372027 -8496 0
0 0 0 752 1372779 -7744 0
0 0 0 724 1373503 -7020 0
0 0 0 720 1374223 -6300 0
0 0 0 725 1374948 -5575 0
0 0 0 756 1375704 -4819 0
0 0 0 770 1376474 -4049 0
0 0 0 768 1377242 -3281 0
0 0 0 751 1377993 -2530 0
71 1 S116 789 1378782 -1741 0
71 1 S116 802 1379584 -939 0
71 1 S116 813 1380397 -126 0
71 2 S116 794 1381191 668 0
71 2 S116 770 1381961 1438 0
71 2 S116 739 1382700 2177 0
71 2 S116 705 1383405 2882 0
71 2 S116 739 1384144 3621 0
71 2 S116 743 1384887 4364 0
71 2 S116 779 1385666 5143 0
71 2 S116 812 1386478 5955 0
71 2 S116 841 1387319 6796 0
0 0 0 841 1388160 -9372 0
0 0 0 821 1388981 -8551 0
0 0 0 800 1389781 -7751 0
0 0 0 738 1390519 -7013 0
0 0 0 725 1391244 -6288 0
0 0 0 709 1391953 -5579 0
0 0 0 703 1392656 -4876 0
0 0 0 686 1393342 -4190 0
0 0 0 682 1394024 -3508 0
0 0 0 696 1394720 -2812 0
0 0 0 768 1395488 -2044 0
72 1 S102 834 1396322 -1210 0
72 1 S102 843 1397165 -367 0
72 2 S102 794 1397959 427 0
72 2 S102 772 1398731 1199 0
72 2 S102 780 1399511 1979 0
72 2 S102 777 1400288 2756 0
72 2 S102 802 1401090 3558 0
72 2 S102 799 1401889 4357 0
72 2 S102 766 1402655 5123 0
72 2 S102 740 1403395 5863 0
72 2 S102 750 1404145 6613 0
0 0 0 742 1404887 -7068 0
0 0 0 750 1405637 -6318 0
0 0 0 740 1406377 -5578 0
0 0 0 731 1407108 -4847 0
0 0 0 705 1407813 -4142 0
0 0 0 738 1408551 -3404 0
0 0 0 775 1409326 -2629 0
73 1 S116 812 1410138 -1817 0
73 1 S116 820 1410958 -997 0
73 1 S116 819 1411777 -178 0
73 2 S116 789 1412566 611 0
73 2 S116 756 1413322 1367 0
73 2 S116 742 1414064 2109 0
73 2 S116 741 1414805 2850 0
73 2 S116 750 1415555 3600 0
73 2 S116 798 1416353 4398 0
73 2 S116 803 1417156 5201 0
73 2 S116 780 1417936 5981 0
73 2 S116 794 1418730 6775 0
0 0 0 810 1419540 -9823 0
0 0 0 768 1420308 -9055 0
0 0 0 779 1421087 -8276 0
0 0 0 779 1421866 -7497 0
0 0 0 782 1422648 -6715 0
0 0 0 735 1423383 -5980 0
0 0 0 713 1424096 -5267 0
0 0 0 684 1424780 -4583 0
0 0 0 658 1425438 -3925 0
0 0 0 668 1426106 -3257 0
0 0 0 677 1426783 -2580 0
74 1 S106 689 1427472 -1891 0
74 1 S106 702 1428174 -1189 0
74 1 S106 749 1428923 -440 0
74 2 S106 831 1429754 391 0
74 2 S106 881 1430635 1272 0
74 2 S106 866 1431501 2138 0
74 2 S106 864 1432365 3002 0
74 2 S106 827 1433192 3829 0
74 2 S106 835 1434027 4664 0
74 2 S106 816 1434843 5480 0
74 2 S106 813 1435656 6293 0
0 0 0 804 1436460 -6712 0
0 0 0 766 1437226 -5946 0
0 0 0 755 1437981 -5191 0
0 0 0 790 1438771 -4401 0
0 0 0 804 1439575 -3597 0
0 0 0 861 1440436 -2736 0
75 1 S112 871 1441307 -1865 0
75 1 S112 823 1442130 -1042 0
75 1 S112 852 1442982 -190 0
75 2 S112 878 1443860 688 0
75 2 S112 888 1444748 1576 0
75 2 S112 870 1445618 2446 0
75 2 S112 846 1446464 3292 0
75 2 S112 850 1447314 4142 0
75 2 S112 831 1448145 4973 0
75 2 S112 821 1448966 5794 0
75 2 S112 776 1449742 6570 0
0 0 0 771 1450513 -6436 0
0 0 0 764 1451277 -5672 0
0 0 0 769 1452046 -4903 0
0 0 0 738 1452784 -4165 0
0 0 0 735 1453519 -3430 0
0 0 0 760 1454279 -2670 0
76 1 S116 788 1455067 -1882 0
76 1 S116 810 1455877 -1072 0
76 1 S116 800 1456677 -272 0
76 2 S116 779 1457456 507 0
76 2 S116 806 1458262 1313 0
76 2 S116 779 1459041 2092 0
76 2 S116 743 1459784 2835 0
76 2 S116 748 1460532 3583 0
76 2 S116 783 1461315 4366 0
76 2 S116 820 1462135 5186 0
76 2 S116 827 1462962 6013 0
76 2 S116 814 1463776 6827 0
0 0 0 824 1464600 -7584 0
0 0 0 828 1465428 -6756 0
0 0 0 794 1466222 -5962 0
0 0 0 806 1467028 -5156 0
0 0 0 786 1467814 -4370 0
0 0 0 755 1468569 -3615 0
0 0 0 734 1469303 -2881 0
0 0 0 746 1470049 -2135 0
77 1 S106 752 1470801 -1383 0
77 1 S106 769 1471570 -614 0
77 2 S106 777 1472347 163 0
77 2 S106 775 1473122 938 0
77 2 S106 799 1473921 1737 0
77 2 S106 798 1474719 2535 0
77 2 S106 826 1475545 3361 0
77 2 S106 845 1476390 4206 0
77 2 S106 820 1477210 5026 0
77 2 S106 837 1478047 5863 0
77 2 S106 843 1478890 6706 0
0 0 0 852 1479742 -8242 0
0 0 0 833 1480575 -7409 0
0 0 0 778 1481353 -6631 0
0 0 0 740 1482093 -5891 0
0 0 0 727 1482820 -5164 0
0 0 0 732 1483552 -4432 0
0 0 0 767 1484319 -3665 0
0 0 0 800 1485119 -2865 0
0 0 0 837 1485956 -2028 0
78 1 S112 879 1486835 -1149 0
78 1 S112 883 1487718 -266 0
78 2 S112 878 1488596 612 0
78 2 S112 897 1489493 1509 0
78 2 S112 890 1490383 2399 0
78 2 S112 848 1491231 3247 0
78 2 S112 858 1492089 4105 0
78 2 S112 850 1492939 4955 0
78 2 S112 851 1493790 5806 0
78 2 S112 810 1494600 6616 0
0 0 0 812 1495412 -10692 0
0 0 0 813 1496225 -9879 0
0 0 0 838 1497063 -9041 0
0 0 0 806 1497869 -8235 0
0 0 0 751 1498620 -7484 0
0 0 0 763 1499383 -6721 0
0 0 0 773 1500156 -5948 0
0 0 0 802 1500958 -5146 0
0 0 0 802 1501760 -4344 0
0 0 0 803 1502563 -3541 0
0 0 0 834 1503397 -2707 0
79 1 S102 891 1504288 -1816 0
79 1 S102 884 1505172 -932 0
79 1 S102 852 1506024 -80 0
79 2 S102 854 1506878 774 0
79 2 S102 845 1507723 1619 0
79 2 S102 830 1508553 2449 0
79 2 S102 810 1509363 3259 0
79 2 S102 779 1510142 4038 0
79 2 S102 782 1510924 4820 0
79 2 S102 811 1511735 5631 0
79 2 S102 826 1512561 6457 0
0 0 0 835 1513396 -8872 0
0 0 0 808 1514204 -8064 0
0 0 0 835 1515039 -7229 0
0 0 0 825 1515864 -6404 0
0 0 0 809 1516673 -5595 0
0 0 0 791 1517464 -4804 0
0 0 0 787 1518251 -4017 0
0 0 0 742 1518993 -3275 0
0 0 0 719 1519712 -2556 0
80 1 S116 778 1520490 -1778 0
80 1 S116 791 1521281 -987 0
80 1 S116 775 1522056 -212 0
80 2 S116 816 1522872 604 0
80 2 S116 830 1523702 1434 0
80 2 S116 835 1524537 2269 0
80 2 S116 825 1525362 3094 0
80 2 S116 795 1526157 3889 0
80 2 S116 795 1526952 4684 0
80 2 S116 802 1527754 5486 0
80 2 S116 813 1528567 6299 0
