T_0088
BeatCount Mean SD BeatCountNoOutliers MeanNoOutliers SDNoOutliers
1688 865,396327014218 105,21783049332 1643 858,572732805843 91,8735577278998

Trial TrialStatus Trialtype IBI AbsPosition RelPosition Outlier
0 0 0 740 1475 -14388 0
0 0 0 744 2219 -13644 0
0 0 0 757 2976 -12887 0
0 0 0 736 3712 -12151 0
0 0 0 794 4506 -11357 0
0 0 0 873 5379 -10484 0
0 0 0 982 6361 -9502 0
0 0 0 821 7182 -8681 0
0 0 0 864 8046 -7817 0
0 0 0 875 8921 -6942 0
0 0 0 897 9818 -6045 0
0 0 0 788 10606 -5257 0
0 0 0 841 11447 -4416 0
0 0 0 887 12334 -3529 0
0 0 0 927 13261 -2602 0
1 1 S112 850 14111 -1752 0
1 1 S112 974 15085 -778 0
1 2 S112 1100 16185 322 0
1 2 S112 1015 17200 1337 0
1 2 S112 919 18119 2256 0
1 2 S112 958 19077 3214 0
1 2 S112 1009 20086 4223 0
1 2 S112 921 21007 5144 0
1 2 S112 926 21933 6070 0
0 0 0 983 22916 -10603 0
0 0 0 1000 23916 -9603 0
0 0 0 904 24820 -8699 0
0 0 0 781 25601 -7918 0
0 0 0 830 26431 -7088 0
0 0 0 842 27273 -6246 0
0 0 0 828 28101 -5418 0
0 0 0 820 28921 -4598 0
0 0 0 950 29871 -3648 0
0 0 0 1080 30951 -2568 0
2 1 S102 828 31779 -1740 0
2 1 S102 817 32596 -923 0
2 1 S102 822 33418 -101 0
2 2 S102 900 34318 799 0
2 2 S102 902 35220 1701 0
2 2 S102 1080 36300 2781 0
2 2 S102 1154 37454 3935 1
2 2 S102 876 38330 4811 0
2 2 S102 914 39244 5725 0
2 2 S102 1010 40254 6735 0
0 0 0 976 41230 -8486 0
0 0 0 853 42083 -7633 0
0 0 0 1174 43257 -6459 1
0 0 0 1127 44384 -5332 0
0 0 0 858 45242 -4474 0
0 0 0 939 46181 -3535 0
0 0 0 942 47123 -2593 0
3 1 S116 845 47968 -1748 0
3 1 S116 863 48831 -885 0
3 2 S116 927 49758 42 0
3 2 S116 965 50723 1007 0
3 2 S116 916 51639 1923 0
3 2 S116 979 52618 2902 0
3 2 S116 1120 53738 4022 0
3 2 S116 959 54697 4981 0
3 2 S116 801 55498 5782 0
3 2 S116 932 56430 6714 0
0 0 0 1184 57614 -10040 1
0 0 0 994 58608 -9046 0
0 0 0 791 59399 -8255 0
0 0 0 885 60284 -7370 0
0 0 0 955 61239 -6415 0
0 0 0 919 62158 -5496 0
0 0 0 894 63052 -4602 0
0 0 0 1197 64249 -3405 1
0 0 0 970 65219 -2435 0
4 1 S106 782 66001 -1653 0
4 1 S106 817 66818 -836 0
4 2 S106 939 67757 103 0
4 2 S106 1098 68855 1201 0
4 2 S106 901 69756 2102 0
4 2 S106 971 70727 3073 0
4 2 S106 1085 71812 4158 0
4 2 S106 856 72668 5014 0
4 2 S106 978 73646 5992 0
0 0 0 1050 74696 -8873 0
0 0 0 853 75549 -8020 0
0 0 0 972 76521 -7048 0
0 0 0 1198 77719 -5850 1
0 0 0 1051 78770 -4799 0
0 0 0 807 79577 -3992 0
0 0 0 856 80433 -3136 0
0 0 0 943 81376 -2193 0
5 1 S116 886 82262 -1307 0
5 1 S116 816 83078 -491 0
5 2 S116 958 84036 467 0
5 2 S116 1078 85114 1545 0
5 2 S116 870 85984 2415 0
5 2 S116 914 86898 3329 0
5 2 S116 960 87858 4289 0
5 2 S116 935 88793 5224 0
5 2 S116 840 89633 6064 0
0 0 0 969 90602 -8601 0
0 0 0 989 91591 -7612 0
0 0 0 833 92424 -6779 0
0 0 0 891 93315 -5888 0
0 0 0 872 94187 -5016 0
0 0 0 807 94994 -4209 0
0 0 0 823 95817 -3386 0
0 0 0 870 96687 -2516 0
6 1 S106 1009 97696 -1507 0
6 1 S106 854 98550 -653 0
6 2 S106 878 99428 225 0
6 2 S106 890 100318 1115 0
6 2 S106 967 101285 2082 0
6 2 S106 865 102150 2947 0
6 2 S106 976 103126 3923 0
6 2 S106 1016 104142 4939 0
6 2 S106 897 105039 5836 0
6 2 S106 913 105952 6749 0
0 0 0 1149 107101 -10321 1
0 0 0 976 108077 -9345 0
0 0 0 837 108914 -8508 0
0 0 0 852 109766 -7656 0
0 0 0 861 110627 -6795 0
0 0 0 796 111423 -5999 0
0 0 0 904 112327 -5095 0
0 0 0 1190 113517 -3905 1
0 0 0 857 114374 -3048 0
0 0 0 855 115229 -2193 0
7 1 S102 887 116116 -1306 0
7 1 S102 903 117019 -403 0
7 2 S102 805 117824 402 0
7 2 S102 836 118660 1238 0
7 2 S102 1092 119752 2330 0
7 2 S102 1070 120822 3400 0
7 2 S102 848 121670 4248 0
7 2 S102 939 122609 5187 0
7 2 S102 1052 123661 6239 0
0 0 0 876 124537 -9248 0
0 0 0 875 125412 -8373 0
0 0 0 945 126357 -7428 0
0 0 0 957 127314 -6471 0
0 0 0 770 128084 -5701 0
0 0 0 784 128868 -4917 0
0 0 0 773 129641 -4144 0
0 0 0 762 130403 -3382 0
0 0 0 696 131099 -2686 0
8 1 S112 712 131811 -1974 0
8 1 S112 718 132529 -1256 0
8 1 S112 767 133296 -489 0
8 2 S112 795 134091 306 0
8 2 S112 960 135051 1266 0
8 2 S112 962 136013 2228 0
8 2 S112 812 136825 3040 0
8 2 S112 863 137688 3903 0
8 2 S112 886 138574 4789 0
8 2 S112 872 139446 5661 0
8 2 S112 773 140219 6434 0
0 0 0 862 141081 -6348 0
0 0 0 1179 142260 -5169 1
0 0 0 911 143171 -4258 0
0 0 0 787 143958 -3471 0
0 0 0 861 144819 -2610 0
9 1 S116 989 145808 -1621 0
9 1 S116 998 146806 -623 0
9 2 S116 827 147633 204 0
9 2 S116 882 148515 1086 0
9 2 S116 1052 149567 2138 0
9 2 S116 936 150503 3074 0
9 2 S116 910 151413 3984 0
9 2 S116 1017 152430 5001 0
9 2 S116 1031 153461 6032 0
9 2 S116 828 154289 6860 0
0 0 0 915 155204 -10080 0
0 0 0 1019 156223 -9061 0
0 0 0 886 157109 -8175 0
0 0 0 847 157956 -7328 0
0 0 0 1260 159216 -6068 1
0 0 0 1093 160309 -4975 0
0 0 0 852 161161 -4123 0
0 0 0 1054 162215 -3069 0
10 1 S102 1090 163305 -1979 0
10 1 S102 854 164159 -1125 0
10 1 S102 863 165022 -262 0
10 2 S102 861 165883 599 0
10 2 S102 872 166755 1471 0
10 2 S102 959 167714 2430 0
10 2 S102 1226 168940 3656 1
10 2 S102 998 169938 4654 0
10 2 S102 872 170810 5526 0
10 2 S102 984 171794 6510 0
0 0 0 1011 172805 -10284 0
0 0 0 829 173634 -9455 0
0 0 0 1004 174638 -8451 0
0 0 0 950 175588 -7501 0
0 0 0 809 176397 -6692 0
0 0 0 897 177294 -5795 0
0 0 0 916 178210 -4879 0
0 0 0 902 179112 -3977 0
0 0 0 767 179879 -3210 0
0 0 0 873 180752 -2337 0
11 1 S112 887 181639 -1450 0
11 1 S112 969 182608 -481 0
11 2 S112 805 183413 324 0
11 2 S112 882 184295 1206 0
11 2 S112 1029 185324 2235 0
11 2 S112 945 186269 3180 0
11 2 S112 882 187151 4062 0
11 2 S112 1024 188175 5086 0
11 2 S112 980 189155 6066 0
11 2 S112 803 189958 6869 0
0 0 0 836 190794 -6420 0
0 0 0 911 191705 -5509 0
0 0 0 896 192601 -4613 0
0 0 0 763 193364 -3850 0
0 0 0 801 194165 -3049 0
0 0 0 804 194969 -2245 0
12 1 S116 922 195891 -1323 0
12 1 S116 851 196742 -472 0
12 2 S116 908 197650 436 0
12 2 S116 1081 198731 1517 0
12 2 S116 1087 199818 2604 0
12 2 S116 866 200684 3470 0
12 2 S116 904 201588 4374 0
12 2 S116 919 202507 5293 0
12 2 S116 1017 203524 6310 0
0 0 0 840 204364 -10639 0
0 0 0 933 205297 -9706 0
0 0 0 955 206252 -8751 0
0 0 0 846 207098 -7905 0
0 0 0 809 207907 -7096 0
0 0 0 915 208822 -6181 0
0 0 0 935 209757 -5246 0
0 0 0 843 210600 -4403 0
0 0 0 771 211371 -3632 0
0 0 0 776 212147 -2856 0
0 0 0 812 212959 -2044 0
13 1 S112 931 213890 -1113 0
13 1 S112 913 214803 -200 0
13 2 S112 799 215602 599 0
13 2 S112 892 216494 1491 0
13 2 S112 1031 217525 2522 0
13 2 S112 994 218519 3516 0
13 2 S112 847 219366 4363 0
13 2 S112 918 220284 5281 0
13 2 S112 930 221214 6211 0
0 0 0 915 222129 -10513 0
0 0 0 824 222953 -9689 0
0 0 0 880 223833 -8809 0
0 0 0 953 224786 -7856 0
0 0 0 843 225629 -7013 0
0 0 0 790 226419 -6223 0
0 0 0 892 227311 -5331 0
0 0 0 1000 228311 -4331 0
0 0 0 902 229213 -3429 0
0 0 0 978 230191 -2451 0
14 1 S106 935 231126 -1516 0
14 1 S106 863 231989 -653 0
14 2 S106 872 232861 219 0
14 2 S106 872 233733 1091 0
14 2 S106 986 234719 2077 0
14 2 S106 821 235540 2898 0
14 2 S106 906 236446 3804 0
14 2 S106 1000 237446 4804 0
14 2 S106 1017 238463 5821 0
14 2 S106 832 239295 6653 0
0 0 0 827 240122 -10607 0
0 0 0 910 241032 -9697 0
0 0 0 964 241996 -8733 0
0 0 0 803 242799 -7930 0
0 0 0 837 243636 -7093 0
0 0 0 874 244510 -6219 0
0 0 0 917 245427 -5302 0
0 0 0 836 246263 -4466 0
0 0 0 853 247116 -3613 0
0 0 0 822 247938 -2791 0
15 1 S116 856 248794 -1935 0
15 1 S116 781 249575 -1154 0
15 1 S116 754 250329 -400 0
15 2 S116 865 251194 465 0
15 2 S116 1147 252341 1612 1
15 2 S116 998 253339 2610 0
15 2 S116 810 254149 3420 0
15 2 S116 884 255033 4304 0
15 2 S116 1006 256039 5310 0
15 2 S116 1008 257047 6318 0
0 0 0 825 257872 -9999 0
0 0 0 897 258769 -9102 0
0 0 0 1163 259932 -7939 1
0 0 0 825 260757 -7114 0
0 0 0 889 261646 -6225 0
0 0 0 862 262508 -5363 0
0 0 0 792 263300 -4571 0
0 0 0 810 264110 -3761 0
0 0 0 868 264978 -2893 0
16 1 S116 964 265942 -1929 0
16 1 S116 783 266725 -1146 0
16 1 S116 837 267562 -309 0
16 2 S116 829 268391 520 0
16 2 S116 902 269293 1422 0
16 2 S116 870 270163 2292 0
16 2 S116 979 271142 3271 0
16 2 S116 998 272140 4269 0
16 2 S116 815 272955 5084 0
16 2 S116 804 273759 5888 0
16 2 S116 833 274592 6721 0
0 0 0 937 275529 -7976 0
0 0 0 808 276337 -7168 0
0 0 0 832 277169 -6336 0
0 0 0 823 277992 -5513 0
0 0 0 798 278790 -4715 0
0 0 0 709 279499 -4006 0
0 0 0 714 280213 -3292 0
0 0 0 684 280897 -2608 0
17 1 S106 669 281566 -1939 0
17 1 S106 661 282227 -1278 0
17 1 S106 650 282877 -628 0
17 2 S106 650 283527 22 0
17 2 S106 639 284166 661 0
17 2 S106 638 284804 1299 0
17 2 S106 653 285457 1952 0
17 2 S106 645 286102 2597 0
17 2 S106 666 286768 3263 0
17 2 S106 702 287470 3965 0
17 2 S106 740 288210 4705 0
17 2 S106 758 288968 5463 0
17 2 S106 704 289672 6167 0
17 2 S106 695 290367 6862 0
0 0 0 738 291105 -10636 0
0 0 0 833 291938 -9803 0
0 0 0 869 292807 -8934 0
0 0 0 785 293592 -8149 0
0 0 0 852 294444 -7297 0
0 0 0 1162 295606 -6135 1
0 0 0 1062 296668 -5073 0
0 0 0 845 297513 -4228 0
0 0 0 855 298368 -3373 0
0 0 0 928 299296 -2445 0
18 1 S102 997 300293 -1448 0
18 1 S102 830 301123 -618 0
18 2 S102 860 301983 242 0
18 2 S102 1021 303004 1263 0
18 2 S102 1054 304058 2317 0
18 2 S102 890 304948 3207 0
18 2 S102 931 305879 4138 0
18 2 S102 1049 306928 5187 0
18 2 S102 948 307876 6135 0
18 2 S102 809 308685 6944 0
0 0 0 876 309561 -5973 0
0 0 0 976 310537 -4997 0
0 0 0 890 311427 -4107 0
0 0 0 781 312208 -3326 0
0 0 0 831 313039 -2495 0
19 1 S106 861 313900 -1634 0
19 1 S106 820 314720 -814 0
19 1 S106 772 315492 -42 0
19 2 S106 866 316358 824 0
19 2 S106 1057 317415 1881 0
19 2 S106 902 318317 2783 0
19 2 S106 782 319099 3565 0
19 2 S106 826 319925 4391 0
19 2 S106 900 320825 5291 0
19 2 S106 1004 321829 6295 0
0 0 0 867 322696 -10809 0
0 0 0 956 323652 -9853 0
0 0 0 1050 324702 -8803 0
0 0 0 910 325612 -7893 0
0 0 0 782 326394 -7111 0
0 0 0 832 327226 -6279 0
0 0 0 864 328090 -5415 0
0 0 0 907 328997 -4508 0
0 0 0 793 329790 -3715 0
0 0 0 829 330619 -2886 0
0 0 0 864 331483 -2022 0
20 1 S112 901 332384 -1121 0
20 1 S112 832 333216 -289 0
20 2 S112 784 334000 495 0
20 2 S112 897 334897 1392 0
20 2 S112 1028 335925 2420 0
20 2 S112 990 336915 3410 0
20 2 S112 877 337792 4287 0
20 2 S112 900 338692 5187 0
20 2 S112 920 339612 6107 0
20 2 S112 815 340427 6922 0
0 0 0 847 341274 -8263 0
0 0 0 879 342153 -7384 0
0 0 0 938 343091 -6446 0
0 0 0 808 343899 -5638 0
0 0 0 792 344691 -4846 0
0 0 0 820 345511 -4026 0
0 0 0 890 346401 -3136 0
0 0 0 850 347251 -2286 0
21 1 S106 865 348116 -1421 0
21 1 S106 850 348966 -571 0
21 2 S106 848 349814 277 0
21 2 S106 802 350616 1079 0
21 2 S106 770 351386 1849 0
21 2 S106 837 352223 2686 0
21 2 S106 882 353105 3568 0
21 2 S106 859 353964 4427 0
21 2 S106 766 354730 5193 0
21 2 S106 842 355572 6035 0
21 2 S106 859 356431 6894 0
0 0 0 906 357337 -9690 0
0 0 0 923 358260 -8767 0
0 0 0 795 359055 -7972 0
0 0 0 852 359907 -7120 0
0 0 0 879 360786 -6241 0
0 0 0 909 361695 -5332 0
0 0 0 811 362506 -4521 0
0 0 0 911 363417 -3610 0
0 0 0 950 364367 -2660 0
22 1 S116 903 365270 -1757 0
22 1 S116 804 366074 -953 0
22 1 S116 835 366909 -118 0
22 2 S116 907 367816 789 0
22 2 S116 1069 368885 1858 0
22 2 S116 993 369878 2851 0
22 2 S116 867 370745 3718 0
22 2 S116 863 371608 4581 0
22 2 S116 997 372605 5578 0
22 2 S116 1069 373674 6647 0
0 0 0 974 374648 -8659 0
0 0 0 851 375499 -7808 0
0 0 0 943 376442 -6865 0
0 0 0 1006 377448 -5859 0
0 0 0 1024 378472 -4835 0
0 0 0 869 379341 -3966 0
0 0 0 954 380295 -3012 0
23 1 S112 1028 381323 -1984 0
23 1 S112 918 382241 -1066 0
23 1 S112 878 383119 -188 0
23 2 S112 964 384083 776 0
23 2 S112 1108 385191 1884 0
23 2 S112 1040 386231 2924 0
23 2 S112 916 387147 3840 0
23 2 S112 952 388099 4792 0
23 2 S112 950 389049 5742 0
23 2 S112 852 389901 6594 0
0 0 0 891 390792 -9673 0
0 0 0 1033 391825 -8640 0
0 0 0 1010 392835 -7630 0
0 0 0 862 393697 -6768 0
0 0 0 911 394608 -5857 0
0 0 0 928 395536 -4929 0
0 0 0 800 396336 -4129 0
0 0 0 811 397147 -3318 0
0 0 0 866 398013 -2452 0
24 1 S106 914 398927 -1538 0
24 1 S106 808 399735 -730 0
24 2 S106 838 400573 108 0
24 2 S106 947 401520 1055 0
24 2 S106 951 402471 2006 0
24 2 S106 895 403366 2901 0
24 2 S106 1025 404391 3926 0
24 2 S106 1006 405397 4932 0
24 2 S106 919 406316 5851 0
24 2 S106 814 407130 6665 0
0 0 0 880 408010 -8404 0
0 0 0 936 408946 -7468 0
0 0 0 953 409899 -6515 0
0 0 0 802 410701 -5713 0
0 0 0 824 411525 -4889 0
0 0 0 875 412400 -4014 0
0 0 0 1001 413401 -3013 0
0 0 0 822 414223 -2191 0
25 1 S102 834 415057 -1357 0
25 1 S102 838 415895 -519 0
25 2 S102 893 416788 374 0
25 2 S102 793 417581 1167 0
25 2 S102 921 418502 2088 0
25 2 S102 1012 419514 3100 0
25 2 S102 929 420443 4029 0
25 2 S102 798 421241 4827 0
25 2 S102 891 422132 5718 0
25 2 S102 902 423034 6620 0
0 0 0 904 423938 -6650 0
0 0 0 781 424719 -5869 0
0 0 0 779 425498 -5090 0
0 0 0 777 426275 -4313 0
0 0 0 807 427082 -3506 0
0 0 0 768 427850 -2738 0
26 1 S116 789 428639 -1949 0
26 1 S116 821 429460 -1128 0
26 1 S116 892 430352 -236 0
26 2 S116 799 431151 563 0
26 2 S116 828 431979 1391 0
26 2 S116 871 432850 2262 0
26 2 S116 917 433767 3179 0
26 2 S116 824 434591 4003 0
26 2 S116 876 435467 4879 0
26 2 S116 892 436359 5771 0
26 2 S116 921 437280 6692 0
0 0 0 818 438098 -6167 0
0 0 0 883 438981 -5284 0
0 0 0 854 439835 -4430 0
0 0 0 785 440620 -3645 0
0 0 0 742 441362 -2903 0
0 0 0 770 442132 -2133 0
27 1 S106 834 442966 -1299 0
27 1 S106 829 443795 -470 0
27 2 S106 775 444570 305 0
27 2 S106 858 445428 1163 0
27 2 S106 967 446395 2130 0
27 2 S106 916 447311 3046 0
27 2 S106 786 448097 3832 0
27 2 S106 842 448939 4674 0
27 2 S106 872 449811 5546 0
27 2 S106 859 450670 6405 0
0 0 0 790 451460 -6466 0
0 0 0 869 452329 -5597 0
0 0 0 897 453226 -4700 0
0 0 0 875 454101 -3825 0
0 0 0 783 454884 -3042 0
0 0 0 826 455710 -2216 0
28 1 S102 860 456570 -1356 0
28 1 S102 891 457461 -465 0
28 2 S102 814 458275 349 0
28 2 S102 914 459189 1263 0
28 2 S102 947 460136 2210 0
28 2 S102 885 461021 3095 0
28 2 S102 775 461796 3870 0
28 2 S102 836 462632 4706 0
28 2 S102 901 463533 5607 0
28 2 S102 882 464415 6489 0
0 0 0 781 465196 -10386 0
0 0 0 852 466048 -9534 0
0 0 0 871 466919 -8663 0
0 0 0 826 467745 -7837 0
0 0 0 750 468495 -7087 0
0 0 0 791 469286 -6296 0
0 0 0 813 470099 -5483 0
0 0 0 775 470874 -4708 0
0 0 0 782 471656 -3926 0
0 0 0 826 472482 -3100 0
0 0 0 829 473311 -2271 0
29 1 S112 770 474081 -1501 0
29 1 S112 781 474862 -720 0
29 2 S112 831 475693 111 0
29 2 S112 894 476587 1005 0
29 2 S112 862 477449 1867 0
29 2 S112 790 478239 2657 0
29 2 S112 808 479047 3465 0
29 2 S112 834 479881 4299 0
29 2 S112 814 480695 5113 0
29 2 S112 749 481444 5862 0
29 2 S112 799 482243 6661 0
0 0 0 837 483080 -6411 0
0 0 0 960 484040 -5451 0
0 0 0 847 484887 -4604 0
0 0 0 753 485640 -3851 0
0 0 0 797 486437 -3054 0
0 0 0 817 487254 -2237 0
30 1 S112 838 488092 -1399 0
30 1 S112 761 488853 -638 0
30 2 S112 774 489627 136 0
30 2 S112 784 490411 920 0
30 2 S112 909 491320 1829 0
30 2 S112 922 492242 2751 0
30 2 S112 846 493088 3597 0
30 2 S112 1046 494134 4643 0
30 2 S112 1033 495167 5676 0
30 2 S112 949 496116 6625 0
0 0 0 925 497041 -8797 0
0 0 0 967 498008 -7830 0
0 0 0 911 498919 -6919 0
0 0 0 763 499682 -6156 0
0 0 0 819 500501 -5337 0
0 0 0 824 501325 -4513 0
0 0 0 851 502176 -3662 0
0 0 0 774 502950 -2888 0
0 0 0 860 503810 -2028 0
31 1 S106 947 504757 -1081 0
31 1 S106 900 505657 -181 0
31 2 S106 785 506442 604 0
31 2 S106 829 507271 1433 0
31 2 S106 909 508180 2342 0
31 2 S106 910 509090 3252 0
31 2 S106 824 509914 4076 0
31 2 S106 1075 510989 5151 0
31 2 S106 1232 512221 6383 1
0 0 0 941 513162 -8392 0
0 0 0 855 514017 -7537 0
0 0 0 865 514882 -6672 0
0 0 0 878 515760 -5794 0
0 0 0 801 516561 -4993 0
0 0 0 867 517428 -4126 0
0 0 0 948 518376 -3178 0
0 0 0 929 519305 -2249 0
32 1 S102 796 520101 -1453 0
32 1 S102 826 520927 -627 0
32 2 S102 843 521770 216 0
32 2 S102 934 522704 1150 0
32 2 S102 827 523531 1977 0
32 2 S102 883 524414 2860 0
32 2 S102 880 525294 3740 0
32 2 S102 843 526137 4583 0
32 2 S102 753 526890 5336 0
32 2 S102 816 527706 6152 0
32 2 S102 860 528566 7012 0
0 0 0 938 529504 -9623 0
0 0 0 772 530276 -8851 0
0 0 0 796 531072 -8055 0
0 0 0 796 531868 -7259 0
0 0 0 769 532637 -6490 0
0 0 0 762 533399 -5728 0
0 0 0 836 534235 -4892 0
0 0 0 839 535074 -4053 0
0 0 0 911 535985 -3142 0
0 0 0 785 536770 -2357 0
33 1 S112 829 537599 -1528 0
33 1 S112 813 538412 -715 0
33 2 S112 818 539230 103 0
33 2 S112 777 540007 880 0
33 2 S112 910 540917 1790 0
33 2 S112 1047 541964 2837 0
33 2 S112 1071 543035 3908 0
33 2 S112 823 543858 4731 0
33 2 S112 914 544772 5645 0
33 2 S112 977 545749 6622 0
0 0 0 1008 546757 -10639 0
0 0 0 875 547632 -9764 0
0 0 0 929 548561 -8835 0
0 0 0 913 549474 -7922 0
0 0 0 812 550286 -7110 0
0 0 0 890 551176 -6220 0
0 0 0 1130 552306 -5090 0
0 0 0 923 553229 -4167 0
0 0 0 766 553995 -3401 0
0 0 0 750 554745 -2651 0
34 1 S106 821 555566 -1830 0
34 1 S106 1241 556807 -589 1
34 2 S106 899 557706 310 0
34 2 S106 1169 558875 1479 1
34 2 S106 1166 560041 2645 1
34 2 S106 862 560903 3507 0
34 2 S106 1000 561903 4507 0
34 2 S106 1156 563059 5663 1
34 2 S106 857 563916 6520 0
0 0 0 911 564827 -8568 0
0 0 0 1204 566031 -7364 1
0 0 0 866 566897 -6498 0
0 0 0 764 567661 -5734 0
0 0 0 836 568497 -4898 0
0 0 0 850 569347 -4048 0
0 0 0 790 570137 -3258 0
0 0 0 747 570884 -2511 0
35 1 S102 880 571764 -1631 0
35 1 S102 786 572550 -845 0
35 2 S102 875 573425 30 0
35 2 S102 964 574389 994 0
35 2 S102 1021 575410 2015 0
35 2 S102 835 576245 2850 0
35 2 S102 815 577060 3665 0
35 2 S102 883 577943 4548 0
35 2 S102 964 578907 5512 0
35 2 S102 924 579831 6436 0
0 0 0 878 580709 -6728 0
0 0 0 790 581499 -5938 0
0 0 0 800 582299 -5138 0
0 0 0 821 583120 -4317 0
0 0 0 877 583997 -3440 0
0 0 0 797 584794 -2643 0
36 1 S106 785 585579 -1858 0
36 1 S106 820 586399 -1038 0
36 1 S106 932 587331 -106 0
36 2 S106 901 588232 795 0
36 2 S106 821 589053 1616 0
36 2 S106 903 589956 2519 0
36 2 S106 944 590900 3463 0
36 2 S106 905 591805 4368 0
36 2 S106 808 592613 5176 0
36 2 S106 841 593454 6017 0
36 2 S106 888 594342 6905 0
0 0 0 922 595264 -7922 0
0 0 0 802 596066 -7120 0
0 0 0 829 596895 -6291 0
0 0 0 826 597721 -5465 0
0 0 0 814 598535 -4651 0
0 0 0 769 599304 -3882 0
0 0 0 814 600118 -3068 0
0 0 0 810 600928 -2258 0
37 1 S116 849 601777 -1409 0
37 1 S116 773 602550 -636 0
37 2 S116 790 603340 154 0
37 2 S116 822 604162 976 0
37 2 S116 1059 605221 2035 0
37 2 S116 937 606158 2972 0
37 2 S116 797 606955 3769 0
37 2 S116 855 607810 4624 0
37 2 S116 900 608710 5524 0
37 2 S116 908 609618 6432 0
0 0 0 815 610433 -10591 0
0 0 0 900 611333 -9691 0
0 0 0 905 612238 -8786 0
0 0 0 841 613079 -7945 0
0 0 0 815 613894 -7130 0
0 0 0 857 614751 -6273 0
0 0 0 899 615650 -5374 0
0 0 0 828 616478 -4546 0
0 0 0 783 617261 -3763 0
0 0 0 823 618084 -2940 0
0 0 0 856 618940 -2084 0
38 1 S102 868 619808 -1216 0
38 1 S102 784 620592 -432 0
38 2 S102 852 621444 420 0
38 2 S102 932 622376 1352 0
38 2 S102 929 623305 2281 0
38 2 S102 793 624098 3074 0
38 2 S102 814 624912 3888 0
38 2 S102 831 625743 4719 0
38 2 S102 920 626663 5639 0
38 2 S102 795 627458 6434 0
0 0 0 845 628303 -8736 0
0 0 0 978 629281 -7758 0
0 0 0 919 630200 -6839 0
0 0 0 778 630978 -6061 0
0 0 0 805 631783 -5256 0
0 0 0 817 632600 -4439 0
0 0 0 882 633482 -3557 0
0 0 0 798 634280 -2759 0
39 1 S116 830 635110 -1929 0
39 1 S116 882 635992 -1047 0
39 1 S116 909 636901 -138 0
39 2 S116 800 637701 662 0
39 2 S116 881 638582 1543 0
39 2 S116 963 639545 2506 0
39 2 S116 907 640452 3413 0
39 2 S116 808 641260 4221 0
39 2 S116 838 642098 5059 0
39 2 S116 859 642957 5918 0
39 2 S116 923 643880 6841 0
0 0 0 805 644685 -6263 0
0 0 0 859 645544 -5404 0
0 0 0 862 646406 -4542 0
0 0 0 853 647259 -3689 0
0 0 0 765 648024 -2924 0
0 0 0 879 648903 -2045 0
40 1 S112 922 649825 -1123 0
40 1 S112 930 650755 -193 0
40 2 S112 830 651585 637 0
40 2 S112 897 652482 1534 0
40 2 S112 932 653414 2466 0
40 2 S112 863 654277 3329 0
40 2 S112 783 655060 4112 0
40 2 S112 839 655899 4951 0
40 2 S112 856 656755 5807 0
40 2 S112 922 657677 6729 0
0 0 0 814 658491 -186176 0
0 0 0 870 659361 -185306 0
0 0 0 865 660226 -184441 0
0 0 0 906 661132 -183535 0
0 0 0 786 661918 -182749 0
0 0 0 854 662772 -181895 0
0 0 0 820 663592 -181075 0
0 0 0 862 664454 -180213 0
0 0 0 799 665253 -179414 0
0 0 0 798 666051 -178616 0
0 0 0 821 666872 -177795 0
0 0 0 833 667705 -176962 0
0 0 0 752 668457 -176210 0
0 0 0 759 669216 -175451 0
0 0 0 760 669976 -174691 0
0 0 0 793 670769 -173898 0
0 0 0 749 671518 -173149 0
0 0 0 724 672242 -172425 0
0 0 0 743 672985 -171682 0
0 0 0 766 673751 -170916 0
0 0 0 791 674542 -170125 0
0 0 0 787 675329 -169338 0
0 0 0 785 676114 -168553 0
0 0 0 787 676901 -167766 0
0 0 0 797 677698 -166969 0
0 0 0 742 678440 -166227 0
0 0 0 731 679171 -165496 0
0 0 0 773 679944 -164723 0
0 0 0 851 680795 -163872 0
0 0 0 903 681698 -162969 0
0 0 0 807 682505 -162162 0
0 0 0 839 683344 -161323 0
0 0 0 879 684223 -160444 0
0 0 0 914 685137 -159530 0
0 0 0 745 685882 -158785 0
0 0 0 727 686609 -158058 0
0 0 0 710 687319 -157348 0
0 0 0 671 687990 -156677 0
0 0 0 641 688631 -156036 0
0 0 0 635 689266 -155401 0
0 0 0 617 689883 -154784 0
0 0 0 600 690483 -154184 0
0 0 0 587 691070 -153597 1
0 0 0 577 691647 -153020 1
0 0 0 571 692218 -152449 1
0 0 0 601 692819 -151848 0
0 0 0 667 693486 -151181 0
0 0 0 700 694186 -150481 0
0 0 0 645 694831 -149836 0
0 0 0 609 695440 -149227 0
0 0 0 598 696038 -148629 0
0 0 0 592 696630 -148037 1
0 0 0 580 697210 -147457 1
0 0 0 583 697793 -146874 1
0 0 0 616 698409 -146258 0
0 0 0 605 699014 -145653 0
0 0 0 621 699635 -145032 0
0 0 0 659 700294 -144373 0
0 0 0 828 701122 -143545 0
0 0 0 893 702015 -142652 0
0 0 0 786 702801 -141866 0
0 0 0 826 703627 -141040 0
0 0 0 1111 704738 -139929 0
0 0 0 1085 705823 -138844 0
0 0 0 805 706628 -138039 0
0 0 0 819 707447 -137220 0
0 0 0 1207 708654 -136013 1
0 0 0 935 709589 -135078 0
0 0 0 828 710417 -134250 0
0 0 0 935 711352 -133315 0
0 0 0 1308 712660 -132007 1
0 0 0 969 713629 -131038 0
0 0 0 866 714495 -130172 0
0 0 0 997 715492 -129175 0
0 0 0 1013 716505 -128162 0
0 0 0 796 717301 -127366 0
0 0 0 977 718278 -126389 0
0 0 0 1050 719328 -125339 0
0 0 0 871 720199 -124468 0
0 0 0 953 721152 -123515 0
0 0 0 1173 722325 -122342 1
0 0 0 981 723306 -121361 0
0 0 0 929 724235 -120432 0
0 0 0 949 725184 -119483 0
0 0 0 874 726058 -118609 0
0 0 0 797 726855 -117812 0
0 0 0 917 727772 -116895 0
0 0 0 959 728731 -115936 0
0 0 0 823 729554 -115113 0
0 0 0 837 730391 -114276 0
0 0 0 807 731198 -113469 0
0 0 0 909 732107 -112560 0
0 0 0 762 732869 -111798 0
0 0 0 827 733696 -110971 0
0 0 0 949 734645 -110022 0
0 0 0 977 735622 -109045 0
0 0 0 813 736435 -108232 0
0 0 0 930 737365 -107302 0
0 0 0 986 738351 -106316 0
0 0 0 766 739117 -105550 0
0 0 0 729 739846 -104821 0
0 0 0 719 740565 -104102 0
0 0 0 780 741345 -103322 0
0 0 0 808 742153 -102514 0
0 0 0 773 742926 -101741 0
0 0 0 725 743651 -101016 0
0 0 0 675 744326 -100341 0
0 0 0 675 745001 -99666 0
0 0 0 730 745731 -98936 0
0 0 0 691 746422 -98245 0
0 0 0 799 747221 -97446 0
0 0 0 887 748108 -96559 0
0 0 0 1061 749169 -95498 0
0 0 0 999 750168 -94499 0
0 0 0 927 751095 -93572 0
0 0 0 1088 752183 -92484 0
0 0 0 1118 753301 -91366 0
0 0 0 819 754120 -90547 0
0 0 0 850 754970 -89697 0
0 0 0 915 755885 -88782 0
0 0 0 921 756806 -87861 0
0 0 0 766 757572 -87095 0
0 0 0 752 758324 -86343 0
0 0 0 780 759104 -85563 0
0 0 0 1005 760109 -84558 0
0 0 0 890 760999 -83668 0
0 0 0 814 761813 -82854 0
0 0 0 900 762713 -81954 0
0 0 0 921 763634 -81033 0
0 0 0 847 764481 -80186 0
0 0 0 739 765220 -79447 0
0 0 0 781 766001 -78666 0
0 0 0 981 766982 -77685 0
0 0 0 874 767856 -76811 0
0 0 0 822 768678 -75989 0
0 0 0 922 769600 -75067 0
0 0 0 910 770510 -74157 0
0 0 0 808 771318 -73349 0
0 0 0 744 772062 -72605 0
0 0 0 788 772850 -71817 0
0 0 0 803 773653 -71014 0
0 0 0 742 774395 -70272 0
0 0 0 761 775156 -69511 0
0 0 0 737 775893 -68774 0
0 0 0 701 776594 -68073 0
0 0 0 687 777281 -67386 0
0 0 0 660 777941 -66726 0
0 0 0 645 778586 -66081 0
0 0 0 636 779222 -65445 0
0 0 0 637 779859 -64808 0
0 0 0 641 780500 -64167 0
0 0 0 636 781136 -63531 0
0 0 0 624 781760 -62907 0
0 0 0 673 782433 -62234 0
0 0 0 705 783138 -61529 0
0 0 0 743 783881 -60786 0
0 0 0 753 784634 -60033 0
0 0 0 732 785366 -59301 0
0 0 0 707 786073 -58594 0
0 0 0 734 786807 -57860 0
0 0 0 744 787551 -57116 0
0 0 0 823 788374 -56293 0
0 0 0 767 789141 -55526 0
0 0 0 823 789964 -54703 0
0 0 0 822 790786 -53881 0
0 0 0 840 791626 -53041 0
0 0 0 744 792370 -52297 0
0 0 0 737 793107 -51560 0
0 0 0 729 793836 -50831 0
0 0 0 1156 794992 -49675 1
0 0 0 860 795852 -48815 0
0 0 0 794 796646 -48021 0
0 0 0 859 797505 -47162 0
0 0 0 916 798421 -46246 0
0 0 0 838 799259 -45408 0
0 0 0 949 800208 -44459 0
0 0 0 1028 801236 -43431 0
0 0 0 890 802126 -42541 0
0 0 0 823 802949 -41718 0
0 0 0 881 803830 -40837 0
0 0 0 927 804757 -39910 0
0 0 0 791 805548 -39119 0
0 0 0 817 806365 -38302 0
0 0 0 832 807197 -37470 0
0 0 0 970 808167 -36500 0
0 0 0 822 808989 -35678 0
0 0 0 922 809911 -34756 0
0 0 0 863 810774 -33893 0
0 0 0 811 811585 -33082 0
0 0 0 753 812338 -32329 0
0 0 0 801 813139 -31528 0
0 0 0 854 813993 -30674 0
0 0 0 849 814842 -29825 0
0 0 0 782 815624 -29043 0
0 0 0 762 816386 -28281 0
0 0 0 753 817139 -27528 0
0 0 0 741 817880 -26787 0
0 0 0 706 818586 -26081 0
0 0 0 681 819267 -25400 0
0 0 0 725 819992 -24675 0
0 0 0 737 820729 -23938 0
0 0 0 782 821511 -23156 0
0 0 0 726 822237 -22430 0
0 0 0 752 822989 -21678 0
0 0 0 811 823800 -20867 0
0 0 0 891 824691 -19976 0
0 0 0 785 825476 -19191 0
0 0 0 763 826239 -18428 0
0 0 0 809 827048 -17619 0
0 0 0 862 827910 -16757 0
0 0 0 855 828765 -15902 0
0 0 0 753 829518 -15149 0
0 0 0 778 830296 -14371 0
0 0 0 776 831072 -13595 0
0 0 0 837 831909 -12758 0
0 0 0 824 832733 -11934 0
0 0 0 758 833491 -11176 0
0 0 0 795 834286 -10381 0
0 0 0 800 835086 -9581 0
0 0 0 822 835908 -8759 0
0 0 0 821 836729 -7938 0
0 0 0 736 837465 -7202 0
0 0 0 758 838223 -6444 0
0 0 0 732 838955 -5712 0
0 0 0 768 839723 -4944 0
0 0 0 811 840534 -4133 0
0 0 0 740 841274 -3393 0
0 0 0 801 842075 -2592 0
41 1 S102 852 842927 -1740 0
41 1 S102 813 843740 -927 0
41 1 S102 732 844472 -195 0
41 2 S102 757 845229 562 0
41 2 S102 780 846009 1342 0
41 2 S102 774 846783 2116 0
41 2 S102 707 847490 2823 0
41 2 S102 671 848161 3494 0
41 2 S102 699 848860 4193 0
41 2 S102 748 849608 4941 0
41 2 S102 942 850550 5883 0
41 2 S102 872 851422 6755 0
0 0 0 895 852317 -5762 0
0 0 0 779 853096 -4983 0
0 0 0 711 853807 -4272 0
0 0 0 688 854495 -3584 0
0 0 0 657 855152 -2927 0
0 0 0 644 855796 -2283 0
42 1 S112 632 856428 -1651 0
42 1 S112 645 857073 -1006 0
42 1 S112 688 857761 -318 0
42 2 S112 772 858533 454 0
42 2 S112 840 859373 1294 0
42 2 S112 809 860182 2103 0
42 2 S112 862 861044 2965 0
42 2 S112 912 861956 3877 0
42 2 S112 924 862880 4801 0
42 2 S112 804 863684 5605 0
42 2 S112 825 864509 6430 0
0 0 0 836 865345 -8351 0
0 0 0 939 866284 -7412 0
0 0 0 849 867133 -6563 0
0 0 0 1023 868156 -5540 0
0 0 0 1106 869262 -4434 0
0 0 0 853 870115 -3581 0
0 0 0 830 870945 -2751 0
43 1 S116 911 871856 -1840 0
43 1 S116 944 872800 -896 0
43 1 S116 808 873608 -88 0
43 2 S116 903 874511 815 0
43 2 S116 1185 875696 2000 1
43 2 S116 1060 876756 3060 0
43 2 S116 842 877598 3902 0
43 2 S116 869 878467 4771 0
43 2 S116 912 879379 5683 0
43 2 S116 970 880349 6653 0
0 0 0 841 881190 -6282 0
0 0 0 946 882136 -5336 0
0 0 0 923 883059 -4413 0
0 0 0 816 883875 -3597 0
0 0 0 777 884652 -2820 0
0 0 0 805 885457 -2015 0
44 1 S102 877 886334 -1138 0
44 1 S102 875 887209 -263 0
44 2 S102 780 887989 517 0
44 2 S102 837 888826 1354 0
44 2 S102 903 889729 2257 0
44 2 S102 850 890579 3107 0
44 2 S102 776 891355 3883 0
44 2 S102 808 892163 4691 0
44 2 S102 858 893021 5549 0
44 2 S102 921 893942 6470 0
0 0 0 822 894764 -8491 0
0 0 0 919 895683 -7572 0
0 0 0 958 896641 -6614 0
0 0 0 843 897484 -5771 0
0 0 0 853 898337 -4918 0
0 0 0 868 899205 -4050 0
0 0 0 875 900080 -3175 0
0 0 0 777 900857 -2398 0
45 1 S116 815 901672 -1583 0
45 1 S116 838 902510 -745 0
45 2 S116 868 903378 123 0
45 2 S116 783 904161 906 0
45 2 S116 941 905102 1847 0
45 2 S116 1049 906151 2896 0
45 2 S116 956 907107 3852 0
45 2 S116 876 907983 4728 0
45 2 S116 922 908905 5650 0
45 2 S116 928 909833 6578 0
0 0 0 803 910636 -10723 0
0 0 0 890 911526 -9833 0
0 0 0 906 912432 -8927 0
0 0 0 824 913256 -8103 0
0 0 0 768 914024 -7335 0
0 0 0 836 914860 -6499 0
0 0 0 1208 916068 -5291 1
0 0 0 1059 917127 -4232 0
0 0 0 952 918079 -3280 0
0 0 0 1062 919141 -2218 0
46 1 S102 970 920111 -1248 0
46 1 S102 774 920885 -474 0
46 2 S102 760 921645 286 0
46 2 S102 773 922418 1059 0
46 2 S102 1186 923604 2245 1
46 2 S102 858 924462 3103 0
46 2 S102 1000 925462 4103 0
46 2 S102 1140 926602 5243 1
46 2 S102 910 927512 6153 0
0 0 0 1067 928579 -8513 0
0 0 0 1150 929729 -7363 1
0 0 0 882 930611 -6481 0
0 0 0 804 931415 -5677 0
0 0 0 819 932234 -4858 0
0 0 0 941 933175 -3917 0
0 0 0 843 934018 -3074 0
0 0 0 909 934927 -2165 0
47 1 S112 1040 935967 -1125 0
47 1 S112 962 936929 -163 0
47 2 S112 817 937746 654 0
47 2 S112 907 938653 1561 0
47 2 S112 1048 939701 2609 0
47 2 S112 1050 940751 3659 0
47 2 S112 928 941679 4587 0
47 2 S112 1010 942689 5597 0
47 2 S112 957 943646 6554 0
0 0 0 829 944475 -10273 0
0 0 0 881 945356 -9392 0
0 0 0 899 946255 -8493 0
0 0 0 812 947067 -7681 0
0 0 0 772 947839 -6909 0
0 0 0 860 948699 -6049 0
0 0 0 926 949625 -5123 0
0 0 0 897 950522 -4226 0
0 0 0 796 951318 -3430 0
0 0 0 878 952196 -2552 0
48 1 S116 856 953052 -1696 0
48 1 S116 816 953868 -880 0
48 1 S116 811 954679 -69 0
48 2 S116 863 955542 794 0
48 2 S116 948 956490 1742 0
48 2 S116 847 957337 2589 0
48 2 S116 854 958191 3443 0
48 2 S116 849 959040 4292 0
48 2 S116 876 959916 5168 0
48 2 S116 812 960728 5980 0
48 2 S116 927 961655 6907 0
0 0 0 941 962596 -6326 0
0 0 0 809 963405 -5517 0
0 0 0 855 964260 -4662 0
0 0 0 866 965126 -3796 0
0 0 0 873 965999 -2923 0
0 0 0 833 966832 -2090 0
49 1 S112 894 967726 -1196 0
49 1 S112 1035 968761 -161 0
49 2 S112 819 969580 658 0
49 2 S112 934 970514 1592 0
49 2 S112 886 971400 2478 0
49 2 S112 828 972228 3306 0
49 2 S112 820 973048 4126 0
49 2 S112 871 973919 4997 0
49 2 S112 942 974861 5939 0
49 2 S112 816 975677 6755 0
0 0 0 915 976592 -10202 0
0 0 0 895 977487 -9307 0
0 0 0 877 978364 -8430 0
0 0 0 789 979153 -7641 0
0 0 0 935 980088 -6706 0
0 0 0 1094 981182 -5612 0
0 0 0 862 982044 -4750 0
0 0 0 866 982910 -3884 0
0 0 0 963 983873 -2921 0
50 1 S106 958 984831 -1963 0
50 1 S106 818 985649 -1145 0
50 1 S106 881 986530 -264 0
50 2 S106 916 987446 652 0
50 2 S106 851 988297 1503 0
50 2 S106 804 989101 2307 0
50 2 S106 866 989967 3173 0
50 2 S106 939 990906 4112 0
50 2 S106 824 991730 4936 0
50 2 S106 906 992636 5842 0
50 2 S106 953 993589 6795 0
0 0 0 934 994523 -5799 0
0 0 0 855 995378 -4944 0
0 0 0 893 996271 -4051 0
0 0 0 857 997128 -3194 0
0 0 0 755 997883 -2439 0
51 1 S112 809 998692 -1630 0
51 1 S112 862 999554 -768 0
51 2 S112 864 1000418 96 0
51 2 S112 780 1001198 876 0
51 2 S112 869 1002067 1745 0
51 2 S112 1240 1003307 2985 1
51 2 S112 999 1004306 3984 0
51 2 S112 914 1005220 4898 0
51 2 S112 963 1006183 5861 0
51 2 S112 945 1007128 6806 0
0 0 0 870 1007998 -6266 0
0 0 0 990 1008988 -5276 0
0 0 0 1066 1010054 -4210 0
0 0 0 820 1010874 -3390 0
0 0 0 891 1011765 -2499 0
52 1 S116 876 1012641 -1623 0
52 1 S116 824 1013465 -799 0
52 1 S116 781 1014246 -18 0
52 2 S116 850 1015096 832 0
52 2 S116 1127 1016223 1959 0
52 2 S116 942 1017165 2901 0
52 2 S116 801 1017966 3702 0
52 2 S116 876 1018842 4578 0
52 2 S116 932 1019774 5510 0
52 2 S116 838 1020612 6348 0
0 0 0 883 1021495 -8717 0
0 0 0 911 1022406 -7806 0
0 0 0 869 1023275 -6937 0
0 0 0 755 1024030 -6182 0
0 0 0 764 1024794 -5418 0
0 0 0 795 1025589 -4623 0
0 0 0 854 1026443 -3769 0
0 0 0 755 1027198 -3014 0
0 0 0 810 1028008 -2204 0
53 1 S106 820 1028828 -1384 0
53 1 S106 896 1029724 -488 0
53 2 S106 800 1030524 312 0
53 2 S106 868 1031392 1180 0
53 2 S106 891 1032283 2071 0
53 2 S106 838 1033121 2909 0
53 2 S106 771 1033892 3680 0
53 2 S106 827 1034719 4507 0
53 2 S106 890 1035609 5397 0
53 2 S106 976 1036585 6373 0
0 0 0 826 1037411 -6628 0
0 0 0 885 1038296 -5743 0
0 0 0 856 1039152 -4887 0
0 0 0 845 1039997 -4042 0
0 0 0 758 1040755 -3284 0
0 0 0 818 1041573 -2466 0
54 1 S102 897 1042470 -1569 0
54 1 S102 894 1043364 -675 0
54 2 S102 793 1044157 118 0
54 2 S102 851 1045008 969 0
54 2 S102 916 1045924 1885 0
54 2 S102 834 1046758 2719 0
54 2 S102 850 1047608 3569 0
54 2 S102 895 1048503 4464 0
54 2 S102 839 1049342 5303 0
54 2 S102 809 1050151 6112 0
54 2 S102 811 1050962 6923 0
0 0 0 844 1051806 -10237 0
0 0 0 751 1052557 -9486 0
0 0 0 816 1053373 -8670 0
0 0 0 809 1054182 -7861 0
0 0 0 798 1054980 -7063 0
0 0 0 737 1055717 -6326 0
0 0 0 768 1056485 -5558 0
0 0 0 805 1057290 -4753 0
0 0 0 827 1058117 -3926 0
0 0 0 750 1058867 -3176 0
0 0 0 822 1059689 -2354 0
55 1 S106 910 1060599 -1444 0
55 1 S106 865 1061464 -579 0
55 2 S106 778 1062242 199 0
55 2 S106 839 1063081 1038 0
55 2 S106 877 1063958 1915 0
55 2 S106 784 1064742 2699 0
55 2 S106 826 1065568 3525 0
55 2 S106 904 1066472 4429 0
55 2 S106 900 1067372 5329 0
55 2 S106 793 1068165 6122 0
55 2 S106 869 1069034 6991 0
0 0 0 896 1069930 -7780 0
0 0 0 881 1070811 -6899 0
0 0 0 765 1071576 -6134 0
0 0 0 817 1072393 -5317 0
0 0 0 819 1073212 -4498 0
0 0 0 873 1074085 -3625 0
0 0 0 770 1074855 -2855 0
0 0 0 844 1075699 -2011 0
56 1 S116 921 1076620 -1090 0
56 1 S116 889 1077509 -201 0
56 2 S116 798 1078307 597 0
56 2 S116 972 1079279 1569 0
56 2 S116 1089 1080368 2658 0
56 2 S116 832 1081200 3490 0
56 2 S116 891 1082091 4381 0
56 2 S116 997 1083088 5378 0
56 2 S116 945 1084033 6323 0
0 0 0 812 1084845 -6359 0
0 0 0 948 1085793 -5411 0
0 0 0 908 1086701 -4503 0
0 0 0 787 1087488 -3716 0
0 0 0 816 1088304 -2900 0
0 0 0 808 1089112 -2092 0
57 1 S106 864 1089976 -1228 0
57 1 S106 783 1090759 -445 0
57 2 S106 883 1091642 438 0
57 2 S106 904 1092546 1342 0
57 2 S106 799 1093345 2141 0
57 2 S106 806 1094151 2947 0
57 2 S106 822 1094973 3769 0
57 2 S106 854 1095827 4623 0
57 2 S106 768 1096595 5391 0
57 2 S106 926 1097521 6317 0
0 0 0 988 1098509 -8876 0
0 0 0 899 1099408 -7977 0
0 0 0 770 1100178 -7207 0
0 0 0 751 1100929 -6456 0
0 0 0 706 1101635 -5750 0
0 0 0 733 1102368 -5017 0
0 0 0 729 1103097 -4288 0
0 0 0 713 1103810 -3575 0
0 0 0 730 1104540 -2845 0
0 0 0 771 1105311 -2074 0
58 1 S102 758 1106069 -1316 0
58 1 S102 708 1106777 -608 0
58 2 S102 736 1107513 128 0
58 2 S102 755 1108268 883 0
58 2 S102 831 1109099 1714 0
58 2 S102 747 1109846 2461 0
58 2 S102 763 1110609 3224 0
58 2 S102 768 1111377 3992 0
58 2 S102 800 1112177 4792 0
58 2 S102 751 1112928 5543 0
58 2 S102 778 1113706 6321 0
0 0 0 864 1114570 -6674 0
0 0 0 949 1115519 -5725 0
0 0 0 829 1116348 -4896 0
0 0 0 828 1117176 -4068 0
0 0 0 891 1118067 -3177 0
0 0 0 962 1119029 -2215 0
59 1 S112 834 1119863 -1381 0
59 1 S112 876 1120739 -505 0
59 2 S112 919 1121658 414 0
59 2 S112 952 1122610 1366 0
59 2 S112 805 1123415 2171 0
59 2 S112 920 1124335 3091 0
59 2 S112 1007 1125342 4098 0
59 2 S112 890 1126232 4988 0
59 2 S112 789 1127021 5777 0
59 2 S112 834 1127855 6611 0
0 0 0 888 1128743 -8218 0
0 0 0 864 1129607 -7354 0
0 0 0 808 1130415 -6546 0
0 0 0 869 1131284 -5677 0
0 0 0 854 1132138 -4823 0
0 0 0 783 1132921 -4040 0
0 0 0 787 1133708 -3253 0
0 0 0 833 1134541 -2420 0
60 1 S102 886 1135427 -1534 0
60 1 S102 779 1136206 -755 0
60 2 S102 807 1137013 52 0
60 2 S102 852 1137865 904 0
60 2 S102 944 1138809 1848 0
60 2 S102 818 1139627 2666 0
60 2 S102 913 1140540 3579 0
60 2 S102 914 1141454 4493 0
60 2 S102 795 1142249 5288 0
60 2 S102 823 1143072 6111 0
60 2 S102 826 1143898 6937 0
0 0 0 813 1144711 -10337 0
0 0 0 763 1145474 -9574 0
0 0 0 731 1146205 -8843 0
0 0 0 765 1146970 -8078 0
0 0 0 755 1147725 -7323 0
0 0 0 721 1148446 -6602 0
0 0 0 742 1149188 -5860 0
0 0 0 758 1149946 -5102 0
0 0 0 789 1150735 -4313 0
0 0 0 724 1151459 -3589 0
0 0 0 761 1152220 -2828 0
0 0 0 749 1152969 -2079 0
61 1 S106 749 1153718 -1330 0
61 1 S106 710 1154428 -620 0
61 2 S106 772 1155200 152 0
61 2 S106 803 1156003 955 0
61 2 S106 761 1156764 1716 0
61 2 S106 740 1157504 2456 0
61 2 S106 842 1158346 3298 0
61 2 S106 933 1159279 4231 0
61 2 S106 868 1160147 5099 0
61 2 S106 897 1161044 5996 0
61 2 S106 913 1161957 6909 0
0 0 0 896 1162853 -5806 0
0 0 0 772 1163625 -5034 0
0 0 0 768 1164393 -4266 0
0 0 0 754 1165147 -3512 0
0 0 0 702 1165849 -2810 0
0 0 0 687 1166536 -2123 0
62 1 S112 667 1167203 -1456 0
62 1 S112 691 1167894 -765 0
62 1 S112 699 1168593 -66 0
62 2 S112 725 1169318 659 0
62 2 S112 873 1170191 1532 0
62 2 S112 1017 1171208 2549 0
62 2 S112 925 1172133 3474 0
62 2 S112 894 1173027 4368 0
62 2 S112 1073 1174100 5441 0
62 2 S112 965 1175065 6406 0
0 0 0 829 1175894 -10653 0
0 0 0 889 1176783 -9764 0
0 0 0 878 1177661 -8886 0
0 0 0 805 1178466 -8081 0
0 0 0 759 1179225 -7322 0
0 0 0 798 1180023 -6524 0
0 0 0 833 1180856 -5691 0
0 0 0 810 1181666 -4881 0
0 0 0 759 1182425 -4122 0
0 0 0 827 1183252 -3295 0
0 0 0 851 1184103 -2444 0
63 1 S102 864 1184967 -1580 0
63 1 S102 897 1185864 -683 0
63 2 S102 782 1186646 99 0
63 2 S102 783 1187429 882 0
63 2 S102 864 1188293 1746 0
63 2 S102 909 1189202 2655 0
63 2 S102 813 1190015 3468 0
63 2 S102 828 1190843 4296 0
63 2 S102 933 1191776 5229 0
63 2 S102 1012 1192788 6241 0
0 0 0 874 1193662 -8518 0
0 0 0 892 1194554 -7626 0
0 0 0 743 1195297 -6883 0
0 0 0 775 1196072 -6108 0
0 0 0 781 1196853 -5327 0
0 0 0 994 1197847 -4333 0
0 0 0 1010 1198857 -3323 0
0 0 0 873 1199730 -2450 0
64 1 S112 1114 1200844 -1336 0
64 1 S112 1062 1201906 -274 0
64 2 S112 842 1202748 568 0
64 2 S112 906 1203654 1474 0
64 2 S112 1103 1204757 2577 0
64 2 S112 928 1205685 3505 0
64 2 S112 843 1206528 4348 0
64 2 S112 862 1207390 5210 0
64 2 S112 782 1208172 5992 0
64 2 S112 846 1209018 6838 0
0 0 0 1194 1210212 -5728 1
0 0 0 1001 1211213 -4727 0
0 0 0 799 1212012 -3928 0
0 0 0 894 1212906 -3034 0
65 1 S106 1049 1213955 -1985 0
65 1 S106 971 1214926 -1014 0
65 1 S106 947 1215873 -67 0
65 2 S106 1095 1216968 1028 0
65 2 S106 1061 1218029 2089 0
65 2 S106 819 1218848 2908 0
65 2 S106 896 1219744 3804 0
65 2 S106 964 1220708 4768 0
65 2 S106 824 1221532 5592 0
65 2 S106 892 1222424 6484 0
0 0 0 919 1223343 -6357 0
0 0 0 908 1224251 -5449 0
0 0 0 793 1225044 -4656 0
0 0 0 821 1225865 -3835 0
0 0 0 738 1226603 -3097 0
0 0 0 720 1227323 -2377 0
66 1 S116 730 1228053 -1647 0
66 1 S116 731 1228784 -916 0
66 1 S116 765 1229549 -151 0
66 2 S116 821 1230370 670 0
66 2 S116 936 1231306 1606 0
66 2 S116 897 1232203 2503 0
66 2 S116 959 1233162 3462 0
66 2 S116 934 1234096 4396 0
66 2 S116 885 1234981 5281 0
66 2 S116 888 1235869 6169 0
0 0 0 918 1236787 -10984 0
0 0 0 874 1237661 -10110 0
0 0 0 784 1238445 -9326 0
0 0 0 795 1239240 -8531 0
0 0 0 775 1240015 -7756 0
0 0 0 799 1240814 -6957 0
0 0 0 752 1241566 -6205 0
0 0 0 862 1242428 -5343 0
0 0 0 1018 1243446 -4325 0
0 0 0 966 1244412 -3359 0
0 0 0 886 1245298 -2473 0
67 1 S102 922 1246220 -1551 0
67 1 S102 920 1247140 -631 0
67 2 S102 805 1247945 174 0
67 2 S102 887 1248832 1061 0
67 2 S102 938 1249770 1999 0
67 2 S102 867 1250637 2866 0
67 2 S102 911 1251548 3777 0
67 2 S102 1215 1252763 4992 1
67 2 S102 1016 1253779 6008 0
67 2 S102 849 1254628 6857 0
0 0 0 985 1255613 -6531 0
0 0 0 1016 1256629 -5515 0
0 0 0 826 1257455 -4689 0
0 0 0 868 1258323 -3821 0
0 0 0 891 1259214 -2930 0
0 0 0 860 1260074 -2070 0
68 1 S106 843 1260917 -1227 0
68 1 S106 900 1261817 -327 0
68 2 S106 987 1262804 660 0
68 2 S106 864 1263668 1524 0
68 2 S106 928 1264596 2452 0
68 2 S106 953 1265549 3405 0
68 2 S106 804 1266353 4209 0
68 2 S106 824 1267177 5033 0
68 2 S106 888 1268065 5921 0
68 2 S106 913 1268978 6834 0
0 0 0 846 1269824 -9943 0
0 0 0 984 1270808 -8959 0
0 0 0 914 1271722 -8045 0
0 0 0 782 1272504 -7263 0
0 0 0 813 1273317 -6450 0
0 0 0 862 1274179 -5588 0
0 0 0 888 1275067 -4700 0
0 0 0 790 1275857 -3910 0
0 0 0 843 1276700 -3067 0
0 0 0 845 1277545 -2222 0
69 1 S102 809 1278354 -1413 0
69 1 S102 742 1279096 -671 0
69 2 S102 782 1279878 111 0
69 2 S102 811 1280689 922 0
69 2 S102 840 1281529 1762 0
69 2 S102 758 1282287 2520 0
69 2 S102 775 1283062 3295 0
69 2 S102 760 1283822 4055 0
69 2 S102 782 1284604 4837 0
69 2 S102 740 1285344 5577 0
69 2 S102 701 1286045 6278 0
69 2 S102 738 1286783 7016 0
0 0 0 763 1287546 -7987 0
0 0 0 802 1288348 -7185 0
0 0 0 734 1289082 -6451 0
0 0 0 734 1289816 -5717 0
0 0 0 781 1290597 -4936 0
0 0 0 844 1291441 -4092 0
0 0 0 787 1292228 -3305 0
0 0 0 805 1293033 -2500 0
70 1 S112 810 1293843 -1690 0
70 1 S112 870 1294713 -820 0
70 2 S112 834 1295547 14 0
70 2 S112 844 1296391 858 0
70 2 S112 872 1297263 1730 0
70 2 S112 864 1298127 2594 0
70 2 S112 837 1298964 3431 0
70 2 S112 777 1299741 4208 0
70 2 S112 766 1300507 4974 0
70 2 S112 753 1301260 5727 0
70 2 S112 752 1302012 6479 0
0 0 0 719 1302731 -10210 0
0 0 0 710 1303441 -9500 0
0 0 0 750 1304191 -8750 0
0 0 0 790 1304981 -7960 0
0 0 0 753 1305734 -7207 0
0 0 0 760 1306494 -6447 0
0 0 0 800 1307294 -5647 0
0 0 0 933 1308227 -4714 0
0 0 0 859 1309086 -3855 0
0 0 0 832 1309918 -3023 0
0 0 0 790 1310708 -2233 0
71 1 S116 757 1311465 -1476 0
71 1 S116 705 1312170 -771 0
71 1 S116 733 1312903 -38 0
71 2 S116 742 1313645 704 0
71 2 S116 891 1314536 1595 0
71 2 S116 927 1315463 2522 0
71 2 S116 836 1316299 3358 0
71 2 S116 835 1317134 4193 0
71 2 S116 894 1318028 5087 0
71 2 S116 953 1318981 6040 0
71 2 S116 822 1319803 6862 0
0 0 0 866 1320669 -7872 0
0 0 0 869 1321538 -7003 0
0 0 0 813 1322351 -6190 0
0 0 0 766 1323117 -5424 0
0 0 0 844 1323961 -4580 0
0 0 0 899 1324860 -3681 0
0 0 0 913 1325773 -2768 0
72 1 S102 844 1326617 -1924 0
72 1 S102 903 1327520 -1021 0
72 1 S102 917 1328437 -104 0
72 2 S102 857 1329294 753 0
72 2 S102 834 1330128 1587 0
72 2 S102 867 1330995 2454 0
72 2 S102 889 1331884 3343 0
72 2 S102 803 1332687 4146 0
72 2 S102 838 1333525 4984 0
72 2 S102 827 1334352 5811 0
72 2 S102 760 1335112 6571 0
0 0 0 738 1335850 -6517 0
0 0 0 793 1336643 -5724 0
0 0 0 917 1337560 -4807 0
0 0 0 969 1338529 -3838 0
0 0 0 858 1339387 -2980 0
73 1 S116 985 1340372 -1995 0
73 1 S116 1087 1341459 -908 0
73 2 S116 930 1342389 22 0
73 2 S116 862 1343251 884 0
73 2 S116 1010 1344261 1894 0
73 2 S116 988 1345249 2882 0
73 2 S116 917 1346166 3799 0
73 2 S116 876 1347042 4675 0
73 2 S116 935 1347977 5610 0
73 2 S116 880 1348857 6490 0
0 0 0 809 1349666 -8252 0
0 0 0 894 1350560 -7358 0
0 0 0 816 1351376 -6542 0
0 0 0 732 1352108 -5810 0
0 0 0 749 1352857 -5061 0
0 0 0 707 1353564 -4354 0
0 0 0 682 1354246 -3672 0
0 0 0 703 1354949 -2969 0
0 0 0 702 1355651 -2267 0
74 1 S106 697 1356348 -1570 0
74 1 S106 726 1357074 -844 0
74 1 S106 761 1357835 -83 0
74 2 S106 789 1358624 706 0
74 2 S106 740 1359364 1446 0
74 2 S106 753 1360117 2199 0
74 2 S106 782 1360899 2981 0
74 2 S106 803 1361702 3784 0
74 2 S106 801 1362503 4585 0
74 2 S106 733 1363236 5318 0
74 2 S106 782 1364018 6100 0
74 2 S106 775 1364793 6875 0
0 0 0 818 1365611 -5918 0
0 0 0 837 1366448 -5081 0
0 0 0 767 1367215 -4314 0
0 0 0 768 1367983 -3546 0
0 0 0 1275 1369258 -2271 1
75 1 S112 1170 1370428 -1101 1
75 1 S112 832 1371260 -269 0
75 2 S112 886 1372146 617 0
75 2 S112 1219 1373365 1836 1
75 2 S112 998 1374363 2834 0
75 2 S112 895 1375258 3729 0
75 2 S112 1023 1376281 4752 0
75 2 S112 1105 1377386 5857 0
75 2 S112 860 1378246 6717 0
0 0 0 850 1379096 -5961 0
0 0 0 875 1379971 -5086 0
0 0 0 818 1380789 -4268 0
0 0 0 757 1381546 -3511 0
0 0 0 821 1382367 -2690 0
76 1 S116 957 1383324 -1733 0
76 1 S116 962 1384286 -771 0
76 2 S116 848 1385134 77 0
76 2 S116 1198 1386332 1275 1
76 2 S116 1196 1387528 2471 1
76 2 S116 1029 1388557 3500 0
76 2 S116 992 1389549 4492 0
76 2 S116 839 1390388 5331 0
76 2 S116 939 1391327 6270 0
0 0 0 1078 1392405 -6146 0
0 0 0 894 1393299 -5252 0
0 0 0 812 1394111 -4440 0
0 0 0 877 1394988 -3563 0
0 0 0 988 1395976 -2575 0
77 1 S106 829 1396805 -1746 0
77 1 S106 904 1397709 -842 0
77 2 S106 989 1398698 147 0
77 2 S106 1120 1399818 1267 0
77 2 S106 871 1400689 2138 0
77 2 S106 976 1401665 3114 0
77 2 S106 1087 1402752 4201 0
77 2 S106 832 1403584 5033 0
77 2 S106 923 1404507 5956 0
0 0 0 1195 1405702 -8566 1
0 0 0 836 1406538 -7730 0
0 0 0 910 1407448 -6820 0
0 0 0 907 1408355 -5913 0
0 0 0 855 1409210 -5058 0
0 0 0 858 1410068 -4200 0
0 0 0 1266 1411334 -2934 1
78 1 S112 1083 1412417 -1851 0
78 1 S112 888 1413305 -963 0
78 1 S112 928 1414233 -35 0
78 2 S112 1029 1415262 994 0
78 2 S112 915 1416177 1909 0
78 2 S112 942 1417119 2851 0
78 2 S112 848 1417967 3699 0
78 2 S112 973 1418940 4672 0
78 2 S112 900 1419840 5572 0
78 2 S112 992 1420832 6564 0
0 0 0 1232 1422064 -9992 1
0 0 0 1034 1423098 -8958 0
0 0 0 807 1423905 -8151 0
0 0 0 845 1424750 -7306 0
0 0 0 929 1425679 -6377 0
0 0 0 845 1426524 -5532 0
0 0 0 886 1427410 -4646 0
0 0 0 920 1428330 -3726 0
0 0 0 1050 1429380 -2676 0
79 1 S102 815 1430195 -1861 0
79 1 S102 912 1431107 -949 0
79 2 S102 1123 1432230 174 0
79 2 S102 912 1433142 1086 0
79 2 S102 853 1433995 1939 0
79 2 S102 1025 1435020 2964 0
79 2 S102 1065 1436085 4029 0
79 2 S102 825 1436910 4854 0
79 2 S102 887 1437797 5741 0
79 2 S102 976 1438773 6717 0
0 0 0 954 1439727 -8195 0
0 0 0 840 1440567 -7355 0
0 0 0 903 1441470 -6452 0
0 0 0 914 1442384 -5538 0
0 0 0 795 1443179 -4743 0
0 0 0 833 1444012 -3910 0
0 0 0 851 1444863 -3059 0
0 0 0 841 1445704 -2218 0
80 1 S116 774 1446478 -1444 0
80 1 S116 839 1447317 -605 0
80 2 S116 880 1448197 275 0
80 2 S116 908 1449105 1183 0
80 2 S116 798 1449903 1981 0
80 2 S116 889 1450792 2870 0
80 2 S116 886 1451678 3756 0
80 2 S116 843 1452521 4599 0
80 2 S116 824 1453345 5423 0
80 2 S116 860 1454205 6283 0
