T_0023
BeatCount Mean SD BeatCountNoOutliers MeanNoOutliers SDNoOutliers
2167 728,034610059991 65,7222899216223 2151 726,463970246397 63,062498640801

Trial TrialStatus Trialtype IBI AbsPosition RelPosition Outlier
0 0 0 786 1409 -14385 0
0 0 0 703 2112 -13682 0
0 0 0 661 2773 -13021 0
0 0 0 629 3402 -12392 0
0 0 0 627 4029 -11765 0
0 0 0 686 4715 -11079 0
0 0 0 825 5540 -10254 0
0 0 0 943 6483 -9311 1
0 0 0 917 7400 -8394 1
0 0 0 874 8274 -7520 0
0 0 0 864 9138 -6656 0
0 0 0 791 9929 -5865 0
0 0 0 741 10670 -5124 0
0 0 0 685 11355 -4439 0
0 0 0 692 12047 -3747 0
0 0 0 748 12795 -2999 0
0 0 0 777 13572 -2222 0
1 1 S112 804 14376 -1418 0
1 1 S112 831 15207 -587 0
1 2 S112 824 16031 237 0
1 2 S112 816 16847 1053 0
1 2 S112 818 17665 1871 0
1 2 S112 802 18467 2673 0
1 2 S112 768 19235 3441 0
1 2 S112 783 20018 4224 0
1 2 S112 759 20777 4983 0
1 2 S112 737 21514 5720 0
1 2 S112 728 22242 6448 0
0 0 0 740 22982 -11828 0
0 0 0 727 23709 -11101 0
0 0 0 728 24437 -10373 0
0 0 0 714 25151 -9659 0
0 0 0 707 25858 -8952 0
0 0 0 692 26550 -8260 0
0 0 0 701 27251 -7559 0
0 0 0 663 27914 -6896 0
0 0 0 653 28567 -6243 0
0 0 0 649 29216 -5594 0
0 0 0 693 29909 -4901 0
0 0 0 717 30626 -4184 0
0 0 0 692 31318 -3492 0
0 0 0 668 31986 -2824 0
0 0 0 668 32654 -2156 0
2 1 S102 687 33341 -1469 0
2 1 S102 725 34066 -744 0
2 2 S102 757 34823 13 0
2 2 S102 772 35595 785 0
2 2 S102 771 36366 1556 0
2 2 S102 749 37115 2305 0
2 2 S102 758 37873 3063 0
2 2 S102 750 38623 3813 0
2 2 S102 795 39418 4608 0
2 2 S102 802 40220 5410 0
2 2 S102 814 41034 6224 0
2 2 S102 788 41822 7012 0
0 0 0 751 42573 -10059 0
0 0 0 711 43284 -9348 0
0 0 0 725 44009 -8623 0
0 0 0 734 44743 -7889 0
0 0 0 748 45491 -7141 0
0 0 0 721 46212 -6420 0
0 0 0 694 46906 -5726 0
0 0 0 719 47625 -5007 0
0 0 0 771 48396 -4236 0
0 0 0 777 49173 -3459 0
0 0 0 758 49931 -2701 0
3 1 S116 776 50707 -1925 0
3 1 S116 771 51478 -1154 0
3 1 S116 750 52228 -404 0
3 2 S116 693 52921 289 0
3 2 S116 680 53601 969 0
3 2 S116 706 54307 1675 0
3 2 S116 760 55067 2435 0
3 2 S116 745 55812 3180 0
3 2 S116 774 56586 3954 0
3 2 S116 750 57336 4704 0
3 2 S116 751 58087 5455 0
3 2 S116 763 58850 6218 0
3 2 S116 792 59642 7010 0
0 0 0 759 60401 -12406 0
0 0 0 693 61094 -11713 0
0 0 0 692 61786 -11021 0
0 0 0 701 62487 -10320 0
0 0 0 707 63194 -9613 0
0 0 0 700 63894 -8913 0
0 0 0 680 64574 -8233 0
0 0 0 700 65274 -7533 0
0 0 0 713 65987 -6820 0
0 0 0 720 66707 -6100 0
0 0 0 682 67389 -5418 0
0 0 0 688 68077 -4730 0
0 0 0 707 68784 -4023 0
0 0 0 774 69558 -3249 0
0 0 0 771 70329 -2478 0
4 1 S106 745 71074 -1733 0
4 1 S106 718 71792 -1015 0
4 1 S106 721 72513 -294 0
4 2 S106 728 73241 434 0
4 2 S106 737 73978 1171 0
4 2 S106 742 74720 1913 0
4 2 S106 715 75435 2628 0
4 2 S106 721 76156 3349 0
4 2 S106 720 76876 4069 0
4 2 S106 732 77608 4801 0
4 2 S106 746 78354 5547 0
4 2 S106 707 79061 6254 0
4 2 S106 724 79785 6978 0
0 0 0 733 80518 -8404 0
0 0 0 727 81245 -7677 0
0 0 0 693 81938 -6984 0
0 0 0 687 82625 -6297 0
0 0 0 691 83316 -5606 0
0 0 0 723 84039 -4883 0
0 0 0 698 84737 -4185 0
0 0 0 684 85421 -3501 0
0 0 0 693 86114 -2808 0
0 0 0 704 86818 -2104 0
5 1 S116 729 87547 -1375 0
5 1 S116 747 88294 -628 0
5 2 S116 748 89042 120 0
5 2 S116 790 89832 910 0
5 2 S116 795 90627 1705 0
5 2 S116 800 91427 2505 0
5 2 S116 793 92220 3298 0
5 2 S116 758 92978 4056 0
5 2 S116 732 93710 4788 0
5 2 S116 713 94423 5501 0
5 2 S116 709 95132 6210 0
5 2 S116 681 95813 6891 0
0 0 0 687 96500 -11023 0
0 0 0 680 97180 -10343 0
0 0 0 686 97866 -9657 0
0 0 0 677 98543 -8980 0
0 0 0 674 99217 -8306 0
0 0 0 690 99907 -7616 0
0 0 0 746 100653 -6870 0
0 0 0 725 101378 -6145 0
0 0 0 765 102143 -5380 0
0 0 0 723 102866 -4657 0
0 0 0 771 103637 -3886 0
0 0 0 790 104427 -3096 0
0 0 0 838 105265 -2258 0
6 1 S106 833 106098 -1425 0
6 1 S106 798 106896 -627 0
6 2 S106 773 107669 146 0
6 2 S106 765 108434 911 0
6 2 S106 757 109191 1668 0
6 2 S106 700 109891 2368 0
6 2 S106 696 110587 3064 0
6 2 S106 695 111282 3759 0
6 2 S106 703 111985 4462 0
6 2 S106 700 112685 5162 0
6 2 S106 695 113380 5857 0
6 2 S106 711 114091 6568 0
0 0 0 754 114845 -11710 0
0 0 0 791 115636 -10919 0
0 0 0 746 116382 -10173 0
0 0 0 787 117169 -9386 0
0 0 0 768 117937 -8618 0
0 0 0 755 118692 -7863 0
0 0 0 714 119406 -7149 0
0 0 0 725 120131 -6424 0
0 0 0 743 120874 -5681 0
0 0 0 749 121623 -4932 0
0 0 0 755 122378 -4177 0
0 0 0 713 123091 -3464 0
0 0 0 713 123804 -2751 0
0 0 0 724 124528 -2027 0
7 1 S102 744 125272 -1283 0
7 1 S102 747 126019 -536 0
7 2 S102 708 126727 172 0
7 2 S102 714 127441 886 0
7 2 S102 733 128174 1619 0
7 2 S102 769 128943 2388 0
7 2 S102 756 129699 3144 0
7 2 S102 725 130424 3869 0
7 2 S102 748 131172 4617 0
7 2 S102 790 131962 5407 0
7 2 S102 819 132781 6226 0
7 2 S102 801 133582 7027 0
0 0 0 769 134351 -9395 0
0 0 0 732 135083 -8663 0
0 0 0 728 135811 -7935 0
0 0 0 754 136565 -7181 0
0 0 0 727 137292 -6454 0
0 0 0 714 138006 -5740 0
0 0 0 695 138701 -5045 0
0 0 0 703 139404 -4342 0
0 0 0 725 140129 -3617 0
0 0 0 750 140879 -2867 0
0 0 0 732 141611 -2135 0
8 1 S112 707 142318 -1428 0
8 1 S112 713 143031 -715 0
8 2 S112 731 143762 16 0
8 2 S112 781 144543 797 0
8 2 S112 850 145393 1647 0
8 2 S112 814 146207 2461 0
8 2 S112 817 147024 3278 0
8 2 S112 801 147825 4079 0
8 2 S112 814 148639 4893 0
8 2 S112 791 149430 5684 0
8 2 S112 724 150154 6408 0
0 0 0 707 150861 -8088 0
0 0 0 712 151573 -7376 0
0 0 0 708 152281 -6668 0
0 0 0 693 152974 -5975 0
0 0 0 666 153640 -5309 0
0 0 0 672 154312 -4637 0
0 0 0 649 154961 -3988 0
0 0 0 642 155603 -3346 0
0 0 0 633 156236 -2713 0
0 0 0 678 156914 -2035 0
9 1 S116 709 157623 -1326 0
9 1 S116 670 158293 -656 0
9 2 S116 672 158965 16 0
9 2 S116 715 159680 731 0
9 2 S116 758 160438 1489 0
9 2 S116 748 161186 2237 0
9 2 S116 703 161889 2940 0
9 2 S116 691 162580 3631 0
9 2 S116 691 163271 4322 0
9 2 S116 685 163956 5007 0
9 2 S116 678 164634 5685 0
9 2 S116 665 165299 6350 0
9 2 S116 674 165973 7024 0
0 0 0 677 166650 -12160 0
0 0 0 683 167333 -11477 0
0 0 0 692 168025 -10785 0
0 0 0 670 168695 -10115 0
0 0 0 696 169391 -9419 0
0 0 0 714 170105 -8705 0
0 0 0 726 170831 -7979 0
0 0 0 722 171553 -7257 0
0 0 0 718 172271 -6539 0
0 0 0 770 173041 -5769 0
0 0 0 794 173835 -4975 0
0 0 0 789 174624 -4186 0
0 0 0 770 175394 -3416 0
0 0 0 729 176123 -2687 0
10 1 S102 731 176854 -1956 0
10 1 S102 727 177581 -1229 0
10 1 S102 723 178304 -506 0
10 2 S102 725 179029 219 0
10 2 S102 704 179733 923 0
10 2 S102 690 180423 1613 0
10 2 S102 691 181114 2304 0
10 2 S102 711 181825 3015 0
10 2 S102 724 182549 3739 0
10 2 S102 726 183275 4465 0
10 2 S102 697 183972 5162 0
10 2 S102 708 184680 5870 0
10 2 S102 731 185411 6601 0
0 0 0 755 186166 -13184 0
0 0 0 755 186921 -12429 0
0 0 0 723 187644 -11706 0
0 0 0 733 188377 -10973 0
0 0 0 777 189154 -10196 0
0 0 0 766 189920 -9430 0
0 0 0 738 190658 -8692 0
0 0 0 689 191347 -8003 0
0 0 0 699 192046 -7304 0
0 0 0 705 192751 -6599 0
0 0 0 716 193467 -5883 0
0 0 0 699 194166 -5184 0
0 0 0 707 194873 -4477 0
0 0 0 729 195602 -3748 0
0 0 0 758 196360 -2990 0
0 0 0 755 197115 -2235 0
11 1 S112 732 197847 -1503 0
11 1 S112 747 198594 -756 0
11 2 S112 761 199355 5 0
11 2 S112 693 200048 698 0
11 2 S112 672 200720 1370 0
11 2 S112 661 201381 2031 0
11 2 S112 647 202028 2678 0
11 2 S112 642 202670 3320 0
11 2 S112 646 203316 3966 0
11 2 S112 679 203995 4645 0
11 2 S112 677 204672 5322 0
11 2 S112 697 205369 6019 0
11 2 S112 677 206046 6696 0
0 0 0 651 206697 -8436 0
0 0 0 648 207345 -7788 0
0 0 0 652 207997 -7136 0
0 0 0 680 208677 -6456 0
0 0 0 725 209402 -5731 0
0 0 0 710 210112 -5021 0
0 0 0 723 210835 -4298 0
0 0 0 732 211567 -3566 0
0 0 0 660 212227 -2906 0
0 0 0 640 212867 -2266 0
12 1 S116 620 213487 -1646 0
12 1 S116 626 214113 -1020 0
12 1 S116 617 214730 -403 0
12 2 S116 633 215363 230 0
12 2 S116 709 216072 939 0
12 2 S116 747 216819 1686 0
12 2 S116 759 217578 2445 0
12 2 S116 754 218332 3199 0
12 2 S116 746 219078 3945 0
12 2 S116 693 219771 4638 0
12 2 S116 683 220454 5321 0
12 2 S116 662 221116 5983 0
12 2 S116 642 221758 6625 0
0 0 0 620 222378 -12649 0
0 0 0 607 222985 -12042 0
0 0 0 596 223581 -11446 0
0 0 0 602 224183 -10844 0
0 0 0 627 224810 -10217 0
0 0 0 682 225492 -9535 0
0 0 0 708 226200 -8827 0
0 0 0 699 226899 -8128 0
0 0 0 716 227615 -7412 0
0 0 0 751 228366 -6661 0
0 0 0 799 229165 -5862 0
0 0 0 838 230003 -5024 0
0 0 0 891 230894 -4133 0
0 0 0 882 231776 -3251 0
0 0 0 875 232651 -2376 0
13 1 S112 868 233519 -1508 0
13 1 S112 861 234380 -647 0
13 2 S112 838 235218 191 0
13 2 S112 811 236029 1002 0
13 2 S112 822 236851 1824 0
13 2 S112 799 237650 2623 0
13 2 S112 795 238445 3418 0
13 2 S112 759 239204 4177 0
13 2 S112 741 239945 4918 0
13 2 S112 732 240677 5650 0
13 2 S112 755 241432 6405 0
0 0 0 755 242187 -10977 0
0 0 0 767 242954 -10210 0
0 0 0 746 243700 -9464 0
0 0 0 745 244445 -8719 0
0 0 0 727 245172 -7992 0
0 0 0 722 245894 -7270 0
0 0 0 693 246587 -6577 0
0 0 0 695 247282 -5882 0
0 0 0 726 248008 -5156 0
0 0 0 754 248762 -4402 0
0 0 0 746 249508 -3656 0
0 0 0 715 250223 -2941 0
0 0 0 737 250960 -2204 0
14 1 S106 744 251704 -1460 0
14 1 S106 758 252462 -702 0
14 2 S106 728 253190 26 0
14 2 S106 692 253882 718 0
14 2 S106 690 254572 1408 0
14 2 S106 706 255278 2114 0
14 2 S106 730 256008 2844 0
14 2 S106 744 256752 3588 0
14 2 S106 713 257465 4301 0
14 2 S106 717 258182 5018 0
14 2 S106 733 258915 5751 0
14 2 S106 713 259628 6464 0
0 0 0 688 260316 -12045 0
0 0 0 671 260987 -11374 0
0 0 0 660 261647 -10714 0
0 0 0 666 262313 -10048 0
0 0 0 669 262982 -9379 0
0 0 0 684 263666 -8695 0
0 0 0 691 264357 -8004 0
0 0 0 698 265055 -7306 0
0 0 0 668 265723 -6638 0
0 0 0 660 266383 -5978 0
0 0 0 674 267057 -5304 0
0 0 0 707 267764 -4597 0
0 0 0 742 268506 -3855 0
0 0 0 730 269236 -3125 0
0 0 0 711 269947 -2414 0
15 1 S116 711 270658 -1703 0
15 1 S116 688 271346 -1015 0
15 1 S116 668 272014 -347 0
15 2 S116 651 272665 304 0
15 2 S116 641 273306 945 0
15 2 S116 635 273941 1580 0
15 2 S116 631 274572 2211 0
15 2 S116 634 275206 2845 0
15 2 S116 698 275904 3543 0
15 2 S116 763 276667 4306 0
15 2 S116 799 277466 5105 0
15 2 S116 752 278218 5857 0
15 2 S116 736 278954 6593 0
0 0 0 730 279684 -10582 0
0 0 0 720 280404 -9862 0
0 0 0 700 281104 -9162 0
0 0 0 680 281784 -8482 0
0 0 0 702 282486 -7780 0
0 0 0 739 283225 -7041 0
0 0 0 722 283947 -6319 0
0 0 0 717 284664 -5602 0
0 0 0 691 285355 -4911 0
0 0 0 687 286042 -4224 0
0 0 0 704 286746 -3520 0
0 0 0 716 287462 -2804 0
0 0 0 705 288167 -2099 0
16 1 S116 708 288875 -1391 0
16 1 S116 681 289556 -710 0
16 1 S116 687 290243 -23 0
16 2 S116 682 290925 659 0
16 2 S116 688 291613 1347 0
16 2 S116 660 292273 2007 0
16 2 S116 660 292933 2667 0
16 2 S116 656 293589 3323 0
16 2 S116 638 294227 3961 0
16 2 S116 637 294864 4598 0
16 2 S116 640 295504 5238 0
16 2 S116 676 296180 5914 0
16 2 S116 753 296933 6667 0
0 0 0 784 297717 -10785 0
0 0 0 815 298532 -9970 0
0 0 0 854 299386 -9116 0
0 0 0 886 300272 -8230 0
0 0 0 872 301144 -7358 0
0 0 0 812 301956 -6546 0
0 0 0 769 302725 -5777 0
0 0 0 689 303414 -5088 0
0 0 0 662 304076 -4426 0
0 0 0 653 304729 -3773 0
0 0 0 635 305364 -3138 0
0 0 0 631 305995 -2507 0
17 1 S106 635 306630 -1872 0
17 1 S106 642 307272 -1230 0
17 1 S106 625 307897 -605 0
17 2 S106 620 308517 15 0
17 2 S106 621 309138 636 0
17 2 S106 627 309765 1263 0
17 2 S106 642 310407 1905 0
17 2 S106 663 311070 2568 0
17 2 S106 688 311758 3256 0
17 2 S106 683 312441 3939 0
17 2 S106 678 313119 4617 0
17 2 S106 681 313800 5298 0
17 2 S106 692 314492 5990 0
17 2 S106 706 315198 6696 0
0 0 0 698 315896 -12600 0
0 0 0 664 316560 -11936 0
0 0 0 657 317217 -11279 0
0 0 0 684 317901 -10595 0
0 0 0 746 318647 -9849 0
0 0 0 824 319471 -9025 0
0 0 0 827 320298 -8198 0
0 0 0 839 321137 -7359 0
0 0 0 812 321949 -6547 0
0 0 0 783 322732 -5764 0
0 0 0 762 323494 -5002 0
0 0 0 756 324250 -4246 0
0 0 0 746 324996 -3500 0
0 0 0 706 325702 -2794 0
0 0 0 706 326408 -2088 0
18 1 S102 710 327118 -1378 0
18 1 S102 728 327846 -650 0
18 2 S102 744 328590 94 0
18 2 S102 720 329310 814 0
18 2 S102 748 330058 1562 0
18 2 S102 736 330794 2298 0
18 2 S102 749 331543 3047 0
18 2 S102 709 332252 3756 0
18 2 S102 732 332984 4488 0
18 2 S102 738 333722 5226 0
18 2 S102 738 334460 5964 0
18 2 S102 705 335165 6669 0
0 0 0 694 335859 -7077 0
0 0 0 692 336551 -6385 0
0 0 0 736 337287 -5649 0
0 0 0 783 338070 -4866 0
0 0 0 750 338820 -4116 0
0 0 0 719 339539 -3397 0
0 0 0 678 340217 -2719 0
0 0 0 673 340890 -2046 0
19 1 S106 690 341580 -1356 0
19 1 S106 744 342324 -612 0
19 2 S106 776 343100 164 0
19 2 S106 719 343819 883 0
19 2 S106 728 344547 1611 0
19 2 S106 724 345271 2335 0
19 2 S106 768 346039 3103 0
19 2 S106 752 346791 3855 0
19 2 S106 711 347502 4566 0
19 2 S106 700 348202 5266 0
19 2 S106 698 348900 5964 0
19 2 S106 696 349596 6660 0
0 0 0 683 350279 -12136 0
0 0 0 672 350951 -11464 0
0 0 0 676 351627 -10788 0
0 0 0 680 352307 -10108 0
0 0 0 687 352994 -9421 0
0 0 0 666 353660 -8755 0
0 0 0 674 354334 -8081 0
0 0 0 681 355015 -7400 0
0 0 0 712 355727 -6688 0
0 0 0 699 356426 -5989 0
0 0 0 724 357150 -5265 0
0 0 0 757 357907 -4508 0
0 0 0 796 358703 -3712 0
0 0 0 829 359532 -2883 0
0 0 0 780 360312 -2103 0
20 1 S112 772 361084 -1331 0
20 1 S112 745 361829 -586 0
20 2 S112 737 362566 151 0
20 2 S112 741 363307 892 0
20 2 S112 727 364034 1619 0
20 2 S112 712 364746 2331 0
20 2 S112 738 365484 3069 0
20 2 S112 756 366240 3825 0
20 2 S112 768 367008 4593 0
20 2 S112 754 367762 5347 0
20 2 S112 750 368512 6097 0
20 2 S112 752 369264 6849 0
0 0 0 741 370005 -9187 0
0 0 0 739 370744 -8448 0
0 0 0 724 371468 -7724 0
0 0 0 749 372217 -6975 0
0 0 0 730 372947 -6245 0
0 0 0 743 373690 -5502 0
0 0 0 709 374399 -4793 0
0 0 0 690 375089 -4103 0
0 0 0 679 375768 -3424 0
0 0 0 681 376449 -2743 0
0 0 0 687 377136 -2056 0
21 1 S106 663 377799 -1393 0
21 1 S106 647 378446 -746 0
21 1 S106 640 379086 -106 0
21 2 S106 643 379729 537 0
21 2 S106 661 380390 1198 0
21 2 S106 715 381105 1913 0
21 2 S106 717 381822 2630 0
21 2 S106 689 382511 3319 0
21 2 S106 722 383233 4041 0
21 2 S106 725 383958 4766 0
21 2 S106 751 384709 5517 0
21 2 S106 729 385438 6246 0
21 2 S106 708 386146 6954 0
0 0 0 725 386871 -11917 0
0 0 0 710 387581 -11207 0
0 0 0 720 388301 -10487 0
0 0 0 691 388992 -9796 0
0 0 0 715 389707 -9081 0
0 0 0 707 390414 -8374 0
0 0 0 723 391137 -7651 0
0 0 0 702 391839 -6949 0
0 0 0 702 392541 -6247 0
0 0 0 730 393271 -5517 0
0 0 0 750 394021 -4767 0
0 0 0 760 394781 -4007 0
0 0 0 721 395502 -3286 0
0 0 0 719 396221 -2567 0
22 1 S116 722 396943 -1845 0
22 1 S116 725 397668 -1120 0
22 1 S116 738 398406 -382 0
22 2 S116 714 399120 332 0
22 2 S116 729 399849 1061 0
22 2 S116 755 400604 1816 0
22 2 S116 766 401370 2582 0
22 2 S116 782 402152 3364 0
22 2 S116 752 402904 4116 0
22 2 S116 803 403707 4919 0
22 2 S116 797 404504 5716 0
22 2 S116 774 405278 6490 0
0 0 0 728 406006 -10223 0
0 0 0 720 406726 -9503 0
0 0 0 719 407445 -8784 0
0 0 0 734 408179 -8050 0
0 0 0 706 408885 -7344 0
0 0 0 703 409588 -6641 0
0 0 0 701 410289 -5940 0
0 0 0 715 411004 -5225 0
0 0 0 691 411695 -4534 0
0 0 0 694 412389 -3840 0
0 0 0 730 413119 -3110 0
0 0 0 787 413906 -2323 0
23 1 S112 797 414703 -1526 0
23 1 S112 737 415440 -789 0
23 1 S112 723 416163 -66 0
23 2 S112 695 416858 629 0
23 2 S112 676 417534 1305 0
23 2 S112 667 418201 1972 0
23 2 S112 687 418888 2659 0
23 2 S112 690 419578 3349 0
23 2 S112 686 420264 4035 0
23 2 S112 711 420975 4746 0
23 2 S112 748 421723 5494 0
23 2 S112 771 422494 6265 0
23 2 S112 752 423246 7017 0
0 0 0 708 423954 -9649 0
0 0 0 708 424662 -8941 0
0 0 0 722 425384 -8219 0
0 0 0 772 426156 -7447 0
0 0 0 776 426932 -6671 0
0 0 0 715 427647 -5956 0
0 0 0 702 428349 -5254 0
0 0 0 718 429067 -4536 0
0 0 0 770 429837 -3766 0
0 0 0 797 430634 -2969 0
0 0 0 747 431381 -2222 0
24 1 S106 756 432137 -1466 0
24 1 S106 773 432910 -693 0
24 2 S106 802 433712 109 0
24 2 S106 855 434567 964 0
24 2 S106 817 435384 1781 0
24 2 S106 766 436150 2547 0
24 2 S106 724 436874 3271 0
24 2 S106 728 437602 3999 0
24 2 S106 744 438346 4743 0
24 2 S106 756 439102 5499 0
24 2 S106 792 439894 6291 0
0 0 0 817 440711 -9686 0
0 0 0 815 441526 -8871 0
0 0 0 811 442337 -8060 0
0 0 0 800 443137 -7260 0
0 0 0 743 443880 -6517 0
0 0 0 726 444606 -5791 0
0 0 0 693 445299 -5098 0
0 0 0 663 445962 -4435 0
0 0 0 661 446623 -3774 0
0 0 0 673 447296 -3101 0
0 0 0 709 448005 -2392 0
25 1 S102 712 448717 -1680 0
25 1 S102 674 449391 -1006 0
25 1 S102 698 450089 -308 0
25 2 S102 741 450830 433 0
25 2 S102 746 451576 1179 0
25 2 S102 779 452355 1958 0
25 2 S102 742 453097 2700 0
25 2 S102 740 453837 3440 0
25 2 S102 732 454569 4172 0
25 2 S102 731 455300 4903 0
25 2 S102 733 456033 5636 0
25 2 S102 695 456728 6331 0
25 2 S102 688 457416 7019 0
0 0 0 694 458110 -7953 0
0 0 0 715 458825 -7238 0
0 0 0 756 459581 -6482 0
0 0 0 733 460314 -5749 0
0 0 0 795 461109 -4954 0
0 0 0 749 461858 -4205 0
0 0 0 786 462644 -3419 0
0 0 0 710 463354 -2709 0
0 0 0 688 464042 -2021 0
26 1 S116 671 464713 -1350 0
26 1 S116 675 465388 -675 0
26 2 S116 731 466119 56 0
26 2 S116 708 466827 764 0
26 2 S116 673 467500 1437 0
26 2 S116 671 468171 2108 0
26 2 S116 644 468815 2752 0
26 2 S116 641 469456 3393 0
26 2 S116 636 470092 4029 0
26 2 S116 630 470722 4659 0
26 2 S116 634 471356 5293 0
26 2 S116 690 472046 5983 0
26 2 S116 681 472727 6664 0
0 0 0 675 473402 -7897 0
0 0 0 680 474082 -7217 0
0 0 0 693 474775 -6524 0
0 0 0 691 475466 -5833 0
0 0 0 679 476145 -5154 0
0 0 0 665 476810 -4489 0
0 0 0 647 477457 -3842 0
0 0 0 625 478082 -3217 0
0 0 0 609 478691 -2608 0
0 0 0 602 479293 -2006 0
27 1 S106 601 479894 -1405 0
27 1 S106 612 480506 -793 0
27 1 S106 629 481135 -164 0
27 2 S106 631 481766 467 0
27 2 S106 658 482424 1125 0
27 2 S106 838 483262 1963 0
27 2 S106 874 484136 2837 0
27 2 S106 909 485045 3746 1
27 2 S106 896 485941 4642 0
27 2 S106 860 486801 5502 0
27 2 S106 855 487656 6357 0
0 0 0 865 488521 -8312 0
0 0 0 879 489400 -7433 0
0 0 0 862 490262 -6571 0
0 0 0 850 491112 -5721 0
0 0 0 830 491942 -4891 0
0 0 0 794 492736 -4097 0
0 0 0 702 493438 -3395 0
0 0 0 681 494119 -2714 0
0 0 0 659 494778 -2055 0
28 1 S102 638 495416 -1417 0
28 1 S102 635 496051 -782 0
28 1 S102 625 496676 -157 0
28 2 S102 627 497303 470 0
28 2 S102 629 497932 1099 0
28 2 S102 625 498557 1724 0
28 2 S102 617 499174 2341 0
28 2 S102 613 499787 2954 0
28 2 S102 603 500390 3557 0
28 2 S102 600 500990 4157 0
28 2 S102 591 501581 4748 0
28 2 S102 591 502172 5339 0
28 2 S102 585 502757 5924 0
28 2 S102 653 503410 6577 0
0 0 0 716 504126 -12054 0
0 0 0 716 504842 -11338 0
0 0 0 716 505558 -10622 0
0 0 0 708 506266 -9914 0
0 0 0 717 506983 -9197 0
0 0 0 660 507643 -8537 0
0 0 0 645 508288 -7892 0
0 0 0 622 508910 -7270 0
0 0 0 609 509519 -6661 0
0 0 0 594 510113 -6067 0
0 0 0 590 510703 -5477 0
0 0 0 608 511311 -4869 0
0 0 0 756 512067 -4113 0
0 0 0 874 512941 -3239 0
0 0 0 861 513802 -2378 0
29 1 S112 867 514669 -1511 0
29 1 S112 873 515542 -638 0
29 2 S112 865 516407 227 0
29 2 S112 865 517272 1092 0
29 2 S112 870 518142 1962 0
29 2 S112 848 518990 2810 0
29 2 S112 806 519796 3616 0
29 2 S112 791 520587 4407 0
29 2 S112 763 521350 5170 0
29 2 S112 751 522101 5921 0
29 2 S112 750 522851 6671 0
0 0 0 754 523605 -7263 0
0 0 0 718 524323 -6545 0
0 0 0 728 525051 -5817 0
0 0 0 792 525843 -5025 0
0 0 0 751 526594 -4274 0
0 0 0 757 527351 -3517 0
0 0 0 700 528051 -2817 0
0 0 0 675 528726 -2142 0
30 1 S112 667 529393 -1475 0
30 1 S112 690 530083 -785 0
30 1 S112 730 530813 -55 0
30 2 S112 788 531601 733 0
30 2 S112 735 532336 1468 0
30 2 S112 755 533091 2223 0
30 2 S112 771 533862 2994 0
30 2 S112 827 534689 3821 0
30 2 S112 806 535495 4627 0
30 2 S112 763 536258 5390 0
30 2 S112 716 536974 6106 0
30 2 S112 713 537687 6819 0
0 0 0 714 538401 -8117 0
0 0 0 719 539120 -7398 0
0 0 0 701 539821 -6697 0
0 0 0 668 540489 -6029 0
0 0 0 667 541156 -5362 0
0 0 0 683 541839 -4679 0
0 0 0 714 542553 -3965 0
0 0 0 731 543284 -3234 0
0 0 0 708 543992 -2526 0
31 1 S106 766 544758 -1760 0
31 1 S106 817 545575 -943 0
31 1 S106 884 546459 -59 0
31 2 S106 874 547333 815 0
31 2 S106 783 548116 1598 0
31 2 S106 734 548850 2332 0
31 2 S106 719 549569 3051 0
31 2 S106 716 550285 3767 0
31 2 S106 719 551004 4486 0
31 2 S106 700 551704 5186 0
31 2 S106 692 552396 5878 0
31 2 S106 695 553091 6573 0
0 0 0 719 553810 -10381 0
0 0 0 728 554538 -9653 0
0 0 0 700 555238 -8953 0
0 0 0 694 555932 -8259 0
0 0 0 737 556669 -7522 0
0 0 0 734 557403 -6788 0
0 0 0 682 558085 -6106 0
0 0 0 668 558753 -5438 0
0 0 0 656 559409 -4782 0
0 0 0 654 560063 -4128 0
0 0 0 636 560699 -3492 0
0 0 0 610 561309 -2882 0
0 0 0 608 561917 -2274 0
32 1 S102 607 562524 -1667 0
32 1 S102 639 563163 -1028 0
32 1 S102 710 563873 -318 0
32 2 S102 731 564604 413 0
32 2 S102 694 565298 1107 0
32 2 S102 688 565986 1795 0
32 2 S102 706 566692 2501 0
32 2 S102 744 567436 3245 0
32 2 S102 779 568215 4024 0
32 2 S102 757 568972 4781 0
32 2 S102 706 569678 5487 0
32 2 S102 693 570371 6180 0
32 2 S102 661 571032 6841 0
0 0 0 650 571682 -12104 0
0 0 0 654 572336 -11450 0
0 0 0 632 572968 -10818 0
0 0 0 631 573599 -10187 0
0 0 0 636 574235 -9551 0
0 0 0 682 574917 -8869 0
0 0 0 701 575618 -8168 0
0 0 0 769 576387 -7399 0
0 0 0 771 577158 -6628 0
0 0 0 778 577936 -5850 0
0 0 0 821 578757 -5029 0
0 0 0 883 579640 -4146 0
0 0 0 873 580513 -3273 0
0 0 0 831 581344 -2442 0
33 1 S112 836 582180 -1606 0
33 1 S112 838 583018 -768 0
33 2 S112 835 583853 67 0
33 2 S112 808 584661 875 0
33 2 S112 770 585431 1645 0
33 2 S112 748 586179 2393 0
33 2 S112 755 586934 3148 0
33 2 S112 772 587706 3920 0
33 2 S112 757 588463 4677 0
33 2 S112 743 589206 5420 0
33 2 S112 717 589923 6137 0
33 2 S112 736 590659 6873 0
0 0 0 728 591387 -11763 0
0 0 0 738 592125 -11025 0
0 0 0 750 592875 -10275 0
0 0 0 747 593622 -9528 0
0 0 0 753 594375 -8775 0
0 0 0 697 595072 -8078 0
0 0 0 677 595749 -7401 0
0 0 0 652 596401 -6749 0
0 0 0 652 597053 -6097 0
0 0 0 654 597707 -5443 0
0 0 0 641 598348 -4802 0
0 0 0 666 599014 -4136 0
0 0 0 738 599752 -3398 0
0 0 0 752 600504 -2646 0
34 1 S106 721 601225 -1925 0
34 1 S106 755 601980 -1170 0
34 1 S106 796 602776 -374 0
34 2 S106 823 603599 449 0
34 2 S106 828 604427 1277 0
34 2 S106 753 605180 2030 0
34 2 S106 750 605930 2780 0
34 2 S106 756 606686 3536 0
34 2 S106 745 607431 4281 0
34 2 S106 718 608149 4999 0
34 2 S106 699 608848 5698 0
34 2 S106 721 609569 6419 0
0 0 0 756 610325 -9420 0
0 0 0 766 611091 -8654 0
0 0 0 769 611860 -7885 0
0 0 0 781 612641 -7104 0
0 0 0 784 613425 -6320 0
0 0 0 762 614187 -5558 0
0 0 0 709 614896 -4849 0
0 0 0 678 615574 -4171 0
0 0 0 665 616239 -3506 0
0 0 0 675 616914 -2831 0
0 0 0 705 617619 -2126 0
35 1 S102 702 618321 -1424 0
35 1 S102 677 618998 -747 0
35 1 S102 690 619688 -57 0
35 2 S102 705 620393 648 0
35 2 S102 744 621137 1392 0
35 2 S102 737 621874 2129 0
35 2 S102 716 622590 2845 0
35 2 S102 734 623324 3579 0
35 2 S102 757 624081 4336 0
35 2 S102 746 624827 5082 0
35 2 S102 716 625543 5798 0
35 2 S102 691 626234 6489 0
0 0 0 701 626935 -8858 0
0 0 0 708 627643 -8150 0
0 0 0 709 628352 -7441 0
0 0 0 690 629042 -6751 0
0 0 0 691 629733 -6060 0
0 0 0 699 630432 -5361 0
0 0 0 687 631119 -4674 0
0 0 0 663 631782 -4011 0
0 0 0 647 632429 -3364 0
0 0 0 647 633076 -2717 0
0 0 0 659 633735 -2058 0
36 1 S106 698 634433 -1360 0
36 1 S106 742 635175 -618 0
36 2 S106 712 635887 94 0
36 2 S106 768 636655 862 0
36 2 S106 769 637424 1631 0
36 2 S106 708 638132 2339 0
36 2 S106 690 638822 3029 0
36 2 S106 663 639485 3692 0
36 2 S106 645 640130 4337 0
36 2 S106 632 640762 4969 0
36 2 S106 634 641396 5603 0
36 2 S106 657 642053 6260 0
36 2 S106 679 642732 6939 0
0 0 0 685 643417 -10247 0
0 0 0 672 644089 -9575 0
0 0 0 660 644749 -8915 0
0 0 0 669 645418 -8246 0
0 0 0 698 646116 -7548 0
0 0 0 689 646805 -6859 0
0 0 0 686 647491 -6173 0
0 0 0 657 648148 -5516 0
0 0 0 662 648810 -4854 0
0 0 0 660 649470 -4194 0
0 0 0 657 650127 -3537 0
0 0 0 652 650779 -2885 0
0 0 0 665 651444 -2220 0
37 1 S116 658 652102 -1562 0
37 1 S116 661 652763 -901 0
37 1 S116 705 653468 -196 0
37 2 S116 923 654391 727 1
37 2 S116 864 655255 1591 0
37 2 S116 874 656129 2465 0
37 2 S116 825 656954 3290 0
37 2 S116 807 657761 4097 0
37 2 S116 769 658530 4866 0
37 2 S116 721 659251 5587 0
37 2 S116 692 659943 6279 0
37 2 S116 675 660618 6954 0
0 0 0 664 661282 -12011 0
0 0 0 665 661947 -11346 0
0 0 0 671 662618 -10675 0
0 0 0 674 663292 -10001 0
0 0 0 673 663965 -9328 0
0 0 0 663 664628 -8665 0
0 0 0 660 665288 -8005 0
0 0 0 659 665947 -7346 0
0 0 0 646 666593 -6700 0
0 0 0 643 667236 -6057 0
0 0 0 666 667902 -5391 0
0 0 0 697 668599 -4694 0
0 0 0 710 669309 -3984 0
0 0 0 678 669987 -3306 0
0 0 0 678 670665 -2628 0
38 1 S102 695 671360 -1933 0
38 1 S102 724 672084 -1209 0
38 1 S102 727 672811 -482 0
38 2 S102 742 673553 260 0
38 2 S102 703 674256 963 0
38 2 S102 722 674978 1685 0
38 2 S102 718 675696 2403 0
38 2 S102 718 676414 3121 0
38 2 S102 704 677118 3825 0
38 2 S102 681 677799 4506 0
38 2 S102 680 678479 5186 0
38 2 S102 681 679160 5867 0
38 2 S102 705 679865 6572 0
0 0 0 707 680572 -10029 0
0 0 0 687 681259 -9342 0
0 0 0 694 681953 -8648 0
0 0 0 714 682667 -7934 0
0 0 0 773 683440 -7161 0
0 0 0 778 684218 -6383 0
0 0 0 734 684952 -5649 0
0 0 0 732 685684 -4917 0
0 0 0 738 686422 -4179 0
0 0 0 752 687174 -3427 0
0 0 0 738 687912 -2689 0
39 1 S116 739 688651 -1950 0
39 1 S116 741 689392 -1209 0
39 1 S116 754 690146 -455 0
39 2 S116 737 690883 282 0
39 2 S116 701 691584 983 0
39 2 S116 712 692296 1695 0
39 2 S116 733 693029 2428 0
39 2 S116 708 693737 3136 0
39 2 S116 701 694438 3837 0
39 2 S116 681 695119 4518 0
39 2 S116 667 695786 5185 0
39 2 S116 673 696459 5858 0
39 2 S116 693 697152 6551 0
0 0 0 727 697879 -8571 0
0 0 0 729 698608 -7842 0
0 0 0 732 699340 -7110 0
0 0 0 734 700074 -6376 0
0 0 0 730 700804 -5646 0
0 0 0 737 701541 -4909 0
0 0 0 713 702254 -4196 0
0 0 0 695 702949 -3501 0
0 0 0 675 703624 -2826 0
0 0 0 674 704298 -2152 0
40 1 S112 681 704979 -1471 0
40 1 S112 689 705668 -782 0
40 1 S112 668 706336 -114 0
40 2 S112 659 706995 545 0
40 2 S112 680 707675 1225 0
40 2 S112 707 708382 1932 0
40 2 S112 720 709102 2652 0
40 2 S112 725 709827 3377 0
40 2 S112 757 710584 4134 0
40 2 S112 748 711332 4882 0
40 2 S112 735 712067 5617 0
40 2 S112 742 712809 6359 0
0 0 0 714 713523 -188187 0
0 0 0 710 714233 -187477 0
0 0 0 707 714940 -186770 0
0 0 0 706 715646 -186064 0
0 0 0 701 716347 -185363 0
0 0 0 677 717024 -184686 0
0 0 0 692 717716 -183994 0
0 0 0 708 718424 -183286 0
0 0 0 726 719150 -182560 0
0 0 0 700 719850 -181860 0
0 0 0 659 720509 -181201 0
0 0 0 636 721145 -180565 0
0 0 0 613 721758 -179952 0
0 0 0 1229 722987 -178723 1
0 0 0 676 723663 -178047 0
0 0 0 711 724374 -177336 0
0 0 0 698 725072 -176638 0
0 0 0 706 725778 -175932 0
0 0 0 703 726481 -175229 0
0 0 0 694 727175 -174535 0
0 0 0 672 727847 -173863 0
0 0 0 658 728505 -173205 0
0 0 0 646 729151 -172559 0
0 0 0 632 729783 -171927 0
0 0 0 629 730412 -171298 0
0 0 0 597 731009 -170701 0
0 0 0 599 731608 -170102 0
0 0 0 593 732201 -169509 0
0 0 0 607 732808 -168902 0
0 0 0 607 733415 -168295 0
0 0 0 617 734032 -167678 0
0 0 0 627 734659 -167051 0
0 0 0 664 735323 -166387 0
0 0 0 644 735967 -165743 0
0 0 0 649 736616 -165094 0
0 0 0 625 737241 -164469 0
0 0 0 633 737874 -163836 0
0 0 0 655 738529 -163181 0
0 0 0 711 739240 -162470 0
0 0 0 738 739978 -161732 0
0 0 0 770 740748 -160962 0
0 0 0 790 741538 -160172 0
0 0 0 730 742268 -159442 0
0 0 0 732 743000 -158710 0
0 0 0 687 743687 -158023 0
0 0 0 691 744378 -157332 0
0 0 0 661 745039 -156671 0
0 0 0 635 745674 -156036 0
0 0 0 624 746298 -155412 0
0 0 0 611 746909 -154801 0
0 0 0 607 747516 -154194 0
0 0 0 624 748140 -153570 0
0 0 0 672 748812 -152898 0
0 0 0 776 749588 -152122 0
0 0 0 749 750337 -151373 0
0 0 0 723 751060 -150650 0
0 0 0 795 751855 -149855 0
0 0 0 773 752628 -149082 0
0 0 0 758 753386 -148324 0
0 0 0 711 754097 -147613 0
0 0 0 670 754767 -146943 0
0 0 0 654 755421 -146289 0
0 0 0 640 756061 -145649 0
0 0 0 655 756716 -144994 0
0 0 0 696 757412 -144298 0
0 0 0 725 758137 -143573 0
0 0 0 819 758956 -142754 0
0 0 0 860 759816 -141894 0
0 0 0 796 760612 -141098 0
0 0 0 759 761371 -140339 0
0 0 0 743 762114 -139596 0
0 0 0 700 762814 -138896 0
0 0 0 682 763496 -138214 0
0 0 0 686 764182 -137528 0
0 0 0 662 764844 -136866 0
0 0 0 644 765488 -136222 0
0 0 0 649 766137 -135573 0
0 0 0 660 766797 -134913 0
0 0 0 702 767499 -134211 0
0 0 0 717 768216 -133494 0
0 0 0 736 768952 -132758 0
0 0 0 767 769719 -131991 0
0 0 0 775 770494 -131216 0
0 0 0 786 771280 -130430 0
0 0 0 781 772061 -129649 0
0 0 0 806 772867 -128843 0
0 0 0 740 773607 -128103 0
0 0 0 681 774288 -127422 0
0 0 0 658 774946 -126764 0
0 0 0 648 775594 -126116 0
0 0 0 626 776220 -125490 0
0 0 0 623 776843 -124867 0
0 0 0 679 777522 -124188 0
0 0 0 756 778278 -123432 0
0 0 0 858 779136 -122574 0
0 0 0 737 779873 -121837 0
0 0 0 731 780604 -121106 0
0 0 0 693 781297 -120413 0
0 0 0 677 781974 -119736 0
0 0 0 673 782647 -119063 0
0 0 0 690 783337 -118373 0
0 0 0 744 784081 -117629 0
0 0 0 785 784866 -116844 0
0 0 0 697 785563 -116147 0
0 0 0 692 786255 -115455 0
0 0 0 683 786938 -114772 0
0 0 0 706 787644 -114066 0
0 0 0 713 788357 -113353 0
0 0 0 746 789103 -112607 0
0 0 0 791 789894 -111816 0
0 0 0 835 790729 -110981 0
0 0 0 813 791542 -110168 0
0 0 0 800 792342 -109368 0
0 0 0 782 793124 -108586 0
0 0 0 776 793900 -107810 0
0 0 0 761 794661 -107049 0
0 0 0 773 795434 -106276 0
0 0 0 768 796202 -105508 0
0 0 0 758 796960 -104750 0
0 0 0 713 797673 -104037 0
0 0 0 690 798363 -103347 0
0 0 0 695 799058 -102652 0
0 0 0 725 799783 -101927 0
0 0 0 805 800588 -101122 0
0 0 0 868 801456 -100254 0
0 0 0 869 802325 -99385 0
0 0 0 833 803158 -98552 0
0 0 0 784 803942 -97768 0
0 0 0 758 804700 -97010 0
0 0 0 774 805474 -96236 0
0 0 0 802 806276 -95434 0
0 0 0 868 807144 -94566 0
0 0 0 845 807989 -93721 0
0 0 0 805 808794 -92916 0
0 0 0 767 809561 -92149 0
0 0 0 785 810346 -91364 0
0 0 0 759 811105 -90605 0
0 0 0 758 811863 -89847 0
0 0 0 766 812629 -89081 0
0 0 0 717 813346 -88364 0
0 0 0 748 814094 -87616 0
0 0 0 823 814917 -86793 0
0 0 0 865 815782 -85928 0
0 0 0 870 816652 -85058 0
0 0 0 818 817470 -84240 0
0 0 0 813 818283 -83427 0
0 0 0 815 819098 -82612 0
0 0 0 805 819903 -81807 0
0 0 0 745 820648 -81062 0
0 0 0 715 821363 -80347 0
0 0 0 722 822085 -79625 0
0 0 0 763 822848 -78862 0
0 0 0 813 823661 -78049 0
0 0 0 736 824397 -77313 0
0 0 0 728 825125 -76585 0
0 0 0 730 825855 -75855 0
0 0 0 745 826600 -75110 0
0 0 0 760 827360 -74350 0
0 0 0 707 828067 -73643 0
0 0 0 721 828788 -72922 0
0 0 0 735 829523 -72187 0
0 0 0 771 830294 -71416 0
0 0 0 736 831030 -70680 0
0 0 0 687 831717 -69993 0
0 0 0 684 832401 -69309 0
0 0 0 680 833081 -68629 0
0 0 0 731 833812 -67898 0
0 0 0 734 834546 -67164 0
0 0 0 739 835285 -66425 0
0 0 0 766 836051 -65659 0
0 0 0 801 836852 -64858 0
0 0 0 767 837619 -64091 0
0 0 0 726 838345 -63365 0
0 0 0 746 839091 -62619 0
0 0 0 735 839826 -61884 0
0 0 0 747 840573 -61137 0
0 0 0 712 841285 -60425 0
0 0 0 701 841986 -59724 0
0 0 0 709 842695 -59015 0
0 0 0 710 843405 -58305 0
0 0 0 682 844087 -57623 0
0 0 0 697 844784 -56926 0
0 0 0 745 845529 -56181 0
0 0 0 715 846244 -55466 0
0 0 0 729 846973 -54737 0
0 0 0 745 847718 -53992 0
0 0 0 705 848423 -53287 0
0 0 0 736 849159 -52551 0
0 0 0 754 849913 -51797 0
0 0 0 730 850643 -51067 0
0 0 0 732 851375 -50335 0
0 0 0 717 852092 -49618 0
0 0 0 722 852814 -48896 0
0 0 0 702 853516 -48194 0
0 0 0 694 854210 -47500 0
0 0 0 678 854888 -46822 0
0 0 0 651 855539 -46171 0
0 0 0 647 856186 -45524 0
0 0 0 640 856826 -44884 0
0 0 0 650 857476 -44234 0
0 0 0 670 858146 -43564 0
0 0 0 665 858811 -42899 0
0 0 0 682 859493 -42217 0
0 0 0 717 860210 -41500 0
0 0 0 718 860928 -40782 0
0 0 0 707 861635 -40075 0
0 0 0 810 862445 -39265 0
0 0 0 840 863285 -38425 0
0 0 0 837 864122 -37588 0
0 0 0 851 864973 -36737 0
0 0 0 872 865845 -35865 0
0 0 0 854 866699 -35011 0
0 0 0 823 867522 -34188 0
0 0 0 797 868319 -33391 0
0 0 0 786 869105 -32605 0
0 0 0 773 869878 -31832 0
0 0 0 740 870618 -31092 0
0 0 0 711 871329 -30381 0
0 0 0 705 872034 -29676 0
0 0 0 729 872763 -28947 0
0 0 0 737 873500 -28210 0
0 0 0 725 874225 -27485 0
0 0 0 710 874935 -26775 0
0 0 0 689 875624 -26086 0
0 0 0 768 876392 -25318 0
0 0 0 845 877237 -24473 0
0 0 0 802 878039 -23671 0
0 0 0 682 878721 -22989 0
0 0 0 693 879414 -22296 0
0 0 0 743 880157 -21553 0
0 0 0 947 881104 -20606 1
0 0 0 880 881984 -19726 0
0 0 0 884 882868 -18842 0
0 0 0 917 883785 -17925 1
0 0 0 904 884689 -17021 1
0 0 0 868 885557 -16153 0
0 0 0 846 886403 -15307 0
0 0 0 833 887236 -14474 0
0 0 0 769 888005 -13705 0
0 0 0 746 888751 -12959 0
0 0 0 752 889503 -12207 0
0 0 0 713 890216 -11494 0
0 0 0 709 890925 -10785 0
0 0 0 704 891629 -10081 0
0 0 0 695 892324 -9386 0
0 0 0 700 893024 -8686 0
0 0 0 690 893714 -7996 0
0 0 0 730 894444 -7266 0
0 0 0 775 895219 -6491 0
0 0 0 762 895981 -5729 0
0 0 0 764 896745 -4965 0
0 0 0 766 897511 -4199 0
0 0 0 749 898260 -3450 0
0 0 0 729 898989 -2721 0
41 1 S102 738 899727 -1983 0
41 1 S102 730 900457 -1253 0
41 1 S102 734 901191 -519 0
41 2 S102 691 901882 172 0
41 2 S102 658 902540 830 0
41 2 S102 664 903204 1494 0
41 2 S102 747 903951 2241 0
41 2 S102 891 904842 3132 0
41 2 S102 845 905687 3977 0
41 2 S102 819 906506 4796 0
41 2 S102 830 907336 5626 0
41 2 S102 841 908177 6467 0
0 0 0 842 909019 -8407 0
0 0 0 838 909857 -7569 0
0 0 0 809 910666 -6760 0
0 0 0 814 911480 -5946 0
0 0 0 809 912289 -5137 0
0 0 0 754 913043 -4383 0
0 0 0 709 913752 -3674 0
0 0 0 661 914413 -3013 0
0 0 0 638 915051 -2375 0
42 1 S112 610 915661 -1765 0
42 1 S112 607 916268 -1158 0
42 1 S112 608 916876 -550 0
42 2 S112 677 917553 127 0
42 2 S112 848 918401 975 0
42 2 S112 848 919249 1823 0
42 2 S112 890 920139 2713 0
42 2 S112 865 921004 3578 0
42 2 S112 835 921839 4413 0
42 2 S112 842 922681 5255 0
42 2 S112 841 923522 6096 0
42 2 S112 814 924336 6910 0
0 0 0 767 925103 -8819 0
0 0 0 723 925826 -8096 0
0 0 0 727 926553 -7369 0
0 0 0 709 927262 -6660 0
0 0 0 692 927954 -5968 0
0 0 0 667 928621 -5301 0
0 0 0 698 929319 -4603 0
0 0 0 708 930027 -3895 0
0 0 0 752 930779 -3143 0
0 0 0 818 931597 -2325 0
43 1 S116 844 932441 -1481 0
43 1 S116 796 933237 -685 0
43 2 S116 753 933990 68 0
43 2 S116 721 934711 789 0
43 2 S116 696 935407 1485 0
43 2 S116 702 936109 2187 0
43 2 S116 666 936775 2853 0
43 2 S116 656 937431 3509 0
43 2 S116 648 938079 4157 0
43 2 S116 649 938728 4806 0
43 2 S116 690 939418 5496 0
43 2 S116 759 940177 6255 0
0 0 0 785 940962 -9107 0
0 0 0 812 941774 -8295 0
0 0 0 746 942520 -7549 0
0 0 0 723 943243 -6826 0
0 0 0 707 943950 -6119 0
0 0 0 697 944647 -5422 0
0 0 0 675 945322 -4747 0
0 0 0 657 945979 -4090 0
0 0 0 641 946620 -3449 0
0 0 0 633 947253 -2816 0
0 0 0 632 947885 -2184 0
44 1 S102 678 948563 -1506 0
44 1 S102 774 949337 -732 0
44 2 S102 920 950257 188 1
44 2 S102 873 951130 1061 0
44 2 S102 881 952011 1942 0
44 2 S102 862 952873 2804 0
44 2 S102 842 953715 3646 0
44 2 S102 823 954538 4469 0
44 2 S102 768 955306 5237 0
44 2 S102 725 956031 5962 0
44 2 S102 700 956731 6662 0
0 0 0 694 957425 -8194 0
0 0 0 698 958123 -7496 0
0 0 0 693 958816 -6803 0
0 0 0 670 959486 -6133 0
0 0 0 650 960136 -5483 0
0 0 0 639 960775 -4844 0
0 0 0 628 961403 -4216 0
0 0 0 618 962021 -3598 0
0 0 0 626 962647 -2972 0
0 0 0 648 963295 -2324 0
45 1 S116 687 963982 -1637 0
45 1 S116 754 964736 -883 0
45 1 S116 799 965535 -84 0
45 2 S116 787 966322 703 0
45 2 S116 742 967064 1445 0
45 2 S116 723 967787 2168 0
45 2 S116 738 968525 2906 0
45 2 S116 771 969296 3677 0
45 2 S116 754 970050 4431 0
45 2 S116 689 970739 5120 0
45 2 S116 681 971420 5801 0
45 2 S116 694 972114 6495 0
0 0 0 687 972801 -12845 0
0 0 0 690 973491 -12155 0
0 0 0 664 974155 -11491 0
0 0 0 680 974835 -10811 0
0 0 0 692 975527 -10119 0
0 0 0 747 976274 -9372 0
0 0 0 702 976976 -8670 0
0 0 0 710 977686 -7960 0
0 0 0 730 978416 -7230 0
0 0 0 726 979142 -6504 0
0 0 0 694 979836 -5810 0
0 0 0 712 980548 -5098 0
0 0 0 721 981269 -4377 0
0 0 0 740 982009 -3637 0
0 0 0 744 982753 -2893 0
0 0 0 698 983451 -2195 0
46 1 S102 689 984140 -1506 0
46 1 S102 726 984866 -780 0
46 1 S102 766 985632 -14 0
46 2 S102 745 986377 731 0
46 2 S102 703 987080 1434 0
46 2 S102 687 987767 2121 0
46 2 S102 699 988466 2820 0
46 2 S102 699 989165 3519 0
46 2 S102 724 989889 4243 0
46 2 S102 683 990572 4926 0
46 2 S102 682 991254 5608 0
46 2 S102 700 991954 6308 0
0 0 0 733 992687 -8742 0
0 0 0 757 993444 -7985 0
0 0 0 750 994194 -7235 0
0 0 0 701 994895 -6534 0
0 0 0 697 995592 -5837 0
0 0 0 676 996268 -5161 0
0 0 0 641 996909 -4520 0
0 0 0 634 997543 -3886 0
0 0 0 625 998168 -3261 0
0 0 0 618 998786 -2643 0
0 0 0 623 999409 -2020 0
47 1 S112 624 1000033 -1396 0
47 1 S112 617 1000650 -779 0
47 1 S112 627 1001277 -152 0
47 2 S112 652 1001929 500 0
47 2 S112 706 1002635 1206 0
47 2 S112 729 1003364 1935 0
47 2 S112 747 1004111 2682 0
47 2 S112 753 1004864 3435 0
47 2 S112 726 1005590 4161 0
47 2 S112 713 1006303 4874 0
47 2 S112 705 1007008 5579 0
47 2 S112 690 1007698 6269 0
47 2 S112 666 1008364 6935 0
0 0 0 668 1009032 -12921 0
0 0 0 686 1009718 -12235 0
0 0 0 708 1010426 -11527 0
0 0 0 720 1011146 -10807 0
0 0 0 724 1011870 -10083 0
0 0 0 732 1012602 -9351 0
0 0 0 744 1013346 -8607 0
0 0 0 738 1014084 -7869 0
0 0 0 733 1014817 -7136 0
0 0 0 728 1015545 -6408 0
0 0 0 749 1016294 -5659 0
0 0 0 818 1017112 -4841 0
0 0 0 908 1018020 -3933 1
0 0 0 897 1018917 -3036 0
0 0 0 857 1019774 -2179 0
48 1 S116 867 1020641 -1312 0
48 1 S116 851 1021492 -461 0
48 2 S116 818 1022310 357 0
48 2 S116 797 1023107 1154 0
48 2 S116 716 1023823 1870 0
48 2 S116 698 1024521 2568 0
48 2 S116 695 1025216 3263 0
48 2 S116 710 1025926 3973 0
48 2 S116 743 1026669 4716 0
48 2 S116 723 1027392 5439 0
48 2 S116 700 1028092 6139 0
48 2 S116 708 1028800 6847 0
0 0 0 759 1029559 -8723 0
0 0 0 800 1030359 -7923 0
0 0 0 805 1031164 -7118 0
0 0 0 820 1031984 -6298 0
0 0 0 892 1032876 -5406 0
0 0 0 842 1033718 -4564 0
0 0 0 773 1034491 -3791 0
0 0 0 699 1035190 -3092 0
0 0 0 679 1035869 -2413 0
49 1 S112 666 1036535 -1747 0
49 1 S112 650 1037185 -1097 0
49 1 S112 685 1037870 -412 0
49 2 S112 661 1038531 249 0
49 2 S112 654 1039185 903 0
49 2 S112 662 1039847 1565 0
49 2 S112 730 1040577 2295 0
49 2 S112 801 1041378 3096 0
49 2 S112 847 1042225 3943 0
49 2 S112 768 1042993 4711 0
49 2 S112 741 1043734 5452 0
49 2 S112 737 1044471 6189 0
49 2 S112 744 1045215 6933 0
0 0 0 765 1045980 -11881 0
0 0 0 732 1046712 -11149 0
0 0 0 727 1047439 -10422 0
0 0 0 745 1048184 -9677 0
0 0 0 808 1048992 -8869 0
0 0 0 757 1049749 -8112 0
0 0 0 721 1050470 -7391 0
0 0 0 705 1051175 -6686 0
0 0 0 738 1051913 -5948 0
0 0 0 805 1052718 -5143 0
0 0 0 863 1053581 -4280 0
0 0 0 823 1054404 -3457 0
0 0 0 803 1055207 -2654 0
50 1 S106 798 1056005 -1856 0
50 1 S106 807 1056812 -1049 0
50 1 S106 756 1057568 -293 0
50 2 S106 775 1058343 482 0
50 2 S106 788 1059131 1270 0
50 2 S106 773 1059904 2043 0
50 2 S106 794 1060698 2837 0
50 2 S106 789 1061487 3626 0
50 2 S106 719 1062206 4345 0
50 2 S106 693 1062899 5038 0
50 2 S106 683 1063582 5721 0
50 2 S106 700 1064282 6421 0
0 0 0 721 1065003 -8575 0
0 0 0 788 1065791 -7787 0
0 0 0 790 1066581 -6997 0
0 0 0 803 1067384 -6194 0
0 0 0 768 1068152 -5426 0
0 0 0 768 1068920 -4658 0
0 0 0 745 1069665 -3913 0
0 0 0 732 1070397 -3181 0
0 0 0 696 1071093 -2485 0
51 1 S112 693 1071786 -1792 0
51 1 S112 713 1072499 -1079 0
51 1 S112 747 1073246 -332 0
51 2 S112 762 1074008 430 0
51 2 S112 734 1074742 1164 0
51 2 S112 746 1075488 1910 0
51 2 S112 767 1076255 2677 0
51 2 S112 774 1077029 3451 0
51 2 S112 766 1077795 4217 0
51 2 S112 765 1078560 4982 0
51 2 S112 756 1079316 5738 0
51 2 S112 734 1080050 6472 0
0 0 0 697 1080747 -6972 0
0 0 0 704 1081451 -6268 0
0 0 0 723 1082174 -5545 0
0 0 0 725 1082899 -4820 0
0 0 0 682 1083581 -4138 0
0 0 0 667 1084248 -3471 0
0 0 0 661 1084909 -2810 0
0 0 0 648 1085557 -2162 0
52 1 S116 671 1086228 -1491 0
52 1 S116 665 1086893 -826 0
52 1 S116 650 1087543 -176 0
52 2 S116 662 1088205 486 0
52 2 S116 749 1088954 1235 0
52 2 S116 941 1089895 2176 1
52 2 S116 919 1090814 3095 1
52 2 S116 910 1091724 4005 1
52 2 S116 866 1092590 4871 0
52 2 S116 865 1093455 5736 0
52 2 S116 847 1094302 6583 0
0 0 0 836 1095138 -11116 0
0 0 0 799 1095937 -10317 0
0 0 0 741 1096678 -9576 0
0 0 0 718 1097396 -8858 0
0 0 0 713 1098109 -8145 0
0 0 0 704 1098813 -7441 0
0 0 0 686 1099499 -6755 0
0 0 0 688 1100187 -6067 0
0 0 0 695 1100882 -5372 0
0 0 0 723 1101605 -4649 0
0 0 0 700 1102305 -3949 0
0 0 0 706 1103011 -3243 0
0 0 0 798 1103809 -2445 0
53 1 S106 919 1104728 -1526 1
53 1 S106 886 1105614 -640 0
53 2 S106 837 1106451 197 0
53 2 S106 836 1107287 1033 0
53 2 S106 837 1108124 1870 0
53 2 S106 860 1108984 2730 0
53 2 S106 824 1109808 3554 0
53 2 S106 790 1110598 4344 0
53 2 S106 727 1111325 5071 0
53 2 S106 690 1112015 5761 0
53 2 S106 664 1112679 6425 0
0 0 0 672 1113351 -8370 0
0 0 0 691 1114042 -7679 0
0 0 0 662 1114704 -7017 0
0 0 0 669 1115373 -6348 0
0 0 0 732 1116105 -5616 0
0 0 0 812 1116917 -4804 0
0 0 0 774 1117691 -4030 0
0 0 0 732 1118423 -3298 0
0 0 0 711 1119134 -2587 0
54 1 S102 698 1119832 -1889 0
54 1 S102 695 1120527 -1194 0
54 1 S102 746 1121273 -448 0
54 2 S102 776 1122049 328 0
54 2 S102 785 1122834 1113 0
54 2 S102 816 1123650 1929 0
54 2 S102 769 1124419 2698 0
54 2 S102 736 1125155 3434 0
54 2 S102 752 1125907 4186 0
54 2 S102 787 1126694 4973 0
54 2 S102 763 1127457 5736 0
54 2 S102 742 1128199 6478 0
0 0 0 715 1128914 -12751 0
0 0 0 712 1129626 -12039 0
0 0 0 744 1130370 -11295 0
0 0 0 785 1131155 -10510 0
0 0 0 786 1131941 -9724 0
0 0 0 790 1132731 -8934 0
0 0 0 719 1133450 -8215 0
0 0 0 697 1134147 -7518 0
0 0 0 667 1134814 -6851 0
0 0 0 640 1135454 -6211 0
0 0 0 629 1136083 -5582 0
0 0 0 624 1136707 -4958 0
0 0 0 691 1137398 -4267 0
0 0 0 762 1138160 -3505 0
0 0 0 781 1138941 -2724 0
55 1 S106 731 1139672 -1993 0
55 1 S106 762 1140434 -1231 0
55 1 S106 782 1141216 -449 0
55 2 S106 799 1142015 350 0
55 2 S106 752 1142767 1102 0
55 2 S106 703 1143470 1805 0
55 2 S106 740 1144210 2545 0
55 2 S106 738 1144948 3283 0
55 2 S106 774 1145722 4057 0
55 2 S106 729 1146451 4786 0
55 2 S106 694 1147145 5480 0
55 2 S106 692 1147837 6172 0
55 2 S106 675 1148512 6847 0
0 0 0 670 1149182 -7503 0
0 0 0 673 1149855 -6830 0
0 0 0 670 1150525 -6160 0
0 0 0 668 1151193 -5492 0
0 0 0 674 1151867 -4818 0
0 0 0 641 1152508 -4177 0
0 0 0 647 1153155 -3530 0
0 0 0 635 1153790 -2895 0
0 0 0 632 1154422 -2263 0
56 1 S116 639 1155061 -1624 0
56 1 S116 706 1155767 -918 0
56 1 S116 758 1156525 -160 0
56 2 S116 829 1157354 669 0
56 2 S116 862 1158216 1531 0
56 2 S116 816 1159032 2347 0
56 2 S116 765 1159797 3112 0
56 2 S116 744 1160541 3856 0
56 2 S116 731 1161272 4587 0
56 2 S116 727 1161999 5314 0
56 2 S116 743 1162742 6057 0
56 2 S116 720 1163462 6777 0
0 0 0 681 1164143 -9137 0
0 0 0 676 1164819 -8461 0
0 0 0 676 1165495 -7785 0
0 0 0 702 1166197 -7083 0
0 0 0 720 1166917 -6363 0
0 0 0 714 1167631 -5649 0
0 0 0 790 1168421 -4859 0
0 0 0 789 1169210 -4070 0
0 0 0 783 1169993 -3287 0
0 0 0 724 1170717 -2563 0
57 1 S106 743 1171460 -1820 0
57 1 S106 762 1172222 -1058 0
57 1 S106 766 1172988 -292 0
57 2 S106 728 1173716 436 0
57 2 S106 712 1174428 1148 0
57 2 S106 704 1175132 1852 0
57 2 S106 703 1175835 2555 0
57 2 S106 716 1176551 3271 0
57 2 S106 696 1177247 3967 0
57 2 S106 676 1177923 4643 0
57 2 S106 680 1178603 5323 0
57 2 S106 688 1179291 6011 0
57 2 S106 714 1180005 6725 0
0 0 0 685 1180690 -9285 0
0 0 0 673 1181363 -8612 0
0 0 0 690 1182053 -7922 0
0 0 0 756 1182809 -7166 0
0 0 0 759 1183568 -6407 0
0 0 0 796 1184364 -5611 0
0 0 0 751 1185115 -4860 0
0 0 0 720 1185835 -4140 0
0 0 0 735 1186570 -3405 0
0 0 0 754 1187324 -2651 0
58 1 S102 763 1188087 -1888 0
58 1 S102 746 1188833 -1142 0
58 1 S102 688 1189521 -454 0
58 2 S102 653 1190174 199 0
58 2 S102 632 1190806 831 0
58 2 S102 607 1191413 1438 0
58 2 S102 609 1192022 2047 0
58 2 S102 609 1192631 2656 0
58 2 S102 758 1193389 3414 0
58 2 S102 756 1194145 4170 0
58 2 S102 768 1194913 4938 0
58 2 S102 787 1195700 5725 0
58 2 S102 778 1196478 6503 0
0 0 0 728 1197206 -6346 0
0 0 0 727 1197933 -5619 0
0 0 0 731 1198664 -4888 0
0 0 0 715 1199379 -4173 0
0 0 0 708 1200087 -3465 0
0 0 0 692 1200779 -2773 0
0 0 0 672 1201451 -2101 0
59 1 S112 668 1202119 -1433 0
59 1 S112 671 1202790 -762 0
59 1 S112 702 1203492 -60 0
59 2 S112 734 1204226 674 0
59 2 S112 810 1205036 1484 0
59 2 S112 815 1205851 2299 0
59 2 S112 792 1206643 3091 0
59 2 S112 786 1207429 3877 0
59 2 S112 763 1208192 4640 0
59 2 S112 741 1208933 5381 0
59 2 S112 754 1209687 6135 0
59 2 S112 755 1210442 6890 0
0 0 0 788 1211230 -8420 0
0 0 0 758 1211988 -7662 0
0 0 0 767 1212755 -6895 0
0 0 0 730 1213485 -6165 0
0 0 0 713 1214198 -5452 0
0 0 0 679 1214877 -4773 0
0 0 0 667 1215544 -4106 0
0 0 0 642 1216186 -3464 0
0 0 0 636 1216822 -2828 0
0 0 0 628 1217450 -2200 0
60 1 S102 667 1218117 -1533 0
60 1 S102 661 1218778 -872 0
60 1 S102 648 1219426 -224 0
60 2 S102 649 1220075 425 0
60 2 S102 671 1220746 1096 0
60 2 S102 736 1221482 1832 0
60 2 S102 768 1222250 2600 0
60 2 S102 810 1223060 3410 0
60 2 S102 823 1223883 4233 0
60 2 S102 811 1224694 5044 0
60 2 S102 757 1225451 5801 0
60 2 S102 719 1226170 6520 0
0 0 0 710 1226880 -10492 0
0 0 0 695 1227575 -9797 0
0 0 0 689 1228264 -9108 0
0 0 0 668 1228932 -8440 0
0 0 0 631 1229563 -7809 0
0 0 0 628 1230191 -7181 0
0 0 0 620 1230811 -6561 0
0 0 0 604 1231415 -5957 0
0 0 0 623 1232038 -5334 0
0 0 0 624 1232662 -4710 0
0 0 0 617 1233279 -4093 0
0 0 0 645 1233924 -3448 0
0 0 0 831 1234755 -2617 0
61 1 S106 853 1235608 -1764 0
61 1 S106 895 1236503 -869 0
61 2 S106 917 1237420 48 1
61 2 S106 892 1238312 940 0
61 2 S106 888 1239200 1828 0
61 2 S106 857 1240057 2685 0
61 2 S106 840 1240897 3525 0
61 2 S106 824 1241721 4349 0
61 2 S106 797 1242518 5146 0
61 2 S106 732 1243250 5878 0
61 2 S106 689 1243939 6567 0
0 0 0 699 1244638 -8600 0
0 0 0 728 1245366 -7872 0
0 0 0 715 1246081 -7157 0
0 0 0 730 1246811 -6427 0
0 0 0 744 1247555 -5683 0
0 0 0 707 1248262 -4976 0
0 0 0 698 1248960 -4278 0
0 0 0 681 1249641 -3597 0
0 0 0 661 1250302 -2936 0
0 0 0 644 1250946 -2292 0
62 1 S112 651 1251597 -1641 0
62 1 S112 668 1252265 -973 0
62 1 S112 679 1252944 -294 0
62 2 S112 663 1253607 369 0
62 2 S112 667 1254274 1036 0
62 2 S112 699 1254973 1735 0
62 2 S112 769 1255742 2504 0
62 2 S112 753 1256495 3257 0
62 2 S112 736 1257231 3993 0
62 2 S112 761 1257992 4754 0
62 2 S112 828 1258820 5582 0
62 2 S112 754 1259574 6336 0
0 0 0 708 1260282 -12352 0
0 0 0 723 1261005 -11629 0
0 0 0 727 1261732 -10902 0
0 0 0 698 1262430 -10204 0
0 0 0 677 1263107 -9527 0
0 0 0 673 1263780 -8854 0
0 0 0 653 1264433 -8201 0
0 0 0 631 1265064 -7570 0
0 0 0 615 1265679 -6955 0
0 0 0 606 1266285 -6349 0
0 0 0 617 1266902 -5732 0
0 0 0 638 1267540 -5094 0
0 0 0 692 1268232 -4402 0
0 0 0 833 1269065 -3569 0
0 0 0 835 1269900 -2734 0
63 1 S102 845 1270745 -1889 0
63 1 S102 815 1271560 -1074 0
63 1 S102 809 1272369 -265 0
63 2 S102 804 1273173 539 0
63 2 S102 799 1273972 1338 0
63 2 S102 781 1274753 2119 0
63 2 S102 758 1275511 2877 0
63 2 S102 727 1276238 3604 0
63 2 S102 713 1276951 4317 0
63 2 S102 700 1277651 5017 0
63 2 S102 685 1278336 5702 0
63 2 S102 704 1279040 6406 0
0 0 0 706 1279746 -10378 0
0 0 0 726 1280472 -9652 0
0 0 0 712 1281184 -8940 0
0 0 0 712 1281896 -8228 0
0 0 0 704 1282600 -7524 0
0 0 0 714 1283314 -6810 0
0 0 0 712 1284026 -6098 0
0 0 0 691 1284717 -5407 0
0 0 0 662 1285379 -4745 0
0 0 0 677 1286056 -4068 0
0 0 0 697 1286753 -3371 0
0 0 0 717 1287470 -2654 0
64 1 S112 714 1288184 -1940 0
64 1 S112 732 1288916 -1208 0
64 1 S112 740 1289656 -468 0
64 2 S112 745 1290401 277 0
64 2 S112 748 1291149 1025 0
64 2 S112 699 1291848 1724 0
64 2 S112 674 1292522 2398 0
64 2 S112 695 1293217 3093 0
64 2 S112 728 1293945 3821 0
64 2 S112 795 1294740 4616 0
64 2 S112 769 1295509 5385 0
64 2 S112 719 1296228 6104 0
64 2 S112 709 1296937 6813 0
0 0 0 715 1297652 -6581 0
0 0 0 729 1298381 -5852 0
0 0 0 753 1299134 -5099 0
0 0 0 669 1299803 -4430 0
0 0 0 681 1300484 -3749 0
0 0 0 660 1301144 -3089 0
0 0 0 653 1301797 -2436 0
65 1 S106 651 1302448 -1785 0
65 1 S106 679 1303127 -1106 0
65 1 S106 684 1303811 -422 0
65 2 S106 674 1304485 252 0
65 2 S106 704 1305189 956 0
65 2 S106 795 1305984 1751 0
65 2 S106 765 1306749 2516 0
65 2 S106 702 1307451 3218 0
65 2 S106 684 1308135 3902 0
65 2 S106 665 1308800 4567 0
65 2 S106 659 1309459 5226 0
65 2 S106 648 1310107 5874 0
65 2 S106 629 1310736 6503 0
0 0 0 621 1311357 -6503 0
0 0 0 614 1311971 -5889 0
0 0 0 611 1312582 -5278 0
0 0 0 611 1313193 -4667 0
0 0 0 606 1313799 -4061 0
0 0 0 596 1314395 -3465 0
0 0 0 593 1314988 -2872 0
0 0 0 592 1315580 -2280 0
66 1 S116 584 1316164 -1696 0
66 1 S116 578 1316742 -1118 0
66 1 S116 576 1317318 -542 0
66 2 S116 572 1317890 30 0
66 2 S116 570 1318460 600 0
66 2 S116 619 1319079 1219 0
66 2 S116 665 1319744 1884 0
66 2 S116 685 1320429 2569 0
66 2 S116 672 1321101 3241 0
66 2 S116 715 1321816 3956 0
66 2 S116 720 1322536 4676 0
66 2 S116 813 1323349 5489 0
66 2 S116 795 1324144 6284 0
66 2 S116 722 1324866 7006 0
0 0 0 698 1325564 -11792 0
0 0 0 704 1326268 -11088 0
0 0 0 690 1326958 -10398 0
0 0 0 709 1327667 -9689 0
0 0 0 701 1328368 -8988 0
0 0 0 660 1329028 -8328 0
0 0 0 653 1329681 -7675 0
0 0 0 647 1330328 -7028 0
0 0 0 642 1330970 -6386 0
0 0 0 665 1331635 -5721 0
0 0 0 722 1332357 -4999 0
0 0 0 797 1333154 -4202 0
0 0 0 788 1333942 -3414 0
0 0 0 838 1334780 -2576 0
67 1 S102 878 1335658 -1698 0
67 1 S102 892 1336550 -806 0
67 2 S102 860 1337410 54 0
67 2 S102 857 1338267 911 0
67 2 S102 847 1339114 1758 0
67 2 S102 802 1339916 2560 0
67 2 S102 790 1340706 3350 0
67 2 S102 782 1341488 4132 0
67 2 S102 808 1342296 4940 0
67 2 S102 755 1343051 5695 0
67 2 S102 730 1343781 6425 0
0 0 0 707 1344488 -8021 0
0 0 0 673 1345161 -7348 0
0 0 0 659 1345820 -6689 0
0 0 0 661 1346481 -6028 0
0 0 0 691 1347172 -5337 0
0 0 0 742 1347914 -4595 0
0 0 0 871 1348785 -3724 0
0 0 0 817 1349602 -2907 0
0 0 0 759 1350361 -2148 0
68 1 S106 734 1351095 -1414 0
68 1 S106 741 1351836 -673 0
68 2 S106 751 1352587 78 0
68 2 S106 711 1353298 789 0
68 2 S106 701 1353999 1490 0
68 2 S106 700 1354699 2190 0
68 2 S106 698 1355397 2888 0
68 2 S106 683 1356080 3571 0
68 2 S106 665 1356745 4236 0
68 2 S106 669 1357414 4905 0
68 2 S106 688 1358102 5593 0
68 2 S106 692 1358794 6285 0
68 2 S106 697 1359491 6982 0
0 0 0 722 1360213 -11543 0
0 0 0 723 1360936 -10820 0
0 0 0 696 1361632 -10124 0
0 0 0 706 1362338 -9418 0
0 0 0 715 1363053 -8703 0
0 0 0 684 1363737 -8019 0
0 0 0 656 1364393 -7363 0
0 0 0 659 1365052 -6704 0
0 0 0 656 1365708 -6048 0
0 0 0 649 1366357 -5399 0
0 0 0 739 1367096 -4660 0
0 0 0 715 1367811 -3945 0
0 0 0 696 1368507 -3249 0
0 0 0 713 1369220 -2536 0
69 1 S102 734 1369954 -1802 0
69 1 S102 735 1370689 -1067 0
69 1 S102 737 1371426 -330 0
69 2 S102 727 1372153 397 0
69 2 S102 722 1372875 1119 0
69 2 S102 734 1373609 1853 0
69 2 S102 727 1374336 2580 0
69 2 S102 709 1375045 3289 0
69 2 S102 683 1375728 3972 0
69 2 S102 683 1376411 4655 0
69 2 S102 689 1377100 5344 0
69 2 S102 717 1377817 6061 0
69 2 S102 696 1378513 6757 0
0 0 0 681 1379194 -8627 0
0 0 0 697 1379891 -7930 0
0 0 0 743 1380634 -7187 0
0 0 0 731 1381365 -6456 0
0 0 0 700 1382065 -5756 0
0 0 0 689 1382754 -5067 0
0 0 0 678 1383432 -4389 0
0 0 0 658 1384090 -3731 0
0 0 0 651 1384741 -3080 0
0 0 0 651 1385392 -2429 0
70 1 S112 694 1386086 -1735 0
70 1 S112 673 1386759 -1062 0
70 1 S112 670 1387429 -392 0
70 2 S112 655 1388084 263 0
70 2 S112 711 1388795 974 0
70 2 S112 869 1389664 1843 0
70 2 S112 843 1390507 2686 0
70 2 S112 853 1391360 3539 0
70 2 S112 836 1392196 4375 0
70 2 S112 835 1393031 5210 0
70 2 S112 864 1393895 6074 0
70 2 S112 854 1394749 6928 0
0 0 0 827 1395576 -11708 0
0 0 0 796 1396372 -10912 0
0 0 0 772 1397144 -10140 0
0 0 0 725 1397869 -9415 0
0 0 0 705 1398574 -8710 0
0 0 0 689 1399263 -8021 0
0 0 0 679 1399942 -7342 0
0 0 0 678 1400620 -6664 0
0 0 0 667 1401287 -5997 0
0 0 0 704 1401991 -5293 0
0 0 0 701 1402692 -4592 0
0 0 0 751 1403443 -3841 0
0 0 0 893 1404336 -2948 0
0 0 0 851 1405187 -2097 0
71 1 S116 835 1406022 -1262 0
71 1 S116 814 1406836 -448 0
71 2 S116 806 1407642 358 0
71 2 S116 813 1408455 1171 0
71 2 S116 821 1409276 1992 0
71 2 S116 796 1410072 2788 0
71 2 S116 808 1410880 3596 0
71 2 S116 836 1411716 4432 0
71 2 S116 854 1412570 5286 0
71 2 S116 860 1413430 6146 0
71 2 S116 846 1414276 6992 0
0 0 0 845 1415121 -8227 0
0 0 0 849 1415970 -7378 0
0 0 0 811 1416781 -6567 0
0 0 0 787 1417568 -5780 0
0 0 0 732 1418300 -5048 0
0 0 0 709 1419009 -4339 0
0 0 0 687 1419696 -3652 0
0 0 0 694 1420390 -2958 0
0 0 0 693 1421083 -2265 0
72 1 S102 694 1421777 -1571 0
72 1 S102 724 1422501 -847 0
72 1 S102 771 1423272 -76 0
72 2 S102 804 1424076 728 0
72 2 S102 757 1424833 1485 0
72 2 S102 765 1425598 2250 0
72 2 S102 810 1426408 3060 0
72 2 S102 797 1427205 3857 0
72 2 S102 792 1427997 4649 0
72 2 S102 770 1428767 5419 0
72 2 S102 729 1429496 6148 0
72 2 S102 728 1430224 6876 0
0 0 0 750 1430974 -7510 0
0 0 0 787 1431761 -6723 0
0 0 0 831 1432592 -5892 0
0 0 0 812 1433404 -5080 0
0 0 0 758 1434162 -4322 0
0 0 0 734 1434896 -3588 0
0 0 0 700 1435596 -2888 0
0 0 0 684 1436280 -2204 0
73 1 S116 676 1436956 -1528 0
73 1 S116 679 1437635 -849 0
73 1 S116 665 1438300 -184 0
73 2 S116 680 1438980 496 0
73 2 S116 739 1439719 1235 0
73 2 S116 822 1440541 2057 0
73 2 S116 834 1441375 2891 0
73 2 S116 857 1442232 3748 0
73 2 S116 828 1443060 4576 0
73 2 S116 821 1443881 5397 0
73 2 S116 833 1444714 6230 0
0 0 0 817 1445531 -10079 0
0 0 0 773 1446304 -9306 0
0 0 0 764 1447068 -8542 0
0 0 0 763 1447831 -7779 0
0 0 0 764 1448595 -7015 0
0 0 0 698 1449293 -6317 0
0 0 0 697 1449990 -5620 0
0 0 0 723 1450713 -4897 0
0 0 0 780 1451493 -4117 0
0 0 0 751 1452244 -3366 0
0 0 0 748 1452992 -2618 0
74 1 S106 776 1453768 -1842 0
74 1 S106 824 1454592 -1018 0
74 1 S106 881 1455473 -137 0
74 2 S106 830 1456303 693 0
74 2 S106 790 1457093 1483 0
74 2 S106 790 1457883 2273 0
74 2 S106 801 1458684 3074 0
74 2 S106 822 1459506 3896 0
74 2 S106 767 1460273 4663 0
74 2 S106 736 1461009 5399 0
74 2 S106 739 1461748 6138 0
74 2 S106 735 1462483 6873 0
0 0 0 739 1463222 -7043 0
0 0 0 735 1463957 -6308 0
0 0 0 709 1464666 -5599 0
0 0 0 718 1465384 -4881 0
0 0 0 696 1466080 -4185 0
0 0 0 683 1466763 -3502 0
0 0 0 660 1467423 -2842 0
0 0 0 655 1468078 -2187 0
75 1 S112 660 1468738 -1527 0
75 1 S112 699 1469437 -828 0
75 1 S112 770 1470207 -58 0
75 2 S112 758 1470965 700 0
75 2 S112 770 1471735 1470 0
75 2 S112 800 1472535 2270 0
75 2 S112 849 1473384 3119 0
75 2 S112 861 1474245 3980 0
75 2 S112 844 1475089 4824 0
75 2 S112 849 1475938 5673 0
75 2 S112 830 1476768 6503 0
0 0 0 810 1477578 -7674 0
0 0 0 791 1478369 -6883 0
0 0 0 741 1479110 -6142 0
0 0 0 723 1479833 -5419 0
0 0 0 719 1480552 -4700 0
0 0 0 724 1481276 -3976 0
0 0 0 702 1481978 -3274 0
0 0 0 729 1482707 -2545 0
76 1 S116 752 1483459 -1793 0
76 1 S116 858 1484317 -935 0
76 1 S116 849 1485166 -86 0
76 2 S116 849 1486015 763 0
76 2 S116 860 1486875 1623 0
76 2 S116 859 1487734 2482 0
76 2 S116 877 1488611 3359 0
76 2 S116 856 1489467 4215 0
76 2 S116 840 1490307 5055 0
76 2 S116 826 1491133 5881 0
76 2 S116 817 1491950 6698 0
0 0 0 806 1492756 -7698 0
0 0 0 783 1493539 -6915 0
0 0 0 738 1494277 -6177 0
0 0 0 755 1495032 -5422 0
0 0 0 769 1495801 -4653 0
0 0 0 696 1496497 -3957 0
0 0 0 686 1497183 -3271 0
0 0 0 677 1497860 -2594 0
77 1 S106 672 1498532 -1922 0
77 1 S106 658 1499190 -1264 0
77 1 S106 694 1499884 -570 0
77 2 S106 697 1500581 127 0
77 2 S106 725 1501306 852 0
77 2 S106 889 1502195 1741 0
77 2 S106 896 1503091 2637 0
77 2 S106 904 1503995 3541 1
77 2 S106 876 1504871 4417 0
77 2 S106 851 1505722 5268 0
77 2 S106 842 1506564 6110 0
77 2 S106 825 1507389 6935 0
0 0 0 801 1508190 -9788 0
0 0 0 712 1508902 -9076 0
0 0 0 711 1509613 -8365 0
0 0 0 718 1510331 -7647 0
0 0 0 748 1511079 -6899 0
0 0 0 722 1511801 -6177 0
0 0 0 686 1512487 -5491 0
0 0 0 683 1513170 -4808 0
0 0 0 687 1513857 -4121 0
0 0 0 698 1514555 -3423 0
0 0 0 676 1515231 -2747 0
0 0 0 709 1515940 -2038 0
78 1 S112 758 1516698 -1280 0
78 1 S112 715 1517413 -565 0
78 2 S112 732 1518145 167 0
78 2 S112 798 1518943 965 0
78 2 S112 874 1519817 1839 0
78 2 S112 846 1520663 2685 0
78 2 S112 830 1521493 3515 0
78 2 S112 832 1522325 4347 0
78 2 S112 878 1523203 5225 0
78 2 S112 877 1524080 6102 0
78 2 S112 875 1524955 6977 0
0 0 0 844 1525799 -11211 0
0 0 0 809 1526608 -10402 0
0 0 0 746 1527354 -9656 0
0 0 0 736 1528090 -8920 0
0 0 0 736 1528826 -8184 0
0 0 0 756 1529582 -7428 0
0 0 0 719 1530301 -6709 0
0 0 0 697 1530998 -6012 0
0 0 0 756 1531754 -5256 0
0 0 0 843 1532597 -4413 0
0 0 0 779 1533376 -3634 0
0 0 0 868 1534244 -2766 0
79 1 S102 861 1535105 -1905 0
79 1 S102 886 1535991 -1019 0
79 1 S102 834 1536825 -185 0
79 2 S102 830 1537655 645 0
79 2 S102 814 1538469 1459 0
79 2 S102 818 1539287 2277 0
79 2 S102 806 1540093 3083 0
79 2 S102 810 1540903 3893 0
79 2 S102 823 1541726 4716 0
79 2 S102 821 1542547 5537 0
79 2 S102 791 1543338 6328 0
0 0 0 759 1544097 -11082 0
0 0 0 742 1544839 -10340 0
0 0 0 746 1545585 -9594 0
0 0 0 773 1546358 -8821 0
0 0 0 780 1547138 -8041 0
0 0 0 843 1547981 -7198 0
0 0 0 746 1548727 -6452 0
0 0 0 713 1549440 -5739 0
0 0 0 677 1550117 -5062 0
0 0 0 660 1550777 -4402 0
0 0 0 628 1551405 -3774 0
0 0 0 613 1552018 -3161 0
0 0 0 616 1552634 -2545 0
80 1 S116 639 1553273 -1906 0
80 1 S116 728 1554001 -1178 0
80 1 S116 670 1554671 -508 0
80 2 S116 653 1555324 145 0
80 2 S116 642 1555966 787 0
80 2 S116 637 1556603 1424 0
80 2 S116 622 1557225 2046 0
80 2 S116 621 1557846 2667 0
80 2 S116 617 1558463 3284 0
80 2 S116 603 1559066 3887 0
80 2 S116 602 1559668 4489 0
80 2 S116 617 1560285 5106 0
80 2 S116 642 1560927 5748 0
80 2 S116 678 1561605 6426 0
