T_0064
BeatCount Mean SD BeatCountNoOutliers MeanNoOutliers SDNoOutliers
1728 860,019675925926 68,8124231783901 1671 866,828845002992 53,9394681963137

Trial TrialStatus Trialtype IBI AbsPosition RelPosition Outlier
0 0 0 881 1264 -15459 0
0 0 0 867 2131 -14592 0
0 0 0 799 2930 -13793 0
0 0 0 799 3729 -12994 0
0 0 0 788 4517 -12206 0
0 0 0 743 5260 -11463 0
0 0 0 744 6004 -10719 0
0 0 0 779 6783 -9940 0
0 0 0 841 7624 -9099 0
0 0 0 884 8508 -8215 0
0 0 0 841 9349 -7374 0
0 0 0 876 10225 -6498 0
0 0 0 875 11100 -5623 0
0 0 0 883 11983 -4740 0
0 0 0 827 12810 -3913 0
0 0 0 856 13666 -3057 0
0 0 0 867 14533 -2190 0
1 1 S112 872 15405 -1318 0
1 1 S112 833 16238 -485 0
1 2 S112 851 17089 366 0
1 2 S112 887 17976 1253 0
1 2 S112 876 18852 2129 0
1 2 S112 799 19651 2928 0
1 2 S112 797 20448 3725 0
1 2 S112 754 21202 4479 0
1 2 S112 792 21994 5271 0
1 2 S112 785 22779 6056 0
1 2 S112 815 23594 6871 0
0 0 0 811 24405 -10903 0
0 0 0 734 25139 -10169 0
0 0 0 756 25895 -9413 0
0 0 0 842 26737 -8571 0
0 0 0 823 27560 -7748 0
0 0 0 830 28390 -6918 0
0 0 0 815 29205 -6103 0
0 0 0 773 29978 -5330 0
0 0 0 797 30775 -4533 0
0 0 0 819 31594 -3714 0
0 0 0 842 32436 -2872 0
0 0 0 790 33226 -2082 0
2 1 S102 807 34033 -1275 0
2 1 S102 799 34832 -476 0
2 2 S102 818 35650 342 0
2 2 S102 829 36479 1171 0
2 2 S102 822 37301 1993 0
2 2 S102 845 38146 2838 0
2 2 S102 863 39009 3701 0
2 2 S102 853 39862 4554 0
2 2 S102 831 40693 5385 0
2 2 S102 850 41543 6235 0
0 0 0 850 42393 -10869 0
0 0 0 856 43249 -10013 0
0 0 0 840 44089 -9173 0
0 0 0 876 44965 -8297 0
0 0 0 880 45845 -7417 0
0 0 0 845 46690 -6572 0
0 0 0 838 47528 -5734 0
0 0 0 833 48361 -4901 0
0 0 0 784 49145 -4117 0
0 0 0 805 49950 -3312 0
0 0 0 826 50776 -2486 0
3 1 S116 847 51623 -1639 0
3 1 S116 817 52440 -822 0
3 2 S116 855 53295 33 0
3 2 S116 878 54173 911 0
3 2 S116 882 55055 1793 0
3 2 S116 834 55889 2627 0
3 2 S116 851 56740 3478 0
3 2 S116 852 57592 4330 0
3 2 S116 843 58435 5173 0
3 2 S116 817 59252 5990 0
3 2 S116 848 60100 6838 0
0 0 0 878 60978 -9907 0
0 0 0 912 61890 -8995 0
0 0 0 858 62748 -8137 0
0 0 0 875 63623 -7262 0
0 0 0 875 64498 -6387 0
0 0 0 836 65334 -5551 0
0 0 0 831 66165 -4720 0
0 0 0 873 67038 -3847 0
0 0 0 903 67941 -2944 0
0 0 0 881 68822 -2063 0
4 1 S106 907 69729 -1156 0
4 1 S106 939 70668 -217 0
4 2 S106 954 71622 737 0
4 2 S106 897 72519 1634 0
4 2 S106 900 73419 2534 0
4 2 S106 893 74312 3427 0
4 2 S106 878 75190 4305 0
4 2 S106 846 76036 5151 0
4 2 S106 876 76912 6027 0
4 2 S106 893 77805 6920 0
0 0 0 915 78720 -7052 0
0 0 0 883 79603 -6169 0
0 0 0 933 80536 -5236 0
0 0 0 927 81463 -4309 0
0 0 0 864 82327 -3445 0
0 0 0 884 83211 -2561 0
5 1 S116 905 84116 -1656 0
5 1 S116 885 85001 -771 0
5 2 S116 873 85874 102 0
5 2 S116 894 86768 996 0
5 2 S116 922 87690 1918 0
5 2 S116 871 88561 2789 0
5 2 S116 872 89433 3661 0
5 2 S116 886 90319 4547 0
5 2 S116 904 91223 5451 0
5 2 S116 895 92118 6346 0
0 0 0 920 93038 -9976 0
0 0 0 928 93966 -9048 0
0 0 0 930 94896 -8118 0
0 0 0 949 95845 -7169 0
0 0 0 944 96789 -6225 0
0 0 0 905 97694 -5320 0
0 0 0 830 98524 -4490 0
0 0 0 850 99374 -3640 0
0 0 0 841 100215 -2799 0
6 1 S106 849 101064 -1950 0
6 1 S106 832 101896 -1118 0
6 1 S106 863 102759 -255 0
6 2 S106 884 103643 629 0
6 2 S106 897 104540 1526 0
6 2 S106 864 105404 2390 0
6 2 S106 874 106278 3264 0
6 2 S106 871 107149 4135 0
6 2 S106 859 108008 4994 0
6 2 S106 841 108849 5835 0
6 2 S106 863 109712 6698 0
0 0 0 885 110597 -10355 0
0 0 0 886 111483 -9469 0
0 0 0 867 112350 -8602 0
0 0 0 872 113222 -7730 0
0 0 0 879 114101 -6851 0
0 0 0 840 114941 -6011 0
0 0 0 856 115797 -5155 0
0 0 0 862 116659 -4293 0
0 0 0 857 117516 -3436 0
0 0 0 850 118366 -2586 0
7 1 S102 885 119251 -1701 0
7 1 S102 900 120151 -801 0
7 2 S102 882 121033 81 0
7 2 S102 851 121884 932 0
7 2 S102 888 122772 1820 0
7 2 S102 883 123655 2703 0
7 2 S102 810 124465 3513 0
7 2 S102 800 125265 4313 0
7 2 S102 827 126092 5140 0
7 2 S102 847 126939 5987 0
7 2 S102 855 127794 6842 0
0 0 0 854 128648 -8700 0
0 0 0 892 129540 -7808 0
0 0 0 906 130446 -6902 0
0 0 0 843 131289 -6059 0
0 0 0 845 132134 -5214 0
0 0 0 836 132970 -4378 0
0 0 0 827 133797 -3551 0
0 0 0 807 134604 -2744 0
8 1 S112 837 135441 -1907 0
8 1 S112 866 136307 -1041 0
8 1 S112 844 137151 -197 0
8 2 S112 864 138015 667 0
8 2 S112 895 138910 1562 0
8 2 S112 870 139780 2432 0
8 2 S112 857 140637 3289 0
8 2 S112 844 141481 4133 0
8 2 S112 812 142293 4945 0
8 2 S112 809 143102 5754 0
8 2 S112 820 143922 6574 0
0 0 0 840 144762 -7025 0
0 0 0 850 145612 -6175 0
0 0 0 857 146469 -5318 0
0 0 0 889 147358 -4429 0
0 0 0 890 148248 -3539 0
0 0 0 876 149124 -2663 0
9 1 S116 879 150003 -1784 0
9 1 S116 887 150890 -897 0
9 1 S116 879 151769 -18 0
9 2 S116 849 152618 831 0
9 2 S116 870 153488 1701 0
9 2 S116 869 154357 2570 0
9 2 S116 866 155223 3436 0
9 2 S116 849 156072 4285 0
9 2 S116 893 156965 5178 0
9 2 S116 935 157900 6113 0
0 0 0 922 158822 -12031 0
0 0 0 920 159742 -11111 0
0 0 0 943 160685 -10168 0
0 0 0 944 161629 -9224 0
0 0 0 885 162514 -8339 0
0 0 0 886 163400 -7453 0
0 0 0 873 164273 -6580 0
0 0 0 828 165101 -5752 0
0 0 0 859 165960 -4893 0
0 0 0 862 166822 -4031 0
0 0 0 891 167713 -3140 0
0 0 0 861 168574 -2279 0
10 1 S102 887 169461 -1392 0
10 1 S102 897 170358 -495 0
10 2 S102 883 171241 388 0
10 2 S102 863 172104 1251 0
10 2 S102 881 172985 2132 0
10 2 S102 857 173842 2989 0
10 2 S102 866 174708 3855 0
10 2 S102 833 175541 4688 0
10 2 S102 849 176390 5537 0
10 2 S102 867 177257 6404 0
0 0 0 913 178170 -12146 0
0 0 0 885 179055 -11261 0
0 0 0 917 179972 -10344 0
0 0 0 943 180915 -9401 0
0 0 0 924 181839 -8477 0
0 0 0 871 182710 -7606 0
0 0 0 883 183593 -6723 0
0 0 0 885 184478 -5838 0
0 0 0 852 185330 -4986 0
0 0 0 879 186209 -4107 0
0 0 0 891 187100 -3216 0
0 0 0 879 187979 -2337 0
11 1 S112 847 188826 -1490 0
11 1 S112 876 189702 -614 0
11 2 S112 892 190594 278 0
11 2 S112 914 191508 1192 0
11 2 S112 884 192392 2076 0
11 2 S112 874 193266 2950 0
11 2 S112 865 194131 3815 0
11 2 S112 846 194977 4661 0
11 2 S112 786 195763 5447 0
11 2 S112 741 196504 6188 0
11 2 S112 706 197210 6894 0
0 0 0 682 197892 -6930 1
0 0 0 787 198679 -6143 0
0 0 0 813 199492 -5330 0
0 0 0 760 200252 -4570 0
0 0 0 797 201049 -3773 0
0 0 0 840 201889 -2933 0
0 0 0 853 202742 -2080 0
12 1 S116 882 203624 -1198 0
12 1 S116 883 204507 -315 0
12 2 S116 871 205378 556 0
12 2 S116 859 206237 1415 0
12 2 S116 855 207092 2270 0
12 2 S116 848 207940 3118 0
12 2 S116 870 208810 3988 0
12 2 S116 886 209696 4874 0
12 2 S116 927 210623 5801 0
12 2 S116 912 211535 6713 0
0 0 0 929 212464 -10196 0
0 0 0 935 213399 -9261 0
0 0 0 942 214341 -8319 0
0 0 0 854 215195 -7465 0
0 0 0 867 216062 -6598 0
0 0 0 870 216932 -5728 0
0 0 0 876 217808 -4852 0
0 0 0 867 218675 -3985 0
0 0 0 908 219583 -3077 0
0 0 0 932 220515 -2145 0
13 1 S112 930 221445 -1215 0
13 1 S112 881 222326 -334 0
13 2 S112 912 223238 578 0
13 2 S112 931 224169 1509 0
13 2 S112 860 225029 2369 0
13 2 S112 851 225880 3220 0
13 2 S112 840 226720 4060 0
13 2 S112 808 227528 4868 0
13 2 S112 788 228316 5656 0
13 2 S112 764 229080 6420 0
0 0 0 864 229944 -11466 0
0 0 0 920 230864 -10546 0
0 0 0 920 231784 -9626 0
0 0 0 898 232682 -8728 0
0 0 0 893 233575 -7835 0
0 0 0 878 234453 -6957 0
0 0 0 850 235303 -6107 0
0 0 0 879 236182 -5228 0
0 0 0 894 237076 -4334 0
0 0 0 888 237964 -3446 0
0 0 0 881 238845 -2565 0
14 1 S106 900 239745 -1665 0
14 1 S106 927 240672 -738 0
14 2 S106 896 241568 158 0
14 2 S106 920 242488 1078 0
14 2 S106 923 243411 2001 0
14 2 S106 918 244329 2919 0
14 2 S106 878 245207 3797 0
14 2 S106 894 246101 4691 0
14 2 S106 907 247008 5598 0
14 2 S106 905 247913 6503 0
0 0 0 884 248797 -10253 0
0 0 0 924 249721 -9329 0
0 0 0 943 250664 -8386 0
0 0 0 888 251552 -7498 0
0 0 0 913 252465 -6585 0
0 0 0 914 253379 -5671 0
0 0 0 918 254297 -4753 0
0 0 0 875 255172 -3878 0
0 0 0 890 256062 -2988 0
0 0 0 893 256955 -2095 0
15 1 S116 895 257850 -1200 0
15 1 S116 898 258748 -302 0
15 2 S116 928 259676 626 0
15 2 S116 935 260611 1561 0
15 2 S116 886 261497 2447 0
15 2 S116 889 262386 3336 0
15 2 S116 921 263307 4257 0
15 2 S116 947 264254 5204 0
15 2 S116 917 265171 6121 0
0 0 0 944 266115 -9181 0
0 0 0 957 267072 -8224 0
0 0 0 937 268009 -7287 0
0 0 0 888 268897 -6399 0
0 0 0 901 269798 -5498 0
0 0 0 901 270699 -4597 0
0 0 0 853 271552 -3744 0
0 0 0 891 272443 -2853 0
16 1 S116 908 273351 -1945 0
16 1 S116 902 274253 -1043 0
16 1 S116 868 275121 -175 0
16 2 S116 900 276021 725 0
16 2 S116 900 276921 1625 0
16 2 S116 864 277785 2489 0
16 2 S116 868 278653 3357 0
16 2 S116 879 279532 4236 0
16 2 S116 871 280403 5107 0
16 2 S116 855 281258 5962 0
16 2 S116 847 282105 6809 0
0 0 0 856 282961 -8615 0
0 0 0 869 283830 -7746 0
0 0 0 859 284689 -6887 0
0 0 0 854 285543 -6033 0
0 0 0 859 286402 -5174 0
0 0 0 868 287270 -4306 0
0 0 0 839 288109 -3467 0
0 0 0 844 288953 -2623 0
17 1 S106 852 289805 -1771 0
17 1 S106 860 290665 -911 0
17 1 S106 848 291513 -63 0
17 2 S106 840 292353 777 0
17 2 S106 862 293215 1639 0
17 2 S106 870 294085 2509 0
17 2 S106 870 294955 3379 0
17 2 S106 862 295817 4241 0
17 2 S106 894 296711 5135 0
17 2 S106 919 297630 6054 0
17 2 S106 887 298517 6941 0
0 0 0 899 299416 -10645 0
0 0 0 921 300337 -9724 0
0 0 0 917 301254 -8807 0
0 0 0 857 302111 -7950 0
0 0 0 875 302986 -7075 0
0 0 0 872 303858 -6203 0
0 0 0 837 304695 -5366 0
0 0 0 840 305535 -4526 0
0 0 0 850 306385 -3676 0
0 0 0 861 307246 -2815 0
18 1 S102 843 308089 -1972 0
18 1 S102 852 308941 -1120 0
18 1 S102 860 309801 -260 0
18 2 S102 870 310671 610 0
18 2 S102 840 311511 1450 0
18 2 S102 850 312361 2300 0
18 2 S102 827 313188 3127 0
18 2 S102 778 313966 3905 0
18 2 S102 774 314740 4679 0
18 2 S102 783 315523 5462 0
18 2 S102 802 316325 6264 0
0 0 0 831 317156 -6831 0
0 0 0 808 317964 -6023 0
0 0 0 840 318804 -5183 0
0 0 0 847 319651 -4336 0
0 0 0 812 320463 -3524 0
0 0 0 818 321281 -2706 0
19 1 S106 819 322100 -1887 0
19 1 S106 821 322921 -1066 0
19 1 S106 817 323738 -249 0
19 2 S106 800 324538 551 0
19 2 S106 809 325347 1360 0
19 2 S106 764 326111 2124 0
19 2 S106 710 326821 2834 0
19 2 S106 721 327542 3555 0
19 2 S106 667 328209 4222 1
19 2 S106 682 328891 4904 1
19 2 S106 782 329673 5686 0
19 2 S106 795 330468 6481 0
0 0 0 739 331207 -10188 0
0 0 0 751 331958 -9437 0
0 0 0 782 332740 -8655 0
0 0 0 791 333531 -7864 0
0 0 0 797 334328 -7067 0
0 0 0 810 335138 -6257 0
0 0 0 795 335933 -5462 0
0 0 0 812 336745 -4650 0
0 0 0 826 337571 -3824 0
0 0 0 840 338411 -2984 0
0 0 0 861 339272 -2123 0
20 1 S112 862 340134 -1261 0
20 1 S112 875 341009 -386 0
20 2 S112 894 341903 508 0
20 2 S112 915 342818 1423 0
20 2 S112 887 343705 2310 0
20 2 S112 884 344589 3194 0
20 2 S112 868 345457 4062 0
20 2 S112 855 346312 4917 0
20 2 S112 853 347165 5770 0
20 2 S112 824 347989 6594 0
0 0 0 868 348857 -8486 0
0 0 0 898 349755 -7588 0
0 0 0 883 350638 -6705 0
0 0 0 863 351501 -5842 0
0 0 0 894 352395 -4948 0
0 0 0 871 353266 -4077 0
0 0 0 838 354104 -3239 0
0 0 0 869 354973 -2370 0
21 1 S106 878 355851 -1492 0
21 1 S106 843 356694 -649 0
21 2 S106 845 357539 196 0
21 2 S106 848 358387 1044 0
21 2 S106 857 359244 1901 0
21 2 S106 837 360081 2738 0
21 2 S106 869 360950 3607 0
21 2 S106 883 361833 4490 0
21 2 S106 861 362694 5351 0
21 2 S106 846 363540 6197 0
0 0 0 861 364401 -10266 0
0 0 0 869 365270 -9397 0
0 0 0 849 366119 -8548 0
0 0 0 831 366950 -7717 0
0 0 0 847 367797 -6870 0
0 0 0 856 368653 -6014 0
0 0 0 823 369476 -5191 0
0 0 0 844 370320 -4347 0
0 0 0 851 371171 -3496 0
0 0 0 859 372030 -2637 0
22 1 S116 831 372861 -1806 0
22 1 S116 864 373725 -942 0
22 1 S116 880 374605 -62 0
22 2 S116 871 375476 809 0
22 2 S116 867 376343 1676 0
22 2 S116 888 377231 2564 0
22 2 S116 906 378137 3470 0
22 2 S116 889 379026 4359 0
22 2 S116 853 379879 5212 0
22 2 S116 863 380742 6075 0
22 2 S116 870 381612 6945 0
0 0 0 848 382460 -9101 0
0 0 0 854 383314 -8247 0
0 0 0 872 384186 -7375 0
0 0 0 884 385070 -6491 0
0 0 0 825 385895 -5666 0
0 0 0 855 386750 -4811 0
0 0 0 861 387611 -3950 0
0 0 0 859 388470 -3091 0
0 0 0 872 389342 -2219 0
23 1 S112 907 390249 -1312 0
23 1 S112 925 391174 -387 0
23 2 S112 875 392049 488 0
23 2 S112 912 392961 1400 0
23 2 S112 887 393848 2287 0
23 2 S112 865 394713 3152 0
23 2 S112 852 395565 4004 0
23 2 S112 812 396377 4816 0
23 2 S112 748 397125 5564 0
23 2 S112 727 397852 6291 0
0 0 0 767 398619 -9819 0
0 0 0 964 399583 -8855 0
0 0 0 916 400499 -7939 0
0 0 0 985 401484 -6954 0
0 0 0 998 402482 -5956 0
0 0 0 901 403383 -5055 0
0 0 0 951 404334 -4104 0
0 0 0 968 405302 -3136 0
0 0 0 915 406217 -2221 0
24 1 S106 953 407170 -1268 0
24 1 S106 964 408134 -304 0
24 2 S106 918 409052 614 0
24 2 S106 907 409959 1521 0
24 2 S106 917 410876 2438 0
24 2 S106 920 411796 3358 0
24 2 S106 874 412670 4232 0
24 2 S106 883 413553 5115 0
24 2 S106 885 414438 6000 0
24 2 S106 892 415330 6892 0
0 0 0 863 416193 -8690 0
0 0 0 891 417084 -7799 0
0 0 0 908 417992 -6891 0
0 0 0 859 418851 -6032 0
0 0 0 864 419715 -5168 0
0 0 0 892 420607 -4276 0
0 0 0 908 421515 -3368 0
0 0 0 881 422396 -2487 0
25 1 S102 904 423300 -1583 0
25 1 S102 903 424203 -680 0
25 2 S102 905 425108 225 0
25 2 S102 892 426000 1117 0
25 2 S102 909 426909 2026 0
25 2 S102 919 427828 2945 0
25 2 S102 876 428704 3821 0
25 2 S102 857 429561 4678 0
25 2 S102 881 430442 5559 0
25 2 S102 901 431343 6460 0
0 0 0 877 432220 -6523 0
0 0 0 870 433090 -5653 0
0 0 0 896 433986 -4757 0
0 0 0 871 434857 -3886 0
0 0 0 829 435686 -3057 0
0 0 0 842 436528 -2215 0
26 1 S116 835 437363 -1380 0
26 1 S116 836 438199 -544 0
26 2 S116 829 439028 285 0
26 2 S116 889 439917 1174 0
26 2 S116 929 440846 2103 0
26 2 S116 887 441733 2990 0
26 2 S116 904 442637 3894 0
26 2 S116 932 443569 4826 0
26 2 S116 959 444528 5785 0
26 2 S116 908 445436 6693 0
0 0 0 966 446402 -6515 0
0 0 0 989 447391 -5526 0
0 0 0 940 448331 -4586 0
0 0 0 913 449244 -3673 0
0 0 0 938 450182 -2735 0
27 1 S106 913 451095 -1822 0
27 1 S106 918 452013 -904 0
27 2 S106 955 452968 51 0
27 2 S106 974 453942 1025 0
27 2 S106 917 454859 1942 0
27 2 S106 938 455797 2880 0
27 2 S106 947 456744 3827 0
27 2 S106 945 457689 4772 0
27 2 S106 907 458596 5679 0
27 2 S106 951 459547 6630 0
0 0 0 982 460529 -6298 0
0 0 0 938 461467 -5360 0
0 0 0 963 462430 -4397 0
0 0 0 953 463383 -3444 0
0 0 0 912 464295 -2532 0
28 1 S102 938 465233 -1594 0
28 1 S102 935 466168 -659 0
28 2 S102 907 467075 248 0
28 2 S102 899 467974 1147 0
28 2 S102 911 468885 2058 0
28 2 S102 905 469790 2963 0
28 2 S102 865 470655 3828 0
28 2 S102 825 471480 4653 0
28 2 S102 841 472321 5494 0
28 2 S102 849 473170 6343 0
0 0 0 831 474001 -11742 0
0 0 0 845 474846 -10897 0
0 0 0 878 475724 -10019 0
0 0 0 905 476629 -9114 0
0 0 0 862 477491 -8252 0
0 0 0 879 478370 -7373 0
0 0 0 891 479261 -6482 0
0 0 0 864 480125 -5618 0
0 0 0 876 481001 -4742 0
0 0 0 882 481883 -3860 0
0 0 0 878 482761 -2982 0
0 0 0 841 483602 -2141 0
29 1 S112 872 484474 -1269 0
29 1 S112 883 485357 -386 0
29 2 S112 902 486259 516 0
29 2 S112 872 487131 1388 0
29 2 S112 905 488036 2293 0
29 2 S112 926 488962 3219 0
29 2 S112 925 489887 4144 0
29 2 S112 859 490746 5003 0
29 2 S112 880 491626 5883 0
29 2 S112 877 492503 6760 0
0 0 0 895 493398 -6934 0
0 0 0 870 494268 -6064 0
0 0 0 906 495174 -5158 0
0 0 0 900 496074 -4258 0
0 0 0 857 496931 -3401 0
0 0 0 896 497827 -2505 0
30 1 S112 887 498714 -1618 0
30 1 S112 873 499587 -745 0
30 2 S112 878 500465 133 0
30 2 S112 887 501352 1020 0
30 2 S112 890 502242 1910 0
30 2 S112 860 503102 2770 0
30 2 S112 888 503990 3658 0
30 2 S112 906 504896 4564 0
30 2 S112 880 505776 5444 0
30 2 S112 875 506651 6319 0
0 0 0 901 507552 -10170 0
0 0 0 914 508466 -9256 0
0 0 0 894 509360 -8362 0
0 0 0 899 510259 -7463 0
0 0 0 900 511159 -6563 0
0 0 0 868 512027 -5695 0
0 0 0 850 512877 -4845 0
0 0 0 853 513730 -3992 0
0 0 0 862 514592 -3130 0
0 0 0 839 515431 -2291 0
31 1 S106 858 516289 -1433 0
31 1 S106 885 517174 -548 0
31 2 S106 860 518034 312 0
31 2 S106 874 518908 1186 0
31 2 S106 889 519797 2075 0
31 2 S106 895 520692 2970 0
31 2 S106 842 521534 3812 0
31 2 S106 856 522390 4668 0
31 2 S106 877 523267 5545 0
31 2 S106 881 524148 6426 0
0 0 0 853 525001 -9084 0
0 0 0 873 525874 -8211 0
0 0 0 875 526749 -7336 0
0 0 0 862 527611 -6474 0
0 0 0 835 528446 -5639 0
0 0 0 853 529299 -4786 0
0 0 0 883 530182 -3903 0
0 0 0 876 531058 -3027 0
0 0 0 889 531947 -2138 0
32 1 S102 913 532860 -1225 0
32 1 S102 911 533771 -314 0
32 2 S102 873 534644 559 0
32 2 S102 895 535539 1454 0
32 2 S102 895 536434 2349 0
32 2 S102 896 537330 3245 0
32 2 S102 866 538196 4111 0
32 2 S102 885 539081 4996 0
32 2 S102 896 539977 5892 0
32 2 S102 905 540882 6797 0
0 0 0 895 541777 -11158 0
0 0 0 942 542719 -10216 0
0 0 0 965 543684 -9251 0
0 0 0 904 544588 -8347 0
0 0 0 925 545513 -7422 0
0 0 0 937 546450 -6485 0
0 0 0 873 547323 -5612 0
0 0 0 883 548206 -4729 0
0 0 0 879 549085 -3850 0
0 0 0 884 549969 -2966 0
0 0 0 866 550835 -2100 0
33 1 S112 924 551759 -1176 0
33 1 S112 977 552736 -199 0
33 2 S112 929 553665 730 0
33 2 S112 967 554632 1697 0
33 2 S112 944 555576 2641 0
33 2 S112 899 556475 3540 0
33 2 S112 801 557276 4341 0
33 2 S112 780 558056 5121 0
33 2 S112 802 558858 5923 0
33 2 S112 871 559729 6794 0
0 0 0 883 560612 -11371 0
0 0 0 889 561501 -10482 0
0 0 0 867 562368 -9615 0
0 0 0 873 563241 -8742 0
0 0 0 890 564131 -7852 0
0 0 0 883 565014 -6969 0
0 0 0 853 565867 -6116 0
0 0 0 865 566732 -5251 0
0 0 0 873 567605 -4378 0
0 0 0 900 568505 -3478 0
0 0 0 877 569382 -2601 0
34 1 S106 902 570284 -1699 0
34 1 S106 939 571223 -760 0
34 2 S106 955 572178 195 0
34 2 S106 943 573121 1138 0
34 2 S106 902 574023 2040 0
34 2 S106 917 574940 2957 0
34 2 S106 919 575859 3876 0
34 2 S106 897 576756 4773 0
34 2 S106 877 577633 5650 0
34 2 S106 917 578550 6567 0
0 0 0 915 579465 -8351 0
0 0 0 898 580363 -7453 0
0 0 0 869 581232 -6584 0
0 0 0 885 582117 -5699 0
0 0 0 873 582990 -4826 0
0 0 0 845 583835 -3981 0
0 0 0 872 584707 -3109 0
0 0 0 900 585607 -2209 0
35 1 S102 913 586520 -1296 0
35 1 S102 873 587393 -423 0
35 2 S102 921 588314 498 0
35 2 S102 943 589257 1441 0
35 2 S102 879 590136 2320 0
35 2 S102 874 591010 3194 0
35 2 S102 878 591888 4072 0
35 2 S102 880 592768 4952 0
35 2 S102 851 593619 5803 0
35 2 S102 895 594514 6698 0
0 0 0 927 595441 -6732 0
0 0 0 907 596348 -5825 0
0 0 0 914 597262 -4911 0
0 0 0 910 598172 -4001 0
0 0 0 864 599036 -3137 0
0 0 0 848 599884 -2289 0
36 1 S106 859 600743 -1430 0
36 1 S106 874 601617 -556 0
36 2 S106 854 602471 298 0
36 2 S106 883 603354 1181 0
36 2 S106 909 604263 2090 0
36 2 S106 902 605165 2992 0
36 2 S106 848 606013 3840 0
36 2 S106 881 606894 4721 0
36 2 S106 892 607786 5613 0
36 2 S106 878 608664 6491 0
0 0 0 868 609532 -8539 0
0 0 0 900 610432 -7639 0
0 0 0 917 611349 -6722 0
0 0 0 866 612215 -5856 0
0 0 0 875 613090 -4981 0
0 0 0 874 613964 -4107 0
0 0 0 895 614859 -3212 0
0 0 0 871 615730 -2341 0
37 1 S116 905 616635 -1436 0
37 1 S116 936 617571 -500 0
37 2 S116 928 618499 428 0
37 2 S116 904 619403 1332 0
37 2 S116 918 620321 2250 0
37 2 S116 928 621249 3178 0
37 2 S116 884 622133 4062 0
37 2 S116 879 623012 4941 0
37 2 S116 897 623909 5838 0
37 2 S116 904 624813 6742 0
0 0 0 887 625700 -11204 0
0 0 0 919 626619 -10285 0
0 0 0 949 627568 -9336 0
0 0 0 932 628500 -8404 0
0 0 0 898 629398 -7506 0
0 0 0 907 630305 -6599 0
0 0 0 895 631200 -5704 0
0 0 0 864 632064 -4840 0
0 0 0 888 632952 -3952 0
0 0 0 898 633850 -3054 0
0 0 0 877 634727 -2177 0
38 1 S102 913 635640 -1264 0
38 1 S102 940 636580 -324 0
38 2 S102 906 637486 582 0
38 2 S102 917 638403 1499 0
38 2 S102 904 639307 2403 0
38 2 S102 891 640198 3294 0
38 2 S102 856 641054 4150 0
38 2 S102 892 641946 5042 0
38 2 S102 924 642870 5966 0
38 2 S102 924 643794 6890 0
0 0 0 895 644689 -8412 0
0 0 0 940 645629 -7472 0
0 0 0 933 646562 -6539 0
0 0 0 833 647395 -5706 0
0 0 0 851 648246 -4855 0
0 0 0 873 649119 -3982 0
0 0 0 879 649998 -3103 0
0 0 0 844 650842 -2259 0
39 1 S116 864 651706 -1395 0
39 1 S116 869 652575 -526 0
39 2 S116 882 653457 356 0
39 2 S116 870 654327 1226 0
39 2 S116 918 655245 2144 0
39 2 S116 917 656162 3061 0
39 2 S116 893 657055 3954 0
39 2 S116 897 657952 4851 0
39 2 S116 902 658854 5753 0
39 2 S116 923 659777 6676 0
0 0 0 890 660667 -6195 0
0 0 0 918 661585 -5277 0
0 0 0 919 662504 -4358 0
0 0 0 862 663366 -3496 0
0 0 0 880 664246 -2616 0
40 1 S112 886 665132 -1730 0
40 1 S112 901 666033 -829 0
40 2 S112 858 666891 29 0
40 2 S112 874 667765 903 0
40 2 S112 888 668653 1791 0
40 2 S112 842 669495 2633 0
40 2 S112 826 670321 3459 0
40 2 S112 858 671179 4317 0
40 2 S112 881 672060 5198 0
40 2 S112 871 672931 6069 0
40 2 S112 891 673822 6960 0
0 0 0 902 674724 -186652 0
0 0 0 916 675640 -185736 0
0 0 0 883 676523 -184853 0
0 0 0 918 677441 -183935 0
0 0 0 898 678339 -183037 0
0 0 0 813 679152 -182224 0
0 0 0 750 679902 -181474 0
0 0 0 744 680646 -180730 0
0 0 0 679 681325 -180051 1
0 0 0 657 681982 -179394 1
0 0 0 679 682661 -178715 1
0 0 0 724 683385 -177991 0
0 0 0 704 684089 -177287 0
0 0 0 678 684767 -176609 1
0 0 0 667 685434 -175942 1
0 0 0 654 686088 -175288 1
0 0 0 642 686730 -174646 1
0 0 0 626 687356 -174020 1
0 0 0 609 687965 -173411 1
0 0 0 596 688561 -172815 1
0 0 0 583 689144 -172232 1
0 0 0 579 689723 -171653 1
0 0 0 568 690291 -171085 1
0 0 0 557 690848 -170528 1
0 0 0 558 691406 -169970 1
0 0 0 555 691961 -169415 1
0 0 0 563 692524 -168852 1
0 0 0 553 693077 -168299 1
0 0 0 542 693619 -167757 1
0 0 0 545 694164 -167212 1
0 0 0 544 694708 -166668 1
0 0 0 542 695250 -166126 1
0 0 0 543 695793 -165583 1
0 0 0 559 696352 -165024 1
0 0 0 585 696937 -164439 1
0 0 0 630 697567 -163809 1
0 0 0 745 698312 -163064 0
0 0 0 836 699148 -162228 0
0 0 0 817 699965 -161411 0
0 0 0 854 700819 -160557 0
0 0 0 918 701737 -159639 0
0 0 0 944 702681 -158695 0
0 0 0 947 703628 -157748 0
0 0 0 875 704503 -156873 0
0 0 0 890 705393 -155983 0
0 0 0 911 706304 -155072 0
0 0 0 888 707192 -154184 0
0 0 0 833 708025 -153351 0
0 0 0 873 708898 -152478 0
0 0 0 961 709859 -151517 0
0 0 0 917 710776 -150600 0
0 0 0 902 711678 -149698 0
0 0 0 973 712651 -148725 0
0 0 0 905 713556 -147820 0
0 0 0 853 714409 -146967 0
0 0 0 864 715273 -146103 0
0 0 0 817 716090 -145286 0
0 0 0 698 716788 -144588 0
0 0 0 700 717488 -143888 0
0 0 0 734 718222 -143154 0
0 0 0 877 719099 -142277 0
0 0 0 810 719909 -141467 0
0 0 0 951 720860 -140516 0
0 0 0 970 721830 -139546 0
0 0 0 928 722758 -138618 0
0 0 0 861 723619 -137757 0
0 0 0 870 724489 -136887 0
0 0 0 855 725344 -136032 0
0 0 0 870 726214 -135162 0
0 0 0 805 727019 -134357 0
0 0 0 891 727910 -133466 0
0 0 0 880 728790 -132586 0
0 0 0 857 729647 -131729 0
0 0 0 894 730541 -130835 0
0 0 0 945 731486 -129890 0
0 0 0 909 732395 -128981 0
0 0 0 886 733281 -128095 0
0 0 0 902 734183 -127193 0
0 0 0 902 735085 -126291 0
0 0 0 816 735901 -125475 0
0 0 0 787 736688 -124688 0
0 0 0 853 737541 -123835 0
0 0 0 983 738524 -122852 0
0 0 0 989 739513 -121863 0
0 0 0 934 740447 -120929 0
0 0 0 985 741432 -119944 0
0 0 0 983 742415 -118961 0
0 0 0 921 743336 -118040 0
0 0 0 846 744182 -117194 0
0 0 0 800 744982 -116394 0
0 0 0 717 745699 -115677 0
0 0 0 734 746433 -114943 0
0 0 0 682 747115 -114261 1
0 0 0 693 747808 -113568 0
0 0 0 977 748785 -112591 0
0 0 0 1008 749793 -111583 0
0 0 0 1030 750823 -110553 0
0 0 0 1010 751833 -109543 0
0 0 0 1000 752833 -108543 0
0 0 0 935 753768 -107608 0
0 0 0 816 754584 -106792 0
0 0 0 790 755374 -106002 0
0 0 0 947 756321 -105055 0
0 0 0 983 757304 -104072 0
0 0 0 985 758289 -103087 0
0 0 0 1016 759305 -102071 0
0 0 0 1002 760307 -101069 0
0 0 0 962 761269 -100107 0
0 0 0 899 762168 -99208 0
0 0 0 909 763077 -98299 0
0 0 0 929 764006 -97370 0
0 0 0 926 764932 -96444 0
0 0 0 880 765812 -95564 0
0 0 0 913 766725 -94651 0
0 0 0 939 767664 -93712 0
0 0 0 927 768591 -92785 0
0 0 0 905 769496 -91880 0
0 0 0 950 770446 -90930 0
0 0 0 936 771382 -89994 0
0 0 0 898 772280 -89096 0
0 0 0 916 773196 -88180 0
0 0 0 860 774056 -87320 0
0 0 0 847 774903 -86473 0
0 0 0 882 775785 -85591 0
0 0 0 890 776675 -84701 0
0 0 0 843 777518 -83858 0
0 0 0 881 778399 -82977 0
0 0 0 887 779286 -82090 0
0 0 0 864 780150 -81226 0
0 0 0 840 780990 -80386 0
0 0 0 867 781857 -79519 0
0 0 0 889 782746 -78630 0
0 0 0 931 783677 -77699 0
0 0 0 940 784617 -76759 0
0 0 0 1029 785646 -75730 0
0 0 0 1044 786690 -74686 1
0 0 0 1003 787693 -73683 0
0 0 0 986 788679 -72697 0
0 0 0 992 789671 -71705 0
0 0 0 982 790653 -70723 0
0 0 0 913 791566 -69810 0
0 0 0 948 792514 -68862 0
0 0 0 915 793429 -67947 0
0 0 0 843 794272 -67104 0
0 0 0 835 795107 -66269 0
0 0 0 822 795929 -65447 0
0 0 0 790 796719 -64657 0
0 0 0 751 797470 -63906 0
0 0 0 764 798234 -63142 0
0 0 0 801 799035 -62341 0
0 0 0 795 799830 -61546 0
0 0 0 822 800652 -60724 0
0 0 0 842 801494 -59882 0
0 0 0 812 802306 -59070 0
0 0 0 765 803071 -58305 0
0 0 0 738 803809 -57567 0
0 0 0 686 804495 -56881 0
0 0 0 664 805159 -56217 1
0 0 0 638 805797 -55579 1
0 0 0 633 806430 -54946 1
0 0 0 615 807045 -54331 1
0 0 0 598 807643 -53733 1
0 0 0 650 808293 -53083 1
0 0 0 707 809000 -52376 0
0 0 0 718 809718 -51658 0
0 0 0 748 810466 -50910 0
0 0 0 714 811180 -50196 0
0 0 0 717 811897 -49479 0
0 0 0 773 812670 -48706 0
0 0 0 803 813473 -47903 0
0 0 0 819 814292 -47084 0
0 0 0 800 815092 -46284 0
0 0 0 824 815916 -45460 0
0 0 0 833 816749 -44627 0
0 0 0 793 817542 -43834 0
0 0 0 746 818288 -43088 0
0 0 0 734 819022 -42354 0
0 0 0 678 819700 -41676 1
0 0 0 668 820368 -41008 1
0 0 0 670 821038 -40338 1
0 0 0 695 821733 -39643 0
0 0 0 827 822560 -38816 0
0 0 0 912 823472 -37904 0
0 0 0 946 824418 -36958 0
0 0 0 895 825313 -36063 0
0 0 0 948 826261 -35115 0
0 0 0 957 827218 -34158 0
0 0 0 952 828170 -33206 0
0 0 0 941 829111 -32265 0
0 0 0 951 830062 -31314 0
0 0 0 946 831008 -30368 0
0 0 0 887 831895 -29481 0
0 0 0 894 832789 -28587 0
0 0 0 894 833683 -27693 0
0 0 0 897 834580 -26796 0
0 0 0 862 835442 -25934 0
0 0 0 882 836324 -25052 0
0 0 0 899 837223 -24153 0
0 0 0 922 838145 -23231 0
0 0 0 878 839023 -22353 0
0 0 0 909 839932 -21444 0
0 0 0 879 840811 -20565 0
0 0 0 852 841663 -19713 0
0 0 0 821 842484 -18892 0
0 0 0 832 843316 -18060 0
0 0 0 830 844146 -17230 0
0 0 0 835 844981 -16395 0
0 0 0 818 845799 -15577 0
0 0 0 841 846640 -14736 0
0 0 0 847 847487 -13889 0
0 0 0 825 848312 -13064 0
0 0 0 827 849139 -12237 0
0 0 0 829 849968 -11408 0
0 0 0 827 850795 -10581 0
0 0 0 783 851578 -9798 0
0 0 0 822 852400 -8976 0
0 0 0 817 853217 -8159 0
0 0 0 816 854033 -7343 0
0 0 0 795 854828 -6548 0
0 0 0 831 855659 -5717 0
0 0 0 838 856497 -4879 0
0 0 0 826 857323 -4053 0
0 0 0 777 858100 -3276 0
0 0 0 790 858890 -2486 0
41 1 S102 777 859667 -1709 0
41 1 S102 751 860418 -958 0
41 1 S102 735 861153 -223 0
41 2 S102 725 861878 502 0
41 2 S102 752 862630 1254 0
41 2 S102 773 863403 2027 0
41 2 S102 753 864156 2780 0
41 2 S102 783 864939 3563 0
41 2 S102 807 865746 4370 0
41 2 S102 834 866580 5204 0
41 2 S102 817 867397 6021 0
41 2 S102 838 868235 6859 0
0 0 0 852 869087 -6049 0
0 0 0 849 869936 -5200 0
0 0 0 815 870751 -4385 0
0 0 0 828 871579 -3557 0
0 0 0 801 872380 -2756 0
42 1 S112 761 873141 -1995 0
42 1 S112 750 873891 -1245 0
42 1 S112 760 874651 -485 0
42 2 S112 798 875449 313 0
42 2 S112 842 876291 1155 0
42 2 S112 851 877142 2006 0
42 2 S112 828 877970 2834 0
42 2 S112 833 878803 3667 0
42 2 S112 852 879655 4519 0
42 2 S112 852 880507 5371 0
42 2 S112 782 881289 6153 0
42 2 S112 759 882048 6912 0
0 0 0 711 882759 -8276 0
0 0 0 687 883446 -7589 0
0 0 0 649 884095 -6940 1
0 0 0 512 884607 -6428 1
0 0 0 642 885249 -5786 1
0 0 0 619 885868 -5167 1
0 0 0 629 886497 -4538 1
0 0 0 776 887273 -3762 0
0 0 0 814 888087 -2948 0
0 0 0 869 888956 -2079 0
43 1 S116 898 889854 -1181 0
43 1 S116 899 890753 -282 0
43 2 S116 905 891658 623 0
43 2 S116 914 892572 1537 0
43 2 S116 918 893490 2455 0
43 2 S116 922 894412 3377 0
43 2 S116 903 895315 4280 0
43 2 S116 860 896175 5140 0
43 2 S116 900 897075 6040 0
43 2 S116 903 897978 6943 0
0 0 0 937 898915 -6742 0
0 0 0 943 899858 -5799 0
0 0 0 964 900822 -4835 0
0 0 0 899 901721 -3936 0
0 0 0 856 902577 -3080 0
0 0 0 871 903448 -2209 0
44 1 S102 889 904337 -1320 0
44 1 S102 889 905226 -431 0
44 2 S102 861 906087 430 0
44 2 S102 885 906972 1315 0
44 2 S102 879 907851 2194 0
44 2 S102 834 908685 3028 0
44 2 S102 790 909475 3818 0
44 2 S102 817 910292 4635 0
44 2 S102 833 911125 5468 0
44 2 S102 847 911972 6315 0
0 0 0 854 912826 -8630 0
0 0 0 901 913727 -7729 0
0 0 0 920 914647 -6809 0
0 0 0 830 915477 -5979 0
0 0 0 863 916340 -5116 0
0 0 0 857 917197 -4259 0
0 0 0 845 918042 -3414 0
0 0 0 807 918849 -2607 0
45 1 S116 808 919657 -1799 0
45 1 S116 804 920461 -995 0
45 1 S116 797 921258 -198 0
45 2 S116 786 922044 588 0
45 2 S116 811 922855 1399 0
45 2 S116 838 923693 2237 0
45 2 S116 828 924521 3065 0
45 2 S116 841 925362 3906 0
45 2 S116 879 926241 4785 0
45 2 S116 893 927134 5678 0
45 2 S116 870 928004 6548 0
0 0 0 872 928876 -11728 0
0 0 0 892 929768 -10836 0
0 0 0 896 930664 -9940 0
0 0 0 848 931512 -9092 0
0 0 0 856 932368 -8236 0
0 0 0 849 933217 -7387 0
0 0 0 835 934052 -6552 0
0 0 0 822 934874 -5730 0
0 0 0 834 935708 -4896 0
0 0 0 852 936560 -4044 0
0 0 0 837 937397 -3207 0
0 0 0 837 938234 -2370 0
46 1 S102 869 939103 -1501 0
46 1 S102 910 940013 -591 0
46 2 S102 898 940911 307 0
46 2 S102 885 941796 1192 0
46 2 S102 894 942690 2086 0
46 2 S102 883 943573 2969 0
46 2 S102 854 944427 3823 0
46 2 S102 852 945279 4675 0
46 2 S102 844 946123 5519 0
46 2 S102 836 946959 6355 0
0 0 0 822 947781 -9037 0
0 0 0 842 948623 -8195 0
0 0 0 864 949487 -7331 0
0 0 0 870 950357 -6461 0
0 0 0 815 951172 -5646 0
0 0 0 824 951996 -4822 0
0 0 0 813 952809 -4009 0
0 0 0 820 953629 -3189 0
0 0 0 812 954441 -2377 0
47 1 S112 827 955268 -1550 0
47 1 S112 836 956104 -714 0
47 2 S112 848 956952 134 0
47 2 S112 827 957779 961 0
47 2 S112 842 958621 1803 0
47 2 S112 776 959397 2579 0
47 2 S112 752 960149 3331 0
47 2 S112 763 960912 4094 0
47 2 S112 761 961673 4855 0
47 2 S112 785 962458 5640 0
47 2 S112 802 963260 6442 0
0 0 0 795 964055 -10667 0
0 0 0 800 964855 -9867 0
0 0 0 789 965644 -9078 0
0 0 0 767 966411 -8311 0
0 0 0 750 967161 -7561 0
0 0 0 728 967889 -6833 0
0 0 0 774 968663 -6059 0
0 0 0 809 969472 -5250 0
0 0 0 905 970377 -4345 0
0 0 0 1025 971402 -3320 0
0 0 0 1098 972500 -2222 1
48 1 S116 1113 973613 -1109 1
48 1 S116 1051 974664 -58 1
48 2 S116 1042 975706 984 1
48 2 S116 1035 976741 2019 0
48 2 S116 1021 977762 3040 0
48 2 S116 963 978725 4003 0
48 2 S116 973 979698 4976 0
48 2 S116 985 980683 5961 0
48 2 S116 966 981649 6927 0
0 0 0 912 982561 -6584 0
0 0 0 954 983515 -5630 0
0 0 0 949 984464 -4681 0
0 0 0 905 985369 -3776 0
0 0 0 910 986279 -2866 0
49 1 S112 928 987207 -1938 0
49 1 S112 909 988116 -1029 0
49 1 S112 872 988988 -157 0
49 2 S112 886 989874 729 0
49 2 S112 885 990759 1614 0
49 2 S112 840 991599 2454 0
49 2 S112 865 992464 3319 0
49 2 S112 876 993340 4195 0
49 2 S112 881 994221 5076 0
49 2 S112 848 995069 5924 0
49 2 S112 889 995958 6813 0
0 0 0 918 996876 -10555 0
0 0 0 912 997788 -9643 0
0 0 0 868 998656 -8775 0
0 0 0 892 999548 -7883 0
0 0 0 875 1000423 -7008 0
0 0 0 823 1001246 -6185 0
0 0 0 819 1002065 -5366 0
0 0 0 805 1002870 -4561 0
0 0 0 828 1003698 -3733 0
0 0 0 833 1004531 -2900 0
0 0 0 830 1005361 -2070 0
50 1 S106 885 1006246 -1185 0
50 1 S106 902 1007148 -283 0
50 2 S106 901 1008049 618 0
50 2 S106 877 1008926 1495 0
50 2 S106 887 1009813 2382 0
50 2 S106 880 1010693 3262 0
50 2 S106 859 1011552 4121 0
50 2 S106 836 1012388 4957 0
50 2 S106 864 1013252 5821 0
50 2 S106 879 1014131 6700 0
0 0 0 880 1015011 -6363 0
0 0 0 858 1015869 -5505 0
0 0 0 885 1016754 -4620 0
0 0 0 891 1017645 -3729 0
0 0 0 869 1018514 -2860 0
51 1 S112 877 1019391 -1983 0
51 1 S112 897 1020288 -1086 0
51 1 S112 887 1021175 -199 0
51 2 S112 846 1022021 647 0
51 2 S112 867 1022888 1514 0
51 2 S112 854 1023742 2368 0
51 2 S112 861 1024603 3229 0
51 2 S112 841 1025444 4070 0
51 2 S112 870 1026314 4940 0
51 2 S112 898 1027212 5838 0
51 2 S112 924 1028136 6762 0
0 0 0 892 1029028 -6587 0
0 0 0 925 1029953 -5662 0
0 0 0 919 1030872 -4743 0
0 0 0 836 1031708 -3907 0
0 0 0 843 1032551 -3064 0
0 0 0 832 1033383 -2232 0
52 1 S116 818 1034201 -1414 0
52 1 S116 780 1034981 -634 0
52 2 S116 855 1035836 221 0
52 2 S116 879 1036715 1100 0
52 2 S116 878 1037593 1978 0
52 2 S116 855 1038448 2833 0
52 2 S116 924 1039372 3757 0
52 2 S116 927 1040299 4684 0
52 2 S116 929 1041228 5613 0
52 2 S116 888 1042116 6501 0
0 0 0 911 1043027 -8818 0
0 0 0 902 1043929 -7916 0
0 0 0 895 1044824 -7021 0
0 0 0 843 1045667 -6178 0
0 0 0 842 1046509 -5336 0
0 0 0 822 1047331 -4514 0
0 0 0 787 1048118 -3727 0
0 0 0 807 1048925 -2920 0
0 0 0 823 1049748 -2097 0
53 1 S106 853 1050601 -1244 0
53 1 S106 838 1051439 -406 0
53 2 S106 875 1052314 469 0
53 2 S106 886 1053200 1355 0
53 2 S106 880 1054080 2235 0
53 2 S106 873 1054953 3108 0
53 2 S106 911 1055864 4019 0
53 2 S106 924 1056788 4943 0
53 2 S106 878 1057666 5821 0
53 2 S106 878 1058544 6699 0
0 0 0 880 1059424 -5733 0
0 0 0 876 1060300 -4857 0
0 0 0 823 1061123 -4034 0
0 0 0 836 1061959 -3198 0
0 0 0 818 1062777 -2380 0
54 1 S102 784 1063561 -1596 0
54 1 S102 780 1064341 -816 0
54 2 S102 841 1065182 25 0
54 2 S102 831 1066013 856 0
54 2 S102 869 1066882 1725 0
54 2 S102 897 1067779 2622 0
54 2 S102 926 1068705 3548 0
54 2 S102 859 1069564 4407 0
54 2 S102 883 1070447 5290 0
54 2 S102 907 1071354 6197 0
0 0 0 924 1072278 -11513 0
0 0 0 894 1073172 -10619 0
0 0 0 941 1074113 -9678 0
0 0 0 956 1075069 -8722 0
0 0 0 902 1075971 -7820 0
0 0 0 887 1076858 -6933 0
0 0 0 924 1077782 -6009 0
0 0 0 946 1078728 -5063 0
0 0 0 895 1079623 -4168 0
0 0 0 922 1080545 -3246 0
0 0 0 960 1081505 -2286 0
55 1 S106 966 1082471 -1320 0
55 1 S106 920 1083391 -400 0
55 2 S106 949 1084340 549 0
55 2 S106 951 1085291 1500 0
55 2 S106 903 1086194 2403 0
55 2 S106 910 1087104 3313 0
55 2 S106 919 1088023 4232 0
55 2 S106 943 1088966 5175 0
55 2 S106 906 1089872 6081 0
55 2 S106 927 1090799 7008 0
0 0 0 960 1091759 -5809 0
0 0 0 946 1092705 -4863 0
0 0 0 894 1093599 -3969 0
0 0 0 907 1094506 -3062 0
0 0 0 905 1095411 -2157 0
56 1 S116 877 1096288 -1280 0
56 1 S116 879 1097167 -401 0
56 2 S116 886 1098053 485 0
56 2 S116 912 1098965 1397 0
56 2 S116 883 1099848 2280 0
56 2 S116 907 1100755 3187 0
56 2 S116 948 1101703 4135 0
56 2 S116 946 1102649 5081 0
56 2 S116 891 1103540 5972 0
56 2 S116 914 1104454 6886 0
0 0 0 926 1105380 -5683 0
0 0 0 911 1106291 -4772 0
0 0 0 849 1107140 -3923 0
0 0 0 877 1108017 -3046 0
0 0 0 868 1108885 -2178 0
57 1 S106 844 1109729 -1334 0
57 1 S106 847 1110576 -487 0
57 2 S106 879 1111455 392 0
57 2 S106 919 1112374 1311 0
57 2 S106 874 1113248 2185 0
57 2 S106 887 1114135 3072 0
57 2 S106 906 1115041 3978 0
57 2 S106 918 1115959 4896 0
57 2 S106 890 1116849 5786 0
57 2 S106 909 1117758 6695 0
0 0 0 905 1118663 -7735 0
0 0 0 881 1119544 -6854 0
0 0 0 841 1120385 -6013 0
0 0 0 857 1121242 -5156 0
0 0 0 869 1122111 -4287 0
0 0 0 858 1122969 -3429 0
0 0 0 882 1123851 -2547 0
58 1 S102 904 1124755 -1643 0
58 1 S102 930 1125685 -713 0
58 2 S102 902 1126587 189 0
58 2 S102 901 1127488 1090 0
58 2 S102 900 1128388 1990 0
58 2 S102 885 1129273 2875 0
58 2 S102 860 1130133 3735 0
58 2 S102 828 1130961 4563 0
58 2 S102 858 1131819 5421 0
58 2 S102 867 1132686 6288 0
0 0 0 858 1133544 -6299 0
0 0 0 865 1134409 -5434 0
0 0 0 885 1135294 -4549 0
0 0 0 860 1136154 -3689 0
0 0 0 830 1136984 -2859 0
0 0 0 853 1137837 -2006 0
59 1 S112 853 1138690 -1153 0
59 1 S112 830 1139520 -323 0
59 2 S112 841 1140361 518 0
59 2 S112 869 1141230 1387 0
59 2 S112 892 1142122 2279 0
59 2 S112 847 1142969 3126 0
59 2 S112 846 1143815 3972 0
59 2 S112 854 1144669 4826 0
59 2 S112 858 1145527 5684 0
59 2 S112 828 1146355 6512 0
0 0 0 857 1147212 -8298 0
0 0 0 868 1148080 -7430 0
0 0 0 851 1148931 -6579 0
0 0 0 829 1149760 -5750 0
0 0 0 842 1150602 -4908 0
0 0 0 837 1151439 -4071 0
0 0 0 782 1152221 -3289 0
0 0 0 792 1153013 -2497 0
60 1 S102 777 1153790 -1720 0
60 1 S102 777 1154567 -943 0
60 1 S102 759 1155326 -184 0
60 2 S102 781 1156107 597 0
60 2 S102 794 1156901 1391 0
60 2 S102 803 1157704 2194 0
60 2 S102 791 1158495 2985 0
60 2 S102 724 1159219 3709 0
60 2 S102 763 1159982 4472 0
60 2 S102 703 1160685 5175 0
60 2 S102 663 1161348 5838 1
60 2 S102 645 1161993 6483 1
0 0 0 632 1162625 -11154 1
0 0 0 639 1163264 -10515 1
0 0 0 729 1163993 -9786 0
0 0 0 774 1164767 -9012 0
0 0 0 812 1165579 -8200 0
0 0 0 865 1166444 -7335 0
0 0 0 899 1167343 -6436 0
0 0 0 904 1168247 -5532 0
0 0 0 890 1169137 -4642 0
0 0 0 869 1170006 -3773 0
0 0 0 871 1170877 -2902 0
0 0 0 871 1171748 -2031 0
61 1 S106 871 1172619 -1160 0
61 1 S106 861 1173480 -299 0
61 2 S106 918 1174398 619 0
61 2 S106 974 1175372 1593 0
61 2 S106 974 1176346 2567 0
61 2 S106 909 1177255 3476 0
61 2 S106 931 1178186 4407 0
61 2 S106 954 1179140 5361 0
61 2 S106 954 1180094 6315 0
0 0 0 869 1180963 -6261 0
0 0 0 862 1181825 -5399 0
0 0 0 848 1182673 -4551 0
0 0 0 786 1183459 -3765 0
0 0 0 746 1184205 -3019 0
0 0 0 732 1184937 -2287 0
62 1 S112 806 1185743 -1481 0
62 1 S112 816 1186559 -665 0
62 2 S112 882 1187441 217 0
62 2 S112 921 1188362 1138 0
62 2 S112 864 1189226 2002 0
62 2 S112 844 1190070 2846 0
62 2 S112 861 1190931 3707 0
62 2 S112 842 1191773 4549 0
62 2 S112 797 1192570 5346 0
62 2 S112 813 1193383 6159 0
62 2 S112 824 1194207 6983 0
0 0 0 801 1195008 -9938 0
0 0 0 772 1195780 -9166 0
0 0 0 786 1196566 -8380 0
0 0 0 799 1197365 -7581 0
0 0 0 797 1198162 -6784 0
0 0 0 761 1198923 -6023 0
0 0 0 796 1199719 -5227 0
0 0 0 832 1200551 -4395 0
0 0 0 813 1201364 -3582 0
0 0 0 797 1202161 -2785 0
63 1 S102 802 1202963 -1983 0
63 1 S102 812 1203775 -1171 0
63 1 S102 828 1204603 -343 0
63 2 S102 801 1205404 458 0
63 2 S102 827 1206231 1285 0
63 2 S102 831 1207062 2116 0
63 2 S102 834 1207896 2950 0
63 2 S102 806 1208702 3756 0
63 2 S102 835 1209537 4591 0
63 2 S102 843 1210380 5434 0
63 2 S102 854 1211234 6288 0
0 0 0 834 1212068 -9175 0
0 0 0 884 1212952 -8291 0
0 0 0 914 1213866 -7377 0
0 0 0 939 1214805 -6438 0
0 0 0 849 1215654 -5589 0
0 0 0 899 1216553 -4690 0
0 0 0 888 1217441 -3802 0
0 0 0 848 1218289 -2954 0
0 0 0 894 1219183 -2060 0
64 1 S112 890 1220073 -1170 0
64 1 S112 867 1220940 -303 0
64 2 S112 848 1221788 545 0
64 2 S112 884 1222672 1429 0
64 2 S112 864 1223536 2293 0
64 2 S112 879 1224415 3172 0
64 2 S112 854 1225269 4026 0
64 2 S112 885 1226154 4911 0
64 2 S112 878 1227032 5789 0
64 2 S112 885 1227917 6674 0
0 0 0 866 1228783 -6701 0
0 0 0 888 1229671 -5813 0
0 0 0 898 1230569 -4915 0
0 0 0 875 1231444 -4040 0
0 0 0 832 1232276 -3208 0
0 0 0 864 1233140 -2344 0
65 1 S106 846 1233986 -1498 0
65 1 S106 792 1234778 -706 0
65 2 S106 754 1235532 48 0
65 2 S106 712 1236244 760 0
65 2 S106 697 1236941 1457 0
65 2 S106 693 1237634 2150 0
65 2 S106 676 1238310 2826 1
65 2 S106 667 1238977 3493 1
65 2 S106 654 1239631 4147 1
65 2 S106 648 1240279 4795 1
65 2 S106 695 1240974 5490 0
65 2 S106 765 1241739 6255 0
0 0 0 799 1242538 -6872 0
0 0 0 806 1243344 -6066 0
0 0 0 827 1244171 -5239 0
0 0 0 826 1244997 -4413 0
0 0 0 821 1245818 -3592 0
0 0 0 804 1246622 -2788 0
0 0 0 784 1247406 -2004 0
66 1 S116 820 1248226 -1184 0
66 1 S116 850 1249076 -334 0
66 2 S116 846 1249922 512 0
66 2 S116 869 1250791 1381 0
66 2 S116 914 1251705 2295 0
66 2 S116 928 1252633 3223 0
66 2 S116 861 1253494 4084 0
66 2 S116 923 1254417 5007 0
66 2 S116 933 1255350 5940 0
66 2 S116 901 1256251 6841 0
0 0 0 868 1257119 -11173 0
0 0 0 929 1258048 -10244 0
0 0 0 933 1258981 -9311 0
0 0 0 874 1259855 -8437 0
0 0 0 867 1260722 -7570 0
0 0 0 857 1261579 -6713 0
0 0 0 848 1262427 -5865 0
0 0 0 826 1263253 -5039 0
0 0 0 859 1264112 -4180 0
0 0 0 908 1265020 -3272 0
0 0 0 930 1265950 -2342 0
67 1 S102 955 1266905 -1387 0
67 1 S102 1006 1267911 -381 0
67 2 S102 993 1268904 612 0
67 2 S102 944 1269848 1556 0
67 2 S102 968 1270816 2524 0
67 2 S102 963 1271779 3487 0
67 2 S102 926 1272705 4413 0
67 2 S102 875 1273580 5288 0
67 2 S102 908 1274488 6196 0
0 0 0 917 1275405 -7277 0
0 0 0 899 1276304 -6378 0
0 0 0 893 1277197 -5485 0
0 0 0 925 1278122 -4560 0
0 0 0 907 1279029 -3653 0
0 0 0 864 1279893 -2789 0
68 1 S106 887 1280780 -1902 0
68 1 S106 877 1281657 -1025 0
68 1 S106 890 1282547 -135 0
68 2 S106 855 1283402 720 0
68 2 S106 880 1284282 1600 0
68 2 S106 902 1285184 2502 0
68 2 S106 920 1286104 3422 0
68 2 S106 875 1286979 4297 0
68 2 S106 907 1287886 5204 0
68 2 S106 913 1288799 6117 0
68 2 S106 901 1289700 7018 0
0 0 0 886 1290586 -10581 0
0 0 0 915 1291501 -9666 0
0 0 0 921 1292422 -8745 0
0 0 0 840 1293262 -7905 0
0 0 0 843 1294105 -7062 0
0 0 0 855 1294960 -6207 0
0 0 0 859 1295819 -5348 0
0 0 0 813 1296632 -4535 0
0 0 0 846 1297478 -3689 0
0 0 0 852 1298330 -2837 0
69 1 S102 857 1299187 -1980 0
69 1 S102 812 1299999 -1168 0
69 1 S102 860 1300859 -308 0
69 2 S102 862 1301721 554 0
69 2 S102 867 1302588 1421 0
69 2 S102 807 1303395 2228 0
69 2 S102 813 1304208 3041 0
69 2 S102 806 1305014 3847 0
69 2 S102 803 1305817 4650 0
69 2 S102 775 1306592 5425 0
69 2 S102 756 1307348 6181 0
69 2 S102 801 1308149 6982 0
0 0 0 845 1308994 -9282 0
0 0 0 839 1309833 -8443 0
0 0 0 825 1310658 -7618 0
0 0 0 865 1311523 -6753 0
0 0 0 870 1312393 -5883 0
0 0 0 831 1313224 -5052 0
0 0 0 842 1314066 -4210 0
0 0 0 859 1314925 -3351 0
0 0 0 865 1315790 -2486 0
70 1 S112 838 1316628 -1648 0
70 1 S112 862 1317490 -786 0
70 2 S112 870 1318360 84 0
70 2 S112 887 1319247 971 0
70 2 S112 847 1320094 1818 0
70 2 S112 838 1320932 2656 0
70 2 S112 853 1321785 3509 0
70 2 S112 849 1322634 4358 0
70 2 S112 849 1323483 5207 0
70 2 S112 813 1324296 6020 0
70 2 S112 839 1325135 6859 0
0 0 0 845 1325980 -10002 0
0 0 0 860 1326840 -9142 0
0 0 0 818 1327658 -8324 0
0 0 0 836 1328494 -7488 0
0 0 0 853 1329347 -6635 0
0 0 0 808 1330155 -5827 0
0 0 0 826 1330981 -5001 0
0 0 0 829 1331810 -4172 0
0 0 0 840 1332650 -3332 0
0 0 0 822 1333472 -2510 0
71 1 S116 838 1334310 -1672 0
71 1 S116 847 1335157 -825 0
71 2 S116 860 1336017 35 0
71 2 S116 832 1336849 867 0
71 2 S116 834 1337683 1701 0
71 2 S116 844 1338527 2545 0
71 2 S116 863 1339390 3408 0
71 2 S116 823 1340213 4231 0
71 2 S116 819 1341032 5050 0
71 2 S116 817 1341849 5867 0
71 2 S116 820 1342669 6687 0
0 0 0 806 1343475 -8339 0
0 0 0 817 1344292 -7522 0
0 0 0 827 1345119 -6695 0
0 0 0 803 1345922 -5892 0
0 0 0 756 1346678 -5136 0
0 0 0 745 1347423 -4391 0
0 0 0 723 1348146 -3668 0
0 0 0 695 1348841 -2973 0
0 0 0 716 1349557 -2257 0
72 1 S102 742 1350299 -1515 0
72 1 S102 733 1351032 -782 0
72 1 S102 763 1351795 -19 0
72 2 S102 762 1352557 743 0
72 2 S102 763 1353320 1506 0
72 2 S102 729 1354049 2235 0
72 2 S102 726 1354775 2961 0
72 2 S102 717 1355492 3678 0
72 2 S102 744 1356236 4422 0
72 2 S102 754 1356990 5176 0
72 2 S102 755 1357745 5931 0
72 2 S102 783 1358528 6714 0
0 0 0 850 1359378 -5832 0
0 0 0 899 1360277 -4933 0
0 0 0 860 1361137 -4073 0
0 0 0 911 1362048 -3162 0
0 0 0 925 1362973 -2237 0
73 1 S116 911 1363884 -1326 0
73 1 S116 874 1364758 -452 0
73 2 S116 895 1365653 443 0
73 2 S116 909 1366562 1352 0
73 2 S116 882 1367444 2234 0
73 2 S116 894 1368338 3128 0
73 2 S116 947 1369285 4075 0
73 2 S116 968 1370253 5043 0
73 2 S116 906 1371159 5949 0
73 2 S116 946 1372105 6895 0
0 0 0 962 1373067 -7992 0
0 0 0 935 1374002 -7057 0
0 0 0 912 1374914 -6145 0
0 0 0 932 1375846 -5213 0
0 0 0 929 1376775 -4284 0
0 0 0 874 1377649 -3410 0
0 0 0 918 1378567 -2492 0
74 1 S106 925 1379492 -1567 0
74 1 S106 901 1380393 -666 0
74 2 S106 904 1381297 238 0
74 2 S106 923 1382220 1161 0
74 2 S106 933 1383153 2094 0
74 2 S106 881 1384034 2975 0
74 2 S106 914 1384948 3889 0
74 2 S106 927 1385875 4816 0
74 2 S106 892 1386767 5708 0
74 2 S106 891 1387658 6599 0
0 0 0 921 1388579 -6041 0
0 0 0 956 1389535 -5085 0
0 0 0 886 1390421 -4199 0
0 0 0 904 1391325 -3295 0
0 0 0 892 1392217 -2403 0
75 1 S112 870 1393087 -1533 0
75 1 S112 838 1393925 -695 0
75 2 S112 862 1394787 167 0
75 2 S112 892 1395679 1059 0
75 2 S112 919 1396598 1978 0
75 2 S112 865 1397463 2843 0
75 2 S112 888 1398351 3731 0
75 2 S112 907 1399258 4638 0
75 2 S112 891 1400149 5529 0
75 2 S112 839 1400988 6368 0
0 0 0 872 1401860 -6885 0
0 0 0 879 1402739 -6006 0
0 0 0 868 1403607 -5138 0
0 0 0 847 1404454 -4291 0
0 0 0 855 1405309 -3436 0
0 0 0 840 1406149 -2596 0
76 1 S116 788 1406937 -1808 0
76 1 S116 789 1407726 -1019 0
76 1 S116 796 1408522 -223 0
76 2 S116 805 1409327 582 0
76 2 S116 824 1410151 1406 0
76 2 S116 845 1410996 2251 0
76 2 S116 891 1411887 3142 0
76 2 S116 928 1412815 4070 0
76 2 S116 883 1413698 4953 0
76 2 S116 912 1414610 5865 0
76 2 S116 930 1415540 6795 0
0 0 0 920 1416460 -5796 0
0 0 0 879 1417339 -4917 0
0 0 0 882 1418221 -4035 0
0 0 0 868 1419089 -3167 0
0 0 0 828 1419917 -2339 0
77 1 S106 870 1420787 -1469 0
77 1 S106 878 1421665 -591 0
77 2 S106 865 1422530 274 0
77 2 S106 849 1423379 1123 0
77 2 S106 882 1424261 2005 0
77 2 S106 891 1425152 2896 0
77 2 S106 879 1426031 3775 0
77 2 S106 855 1426886 4630 0
77 2 S106 889 1427775 5519 0
77 2 S106 901 1428676 6420 0
0 0 0 882 1429558 -8083 0
0 0 0 850 1430408 -7233 0
0 0 0 865 1431273 -6368 0
0 0 0 852 1432125 -5516 0
0 0 0 806 1432931 -4710 0
0 0 0 828 1433759 -3882 0
0 0 0 829 1434588 -3053 0
0 0 0 828 1435416 -2225 0
78 1 S112 799 1436215 -1426 0
78 1 S112 823 1437038 -603 0
78 2 S112 823 1437861 220 0
78 2 S112 817 1438678 1037 0
78 2 S112 797 1439475 1834 0
78 2 S112 818 1440293 2652 0
78 2 S112 839 1441132 3491 0
78 2 S112 818 1441950 4309 0
78 2 S112 835 1442785 5144 0
78 2 S112 863 1443648 6007 0
78 2 S112 878 1444526 6885 0
0 0 0 841 1445367 -9698 0
0 0 0 863 1446230 -8835 0
0 0 0 869 1447099 -7966 0
0 0 0 868 1447967 -7098 0
0 0 0 825 1448792 -6273 0
0 0 0 842 1449634 -5431 0
0 0 0 846 1450480 -4585 0
0 0 0 851 1451331 -3734 0
0 0 0 829 1452160 -2905 0
0 0 0 852 1453012 -2053 0
79 1 S102 869 1453881 -1184 0
79 1 S102 880 1454761 -304 0
79 2 S102 847 1455608 543 0
79 2 S102 889 1456497 1432 0
79 2 S102 881 1457378 2313 0
79 2 S102 880 1458258 3193 0
79 2 S102 855 1459113 4048 0
79 2 S102 884 1459997 4932 0
79 2 S102 900 1460897 5832 0
79 2 S102 925 1461822 6757 0
0 0 0 882 1462704 -8077 0
0 0 0 904 1463608 -7173 0
0 0 0 895 1464503 -6278 0
0 0 0 857 1465360 -5421 0
0 0 0 854 1466214 -4567 0
0 0 0 865 1467079 -3702 0
0 0 0 887 1467966 -2815 0
80 1 S116 868 1468834 -1947 0
80 1 S116 900 1469734 -1047 0
80 1 S116 911 1470645 -136 0
80 2 S116 921 1471566 785 0
80 2 S116 867 1472433 1652 0
80 2 S116 884 1473317 2536 0
80 2 S116 894 1474211 3430 0
80 2 S116 909 1475120 4339 0
80 2 S116 883 1476003 5222 0
80 2 S116 889 1476892 6111 0
80 2 S116 902 1477794 7013 0
