T_0057
BeatCount Mean SD BeatCountNoOutliers MeanNoOutliers SDNoOutliers
1621 902,46822948797 76,8150802364998 1568 910,251275510204 63,5661339773522

Trial TrialStatus Trialtype IBI AbsPosition RelPosition Outlier
0 0 0 876 1139 -16537 0
0 0 0 825 1964 -15712 0
0 0 0 858 2822 -14854 0
0 0 0 836 3658 -14018 0
0 0 0 813 4471 -13205 0
0 0 0 844 5315 -12361 0
0 0 0 894 6209 -11467 0
0 0 0 799 7008 -10668 0
0 0 0 857 7865 -9811 0
0 0 0 855 8720 -8956 0
0 0 0 783 9503 -8173 0
0 0 0 836 10339 -7337 0
0 0 0 863 11202 -6474 0
0 0 0 814 12016 -5660 0
0 0 0 834 12850 -4826 0
0 0 0 876 13726 -3950 0
0 0 0 824 14550 -3126 0
0 0 0 873 15423 -2253 0
1 1 S112 904 16327 -1349 0
1 1 S112 879 17206 -470 0
1 2 S112 842 18048 372 0
1 2 S112 900 18948 1272 0
1 2 S112 886 19834 2158 0
1 2 S112 813 20647 2971 0
1 2 S112 874 21521 3845 0
1 2 S112 878 22399 4723 0
1 2 S112 803 23202 5526 0
1 2 S112 883 24085 6409 0
0 0 0 935 25020 -10909 0
0 0 0 840 25860 -10069 0
0 0 0 890 26750 -9179 0
0 0 0 889 27639 -8290 0
0 0 0 800 28439 -7490 0
0 0 0 884 29323 -6606 0
0 0 0 938 30261 -5668 0
0 0 0 852 31113 -4816 0
0 0 0 915 32028 -3901 0
0 0 0 941 32969 -2960 0
0 0 0 840 33809 -2120 0
2 1 S102 875 34684 -1245 0
2 1 S102 909 35593 -336 0
2 2 S102 853 36446 517 0
2 2 S102 872 37318 1389 0
2 2 S102 905 38223 2294 0
2 2 S102 831 39054 3125 0
2 2 S102 910 39964 4035 0
2 2 S102 944 40908 4979 0
2 2 S102 850 41758 5829 0
2 2 S102 930 42688 6759 0
0 0 0 938 43626 -8284 0
0 0 0 821 44447 -7463 0
0 0 0 869 45316 -6594 0
0 0 0 895 46211 -5699 0
0 0 0 817 47028 -4882 0
0 0 0 885 47913 -3997 0
0 0 0 948 48861 -3049 0
0 0 0 852 49713 -2197 0
3 1 S116 905 50618 -1292 0
3 1 S116 936 51554 -356 0
3 2 S116 827 52381 471 0
3 2 S116 870 53251 1341 0
3 2 S116 903 54154 2244 0
3 2 S116 826 54980 3070 0
3 2 S116 887 55867 3957 0
3 2 S116 941 56808 4898 0
3 2 S116 857 57665 5755 0
3 2 S116 919 58584 6674 0
0 0 0 983 59567 -9502 0
0 0 0 881 60448 -8621 0
0 0 0 847 61295 -7774 0
0 0 0 904 62199 -6870 0
0 0 0 872 63071 -5998 0
0 0 0 845 63916 -5153 0
0 0 0 953 64869 -4200 0
0 0 0 924 65793 -3276 0
0 0 0 848 66641 -2428 0
4 1 S106 923 67564 -1505 0
4 1 S106 919 68483 -586 0
4 2 S106 860 69343 274 0
4 2 S106 923 70266 1197 0
4 2 S106 897 71163 2094 0
4 2 S106 840 72003 2934 0
4 2 S106 919 72922 3853 0
4 2 S106 942 73864 4795 0
4 2 S106 887 74751 5682 0
4 2 S106 968 75719 6650 0
0 0 0 945 76664 -6032 0
0 0 0 886 77550 -5146 0
0 0 0 917 78467 -4229 0
0 0 0 878 79345 -3351 0
0 0 0 816 80161 -2535 0
5 1 S116 921 81082 -1614 0
5 1 S116 911 81993 -703 0
5 2 S116 839 82832 136 0
5 2 S116 957 83789 1093 0
5 2 S116 952 84741 2045 0
5 2 S116 872 85613 2917 0
5 2 S116 940 86553 3857 0
5 2 S116 937 87490 4794 0
5 2 S116 833 88323 5627 0
5 2 S116 912 89235 6539 0
0 0 0 946 90181 -7618 0
0 0 0 848 91029 -6770 0
0 0 0 839 91868 -5931 0
0 0 0 908 92776 -5023 0
0 0 0 876 93652 -4147 0
0 0 0 880 94532 -3267 0
0 0 0 988 95520 -2279 0
6 1 S106 919 96439 -1360 0
6 1 S106 880 97319 -480 0
6 2 S106 940 98259 460 0
6 2 S106 904 99163 1364 0
6 2 S106 879 100042 2243 0
6 2 S106 950 100992 3193 0
6 2 S106 933 101925 4126 0
6 2 S106 819 102744 4945 0
6 2 S106 899 103643 5844 0
6 2 S106 952 104595 6796 0
0 0 0 872 105467 -9425 0
0 0 0 935 106402 -8490 0
0 0 0 932 107334 -7558 0
0 0 0 865 108199 -6693 0
0 0 0 930 109129 -5763 0
0 0 0 927 110056 -4836 0
0 0 0 838 110894 -3998 0
0 0 0 889 111783 -3109 0
0 0 0 911 112694 -2198 0
7 1 S102 828 113522 -1370 0
7 1 S102 881 114403 -489 0
7 2 S102 936 115339 447 0
7 2 S102 850 116189 1297 0
7 2 S102 912 117101 2209 0
7 2 S102 913 118014 3122 0
7 2 S102 839 118853 3961 0
7 2 S102 917 119770 4878 0
7 2 S102 931 120701 5809 0
7 2 S102 839 121540 6648 0
0 0 0 910 122450 -7545 0
0 0 0 927 123377 -6618 0
0 0 0 804 124181 -5814 0
0 0 0 846 125027 -4968 0
0 0 0 901 125928 -4067 0
0 0 0 822 126750 -3245 0
0 0 0 873 127623 -2372 0
8 1 S112 945 128568 -1427 0
8 1 S112 863 129431 -564 0
8 2 S112 942 130373 378 0
8 2 S112 930 131303 1308 0
8 2 S112 816 132119 2124 0
8 2 S112 912 133031 3036 0
8 2 S112 902 133933 3938 0
8 2 S112 815 134748 4753 0
8 2 S112 902 135650 5655 0
8 2 S112 948 136598 6603 0
0 0 0 832 137430 -6988 0
0 0 0 872 138302 -6116 0
0 0 0 929 139231 -5187 0
0 0 0 800 140031 -4387 0
0 0 0 819 140850 -3568 0
0 0 0 866 141716 -2702 0
9 1 S116 801 142517 -1901 0
9 1 S116 848 143365 -1053 0
9 1 S116 931 144296 -122 0
9 2 S116 845 145141 723 0
9 2 S116 852 145993 1575 0
9 2 S116 893 146886 2468 0
9 2 S116 863 147749 3331 0
9 2 S116 816 148565 4147 0
9 2 S116 876 149441 5023 0
9 2 S116 900 150341 5923 0
9 2 S116 846 151187 6769 0
0 0 0 899 152086 -9673 0
0 0 0 971 153057 -8702 0
0 0 0 883 153940 -7819 0
0 0 0 899 154839 -6920 0
0 0 0 969 155808 -5951 0
0 0 0 924 156732 -5027 0
0 0 0 876 157608 -4151 0
0 0 0 970 158578 -3181 0
0 0 0 935 159513 -2246 0
10 1 S102 855 160368 -1391 0
10 1 S102 926 161294 -465 0
10 2 S102 922 162216 457 0
10 2 S102 865 163081 1322 0
10 2 S102 957 164038 2279 0
10 2 S102 975 165013 3254 0
10 2 S102 898 165911 4152 0
10 2 S102 982 166893 5134 0
10 2 S102 948 167841 6082 0
10 2 S102 897 168738 6979 0
0 0 0 973 169711 -9123 0
0 0 0 922 170633 -8201 0
0 0 0 842 171475 -7359 0
0 0 0 952 172427 -6407 0
0 0 0 967 173394 -5440 0
0 0 0 892 174286 -4548 0
0 0 0 970 175256 -3578 0
0 0 0 934 176190 -2644 0
11 1 S112 886 177076 -1758 0
11 1 S112 971 178047 -787 0
11 2 S112 974 179021 187 0
11 2 S112 916 179937 1103 0
11 2 S112 974 180911 2077 0
11 2 S112 934 181845 3011 0
11 2 S112 887 182732 3898 0
11 2 S112 944 183676 4842 0
11 2 S112 924 184600 5766 0
11 2 S112 885 185485 6651 0
0 0 0 964 186449 -6941 0
0 0 0 897 187346 -6044 0
0 0 0 874 188220 -5170 0
0 0 0 895 189115 -4275 0
0 0 0 860 189975 -3415 0
0 0 0 879 190854 -2536 0
12 1 S116 948 191802 -1588 0
12 1 S116 909 192711 -679 0
12 2 S116 890 193601 211 0
12 2 S116 953 194554 1164 0
12 2 S116 902 195456 2066 0
12 2 S116 872 196328 2938 0
12 2 S116 921 197249 3859 0
12 2 S116 893 198142 4752 0
12 2 S116 874 199016 5626 0
12 2 S116 960 199976 6586 0
0 0 0 946 200922 -9411 0
0 0 0 851 201773 -8560 0
0 0 0 892 202665 -7668 0
0 0 0 891 203556 -6777 0
0 0 0 816 204372 -5961 0
0 0 0 913 205285 -5048 0
0 0 0 954 206239 -4094 0
0 0 0 877 207116 -3217 0
0 0 0 964 208080 -2253 0
13 1 S112 950 209030 -1303 0
13 1 S112 859 209889 -444 0
13 2 S112 911 210800 467 0
13 2 S112 937 211737 1404 0
13 2 S112 843 212580 2247 0
13 2 S112 934 213514 3181 0
13 2 S112 973 214487 4154 0
13 2 S112 897 215384 5051 0
13 2 S112 962 216346 6013 0
13 2 S112 992 217338 7005 0
0 0 0 876 218214 -10090 0
0 0 0 947 219161 -9143 0
0 0 0 907 220068 -8236 0
0 0 0 811 220879 -7425 0
0 0 0 917 221796 -6508 0
0 0 0 933 222729 -5575 0
0 0 0 890 223619 -4685 0
0 0 0 990 224609 -3695 0
0 0 0 953 225562 -2742 0
14 1 S106 949 226511 -1793 0
14 1 S106 1003 227514 -790 0
14 2 S106 934 228448 144 0
14 2 S106 914 229362 1058 0
14 2 S106 993 230355 2051 0
14 2 S106 934 231289 2985 0
14 2 S106 900 232189 3885 0
14 2 S106 995 233184 4880 0
14 2 S106 962 234146 5842 0
14 2 S106 964 235110 6806 0
0 0 0 1020 236130 -9366 0
0 0 0 942 237072 -8424 0
0 0 0 821 237893 -7603 0
0 0 0 919 238812 -6684 0
0 0 0 954 239766 -5730 0
0 0 0 861 240627 -4869 0
0 0 0 936 241563 -3933 0
0 0 0 958 242521 -2975 0
0 0 0 866 243387 -2109 0
15 1 S116 951 244338 -1158 0
15 1 S116 994 245332 -164 0
15 2 S116 880 246212 716 0
15 2 S116 932 247144 1648 0
15 2 S116 971 248115 2619 0
15 2 S116 883 248998 3502 0
15 2 S116 939 249937 4441 0
15 2 S116 1000 250937 5441 0
15 2 S116 941 251878 6382 0
0 0 0 941 252819 -7747 0
0 0 0 994 253813 -6753 0
0 0 0 911 254724 -5842 0
0 0 0 885 255609 -4957 0
0 0 0 960 256569 -3997 0
0 0 0 937 257506 -3060 0
0 0 0 893 258399 -2167 0
16 1 S116 980 259379 -1187 0
16 1 S116 962 260341 -225 0
16 2 S116 869 261210 644 0
16 2 S116 960 262170 1604 0
16 2 S116 949 263119 2553 0
16 2 S116 872 263991 3425 0
16 2 S116 999 264990 4424 0
16 2 S116 1023 266013 5447 0
16 2 S116 906 266919 6353 0
0 0 0 949 267868 -7635 0
0 0 0 971 268839 -6664 0
0 0 0 828 269667 -5836 0
0 0 0 872 270539 -4964 0
0 0 0 949 271488 -4015 0
0 0 0 869 272357 -3146 0
0 0 0 992 273349 -2154 0
17 1 S106 983 274332 -1171 0
17 1 S106 890 275222 -281 0
17 2 S106 965 276187 684 0
17 2 S106 918 277105 1602 0
17 2 S106 819 277924 2421 0
17 2 S106 885 278809 3306 0
17 2 S106 926 279735 4232 0
17 2 S106 854 280589 5086 0
17 2 S106 921 281510 6007 0
17 2 S106 982 282492 6989 0
0 0 0 900 283392 -9270 0
0 0 0 949 284341 -8321 0
0 0 0 962 285303 -7359 0
0 0 0 868 286171 -6491 0
0 0 0 934 287105 -5557 0
0 0 0 976 288081 -4581 0
0 0 0 906 288987 -3675 0
0 0 0 995 289982 -2680 0
18 1 S102 1002 290984 -1678 0
18 1 S102 900 291884 -778 0
18 2 S102 961 292845 183 0
18 2 S102 986 293831 1169 0
18 2 S102 900 294731 2069 0
18 2 S102 953 295684 3022 0
18 2 S102 988 296672 4010 0
18 2 S102 908 297580 4918 0
18 2 S102 964 298544 5882 0
18 2 S102 981 299525 6863 0
0 0 0 872 300397 -7716 0
0 0 0 928 301325 -6788 0
0 0 0 929 302254 -5859 0
0 0 0 885 303139 -4974 0
0 0 0 919 304058 -4055 0
0 0 0 857 304915 -3198 0
0 0 0 835 305750 -2363 0
19 1 S106 906 306656 -1457 0
19 1 S106 905 307561 -552 0
19 2 S106 834 308395 282 0
19 2 S106 928 309323 1210 0
19 2 S106 912 310235 2122 0
19 2 S106 833 311068 2955 0
19 2 S106 916 311984 3871 0
19 2 S106 923 312907 4794 0
19 2 S106 834 313741 5628 0
19 2 S106 923 314664 6551 0
0 0 0 934 315598 -9491 0
0 0 0 844 316442 -8647 0
0 0 0 866 317308 -7781 0
0 0 0 957 318265 -6824 0
0 0 0 903 319168 -5921 0
0 0 0 826 319994 -5095 0
0 0 0 946 320940 -4149 0
0 0 0 973 321913 -3176 0
0 0 0 883 322796 -2293 0
20 1 S112 813 323609 -1480 0
20 1 S112 740 324349 -740 0
20 2 S112 789 325138 49 0
20 2 S112 879 326017 928 0
20 2 S112 779 326796 1707 0
20 2 S112 754 327550 2461 0
20 2 S112 815 328365 3276 0
20 2 S112 817 329182 4093 0
20 2 S112 939 330121 5032 0
20 2 S112 963 331084 5995 0
20 2 S112 861 331945 6856 0
0 0 0 917 332862 -8573 0
0 0 0 934 333796 -7639 0
0 0 0 816 334612 -6823 0
0 0 0 838 335450 -5985 0
0 0 0 900 336350 -5085 0
0 0 0 842 337192 -4243 0
0 0 0 936 338128 -3307 0
0 0 0 991 339119 -2316 0
21 1 S106 885 340004 -1431 0
21 1 S106 998 341002 -433 0
21 2 S106 971 341973 538 0
21 2 S106 944 342917 1482 0
21 2 S106 999 343916 2481 0
21 2 S106 956 344872 3437 0
21 2 S106 934 345806 4371 0
21 2 S106 997 346803 5368 0
21 2 S106 974 347777 6342 0
0 0 0 934 348711 -9916 0
0 0 0 1035 349746 -8881 0
0 0 0 960 350706 -7921 0
0 0 0 945 351651 -6976 0
0 0 0 994 352645 -5982 0
0 0 0 900 353545 -5082 0
0 0 0 889 354434 -4193 0
0 0 0 949 355383 -3244 0
0 0 0 916 356299 -2328 0
22 1 S116 933 357232 -1395 0
22 1 S116 976 358208 -419 0
22 2 S116 881 359089 462 0
22 2 S116 984 360073 1446 0
22 2 S116 1011 361084 2457 0
22 2 S116 930 362014 3387 0
22 2 S116 1001 363015 4388 0
22 2 S116 978 363993 5366 0
22 2 S116 930 364923 6296 0
0 0 0 974 365897 -8977 0
0 0 0 929 366826 -8048 0
0 0 0 872 367698 -7176 0
0 0 0 904 368602 -6272 0
0 0 0 867 369469 -5405 0
0 0 0 895 370364 -4510 0
0 0 0 971 371335 -3539 0
0 0 0 871 372206 -2668 0
23 1 S112 967 373173 -1701 0
23 1 S112 953 374126 -748 0
23 2 S112 899 375025 151 0
23 2 S112 983 376008 1134 0
23 2 S112 923 376931 2057 0
23 2 S112 883 377814 2940 0
23 2 S112 925 378739 3865 0
23 2 S112 915 379654 4780 0
23 2 S112 934 380588 5714 0
23 2 S112 964 381552 6678 0
0 0 0 896 382448 -9071 0
0 0 0 918 383366 -8153 0
0 0 0 911 384277 -7242 0
0 0 0 799 385076 -6443 0
0 0 0 843 385919 -5600 0
0 0 0 854 386773 -4746 0
0 0 0 859 387632 -3887 0
0 0 0 935 388567 -2952 0
0 0 0 914 389481 -2038 0
24 1 S106 883 390364 -1155 0
24 1 S106 906 391270 -249 0
24 2 S106 883 392153 634 0
24 2 S106 821 392974 1455 0
24 2 S106 875 393849 2330 0
24 2 S106 896 394745 3226 0
24 2 S106 839 395584 4065 0
24 2 S106 916 396500 4981 0
24 2 S106 974 397474 5955 0
24 2 S106 921 398395 6876 0
0 0 0 1020 399415 -7654 0
0 0 0 974 400389 -6680 0
0 0 0 875 401264 -5805 0
0 0 0 942 402206 -4863 0
0 0 0 889 403095 -3974 0
0 0 0 875 403970 -3099 0
0 0 0 918 404888 -2181 0
25 1 S102 890 405778 -1291 0
25 1 S102 898 406676 -393 0
25 2 S102 992 407668 599 0
25 2 S102 950 408618 1549 0
25 2 S102 933 409551 2482 0
25 2 S102 980 410531 3462 0
25 2 S102 897 411428 4359 0
25 2 S102 923 412351 5282 0
25 2 S102 991 413342 6273 0
0 0 0 862 414204 -5896 0
0 0 0 949 415153 -4947 0
0 0 0 905 416058 -4042 0
0 0 0 835 416893 -3207 0
0 0 0 950 417843 -2257 0
26 1 S116 980 418823 -1277 0
26 1 S116 888 419711 -389 0
26 2 S116 988 420699 599 0
26 2 S116 955 421654 1554 0
26 2 S116 895 422549 2449 0
26 2 S116 968 423517 3417 0
26 2 S116 929 424446 4346 0
26 2 S116 916 425362 5262 0
26 2 S116 990 426352 6252 0
0 0 0 925 427277 -6003 0
0 0 0 916 428193 -5087 0
0 0 0 932 429125 -4155 0
0 0 0 891 430016 -3264 0
0 0 0 876 430892 -2388 0
27 1 S106 983 431875 -1405 0
27 1 S106 935 432810 -470 0
27 2 S106 880 433690 410 0
27 2 S106 929 434619 1339 0
27 2 S106 898 435517 2237 0
27 2 S106 888 436405 3125 0
27 2 S106 1012 437417 4137 0
27 2 S106 964 438381 5101 0
27 2 S106 903 439284 6004 0
27 2 S106 978 440262 6982 0
0 0 0 965 441227 -4984 0
0 0 0 830 442057 -4154 0
0 0 0 911 442968 -3243 0
0 0 0 907 443875 -2336 0
28 1 S102 832 444707 -1504 0
28 1 S102 928 445635 -576 0
28 2 S102 970 446605 394 0
28 2 S102 889 447494 1283 0
28 2 S102 966 448460 2249 0
28 2 S102 952 449412 3201 0
28 2 S102 876 450288 4077 0
28 2 S102 958 451246 5035 0
28 2 S102 961 452207 5996 0
28 2 S102 871 453078 6867 0
0 0 0 945 454023 -9827 0
0 0 0 897 454920 -8930 0
0 0 0 822 455742 -8108 0
0 0 0 887 456629 -7221 0
0 0 0 897 457526 -6324 0
0 0 0 847 458373 -5477 0
0 0 0 929 459302 -4548 0
0 0 0 941 460243 -3607 0
0 0 0 876 461119 -2731 0
29 1 S112 946 462065 -1785 0
29 1 S112 874 462939 -911 0
29 1 S112 847 463786 -64 0
29 2 S112 906 464692 842 0
29 2 S112 908 465600 1750 0
29 2 S112 874 466474 2624 0
29 2 S112 985 467459 3609 0
29 2 S112 921 468380 4530 0
29 2 S112 927 469307 5457 0
29 2 S112 983 470290 6440 0
0 0 0 908 471198 -8700 0
0 0 0 906 472104 -7794 0
0 0 0 943 473047 -6851 0
0 0 0 839 473886 -6012 0
0 0 0 901 474787 -5111 0
0 0 0 909 475696 -4202 0
0 0 0 849 476545 -3353 0
0 0 0 938 477483 -2415 0
30 1 S112 945 478428 -1470 0
30 1 S112 856 479284 -614 0
30 2 S112 931 480215 317 0
30 2 S112 903 481118 1220 0
30 2 S112 851 481969 2071 0
30 2 S112 917 482886 2988 0
30 2 S112 898 483784 3886 0
30 2 S112 863 484647 4749 0
30 2 S112 942 485589 5691 0
30 2 S112 908 486497 6599 0
0 0 0 897 487394 -8801 0
0 0 0 931 488325 -7870 0
0 0 0 918 489243 -6952 0
0 0 0 841 490084 -6111 0
0 0 0 929 491013 -5182 0
0 0 0 930 491943 -4252 0
0 0 0 903 492846 -3349 0
0 0 0 982 493828 -2367 0
31 1 S106 937 494765 -1430 0
31 1 S106 943 495708 -487 0
31 2 S106 1019 496727 532 0
31 2 S106 982 497709 1514 0
31 2 S106 922 498631 2436 0
31 2 S106 1004 499635 3440 0
31 2 S106 961 500596 4401 0
31 2 S106 905 501501 5306 0
31 2 S106 969 502470 6275 0
0 0 0 980 503450 -7881 0
0 0 0 859 504309 -7022 0
0 0 0 896 505205 -6126 0
0 0 0 931 506136 -5195 0
0 0 0 837 506973 -4358 0
0 0 0 937 507910 -3421 0
0 0 0 965 508875 -2456 0
32 1 S102 855 509730 -1601 0
32 1 S102 941 510671 -660 0
32 2 S102 980 511651 320 0
32 2 S102 898 512549 1218 0
32 2 S102 1018 513567 2236 0
32 2 S102 1000 514567 3236 0
32 2 S102 919 515486 4155 0
32 2 S102 1022 516508 5177 0
32 2 S102 940 517448 6117 0
32 2 S102 896 518344 7013 0
0 0 0 988 519332 -8991 0
0 0 0 873 520205 -8118 0
0 0 0 841 521046 -7277 0
0 0 0 928 521974 -6349 0
0 0 0 955 522929 -5394 0
0 0 0 870 523799 -4524 0
0 0 0 1002 524801 -3522 0
0 0 0 965 525766 -2557 0
33 1 S112 915 526681 -1642 0
33 1 S112 983 527664 -659 0
33 2 S112 987 528651 328 0
33 2 S112 879 529530 1207 0
33 2 S112 964 530494 2171 0
33 2 S112 983 531477 3154 0
33 2 S112 897 532374 4051 0
33 2 S112 1023 533397 5074 0
33 2 S112 1010 534407 6084 0
0 0 0 974 535381 -11825 0
0 0 0 1027 536408 -10798 0
0 0 0 954 537362 -9844 0
0 0 0 887 538249 -8957 0
0 0 0 952 539201 -8005 0
0 0 0 928 540129 -7077 0
0 0 0 902 541031 -6175 0
0 0 0 985 542016 -5190 0
0 0 0 952 542968 -4238 0
0 0 0 948 543916 -3290 0
0 0 0 1024 544940 -2266 0
34 1 S106 970 545910 -1296 0
34 1 S106 963 546873 -333 0
34 2 S106 1008 547881 675 0
34 2 S106 931 548812 1606 0
34 2 S106 961 549773 2567 0
34 2 S106 1036 550809 3603 0
34 2 S106 937 551746 4540 0
34 2 S106 997 552743 5537 0
34 2 S106 1050 553793 6587 0
0 0 0 962 554755 -7670 0
0 0 0 969 555724 -6701 0
0 0 0 1004 556728 -5697 0
0 0 0 928 557656 -4769 0
0 0 0 910 558566 -3859 0
0 0 0 979 559545 -2880 0
35 1 S102 954 560499 -1926 0
35 1 S102 930 561429 -996 0
35 2 S102 1050 562479 54 0
35 2 S102 1000 563479 1054 0
35 2 S102 946 564425 2000 0
35 2 S102 979 565404 2979 0
35 2 S102 938 566342 3917 0
35 2 S102 941 567283 4858 0
35 2 S102 996 568279 5854 0
35 2 S102 921 569200 6775 0
0 0 0 948 570148 -5888 0
0 0 0 985 571133 -4903 0
0 0 0 839 571972 -4064 0
0 0 0 880 572852 -3184 0
0 0 0 946 573798 -2238 0
36 1 S106 879 574677 -1359 0
36 1 S106 903 575580 -456 0
36 2 S106 970 576550 514 0
36 2 S106 928 577478 1442 0
36 2 S106 926 578404 2368 0
36 2 S106 970 579374 3338 0
36 2 S106 897 580271 4235 0
36 2 S106 874 581145 5109 0
36 2 S106 969 582114 6078 0
36 2 S106 921 583035 6999 0
0 0 0 870 583905 -7217 0
0 0 0 958 584863 -6259 0
0 0 0 982 585845 -5277 0
0 0 0 906 586751 -4371 0
0 0 0 985 587736 -3386 0
0 0 0 976 588712 -2410 0
37 1 S116 886 589598 -1524 0
37 1 S116 980 590578 -544 0
37 2 S116 985 591563 441 0
37 2 S116 905 592468 1346 0
37 2 S116 983 593451 2329 0
37 2 S116 1030 594481 3359 0
37 2 S116 933 595414 4292 0
37 2 S116 999 596413 5291 0
37 2 S116 1003 597416 6294 0
0 0 0 926 598342 -9856 0
0 0 0 997 599339 -8859 0
0 0 0 983 600322 -7876 0
0 0 0 866 601188 -7010 0
0 0 0 947 602135 -6063 0
0 0 0 982 603117 -5081 0
0 0 0 884 604001 -4197 0
0 0 0 953 604954 -3244 0
0 0 0 1017 605971 -2227 0
38 1 S102 909 606880 -1318 0
38 1 S102 959 607839 -359 0
38 2 S102 986 608825 627 0
38 2 S102 883 609708 1510 0
38 2 S102 907 610615 2417 0
38 2 S102 954 611569 3371 0
38 2 S102 891 612460 4262 0
38 2 S102 866 613326 5128 0
38 2 S102 962 614288 6090 0
0 0 0 959 615247 -10325 0
0 0 0 916 616163 -9409 0
0 0 0 1003 617166 -8406 0
0 0 0 926 618092 -7480 0
0 0 0 884 618976 -6596 0
0 0 0 918 619894 -5678 0
0 0 0 876 620770 -4802 0
0 0 0 842 621612 -3960 0
0 0 0 906 622518 -3054 0
0 0 0 888 623406 -2166 0
39 1 S116 820 624226 -1346 0
39 1 S116 871 625097 -475 0
39 2 S116 925 626022 450 0
39 2 S116 872 626894 1322 0
39 2 S116 920 627814 2242 0
39 2 S116 981 628795 3223 0
39 2 S116 893 629688 4116 0
39 2 S116 940 630628 5056 0
39 2 S116 1001 631629 6057 0
39 2 S116 923 632552 6980 0
0 0 0 961 633513 -5670 0
0 0 0 1004 634517 -4666 0
0 0 0 891 635408 -3775 0
0 0 0 939 636347 -2836 0
40 1 S112 991 637338 -1845 0
40 1 S112 893 638231 -952 0
40 1 S112 949 639180 -3 0
40 2 S112 1035 640215 1032 0
40 2 S112 906 641121 1938 0
40 2 S112 981 642102 2919 0
40 2 S112 995 643097 3914 0
40 2 S112 892 643989 4806 0
40 2 S112 1019 645008 5825 0
40 2 S112 1004 646012 6829 0
0 0 0 899 646911 -186074 0
0 0 0 986 647897 -185088 0
0 0 0 915 648812 -184173 0
0 0 0 820 649632 -183353 0
0 0 0 944 650576 -182409 0
0 0 0 974 651550 -181435 0
0 0 0 873 652423 -180562 0
0 0 0 983 653406 -179579 0
0 0 0 893 654299 -178686 0
0 0 0 845 655144 -177841 0
0 0 0 881 656025 -176960 0
0 0 0 923 656948 -176037 0
0 0 0 821 657769 -175216 0
0 0 0 832 658601 -174384 0
0 0 0 897 659498 -173487 0
0 0 0 807 660305 -172680 0
0 0 0 829 661134 -171851 0
0 0 0 899 662033 -170952 0
0 0 0 894 662927 -170058 0
0 0 0 822 663749 -169236 0
0 0 0 888 664637 -168348 0
0 0 0 908 665545 -167440 0
0 0 0 815 666360 -166625 0
0 0 0 860 667220 -165765 0
0 0 0 872 668092 -164893 0
0 0 0 809 668901 -164084 0
0 0 0 865 669766 -163219 0
0 0 0 896 670662 -162323 0
0 0 0 813 671475 -161510 0
0 0 0 879 672354 -160631 0
0 0 0 905 673259 -159726 0
0 0 0 843 674102 -158883 0
0 0 0 928 675030 -157955 0
0 0 0 917 675947 -157038 0
0 0 0 835 676782 -156203 0
0 0 0 886 677668 -155317 0
0 0 0 868 678536 -154449 0
0 0 0 845 679381 -153604 0
0 0 0 931 680312 -152673 0
0 0 0 901 681213 -151772 0
0 0 0 825 682038 -150947 0
0 0 0 872 682910 -150075 0
0 0 0 879 683789 -149196 0
0 0 0 789 684578 -148407 0
0 0 0 841 685419 -147566 0
0 0 0 875 686294 -146691 0
0 0 0 796 687090 -145895 0
0 0 0 839 687929 -145056 0
0 0 0 903 688832 -144153 0
0 0 0 835 689667 -143318 0
0 0 0 880 690547 -142438 0
0 0 0 891 691438 -141547 0
0 0 0 804 692242 -140743 0
0 0 0 872 693114 -139871 0
0 0 0 921 694035 -138950 0
0 0 0 805 694840 -138145 0
0 0 0 841 695681 -137304 0
0 0 0 853 696534 -136451 0
0 0 0 764 697298 -135687 0
0 0 0 738 698036 -134949 0
0 0 0 740 698776 -134209 0
0 0 0 823 699599 -133386 0
0 0 0 753 700352 -132633 0
0 0 0 842 701194 -131791 0
0 0 0 902 702096 -130889 0
0 0 0 824 702920 -130065 0
0 0 0 884 703804 -129181 0
0 0 0 817 704621 -128364 0
0 0 0 773 705394 -127591 0
0 0 0 730 706124 -126861 0
0 0 0 778 706902 -126083 0
0 0 0 716 707618 -125367 0
0 0 0 694 708312 -124673 1
0 0 0 681 708993 -123992 1
0 0 0 669 709662 -123323 1
0 0 0 652 710314 -122671 1
0 0 0 661 710975 -122010 1
0 0 0 727 711702 -121283 0
0 0 0 790 712492 -120493 0
0 0 0 794 713286 -119699 0
0 0 0 749 714035 -118950 0
0 0 0 832 714867 -118118 0
0 0 0 899 715766 -117219 0
0 0 0 908 716674 -116311 0
0 0 0 857 717531 -115454 0
0 0 0 890 718421 -114564 0
0 0 0 890 719311 -113674 0
0 0 0 806 720117 -112868 0
0 0 0 847 720964 -112021 0
0 0 0 927 721891 -111094 0
0 0 0 903 722794 -110191 0
0 0 0 1014 723808 -109177 0
0 0 0 981 724789 -108196 0
0 0 0 946 725735 -107250 0
0 0 0 977 726712 -106273 0
0 0 0 897 727609 -105376 0
0 0 0 959 728568 -104417 0
0 0 0 986 729554 -103431 0
0 0 0 901 730455 -102530 0
0 0 0 991 731446 -101539 0
0 0 0 964 732410 -100575 0
0 0 0 828 733238 -99747 0
0 0 0 894 734132 -98853 0
0 0 0 936 735068 -97917 0
0 0 0 845 735913 -97072 0
0 0 0 923 736836 -96149 0
0 0 0 860 737696 -95289 0
0 0 0 824 738520 -94465 0
0 0 0 961 739481 -93504 0
0 0 0 952 740433 -92552 0
0 0 0 922 741355 -91630 0
0 0 0 940 742295 -90690 0
0 0 0 893 743188 -89797 0
0 0 0 841 744029 -88956 0
0 0 0 939 744968 -88017 0
0 0 0 977 745945 -87040 0
0 0 0 929 746874 -86111 0
0 0 0 1018 747892 -85093 0
0 0 0 983 748875 -84110 0
0 0 0 964 749839 -83146 0
0 0 0 976 750815 -82170 0
0 0 0 906 751721 -81264 0
0 0 0 905 752626 -80359 0
0 0 0 841 753467 -79518 0
0 0 0 854 754321 -78664 0
0 0 0 821 755142 -77843 0
0 0 0 786 755928 -77057 0
0 0 0 839 756767 -76218 0
0 0 0 854 757621 -75364 0
0 0 0 887 758508 -74477 0
0 0 0 948 759456 -73529 0
0 0 0 910 760366 -72619 0
0 0 0 922 761288 -71697 0
0 0 0 869 762157 -70828 0
0 0 0 876 763033 -69952 0
0 0 0 795 763828 -69157 0
0 0 0 747 764575 -68410 0
0 0 0 724 765299 -67686 0
0 0 0 746 766045 -66940 0
0 0 0 813 766858 -66127 0
0 0 0 750 767608 -65377 0
0 0 0 771 768379 -64606 0
0 0 0 764 769143 -63842 0
0 0 0 828 769971 -63014 0
0 0 0 771 770742 -62243 0
0 0 0 807 771549 -61436 0
0 0 0 888 772437 -60548 0
0 0 0 953 773390 -59595 0
0 0 0 952 774342 -58643 0
0 0 0 992 775334 -57651 0
0 0 0 1026 776360 -56625 0
0 0 0 1039 777399 -55586 0
0 0 0 1030 778429 -54556 0
0 0 0 1011 779440 -53545 0
0 0 0 953 780393 -52592 0
0 0 0 830 781223 -51762 0
0 0 0 758 781981 -51004 0
0 0 0 790 782771 -50214 0
0 0 0 717 783488 -49497 0
0 0 0 688 784176 -48809 1
0 0 0 675 784851 -48134 1
0 0 0 660 785511 -47474 1
0 0 0 665 786176 -46809 1
0 0 0 741 786917 -46068 0
0 0 0 868 787785 -45200 0
0 0 0 982 788767 -44218 0
0 0 0 1036 789803 -43182 0
0 0 0 1050 790853 -42132 0
0 0 0 1045 791898 -41087 0
0 0 0 1008 792906 -40079 0
0 0 0 1032 793938 -39047 0
0 0 0 1058 794996 -37989 0
0 0 0 916 795912 -37073 0
0 0 0 850 796762 -36223 0
0 0 0 790 797552 -35433 0
0 0 0 722 798274 -34711 0
0 0 0 756 799030 -33955 0
0 0 0 699 799729 -33256 1
0 0 0 683 800412 -32573 1
0 0 0 677 801089 -31896 1
0 0 0 681 801770 -31215 1
0 0 0 728 802498 -30487 0
0 0 0 844 803342 -29643 0
0 0 0 968 804310 -28675 0
0 0 0 979 805289 -27696 0
0 0 0 972 806261 -26724 0
0 0 0 984 807245 -25740 0
0 0 0 978 808223 -24762 0
0 0 0 947 809170 -23815 0
0 0 0 925 810095 -22890 0
0 0 0 984 811079 -21906 0
0 0 0 1033 812112 -20873 0
0 0 0 1012 813124 -19861 0
0 0 0 970 814094 -18891 0
0 0 0 907 815001 -17984 0
0 0 0 785 815786 -17199 0
0 0 0 754 816540 -16445 0
0 0 0 1284 817824 -15161 1
0 0 0 673 818497 -14488 1
0 0 0 649 819146 -13839 1
0 0 0 640 819786 -13199 1
0 0 0 624 820410 -12575 1
0 0 0 618 821028 -11957 1
0 0 0 630 821658 -11327 1
0 0 0 600 822258 -10727 1
0 0 0 655 822913 -10072 1
0 0 0 658 823571 -9414 1
0 0 0 647 824218 -8767 1
0 0 0 650 824868 -8117 1
0 0 0 663 825531 -7454 1
0 0 0 735 826266 -6719 0
0 0 0 750 827016 -5969 0
0 0 0 685 827701 -5284 1
0 0 0 738 828439 -4546 0
0 0 0 694 829133 -3852 1
0 0 0 661 829794 -3191 1
0 0 0 678 830472 -2513 1
41 1 S102 664 831136 -1849 1
41 1 S102 629 831765 -1220 1
41 1 S102 622 832387 -598 1
41 2 S102 619 833006 21 1
41 2 S102 626 833632 647 1
41 2 S102 648 834280 1295 1
41 2 S102 662 834942 1957 1
41 2 S102 699 835641 2656 1
41 2 S102 680 836321 3336 1
41 2 S102 721 837042 4057 0
41 2 S102 863 837905 4920 0
41 2 S102 903 838808 5823 0
41 2 S102 913 839721 6736 0
0 0 0 904 840625 -5589 0
0 0 0 898 841523 -4691 0
0 0 0 849 842372 -3842 0
0 0 0 820 843192 -3022 0
0 0 0 810 844002 -2212 0
42 1 S112 845 844847 -1367 0
42 1 S112 883 845730 -484 0
42 2 S112 926 846656 442 0
42 2 S112 934 847590 1376 0
42 2 S112 908 848498 2284 0
42 2 S112 866 849364 3150 0
42 2 S112 859 850223 4009 0
42 2 S112 815 851038 4824 0
42 2 S112 862 851900 5686 0
42 2 S112 904 852804 6590 0
0 0 0 923 853727 -9182 0
0 0 0 888 854615 -8294 0
0 0 0 798 855413 -7496 0
0 0 0 780 856193 -6716 0
0 0 0 752 856945 -5964 0
0 0 0 735 857680 -5229 0
0 0 0 765 858445 -4464 0
0 0 0 800 859245 -3664 0
0 0 0 788 860033 -2876 0
0 0 0 789 860822 -2087 0
43 1 S116 843 861665 -1244 0
43 1 S116 814 862479 -430 0
43 2 S116 785 863264 355 0
43 2 S116 791 864055 1146 0
43 2 S116 761 864816 1907 0
43 2 S116 740 865556 2647 0
43 2 S116 755 866311 3402 0
43 2 S116 800 867111 4202 0
43 2 S116 868 867979 5070 0
43 2 S116 956 868935 6026 0
43 2 S116 853 869788 6879 0
0 0 0 835 870623 -5465 0
0 0 0 911 871534 -4554 0
0 0 0 850 872384 -3704 0
0 0 0 781 873165 -2923 0
0 0 0 783 873948 -2140 0
44 1 S102 752 874700 -1388 0
44 1 S102 782 875482 -606 0
44 2 S102 782 876264 176 0
44 2 S102 728 876992 904 0
44 2 S102 863 877855 1767 0
44 2 S102 959 878814 2726 0
44 2 S102 929 879743 3655 0
44 2 S102 855 880598 4510 0
44 2 S102 846 881444 5356 0
44 2 S102 733 882177 6089 0
44 2 S102 738 882915 6827 0
0 0 0 739 883654 -7454 0
0 0 0 935 884589 -6519 0
0 0 0 922 885511 -5597 0
0 0 0 939 886450 -4658 0
0 0 0 928 887378 -3730 0
0 0 0 876 888254 -2854 0
45 1 S116 903 889157 -1951 0
45 1 S116 905 890062 -1046 0
45 1 S116 886 890948 -160 0
45 2 S116 827 891775 667 0
45 2 S116 854 892629 1521 0
45 2 S116 870 893499 2391 0
45 2 S116 826 894325 3217 0
45 2 S116 869 895194 4086 0
45 2 S116 900 896094 4986 0
45 2 S116 832 896926 5818 0
45 2 S116 887 897813 6705 0
0 0 0 914 898727 -9358 0
0 0 0 835 899562 -8523 0
0 0 0 879 900441 -7644 0
0 0 0 901 901342 -6743 0
0 0 0 812 902154 -5931 0
0 0 0 873 903027 -5058 0
0 0 0 914 903941 -4144 0
0 0 0 886 904827 -3258 0
0 0 0 877 905704 -2381 0
46 1 S102 939 906643 -1442 0
46 1 S102 898 907541 -544 0
46 2 S102 866 908407 322 0
46 2 S102 917 909324 1239 0
46 2 S102 876 910200 2115 0
46 2 S102 877 911077 2992 0
46 2 S102 934 912011 3926 0
46 2 S102 908 912919 4834 0
46 2 S102 1013 913932 5847 0
46 2 S102 970 914902 6817 0
0 0 0 909 915811 -7277 0
0 0 0 923 916734 -6354 0
0 0 0 825 917559 -5529 0
0 0 0 885 918444 -4644 0
0 0 0 912 919356 -3732 0
0 0 0 809 920165 -2923 0
47 1 S112 934 921099 -1989 0
47 1 S112 927 922026 -1062 0
47 1 S112 885 922911 -177 0
47 2 S112 985 923896 808 0
47 2 S112 886 924782 1694 0
47 2 S112 1006 925788 2700 0
47 2 S112 1046 926834 3746 0
47 2 S112 934 927768 4680 0
47 2 S112 1031 928799 5711 0
47 2 S112 965 929764 6676 0
0 0 0 883 930647 -11738 0
0 0 0 947 931594 -10791 0
0 0 0 879 932473 -9912 0
0 0 0 924 933397 -8988 0
0 0 0 909 934306 -8079 0
0 0 0 838 935144 -7241 0
0 0 0 944 936088 -6297 0
0 0 0 965 937053 -5332 0
0 0 0 894 937947 -4438 0
0 0 0 961 938908 -3477 0
0 0 0 889 939797 -2588 0
48 1 S116 895 940692 -1693 0
48 1 S116 918 941610 -775 0
48 2 S116 831 942441 56 0
48 2 S116 895 943336 951 0
48 2 S116 909 944245 1860 0
48 2 S116 820 945065 2680 0
48 2 S116 882 945947 3562 0
48 2 S116 920 946867 4482 0
48 2 S116 868 947735 5350 0
48 2 S116 969 948704 6319 0
0 0 0 951 949655 -5794 0
0 0 0 871 950526 -4923 0
0 0 0 844 951370 -4079 0
0 0 0 774 952144 -3305 0
0 0 0 760 952904 -2545 0
49 1 S112 834 953738 -1711 0
49 1 S112 816 954554 -895 0
49 1 S112 857 955411 -38 0
49 2 S112 984 956395 946 0
49 2 S112 924 957319 1870 0
49 2 S112 936 958255 2806 0
49 2 S112 933 959188 3739 0
49 2 S112 886 960074 4625 0
49 2 S112 939 961013 5564 0
49 2 S112 830 961843 6394 0
0 0 0 869 962712 -10609 0
0 0 0 896 963608 -9713 0
0 0 0 797 964405 -8916 0
0 0 0 879 965284 -8037 0
0 0 0 904 966188 -7133 0
0 0 0 895 967083 -6238 0
0 0 0 995 968078 -5243 0
0 0 0 849 968927 -4394 0
0 0 0 861 969788 -3533 0
0 0 0 780 970568 -2753 0
50 1 S106 806 971374 -1947 0
50 1 S106 788 972162 -1159 0
50 1 S106 878 973040 -281 0
50 2 S106 960 974000 679 0
50 2 S106 856 974856 1535 0
50 2 S106 912 975768 2447 0
50 2 S106 948 976716 3395 0
50 2 S106 832 977548 4227 0
50 2 S106 914 978462 5141 0
50 2 S106 944 979406 6085 0
50 2 S106 858 980264 6943 0
0 0 0 976 981240 -5078 0
0 0 0 924 982164 -4154 0
0 0 0 822 982986 -3332 0
0 0 0 926 983912 -2406 0
51 1 S112 873 984785 -1533 0
51 1 S112 851 985636 -682 0
51 2 S112 925 986561 243 0
51 2 S112 862 987423 1105 0
51 2 S112 870 988293 1975 0
51 2 S112 946 989239 2921 0
51 2 S112 850 990089 3771 0
51 2 S112 909 990998 4680 0
51 2 S112 940 991938 5620 0
51 2 S112 849 992787 6469 0
0 0 0 947 993734 -6593 0
0 0 0 910 994644 -5683 0
0 0 0 837 995481 -4846 0
0 0 0 878 996359 -3968 0
0 0 0 824 997183 -3144 0
0 0 0 806 997989 -2338 0
52 1 S116 886 998875 -1452 0
52 1 S116 868 999743 -584 0
52 2 S116 869 1000612 285 0
52 2 S116 983 1001595 1268 0
52 2 S116 901 1002496 2169 0
52 2 S116 979 1003475 3148 0
52 2 S116 966 1004441 4114 0
52 2 S116 882 1005323 4996 0
52 2 S116 957 1006280 5953 0
52 2 S116 924 1007204 6877 0
0 0 0 858 1008062 -7318 0
0 0 0 955 1009017 -6363 0
0 0 0 915 1009932 -5448 0
0 0 0 929 1010861 -4519 0
0 0 0 1005 1011866 -3514 0
0 0 0 886 1012752 -2628 0
53 1 S106 966 1013718 -1662 0
53 1 S106 979 1014697 -683 0
53 2 S106 897 1015594 214 0
53 2 S106 970 1016564 1184 0
53 2 S106 888 1017452 2072 0
53 2 S106 949 1018401 3021 0
53 2 S106 953 1019354 3974 0
53 2 S106 928 1020282 4902 0
53 2 S106 1009 1021291 5911 0
53 2 S106 920 1022211 6831 0
0 0 0 947 1023158 -5186 0
0 0 0 942 1024100 -4244 0
0 0 0 852 1024952 -3392 0
0 0 0 955 1025907 -2437 0
54 1 S102 985 1026892 -1452 0
54 1 S102 923 1027815 -529 0
54 2 S102 999 1028814 470 0
54 2 S102 949 1029763 1419 0
54 2 S102 935 1030698 2354 0
54 2 S102 962 1031660 3316 0
54 2 S102 875 1032535 4191 0
54 2 S102 934 1033469 5125 0
54 2 S102 952 1034421 6077 0
54 2 S102 893 1035314 6970 0
0 0 0 990 1036304 -10127 0
0 0 0 955 1037259 -9172 0
0 0 0 881 1038140 -8291 0
0 0 0 963 1039103 -7328 0
0 0 0 871 1039974 -6457 0
0 0 0 950 1040924 -5507 0
0 0 0 986 1041910 -4521 0
0 0 0 858 1042768 -3663 0
0 0 0 965 1043733 -2698 0
55 1 S106 928 1044661 -1770 0
55 1 S106 939 1045600 -831 0
55 2 S106 1019 1046619 188 0
55 2 S106 942 1047561 1130 0
55 2 S106 946 1048507 2076 0
55 2 S106 942 1049449 3018 0
55 2 S106 868 1050317 3886 0
55 2 S106 955 1051272 4841 0
55 2 S106 928 1052200 5769 0
55 2 S106 937 1053137 6706 0
0 0 0 1016 1054153 -5259 0
0 0 0 894 1055047 -4365 0
0 0 0 994 1056041 -3371 0
0 0 0 964 1057005 -2407 0
56 1 S116 923 1057928 -1484 0
56 1 S116 1005 1058933 -479 0
56 2 S116 919 1059852 440 0
56 2 S116 925 1060777 1365 0
56 2 S116 975 1061752 2340 0
56 2 S116 908 1062660 3248 0
56 2 S116 953 1063613 4201 0
56 2 S116 1006 1064619 5207 0
56 2 S116 892 1065511 6099 0
0 0 0 994 1066505 -5872 0
0 0 0 981 1067486 -4891 0
0 0 0 899 1068385 -3992 0
0 0 0 974 1069359 -3018 0
0 0 0 924 1070283 -2094 0
57 1 S106 890 1071173 -1204 0
57 1 S106 968 1072141 -236 0
57 2 S106 938 1073079 702 0
57 2 S106 954 1074033 1656 0
57 2 S106 1006 1075039 2662 0
57 2 S106 921 1075960 3583 0
57 2 S106 988 1076948 4571 0
57 2 S106 969 1077917 5540 0
57 2 S106 923 1078840 6463 0
0 0 0 995 1079835 -7479 0
0 0 0 908 1080743 -6571 0
0 0 0 910 1081653 -5661 0
0 0 0 976 1082629 -4685 0
0 0 0 853 1083482 -3832 0
0 0 0 940 1084422 -2892 0
58 1 S102 921 1085343 -1971 0
58 1 S102 870 1086213 -1101 0
58 1 S102 992 1087205 -109 0
58 2 S102 904 1088109 795 0
58 2 S102 937 1089046 1732 0
58 2 S102 967 1090013 2699 0
58 2 S102 857 1090870 3556 0
58 2 S102 914 1091784 4470 0
58 2 S102 922 1092706 5392 0
58 2 S102 881 1093587 6273 0
0 0 0 979 1094566 -6557 0
0 0 0 934 1095500 -5623 0
0 0 0 917 1096417 -4706 0
0 0 0 945 1097362 -3761 0
0 0 0 859 1098221 -2902 0
59 1 S112 936 1099157 -1966 0
59 1 S112 965 1100122 -1001 0
59 1 S112 915 1101037 -86 0
59 2 S112 983 1102020 897 0
59 2 S112 925 1102945 1822 0
59 2 S112 932 1103877 2754 0
59 2 S112 958 1104835 3712 0
59 2 S112 876 1105711 4588 0
59 2 S112 946 1106657 5534 0
59 2 S112 966 1107623 6500 0
0 0 0 906 1108529 -8775 0
0 0 0 972 1109501 -7803 0
0 0 0 898 1110399 -6905 0
0 0 0 904 1111303 -6001 0
0 0 0 905 1112208 -5096 0
0 0 0 848 1113056 -4248 0
0 0 0 967 1114023 -3281 0
0 0 0 918 1114941 -2363 0
60 1 S102 881 1115822 -1482 0
60 1 S102 932 1116754 -550 0
60 2 S102 892 1117646 342 0
60 2 S102 928 1118574 1270 0
60 2 S102 962 1119536 2232 0
60 2 S102 830 1120366 3062 0
60 2 S102 919 1121285 3981 0
60 2 S102 965 1122250 4946 0
60 2 S102 886 1123136 5832 0
60 2 S102 959 1124095 6791 0
0 0 0 954 1125049 -9298 0
0 0 0 961 1126010 -8337 0
0 0 0 983 1126993 -7354 0
0 0 0 878 1127871 -6476 0
0 0 0 955 1128826 -5521 0
0 0 0 949 1129775 -4572 0
0 0 0 872 1130647 -3700 0
0 0 0 951 1131598 -2749 0
61 1 S106 954 1132552 -1795 0
61 1 S106 878 1133430 -917 0
61 2 S106 985 1134415 68 0
61 2 S106 970 1135385 1038 0
61 2 S106 914 1136299 1952 0
61 2 S106 975 1137274 2927 0
61 2 S106 958 1138232 3885 0
61 2 S106 958 1139190 4843 0
61 2 S106 1006 1140196 5849 0
61 2 S106 975 1141171 6824 0
0 0 0 915 1142086 -5291 0
0 0 0 966 1143052 -4325 0
0 0 0 954 1144006 -3371 0
0 0 0 911 1144917 -2460 0
62 1 S112 984 1145901 -1476 0
62 1 S112 954 1146855 -522 0
62 2 S112 891 1147746 369 0
62 2 S112 972 1148718 1341 0
62 2 S112 933 1149651 2274 0
62 2 S112 926 1150577 3200 0
62 2 S112 974 1151551 4174 0
62 2 S112 895 1152446 5069 0
62 2 S112 969 1153415 6038 0
62 2 S112 978 1154393 7016 0
0 0 0 937 1155330 -10018 0
0 0 0 985 1156315 -9033 0
0 0 0 842 1157157 -8191 0
0 0 0 895 1158052 -7296 0
0 0 0 966 1159018 -6330 0
0 0 0 832 1159850 -5498 0
0 0 0 945 1160795 -4553 0
0 0 0 980 1161775 -3573 0
0 0 0 964 1162739 -2609 0
63 1 S102 1034 1163773 -1575 0
63 1 S102 966 1164739 -609 0
63 2 S102 961 1165700 352 0
63 2 S102 1000 1166700 1352 0
63 2 S102 896 1167596 2248 0
63 2 S102 930 1168526 3178 0
63 2 S102 962 1169488 4140 0
63 2 S102 870 1170358 5010 0
63 2 S102 961 1171319 5971 0
63 2 S102 1002 1172321 6973 0
0 0 0 924 1173245 -7140 0
0 0 0 982 1174227 -6158 0
0 0 0 924 1175151 -5234 0
0 0 0 920 1176071 -4314 0
0 0 0 989 1177060 -3325 0
0 0 0 864 1177924 -2461 0
64 1 S112 898 1178822 -1563 0
64 1 S112 938 1179760 -625 0
64 2 S112 845 1180605 220 0
64 2 S112 934 1181539 1154 0
64 2 S112 971 1182510 2125 0
64 2 S112 900 1183410 3025 0
64 2 S112 1014 1184424 4039 0
64 2 S112 972 1185396 5011 0
64 2 S112 966 1186362 5977 0
64 2 S112 1014 1187376 6991 0
0 0 0 914 1188290 -6186 0
0 0 0 970 1189260 -5216 0
0 0 0 902 1190162 -4314 0
0 0 0 821 1190983 -3493 0
0 0 0 918 1191901 -2575 0
65 1 S106 885 1192786 -1690 0
65 1 S106 867 1193653 -823 0
65 2 S106 942 1194595 119 0
65 2 S106 929 1195524 1048 0
65 2 S106 867 1196391 1915 0
65 2 S106 1010 1197401 2925 0
65 2 S106 945 1198346 3870 0
65 2 S106 893 1199239 4763 0
65 2 S106 955 1200194 5718 0
65 2 S106 896 1201090 6614 0
0 0 0 891 1201981 -5526 0
0 0 0 949 1202930 -4577 0
0 0 0 851 1203781 -3726 0
0 0 0 861 1204642 -2865 0
66 1 S116 909 1205551 -1956 0
66 1 S116 866 1206417 -1090 0
66 1 S116 912 1207329 -178 0
66 2 S116 983 1208312 805 0
66 2 S116 903 1209215 1708 0
66 2 S116 966 1210181 2674 0
66 2 S116 984 1211165 3658 0
66 2 S116 899 1212064 4557 0
66 2 S116 1004 1213068 5561 0
66 2 S116 982 1214050 6543 0
0 0 0 890 1214940 -9775 0
0 0 0 936 1215876 -8839 0
0 0 0 932 1216808 -7907 0
0 0 0 837 1217645 -7070 0
0 0 0 935 1218580 -6135 0
0 0 0 973 1219553 -5162 0
0 0 0 901 1220454 -4261 0
0 0 0 1018 1221472 -3243 0
0 0 0 918 1222390 -2325 0
67 1 S102 916 1223306 -1409 0
67 1 S102 960 1224266 -449 0
67 2 S102 871 1225137 422 0
67 2 S102 941 1226078 1363 0
67 2 S102 965 1227043 2328 0
67 2 S102 869 1227912 3197 0
67 2 S102 1053 1228965 4250 0
67 2 S102 1012 1229977 5262 0
67 2 S102 959 1230936 6221 0
0 0 0 1083 1232019 -6108 0
0 0 0 944 1232963 -5164 0
0 0 0 962 1233925 -4202 0
0 0 0 925 1234850 -3277 0
0 0 0 864 1235714 -2413 0
68 1 S106 986 1236700 -1427 0
68 1 S106 928 1237628 -499 0
68 2 S106 952 1238580 453 0
68 2 S106 1014 1239594 1467 0
68 2 S106 931 1240525 2398 0
68 2 S106 981 1241506 3379 0
68 2 S106 1009 1242515 4388 0
68 2 S106 894 1243409 5282 0
68 2 S106 979 1244388 6261 0
0 0 0 1017 1245405 -9815 0
0 0 0 941 1246346 -8874 0
0 0 0 976 1247322 -7898 0
0 0 0 915 1248237 -6983 0
0 0 0 883 1249120 -6100 0
0 0 0 947 1250067 -5153 0
0 0 0 905 1250972 -4248 0
0 0 0 946 1251918 -3302 0
0 0 0 1019 1252937 -2283 0
69 1 S102 920 1253857 -1363 0
69 1 S102 996 1254853 -367 0
69 2 S102 988 1255841 621 0
69 2 S102 886 1256727 1507 0
69 2 S102 944 1257671 2451 0
69 2 S102 953 1258624 3404 0
69 2 S102 875 1259499 4279 0
69 2 S102 1024 1260523 5303 0
69 2 S102 983 1261506 6286 0
0 0 0 905 1262411 -8442 0
0 0 0 986 1263397 -7456 0
0 0 0 912 1264309 -6544 0
0 0 0 823 1265132 -5721 0
0 0 0 904 1266036 -4817 0
0 0 0 931 1266967 -3886 0
0 0 0 866 1267833 -3020 0
0 0 0 967 1268800 -2053 0
70 1 S112 966 1269766 -1087 0
70 1 S112 899 1270665 -188 0
70 2 S112 1007 1271672 819 0
70 2 S112 966 1272638 1785 0
70 2 S112 939 1273577 2724 0
70 2 S112 985 1274562 3709 0
70 2 S112 895 1275457 4604 0
70 2 S112 948 1276405 5552 0
70 2 S112 998 1277403 6550 0
0 0 0 918 1278321 -10553 0
0 0 0 967 1279288 -9586 0
0 0 0 971 1280259 -8615 0
0 0 0 838 1281097 -7777 0
0 0 0 917 1282014 -6860 0
0 0 0 954 1282968 -5906 0
0 0 0 888 1283856 -5018 0
0 0 0 1010 1284866 -4008 0
0 0 0 959 1285825 -3049 0
0 0 0 944 1286769 -2105 0
71 1 S116 990 1287759 -1115 0
71 1 S116 905 1288664 -210 0
71 2 S116 884 1289548 674 0
71 2 S116 945 1290493 1619 0
71 2 S116 951 1291444 2570 0
71 2 S116 879 1292323 3449 0
71 2 S116 960 1293283 4409 0
71 2 S116 966 1294249 5375 0
71 2 S116 899 1295148 6274 0
0 0 0 998 1296146 -7681 0
0 0 0 966 1297112 -6715 0
0 0 0 889 1298001 -5826 0
0 0 0 907 1298908 -4919 0
0 0 0 864 1299772 -4055 0
0 0 0 834 1300606 -3221 0
0 0 0 912 1301518 -2309 0
72 1 S102 908 1302426 -1401 0
72 1 S102 869 1303295 -532 0
72 2 S102 940 1304235 408 0
72 2 S102 913 1305148 1321 0
72 2 S102 885 1306033 2206 0
72 2 S102 952 1306985 3158 0
72 2 S102 910 1307895 4068 0
72 2 S102 878 1308773 4946 0
72 2 S102 938 1309711 5884 0
72 2 S102 938 1310649 6822 0
0 0 0 901 1311550 -5706 0
0 0 0 942 1312492 -4764 0
0 0 0 890 1313382 -3874 0
0 0 0 839 1314221 -3035 0
0 0 0 891 1315112 -2144 0
73 1 S116 843 1315955 -1301 0
73 1 S116 802 1316757 -499 0
73 2 S116 899 1317656 400 0
73 2 S116 884 1318540 1284 0
73 2 S116 793 1319333 2077 0
73 2 S116 868 1320201 2945 0
73 2 S116 922 1321123 3867 0
73 2 S116 838 1321961 4705 0
73 2 S116 938 1322899 5643 0
73 2 S116 971 1323870 6614 0
0 0 0 882 1324752 -7922 0
0 0 0 997 1325749 -6925 0
0 0 0 942 1326691 -5983 0
0 0 0 895 1327586 -5088 0
0 0 0 992 1328578 -4096 0
0 0 0 935 1329513 -3161 0
0 0 0 915 1330428 -2246 0
74 1 S106 967 1331395 -1279 0
74 1 S106 898 1332293 -381 0
74 2 S106 926 1333219 545 0
74 2 S106 959 1334178 1504 0
74 2 S106 863 1335041 2367 0
74 2 S106 942 1335983 3309 0
74 2 S106 999 1336982 4308 0
74 2 S106 897 1337879 5205 0
74 2 S106 1009 1338888 6214 0
0 0 0 991 1339879 -5958 0
0 0 0 878 1340757 -5080 0
0 0 0 931 1341688 -4149 0
0 0 0 936 1342624 -3213 0
0 0 0 855 1343479 -2358 0
75 1 S112 974 1344453 -1384 0
75 1 S112 973 1345426 -411 0
75 2 S112 904 1346330 493 0
75 2 S112 990 1347320 1483 0
75 2 S112 962 1348282 2445 0
75 2 S112 898 1349180 3343 0
75 2 S112 988 1350168 4331 0
75 2 S112 923 1351091 5254 0
75 2 S112 943 1352034 6197 0
0 0 0 987 1353021 -6875 0
0 0 0 915 1353936 -5960 0
0 0 0 873 1354809 -5087 0
0 0 0 894 1355703 -4193 0
0 0 0 838 1356541 -3355 0
0 0 0 832 1357373 -2523 0
76 1 S116 881 1358254 -1642 0
76 1 S116 903 1359157 -739 0
76 2 S116 902 1360059 163 0
76 2 S116 978 1361037 1141 0
76 2 S116 883 1361920 2024 0
76 2 S116 956 1362876 2980 0
76 2 S116 957 1363833 3937 0
76 2 S116 889 1364722 4826 0
76 2 S116 980 1365702 5806 0
76 2 S116 966 1366668 6772 0
0 0 0 906 1367574 -5385 0
0 0 0 951 1368525 -4434 0
0 0 0 909 1369434 -3525 0
0 0 0 869 1370303 -2656 0
77 1 S106 962 1371265 -1694 0
77 1 S106 974 1372239 -720 0
77 2 S106 900 1373139 180 0
77 2 S106 985 1374124 1165 0
77 2 S106 918 1375042 2083 0
77 2 S106 888 1375930 2971 0
77 2 S106 1010 1376940 3981 0
77 2 S106 930 1377870 4911 0
77 2 S106 961 1378831 5872 0
77 2 S106 1004 1379835 6876 0
0 0 0 942 1380777 -7269 0
0 0 0 949 1381726 -6320 0
0 0 0 1002 1382728 -5318 0
0 0 0 905 1383633 -4413 0
0 0 0 975 1384608 -3438 0
0 0 0 963 1385571 -2475 0
78 1 S112 870 1386441 -1605 0
78 1 S112 958 1387399 -647 0
78 2 S112 952 1388351 305 0
78 2 S112 883 1389234 1188 0
78 2 S112 991 1390225 2179 0
78 2 S112 976 1391201 3155 0
78 2 S112 934 1392135 4089 0
78 2 S112 989 1393124 5078 0
78 2 S112 896 1394020 5974 0
78 2 S112 941 1394961 6915 0
0 0 0 1008 1395969 -10445 0
0 0 0 858 1396827 -9587 0
0 0 0 917 1397744 -8670 0
0 0 0 914 1398658 -7756 0
0 0 0 843 1399501 -6913 0
0 0 0 937 1400438 -5976 0
0 0 0 984 1401422 -4992 0
0 0 0 899 1402321 -4093 0
0 0 0 986 1403307 -3107 0
0 0 0 1015 1404322 -2092 0
79 1 S102 959 1405281 -1133 0
79 1 S102 1014 1406295 -119 0
79 2 S102 1012 1407307 893 0
79 2 S102 911 1408218 1804 0
79 2 S102 984 1409202 2788 0
79 2 S102 975 1410177 3763 0
79 2 S102 941 1411118 4704 0
79 2 S102 1032 1412150 5736 0
79 2 S102 929 1413079 6665 0
0 0 0 979 1414058 -7443 0
0 0 0 996 1415054 -6447 0
0 0 0 884 1415938 -5563 0
0 0 0 952 1416890 -4611 0
0 0 0 974 1417864 -3637 0
0 0 0 860 1418724 -2777 0
80 1 S116 968 1419692 -1809 0
80 1 S116 942 1420634 -867 0
80 2 S116 905 1421539 38 0
80 2 S116 1017 1422556 1055 0
80 2 S116 923 1423479 1978 0
80 2 S116 915 1424394 2893 0
80 2 S116 964 1425358 3857 0
80 2 S116 871 1426229 4728 0
80 2 S116 911 1427140 5639 0
80 2 S116 939 1428079 6578 0
