T_0031
BeatCount Mean SD BeatCountNoOutliers MeanNoOutliers SDNoOutliers
2101 713,980485483103 74,3086875646026 2081 710,983181162903 59,8215204724594

Trial TrialStatus Trialtype IBI AbsPosition RelPosition Outlier
0 0 0 716 1176 -14946 0
0 0 0 702 1878 -14244 0
0 0 0 697 2575 -13547 0
0 0 0 674 3249 -12873 0
0 0 0 641 3890 -12232 0
0 0 0 632 4522 -11600 0
0 0 0 649 5171 -10951 0
0 0 0 661 5832 -10290 0
0 0 0 680 6512 -9610 0
0 0 0 691 7203 -8919 0
0 0 0 687 7890 -8232 0
0 0 0 686 8576 -7546 0
0 0 0 705 9281 -6841 0
0 0 0 718 9999 -6123 0
0 0 0 738 10737 -5385 0
0 0 0 743 11480 -4642 0
0 0 0 732 12212 -3910 0
0 0 0 695 12907 -3215 0
0 0 0 684 13591 -2531 0
1 1 S112 660 14251 -1871 0
1 1 S112 672 14923 -1199 0
1 1 S112 677 15600 -522 0
1 2 S112 681 16281 159 0
1 2 S112 697 16978 856 0
1 2 S112 757 17735 1613 0
1 2 S112 825 18560 2438 0
1 2 S112 816 19376 3254 0
1 2 S112 782 20158 4036 0
1 2 S112 767 20925 4803 0
1 2 S112 764 21689 5567 0
1 2 S112 785 22474 6352 0
0 0 0 797 23271 -13292 0
0 0 0 758 24029 -12534 0
0 0 0 695 24724 -11839 0
0 0 0 662 25386 -11177 0
0 0 0 660 26046 -10517 0
0 0 0 691 26737 -9826 0
0 0 0 698 27435 -9128 0
0 0 0 690 28125 -8438 0
0 0 0 643 28768 -7795 0
0 0 0 648 29416 -7147 0
0 0 0 643 30059 -6504 0
0 0 0 659 30718 -5845 0
0 0 0 670 31388 -5175 0
0 0 0 685 32073 -4490 0
0 0 0 684 32757 -3806 0
0 0 0 756 33513 -3050 0
0 0 0 731 34244 -2319 0
2 1 S102 726 34970 -1593 0
2 1 S102 712 35682 -881 0
2 1 S102 691 36373 -190 0
2 2 S102 687 37060 497 0
2 2 S102 696 37756 1193 0
2 2 S102 713 38469 1906 0
2 2 S102 714 39183 2620 0
2 2 S102 702 39885 3322 0
2 2 S102 706 40591 4028 0
2 2 S102 726 41317 4754 0
2 2 S102 734 42051 5488 0
2 2 S102 738 42789 6226 0
2 2 S102 708 43497 6934 0
0 0 0 681 44178 -8218 0
0 0 0 645 44823 -7573 0
0 0 0 643 45466 -6930 0
0 0 0 665 46131 -6265 0
0 0 0 708 46839 -5557 0
0 0 0 733 47572 -4824 0
0 0 0 704 48276 -4120 0
0 0 0 724 49000 -3396 0
0 0 0 736 49736 -2660 0
3 1 S116 743 50479 -1917 0
3 1 S116 742 51221 -1175 0
3 1 S116 708 51929 -467 0
3 2 S116 733 52662 266 0
3 2 S116 741 53403 1007 0
3 2 S116 733 54136 1740 0
3 2 S116 739 54875 2479 0
3 2 S116 712 55587 3191 0
3 2 S116 699 56286 3890 0
3 2 S116 702 56988 4592 0
3 2 S116 728 57716 5320 0
3 2 S116 735 58451 6055 0
3 2 S116 745 59196 6800 0
0 0 0 720 59916 -10666 0
0 0 0 731 60647 -9935 0
0 0 0 737 61384 -9198 0
0 0 0 728 62112 -8470 0
0 0 0 706 62818 -7764 0
0 0 0 677 63495 -7087 0
0 0 0 657 64152 -6430 0
0 0 0 664 64816 -5766 0
0 0 0 695 65511 -5071 0
0 0 0 720 66231 -4351 0
0 0 0 691 66922 -3660 0
0 0 0 703 67625 -2957 0
0 0 0 718 68343 -2239 0
4 1 S106 737 69080 -1502 0
4 1 S106 765 69845 -737 0
4 2 S106 774 70619 37 0
4 2 S106 755 71374 792 0
4 2 S106 723 72097 1515 0
4 2 S106 737 72834 2252 0
4 2 S106 730 73564 2982 0
4 2 S106 751 74315 3733 0
4 2 S106 754 75069 4487 0
4 2 S106 742 75811 5229 0
4 2 S106 738 76549 5967 0
4 2 S106 766 77315 6733 0
0 0 0 775 78090 -7761 0
0 0 0 815 78905 -6946 0
0 0 0 798 79703 -6148 0
0 0 0 738 80441 -5410 0
0 0 0 720 81161 -4690 0
0 0 0 686 81847 -4004 0
0 0 0 662 82509 -3342 0
0 0 0 634 83143 -2708 0
0 0 0 627 83770 -2081 0
5 1 S116 623 84393 -1458 0
5 1 S116 641 85034 -817 0
5 1 S116 611 85645 -206 0
5 2 S116 674 86319 468 0
5 2 S116 746 87065 1214 0
5 2 S116 724 87789 1938 0
5 2 S116 675 88464 2613 0
5 2 S116 670 89134 3283 0
5 2 S116 683 89817 3966 0
5 2 S116 669 90486 4635 0
5 2 S116 671 91157 5306 0
5 2 S116 642 91799 5948 0
5 2 S116 662 92461 6610 0
0 0 0 695 93156 -9406 0
0 0 0 703 93859 -8703 0
0 0 0 734 94593 -7969 0
0 0 0 707 95300 -7262 0
0 0 0 686 95986 -6576 0
0 0 0 689 96675 -5887 0
0 0 0 695 97370 -5192 0
0 0 0 697 98067 -4495 0
0 0 0 669 98736 -3826 0
0 0 0 672 99408 -3154 0
0 0 0 671 100079 -2483 0
6 1 S106 698 100777 -1785 0
6 1 S106 698 101475 -1087 0
6 1 S106 692 102167 -395 0
6 2 S106 674 102841 279 0
6 2 S106 664 103505 943 0
6 2 S106 672 104177 1615 0
6 2 S106 707 104884 2322 0
6 2 S106 674 105558 2996 0
6 2 S106 645 106203 3641 0
6 2 S106 632 106835 4273 0
6 2 S106 613 107448 4886 0
6 2 S106 589 108037 5475 0
6 2 S106 575 108612 6050 0
6 2 S106 556 109168 6606 0
0 0 0 549 109717 -10070 0
0 0 0 543 110260 -9527 0
0 0 0 807 111067 -8720 0
0 0 0 776 111843 -7944 0
0 0 0 813 112656 -7131 0
0 0 0 763 113419 -6368 0
0 0 0 699 114118 -5669 0
0 0 0 671 114789 -4998 0
0 0 0 743 115532 -4255 0
0 0 0 777 116309 -3478 0
0 0 0 733 117042 -2745 0
0 0 0 684 117726 -2061 0
7 1 S102 680 118406 -1381 0
7 1 S102 724 119130 -657 0
7 2 S102 759 119889 102 0
7 2 S102 775 120664 877 0
7 2 S102 773 121437 1650 0
7 2 S102 719 122156 2369 0
7 2 S102 695 122851 3064 0
7 2 S102 652 123503 3716 0
7 2 S102 630 124133 4346 0
7 2 S102 658 124791 5004 0
7 2 S102 688 125479 5692 0
7 2 S102 672 126151 6364 0
7 2 S102 659 126810 7023 0
0 0 0 681 127491 -7465 0
0 0 0 728 128219 -6737 0
0 0 0 767 128986 -5970 0
0 0 0 707 129693 -5263 0
0 0 0 697 130390 -4566 0
0 0 0 680 131070 -3886 0
0 0 0 701 131771 -3185 0
0 0 0 697 132468 -2488 0
8 1 S112 685 133153 -1803 0
8 1 S112 648 133801 -1155 0
8 1 S112 645 134446 -510 0
8 2 S112 637 135083 127 0
8 2 S112 657 135740 784 0
8 2 S112 720 136460 1504 0
8 2 S112 730 137190 2234 0
8 2 S112 716 137906 2950 0
8 2 S112 752 138658 3702 0
8 2 S112 764 139422 4466 0
8 2 S112 757 140179 5223 0
8 2 S112 741 140920 5964 0
8 2 S112 737 141657 6701 0
0 0 0 738 142395 -6968 0
0 0 0 736 143131 -6232 0
0 0 0 702 143833 -5530 0
0 0 0 693 144526 -4837 0
0 0 0 651 145177 -4186 0
0 0 0 639 145816 -3547 0
0 0 0 658 146474 -2889 0
0 0 0 694 147168 -2195 0
9 1 S116 731 147899 -1464 0
9 1 S116 741 148640 -723 0
9 2 S116 744 149384 21 0
9 2 S116 738 150122 759 0
9 2 S116 758 150880 1517 0
9 2 S116 771 151651 2288 0
9 2 S116 782 152433 3070 0
9 2 S116 774 153207 3844 0
9 2 S116 751 153958 4595 0
9 2 S116 731 154689 5326 0
9 2 S116 709 155398 6035 0
9 2 S116 691 156089 6726 0
0 0 0 657 156746 -10588 0
0 0 0 641 157387 -9947 0
0 0 0 630 158017 -9317 0
0 0 0 641 158658 -8676 0
0 0 0 648 159306 -8028 0
0 0 0 644 159950 -7384 0
0 0 0 608 160558 -6776 0
0 0 0 600 161158 -6176 0
0 0 0 629 161787 -5547 0
0 0 0 702 162489 -4845 0
0 0 0 721 163210 -4124 0
0 0 0 706 163916 -3418 0
0 0 0 688 164604 -2730 0
0 0 0 665 165269 -2065 0
10 1 S102 673 165942 -1392 0
10 1 S102 662 166604 -730 0
10 1 S102 649 167253 -81 0
10 2 S102 644 167897 563 0
10 2 S102 626 168523 1189 0
10 2 S102 638 169161 1827 0
10 2 S102 654 169815 2481 0
10 2 S102 722 170537 3203 0
10 2 S102 732 171269 3935 0
10 2 S102 729 171998 4664 0
10 2 S102 729 172727 5393 0
10 2 S102 696 173423 6089 0
10 2 S102 711 174134 6800 0
0 0 0 706 174840 -11724 0
0 0 0 705 175545 -11019 0
0 0 0 697 176242 -10322 0
0 0 0 691 176933 -9631 0
0 0 0 674 177607 -8957 0
0 0 0 673 178280 -8284 0
0 0 0 665 178945 -7619 0
0 0 0 649 179594 -6970 0
0 0 0 631 180225 -6339 0
0 0 0 632 180857 -5707 0
0 0 0 637 181494 -5070 0
0 0 0 693 182187 -4377 0
0 0 0 724 182911 -3653 0
0 0 0 721 183632 -2932 0
0 0 0 691 184323 -2241 0
11 1 S112 682 185005 -1559 0
11 1 S112 675 185680 -884 0
11 1 S112 685 186365 -199 0
11 2 S112 676 187041 477 0
11 2 S112 687 187728 1164 0
11 2 S112 678 188406 1842 0
11 2 S112 690 189096 2532 0
11 2 S112 700 189796 3232 0
11 2 S112 687 190483 3919 0
11 2 S112 713 191196 4632 0
11 2 S112 692 191888 5324 0
11 2 S112 679 192567 6003 0
11 2 S112 709 193276 6712 0
0 0 0 710 193986 -6438 0
0 0 0 725 194711 -5713 0
0 0 0 703 195414 -5010 0
0 0 0 670 196084 -4340 0
0 0 0 657 196741 -3683 0
0 0 0 657 197398 -3026 0
0 0 0 650 198048 -2376 0
12 1 S116 654 198702 -1722 0
12 1 S116 639 199341 -1083 0
12 1 S116 639 199980 -444 0
12 2 S116 643 200623 199 0
12 2 S116 672 201295 871 0
12 2 S116 709 202004 1580 0
12 2 S116 706 202710 2286 0
12 2 S116 690 203400 2976 0
12 2 S116 701 204101 3677 0
12 2 S116 708 204809 4385 0
12 2 S116 696 205505 5081 0
12 2 S116 684 206189 5765 0
12 2 S116 659 206848 6424 0
0 0 0 663 207511 -11348 0
0 0 0 671 208182 -10677 0
0 0 0 668 208850 -10009 0
0 0 0 669 209519 -9340 0
0 0 0 661 210180 -8679 0
0 0 0 664 210844 -8015 0
0 0 0 656 211500 -7359 0
0 0 0 651 212151 -6708 0
0 0 0 646 212797 -6062 0
0 0 0 624 213421 -5438 0
0 0 0 635 214056 -4803 0
0 0 0 659 214715 -4144 0
0 0 0 691 215406 -3453 0
0 0 0 728 216134 -2725 0
0 0 0 712 216846 -2013 0
13 1 S112 695 217541 -1318 0
13 1 S112 692 218233 -626 0
13 2 S112 676 218909 50 0
13 2 S112 688 219597 738 0
13 2 S112 703 220300 1441 0
13 2 S112 707 221007 2148 0
13 2 S112 720 221727 2868 0
13 2 S112 690 222417 3558 0
13 2 S112 673 223090 4231 0
13 2 S112 664 223754 4895 0
13 2 S112 683 224437 5578 0
13 2 S112 720 225157 6298 0
13 2 S112 702 225859 7000 0
0 0 0 704 226563 -10764 0
0 0 0 690 227253 -10074 0
0 0 0 672 227925 -9402 0
0 0 0 679 228604 -8723 0
0 0 0 652 229256 -8071 0
0 0 0 650 229906 -7421 0
0 0 0 645 230551 -6776 0
0 0 0 640 231191 -6136 0
0 0 0 611 231802 -5525 0
0 0 0 613 232415 -4912 0
0 0 0 601 233016 -4311 0
0 0 0 591 233607 -3720 0
0 0 0 578 234185 -3142 0
0 0 0 563 234748 -2579 0
0 0 0 578 235326 -2001 0
14 1 S106 614 235940 -1387 0
14 1 S106 684 236624 -703 0
14 1 S106 701 237325 -2 0
14 2 S106 711 238036 709 0
14 2 S106 700 238736 1409 0
14 2 S106 682 239418 2091 0
14 2 S106 723 240141 2814 0
14 2 S106 740 240881 3554 0
14 2 S106 743 241624 4297 0
14 2 S106 729 242353 5026 0
14 2 S106 719 243072 5745 0
14 2 S106 692 243764 6437 0
0 0 0 695 244459 -10591 0
0 0 0 697 245156 -9894 0
0 0 0 735 245891 -9159 0
0 0 0 719 246610 -8440 0
0 0 0 720 247330 -7720 0
0 0 0 693 248023 -7027 0
0 0 0 683 248706 -6344 0
0 0 0 706 249412 -5638 0
0 0 0 728 250140 -4910 0
0 0 0 718 250858 -4192 0
0 0 0 709 251567 -3483 0
0 0 0 682 252249 -2801 0
0 0 0 665 252914 -2136 0
15 1 S116 663 253577 -1473 0
15 1 S116 679 254256 -794 0
15 1 S116 684 254940 -110 0
15 2 S116 665 255605 555 0
15 2 S116 646 256251 1201 0
15 2 S116 664 256915 1865 0
15 2 S116 711 257626 2576 0
15 2 S116 720 258346 3296 0
15 2 S116 725 259071 4021 0
15 2 S116 714 259785 4735 0
15 2 S116 715 260500 5450 0
15 2 S116 711 261211 6161 0
15 2 S116 718 261929 6879 0
0 0 0 693 262622 -8658 0
0 0 0 682 263304 -7976 0
0 0 0 672 263976 -7304 0
0 0 0 664 264640 -6640 0
0 0 0 645 265285 -5995 0
0 0 0 621 265906 -5374 0
0 0 0 624 266530 -4750 0
0 0 0 687 267217 -4063 0
0 0 0 717 267934 -3346 0
0 0 0 746 268680 -2600 0
16 1 S116 750 269430 -1850 0
16 1 S116 742 270172 -1108 0
16 1 S116 751 270923 -357 0
16 2 S116 757 271680 400 0
16 2 S116 760 272440 1160 0
16 2 S116 750 273190 1910 0
16 2 S116 740 273930 2650 0
16 2 S116 752 274682 3402 0
16 2 S116 728 275410 4130 0
16 2 S116 711 276121 4841 0
16 2 S116 680 276801 5521 0
16 2 S116 651 277452 6172 0
16 2 S116 659 278111 6831 0
0 0 0 668 278779 -9560 0
0 0 0 684 279463 -8876 0
0 0 0 667 280130 -8209 0
0 0 0 680 280810 -7529 0
0 0 0 683 281493 -6846 0
0 0 0 686 282179 -6160 0
0 0 0 656 282835 -5504 0
0 0 0 632 283467 -4872 0
0 0 0 638 284105 -4234 0
0 0 0 645 284750 -3589 0
0 0 0 663 285413 -2926 0
0 0 0 667 286080 -2259 0
17 1 S106 667 286747 -1592 0
17 1 S106 645 287392 -947 0
17 1 S106 652 288044 -295 0
17 2 S106 660 288704 365 0
17 2 S106 690 289394 1055 0
17 2 S106 709 290103 1764 0
17 2 S106 713 290816 2477 0
17 2 S106 726 291542 3203 0
17 2 S106 696 292238 3899 0
17 2 S106 685 292923 4584 0
17 2 S106 684 293607 5268 0
17 2 S106 684 294291 5952 0
17 2 S106 702 294993 6654 0
0 0 0 735 295728 -9935 0
0 0 0 731 296459 -9204 0
0 0 0 713 297172 -8491 0
0 0 0 702 297874 -7789 0
0 0 0 695 298569 -7094 0
0 0 0 661 299230 -6433 0
0 0 0 638 299868 -5795 0
0 0 0 634 300502 -5161 0
0 0 0 639 301141 -4522 0
0 0 0 678 301819 -3844 0
0 0 0 747 302566 -3097 0
0 0 0 725 303291 -2372 0
18 1 S102 722 304013 -1650 0
18 1 S102 776 304789 -874 0
18 1 S102 759 305548 -115 0
18 2 S102 751 306299 636 0
18 2 S102 733 307032 1369 0
18 2 S102 719 307751 2088 0
18 2 S102 699 308450 2787 0
18 2 S102 695 309145 3482 0
18 2 S102 682 309827 4164 0
18 2 S102 680 310507 4844 0
18 2 S102 656 311163 5500 0
18 2 S102 636 311799 6136 0
18 2 S102 644 312443 6780 0
0 0 0 662 313105 -7048 0
0 0 0 693 313798 -6355 0
0 0 0 684 314482 -5671 0
0 0 0 676 315158 -4995 0
0 0 0 693 315851 -4302 0
0 0 0 682 316533 -3620 0
0 0 0 660 317193 -2960 0
0 0 0 638 317831 -2322 0
19 1 S106 616 318447 -1706 0
19 1 S106 600 319047 -1106 0
19 1 S106 591 319638 -515 0
19 2 S106 628 320266 113 0
19 2 S106 619 320885 732 0
19 2 S106 619 321504 1351 0
19 2 S106 630 322134 1981 0
19 2 S106 649 322783 2630 0
19 2 S106 660 323443 3290 0
19 2 S106 663 324106 3953 0
19 2 S106 636 324742 4589 0
19 2 S106 634 325376 5223 0
19 2 S106 664 326040 5887 0
19 2 S106 708 326748 6595 0
0 0 0 753 327501 -10756 0
0 0 0 751 328252 -10005 0
0 0 0 734 328986 -9271 0
0 0 0 700 329686 -8571 0
0 0 0 697 330383 -7874 0
0 0 0 692 331075 -7182 0
0 0 0 714 331789 -6468 0
0 0 0 728 332517 -5740 0
0 0 0 722 333239 -5018 0
0 0 0 717 333956 -4301 0
0 0 0 736 334692 -3565 0
0 0 0 734 335426 -2831 0
0 0 0 787 336213 -2044 0
20 1 S112 786 336999 -1258 0
20 1 S112 763 337762 -495 0
20 2 S112 764 338526 269 0
20 2 S112 771 339297 1040 0
20 2 S112 736 340033 1776 0
20 2 S112 715 340748 2491 0
20 2 S112 688 341436 3179 0
20 2 S112 666 342102 3845 0
20 2 S112 680 342782 4525 0
20 2 S112 716 343498 5241 0
20 2 S112 708 344206 5949 0
20 2 S112 682 344888 6631 0
0 0 0 693 345581 -8641 0
0 0 0 705 346286 -7936 0
0 0 0 682 346968 -7254 0
0 0 0 658 347626 -6596 0
0 0 0 635 348261 -5961 0
0 0 0 641 348902 -5320 0
0 0 0 633 349535 -4687 0
0 0 0 646 350181 -4041 0
0 0 0 636 350817 -3405 0
0 0 0 645 351462 -2760 0
0 0 0 668 352130 -2092 0
21 1 S106 700 352830 -1392 0
21 1 S106 725 353555 -667 0
21 2 S106 694 354249 27 0
21 2 S106 683 354932 710 0
21 2 S106 704 355636 1414 0
21 2 S106 699 356335 2113 0
21 2 S106 699 357034 2812 0
21 2 S106 676 357710 3488 0
21 2 S106 660 358370 4148 0
21 2 S106 677 359047 4825 0
21 2 S106 684 359731 5509 0
21 2 S106 714 360445 6223 0
21 2 S106 712 361157 6935 0
0 0 0 682 361839 -9607 0
0 0 0 676 362515 -8931 0
0 0 0 676 363191 -8255 0
0 0 0 706 363897 -7549 0
0 0 0 674 364571 -6875 0
0 0 0 669 365240 -6206 0
0 0 0 672 365912 -5534 0
0 0 0 670 366582 -4864 0
0 0 0 693 367275 -4171 0
0 0 0 689 367964 -3482 0
0 0 0 658 368622 -2824 0
0 0 0 670 369292 -2154 0
22 1 S116 674 369966 -1480 0
22 1 S116 700 370666 -780 0
22 1 S116 714 371380 -66 0
22 2 S116 682 372062 616 0
22 2 S116 672 372734 1288 0
22 2 S116 676 373410 1964 0
22 2 S116 677 374087 2641 0
22 2 S116 716 374803 3357 0
22 2 S116 690 375493 4047 0
22 2 S116 698 376191 4745 0
22 2 S116 772 376963 5517 0
22 2 S116 782 377745 6299 0
0 0 0 774 378519 -9125 0
0 0 0 743 379262 -8382 0
0 0 0 744 380006 -7638 0
0 0 0 719 380725 -6919 0
0 0 0 682 381407 -6237 0
0 0 0 649 382056 -5588 0
0 0 0 640 382696 -4948 0
0 0 0 634 383330 -4314 0
0 0 0 647 383977 -3667 0
0 0 0 656 384633 -3011 0
0 0 0 645 385278 -2366 0
23 1 S112 635 385913 -1731 0
23 1 S112 648 386561 -1083 0
23 1 S112 671 387232 -412 0
23 2 S112 706 387938 294 0
23 2 S112 746 388684 1040 0
23 2 S112 701 389385 1741 0
23 2 S112 729 390114 2470 0
23 2 S112 730 390844 3200 0
23 2 S112 707 391551 3907 0
23 2 S112 679 392230 4586 0
23 2 S112 670 392900 5256 0
23 2 S112 686 393586 5942 0
23 2 S112 711 394297 6653 0
0 0 0 728 395025 -11219 0
0 0 0 712 395737 -10507 0
0 0 0 695 396432 -9812 0
0 0 0 731 397163 -9081 0
0 0 0 719 397882 -8362 0
0 0 0 744 398626 -7618 0
0 0 0 731 399357 -6887 0
0 0 0 710 400067 -6177 0
0 0 0 715 400782 -5462 0
0 0 0 708 401490 -4754 0
0 0 0 686 402176 -4068 0
0 0 0 659 402835 -3409 0
0 0 0 644 403479 -2765 0
0 0 0 659 404138 -2106 0
24 1 S106 717 404855 -1389 0
24 1 S106 742 405597 -647 0
24 2 S106 763 406360 116 0
24 2 S106 765 407125 881 0
24 2 S106 720 407845 1601 0
24 2 S106 714 408559 2315 0
24 2 S106 727 409286 3042 0
24 2 S106 741 410027 3783 0
24 2 S106 736 410763 4519 0
24 2 S106 716 411479 5235 0
24 2 S106 697 412176 5932 0
24 2 S106 685 412861 6617 0
0 0 0 702 413563 -8016 0
0 0 0 729 414292 -7287 0
0 0 0 721 415013 -6566 0
0 0 0 698 415711 -5868 0
0 0 0 669 416380 -5199 0
0 0 0 667 417047 -4532 0
0 0 0 667 417714 -3865 0
0 0 0 693 418407 -3172 0
0 0 0 739 419146 -2433 0
25 1 S102 694 419840 -1739 0
25 1 S102 702 420542 -1037 0
25 1 S102 707 421249 -330 0
25 2 S102 717 421966 387 0
25 2 S102 709 422675 1096 0
25 2 S102 708 423383 1804 0
25 2 S102 688 424071 2492 0
25 2 S102 718 424789 3210 0
25 2 S102 751 425540 3961 0
25 2 S102 746 426286 4707 0
25 2 S102 730 427016 5437 0
25 2 S102 700 427716 6137 0
25 2 S102 705 428421 6842 0
0 0 0 728 429149 -5527 0
0 0 0 714 429863 -4813 0
0 0 0 685 430548 -4128 0
0 0 0 651 431199 -3477 0
0 0 0 642 431841 -2835 0
0 0 0 645 432486 -2190 0
26 1 S116 674 433160 -1516 0
26 1 S116 677 433837 -839 0
26 1 S116 660 434497 -179 0
26 2 S116 686 435183 507 0
26 2 S116 727 435910 1234 0
26 2 S116 730 436640 1964 0
26 2 S116 712 437352 2676 0
26 2 S116 689 438041 3365 0
26 2 S116 682 438723 4047 0
26 2 S116 661 439384 4708 0
26 2 S116 680 440064 5388 0
26 2 S116 710 440774 6098 0
26 2 S116 667 441441 6765 0
0 0 0 676 442117 -6585 0
0 0 0 670 442787 -5915 0
0 0 0 669 443456 -5246 0
0 0 0 658 444114 -4588 0
0 0 0 624 444738 -3964 0
0 0 0 606 445344 -3358 0
0 0 0 597 445941 -2761 0
0 0 0 576 446517 -2185 0
27 1 S106 569 447086 -1616 0
27 1 S106 555 447641 -1061 0
27 1 S106 555 448196 -506 0
27 2 S106 547 448743 41 0
27 2 S106 562 449305 603 0
27 2 S106 616 449921 1219 0
27 2 S106 607 450528 1826 0
27 2 S106 580 451108 2406 0
27 2 S106 571 451679 2977 0
27 2 S106 575 452254 3552 0
27 2 S106 625 452879 4177 0
27 2 S106 619 453498 4796 0
27 2 S106 630 454128 5426 0
27 2 S106 636 454764 6062 0
27 2 S106 610 455374 6672 0
0 0 0 600 455974 -6057 0
0 0 0 624 456598 -5433 0
0 0 0 662 457260 -4771 0
0 0 0 659 457919 -4112 0
0 0 0 700 458619 -3412 0
0 0 0 684 459303 -2728 0
0 0 0 682 459985 -2046 0
28 1 S102 773 460758 -1273 0
28 1 S102 794 461552 -479 0
28 2 S102 796 462348 317 0
28 2 S102 790 463138 1107 0
28 2 S102 765 463903 1872 0
28 2 S102 724 464627 2596 0
28 2 S102 706 465333 3302 0
28 2 S102 703 466036 4005 0
28 2 S102 703 466739 4708 0
28 2 S102 734 467473 5442 0
28 2 S102 741 468214 6183 0
28 2 S102 756 468970 6939 0
0 0 0 782 469752 -9802 0
0 0 0 746 470498 -9056 0
0 0 0 726 471224 -8330 0
0 0 0 704 471928 -7626 0
0 0 0 684 472612 -6942 0
0 0 0 670 473282 -6272 0
0 0 0 672 473954 -5600 0
0 0 0 711 474665 -4889 0
0 0 0 724 475389 -4165 0
0 0 0 720 476109 -3445 0
0 0 0 708 476817 -2737 0
0 0 0 695 477512 -2042 0
29 1 S112 705 478217 -1337 0
29 1 S112 715 478932 -622 0
29 2 S112 690 479622 68 0
29 2 S112 682 480304 750 0
29 2 S112 671 480975 1421 0
29 2 S112 657 481632 2078 0
29 2 S112 658 482290 2736 0
29 2 S112 670 482960 3406 0
29 2 S112 691 483651 4097 0
29 2 S112 724 484375 4821 0
29 2 S112 732 485107 5553 0
29 2 S112 750 485857 6303 0
0 0 0 778 486635 -7442 0
0 0 0 792 487427 -6650 0
0 0 0 728 488155 -5922 0
0 0 0 687 488842 -5235 0
0 0 0 659 489501 -4576 0
0 0 0 633 490134 -3943 0
0 0 0 620 490754 -3323 0
0 0 0 636 491390 -2687 0
0 0 0 618 492008 -2069 0
30 1 S112 609 492617 -1460 0
30 1 S112 628 493245 -832 0
30 1 S112 679 493924 -153 0
30 2 S112 683 494607 530 0
30 2 S112 701 495308 1231 0
30 2 S112 671 495979 1902 0
30 2 S112 685 496664 2587 0
30 2 S112 711 497375 3298 0
30 2 S112 723 498098 4021 0
30 2 S112 801 498899 4822 0
30 2 S112 839 499738 5661 0
30 2 S112 842 500580 6503 0
0 0 0 822 501402 -8706 0
0 0 0 769 502171 -7937 0
0 0 0 734 502905 -7203 0
0 0 0 687 503592 -6516 0
0 0 0 662 504254 -5854 0
0 0 0 657 504911 -5197 0
0 0 0 730 505641 -4467 0
0 0 0 747 506388 -3720 0
0 0 0 745 507133 -2975 0
0 0 0 731 507864 -2244 0
31 1 S106 738 508602 -1506 0
31 1 S106 760 509362 -746 0
31 2 S106 770 510132 24 0
31 2 S106 785 510917 809 0
31 2 S106 789 511706 1598 0
31 2 S106 751 512457 2349 0
31 2 S106 714 513171 3063 0
31 2 S106 710 513881 3773 0
31 2 S106 696 514577 4469 0
31 2 S106 705 515282 5174 0
31 2 S106 744 516026 5918 0
31 2 S106 759 516785 6677 0
0 0 0 756 517541 -7753 0
0 0 0 765 518306 -6988 0
0 0 0 741 519047 -6247 0
0 0 0 719 519766 -5528 0
0 0 0 691 520457 -4837 0
0 0 0 662 521119 -4175 0
0 0 0 664 521783 -3511 0
0 0 0 683 522466 -2828 0
0 0 0 749 523215 -2079 0
32 1 S102 722 523937 -1357 0
32 1 S102 703 524640 -654 0
32 2 S102 736 525376 82 0
32 2 S102 755 526131 837 0
32 2 S102 750 526881 1587 0
32 2 S102 742 527623 2329 0
32 2 S102 700 528323 3029 0
32 2 S102 695 529018 3724 0
32 2 S102 721 529739 4445 0
32 2 S102 714 530453 5159 0
32 2 S102 735 531188 5894 0
32 2 S102 736 531924 6630 0
0 0 0 712 532636 -9833 0
0 0 0 727 533363 -9106 0
0 0 0 711 534074 -8395 0
0 0 0 707 534781 -7688 0
0 0 0 688 535469 -7000 0
0 0 0 659 536128 -6341 0
0 0 0 661 536789 -5680 0
0 0 0 664 537453 -5016 0
0 0 0 689 538142 -4327 0
0 0 0 745 538887 -3582 0
0 0 0 744 539631 -2838 0
0 0 0 736 540367 -2102 0
33 1 S112 734 541101 -1368 0
33 1 S112 746 541847 -622 0
33 2 S112 744 542591 122 0
33 2 S112 730 543321 852 0
33 2 S112 709 544030 1561 0
33 2 S112 715 544745 2276 0
33 2 S112 716 545461 2992 0
33 2 S112 717 546178 3709 0
33 2 S112 684 546862 4393 0
33 2 S112 657 547519 5050 0
33 2 S112 663 548182 5713 0
33 2 S112 673 548855 6386 0
0 0 0 693 549548 -10925 0
0 0 0 693 550241 -10232 0
0 0 0 662 550903 -9570 0
0 0 0 678 551581 -8892 0
0 0 0 679 552260 -8213 0
0 0 0 677 552937 -7536 0
0 0 0 654 553591 -6882 0
0 0 0 648 554239 -6234 0
0 0 0 645 554884 -5589 0
0 0 0 641 555525 -4948 0
0 0 0 628 556153 -4320 0
0 0 0 600 556753 -3720 0
0 0 0 598 557351 -3122 0
0 0 0 625 557976 -2497 0
34 1 S106 650 558626 -1847 0
34 1 S106 697 559323 -1150 0
34 1 S106 709 560032 -441 0
34 2 S106 712 560744 271 0
34 2 S106 692 561436 963 0
34 2 S106 679 562115 1642 0
34 2 S106 692 562807 2334 0
34 2 S106 693 563500 3027 0
34 2 S106 720 564220 3747 0
34 2 S106 740 564960 4487 0
34 2 S106 728 565688 5215 0
34 2 S106 703 566391 5918 0
34 2 S106 681 567072 6599 0
0 0 0 670 567742 -7917 0
0 0 0 710 568452 -7207 0
0 0 0 725 569177 -6482 0
0 0 0 687 569864 -5795 0
0 0 0 677 570541 -5118 0
0 0 0 651 571192 -4467 0
0 0 0 634 571826 -3833 0
0 0 0 613 572439 -3220 0
0 0 0 593 573032 -2627 0
0 0 0 584 573616 -2043 0
35 1 S102 647 574263 -1396 0
35 1 S102 707 574970 -689 0
35 2 S102 748 575718 59 0
35 2 S102 763 576481 822 0
35 2 S102 756 577237 1578 0
35 2 S102 713 577950 2291 0
35 2 S102 687 578637 2978 0
35 2 S102 666 579303 3644 0
35 2 S102 671 579974 4315 0
35 2 S102 692 580666 5007 0
35 2 S102 723 581389 5730 0
35 2 S102 704 582093 6434 0
0 0 0 683 582776 -7720 0
0 0 0 695 583471 -7025 0
0 0 0 697 584168 -6328 0
0 0 0 713 584881 -5615 0
0 0 0 741 585622 -4874 0
0 0 0 705 586327 -4169 0
0 0 0 681 587008 -3488 0
0 0 0 688 587696 -2800 0
0 0 0 716 588412 -2084 0
36 1 S106 715 589127 -1369 0
36 1 S106 703 589830 -666 0
36 2 S106 666 590496 0 0
36 2 S106 657 591153 657 0
36 2 S106 661 591814 1318 0
36 2 S106 683 592497 2001 0
36 2 S106 668 593165 2669 0
36 2 S106 664 593829 3333 0
36 2 S106 644 594473 3977 0
36 2 S106 634 595107 4611 0
36 2 S106 671 595778 5282 0
36 2 S106 709 596487 5991 0
36 2 S106 669 597156 6660 0
0 0 0 713 597869 -7797 0
0 0 0 755 598624 -7042 0
0 0 0 730 599354 -6312 0
0 0 0 715 600069 -5597 0
0 0 0 694 600763 -4903 0
0 0 0 670 601433 -4233 0
0 0 0 676 602109 -3557 0
0 0 0 684 602793 -2873 0
0 0 0 715 603508 -2158 0
37 1 S116 708 604216 -1450 0
37 1 S116 670 604886 -780 0
37 1 S116 660 605546 -120 0
37 2 S116 665 606211 545 0
37 2 S116 681 606892 1226 0
37 2 S116 742 607634 1968 0
37 2 S116 730 608364 2698 0
37 2 S116 730 609094 3428 0
37 2 S116 775 609869 4203 0
37 2 S116 787 610656 4990 0
37 2 S116 830 611486 5820 0
37 2 S116 780 612266 6600 0
0 0 0 750 613016 -10388 0
0 0 0 710 613726 -9678 0
0 0 0 662 614388 -9016 0
0 0 0 634 615022 -8382 0
0 0 0 610 615632 -7772 0
0 0 0 592 616224 -7180 0
0 0 0 582 616806 -6598 0
0 0 0 593 617399 -6005 0
0 0 0 683 618082 -5322 0
0 0 0 673 618755 -4649 0
0 0 0 672 619427 -3977 0
0 0 0 713 620140 -3264 0
0 0 0 747 620887 -2517 0
38 1 S102 776 621663 -1741 0
38 1 S102 764 622427 -977 0
38 1 S102 740 623167 -237 0
38 2 S102 690 623857 453 0
38 2 S102 665 624522 1118 0
38 2 S102 631 625153 1749 0
38 2 S102 619 625772 2368 0
38 2 S102 615 626387 2983 0
38 2 S102 598 626985 3581 0
38 2 S102 577 627562 4158 0
38 2 S102 582 628144 4740 0
38 2 S102 631 628775 5371 0
38 2 S102 753 629528 6124 0
38 2 S102 766 630294 6890 0
0 0 0 785 631079 -8340 0
0 0 0 739 631818 -7601 0
0 0 0 741 632559 -6860 0
0 0 0 752 633311 -6108 0
0 0 0 719 634030 -5389 0
0 0 0 704 634734 -4685 0
0 0 0 659 635393 -4026 0
0 0 0 651 636044 -3375 0
0 0 0 661 636705 -2714 0
0 0 0 658 637363 -2056 0
39 1 S116 669 638032 -1387 0
39 1 S116 665 638697 -722 0
39 1 S116 652 639349 -70 0
39 2 S116 720 640069 650 0
39 2 S116 749 640818 1399 0
39 2 S116 762 641580 2161 0
39 2 S116 774 642354 2935 0
39 2 S116 740 643094 3675 0
39 2 S116 726 643820 4401 0
39 2 S116 739 644559 5140 0
39 2 S116 720 645279 5860 0
39 2 S116 749 646028 6609 0
0 0 0 727 646755 -6308 0
0 0 0 717 647472 -5591 0
0 0 0 673 648145 -4918 0
0 0 0 630 648775 -4288 0
0 0 0 628 649403 -3660 0
0 0 0 603 650006 -3057 0
0 0 0 602 650608 -2455 0
40 1 S112 681 651289 -1774 0
40 1 S112 689 651978 -1085 0
40 1 S112 709 652687 -376 0
40 2 S112 731 653418 355 0
40 2 S112 718 654136 1073 0
40 2 S112 746 654882 1819 0
40 2 S112 731 655613 2550 0
40 2 S112 736 656349 3286 0
40 2 S112 753 657102 4039 0
40 2 S112 738 657840 4777 0
40 2 S112 729 658569 5506 0
40 2 S112 729 659298 6235 0
40 2 S112 739 660037 6974 0
0 0 0 759 660796 -186367 0
0 0 0 710 661506 -185657 0
0 0 0 692 662198 -184965 0
0 0 0 665 662863 -184300 0
0 0 0 662 663525 -183638 0
0 0 0 617 664142 -183021 0
0 0 0 621 664763 -182400 0
0 0 0 666 665429 -181734 0
0 0 0 1283 666712 -180451 1
0 0 0 1295 668007 -179156 1
0 0 0 664 668671 -178492 0
0 0 0 646 669317 -177846 0
0 0 0 636 669953 -177210 0
0 0 0 622 670575 -176588 0
0 0 0 619 671194 -175969 0
0 0 0 605 671799 -175364 0
0 0 0 604 672403 -174760 0
0 0 0 590 672993 -174170 0
0 0 0 590 673583 -173580 0
0 0 0 578 674161 -173002 0
0 0 0 571 674732 -172431 0
0 0 0 564 675296 -171867 0
0 0 0 543 675839 -171324 0
0 0 0 560 676399 -170764 0
0 0 0 556 676955 -170208 0
0 0 0 592 677547 -169616 0
0 0 0 626 678173 -168990 0
0 0 0 620 678793 -168370 0
0 0 0 596 679389 -167774 0
0 0 0 590 679979 -167184 0
0 0 0 576 680555 -166608 0
0 0 0 560 681115 -166048 0
0 0 0 551 681666 -165497 0
0 0 0 544 682210 -164953 0
0 0 0 559 682769 -164394 0
0 0 0 570 683339 -163824 0
0 0 0 574 683913 -163250 0
0 0 0 781 684694 -162469 0
0 0 0 773 685467 -161696 0
0 0 0 829 686296 -160867 0
0 0 0 788 687084 -160079 0
0 0 0 753 687837 -159326 0
0 0 0 715 688552 -158611 0
0 0 0 670 689222 -157941 0
0 0 0 626 689848 -157315 0
0 0 0 600 690448 -156715 0
0 0 0 576 691024 -156139 0
0 0 0 561 691585 -155578 0
0 0 0 551 692136 -155027 0
0 0 0 543 692679 -154484 0
0 0 0 541 693220 -153943 0
0 0 0 1144 694364 -152799 1
0 0 0 591 694955 -152208 0
0 0 0 590 695545 -151618 0
0 0 0 578 696123 -151040 0
0 0 0 578 696701 -150462 0
0 0 0 557 697258 -149905 0
0 0 0 1103 698361 -148802 1
0 0 0 537 698898 -148265 0
0 0 0 571 699469 -147694 0
0 0 0 607 700076 -147087 0
0 0 0 626 700702 -146461 0
0 0 0 648 701350 -145813 0
0 0 0 636 701986 -145177 0
0 0 0 591 702577 -144586 0
0 0 0 592 703169 -143994 0
0 0 0 588 703757 -143406 0
0 0 0 573 704330 -142833 0
0 0 0 563 704893 -142270 0
0 0 0 562 705455 -141708 0
0 0 0 590 706045 -141118 0
0 0 0 625 706670 -140493 0
0 0 0 590 707260 -139903 0
0 0 0 584 707844 -139319 0
0 0 0 573 708417 -138746 0
0 0 0 1112 709529 -137634 1
0 0 0 533 710062 -137101 0
0 0 0 1214 711276 -135887 1
0 0 0 571 711847 -135316 0
0 0 0 1385 713232 -133931 1
0 0 0 505 713737 -133426 1
0 0 0 565 714302 -132861 0
0 0 0 633 714935 -132228 0
0 0 0 646 715581 -131582 0
0 0 0 682 716263 -130900 0
0 0 0 716 716979 -130184 0
0 0 0 755 717734 -129429 0
0 0 0 769 718503 -128660 0
0 0 0 849 719352 -127811 0
0 0 0 856 720208 -126955 0
0 0 0 833 721041 -126122 0
0 0 0 781 721822 -125341 0
0 0 0 691 722513 -124650 0
0 0 0 671 723184 -123979 0
0 0 0 706 723890 -123273 0
0 0 0 683 724573 -122590 0
0 0 0 688 725261 -121902 0
0 0 0 713 725974 -121189 0
0 0 0 689 726663 -120500 0
0 0 0 711 727374 -119789 0
0 0 0 744 728118 -119045 0
0 0 0 786 728904 -118259 0
0 0 0 765 729669 -117494 0
0 0 0 743 730412 -116751 0
0 0 0 816 731228 -115935 0
0 0 0 775 732003 -115160 0
0 0 0 774 732777 -114386 0
0 0 0 735 733512 -113651 0
0 0 0 721 734233 -112930 0
0 0 0 689 734922 -112241 0
0 0 0 662 735584 -111579 0
0 0 0 689 736273 -110890 0
0 0 0 695 736968 -110195 0
0 0 0 739 737707 -109456 0
0 0 0 683 738390 -108773 0
0 0 0 652 739042 -108121 0
0 0 0 632 739674 -107489 0
0 0 0 597 740271 -106892 0
0 0 0 587 740858 -106305 0
0 0 0 575 741433 -105730 0
0 0 0 564 741997 -105166 0
0 0 0 572 742569 -104594 0
0 0 0 613 743182 -103981 0
0 0 0 659 743841 -103322 0
0 0 0 637 744478 -102685 0
0 0 0 624 745102 -102061 0
0 0 0 686 745788 -101375 0
0 0 0 706 746494 -100669 0
0 0 0 688 747182 -99981 0
0 0 0 653 747835 -99328 0
0 0 0 614 748449 -98714 0
0 0 0 1178 749627 -97536 1
0 0 0 561 750188 -96975 0
0 0 0 958 751146 -96017 1
0 0 0 531 751677 -95486 0
0 0 0 507 752184 -94979 1
0 0 0 711 752895 -94268 0
0 0 0 638 753533 -93630 0
0 0 0 669 754202 -92961 0
0 0 0 709 754911 -92252 0
0 0 0 773 755684 -91479 0
0 0 0 811 756495 -90668 0
0 0 0 834 757329 -89834 0
0 0 0 794 758123 -89040 0
0 0 0 814 758937 -88226 0
0 0 0 733 759670 -87493 0
0 0 0 809 760479 -86684 0
0 0 0 908 761387 -85776 1
0 0 0 913 762300 -84863 1
0 0 0 876 763176 -83987 0
0 0 0 851 764027 -83136 0
0 0 0 832 764859 -82304 0
0 0 0 828 765687 -81476 0
0 0 0 832 766519 -80644 0
0 0 0 842 767361 -79802 0
0 0 0 816 768177 -78986 0
0 0 0 800 768977 -78186 0
0 0 0 814 769791 -77372 0
0 0 0 824 770615 -76548 0
0 0 0 832 771447 -75716 0
0 0 0 850 772297 -74866 0
0 0 0 840 773137 -74026 0
0 0 0 842 773979 -73184 0
0 0 0 873 774852 -72311 0
0 0 0 842 775694 -71469 0
0 0 0 830 776524 -70639 0
0 0 0 822 777346 -69817 0
0 0 0 847 778193 -68970 0
0 0 0 752 778945 -68218 0
0 0 0 708 779653 -67510 0
0 0 0 671 780324 -66839 0
0 0 0 742 781066 -66097 0
0 0 0 882 781948 -65215 0
0 0 0 883 782831 -64332 0
0 0 0 815 783646 -63517 0
0 0 0 765 784411 -62752 0
0 0 0 758 785169 -61994 0
0 0 0 739 785908 -61255 0
0 0 0 760 786668 -60495 0
0 0 0 783 787451 -59712 0
0 0 0 767 788218 -58945 0
0 0 0 727 788945 -58218 0
0 0 0 704 789649 -57514 0
0 0 0 673 790322 -56841 0
0 0 0 667 790989 -56174 0
0 0 0 704 791693 -55470 0
0 0 0 801 792494 -54669 0
0 0 0 789 793283 -53880 0
0 0 0 828 794111 -53052 0
0 0 0 791 794902 -52261 0
0 0 0 754 795656 -51507 0
0 0 0 787 796443 -50720 0
0 0 0 801 797244 -49919 0
0 0 0 797 798041 -49122 0
0 0 0 763 798804 -48359 0
0 0 0 759 799563 -47600 0
0 0 0 725 800288 -46875 0
0 0 0 688 800976 -46187 0
0 0 0 694 801670 -45493 0
0 0 0 708 802378 -44785 0
0 0 0 737 803115 -44048 0
0 0 0 739 803854 -43309 0
0 0 0 708 804562 -42601 0
0 0 0 703 805265 -41898 0
0 0 0 724 805989 -41174 0
0 0 0 774 806763 -40400 0
0 0 0 761 807524 -39639 0
0 0 0 719 808243 -38920 0
0 0 0 727 808970 -38193 0
0 0 0 747 809717 -37446 0
0 0 0 750 810467 -36696 0
0 0 0 734 811201 -35962 0
0 0 0 767 811968 -35195 0
0 0 0 769 812737 -34426 0
0 0 0 720 813457 -33706 0
0 0 0 730 814187 -32976 0
0 0 0 742 814929 -32234 0
0 0 0 760 815689 -31474 0
0 0 0 747 816436 -30727 0
0 0 0 745 817181 -29982 0
0 0 0 725 817906 -29257 0
0 0 0 736 818642 -28521 0
0 0 0 745 819387 -27776 0
0 0 0 724 820111 -27052 0
0 0 0 722 820833 -26330 0
0 0 0 705 821538 -25625 0
0 0 0 705 822243 -24920 0
0 0 0 719 822962 -24201 0
0 0 0 746 823708 -23455 0
0 0 0 760 824468 -22695 0
0 0 0 728 825196 -21967 0
0 0 0 708 825904 -21259 0
0 0 0 670 826574 -20589 0
0 0 0 656 827230 -19933 0
0 0 0 662 827892 -19271 0
0 0 0 702 828594 -18569 0
0 0 0 738 829332 -17831 0
0 0 0 711 830043 -17120 0
0 0 0 693 830736 -16427 0
0 0 0 687 831423 -15740 0
0 0 0 693 832116 -15047 0
0 0 0 721 832837 -14326 0
0 0 0 699 833536 -13627 0
0 0 0 662 834198 -12965 0
0 0 0 651 834849 -12314 0
0 0 0 637 835486 -11677 0
0 0 0 641 836127 -11036 0
0 0 0 652 836779 -10384 0
0 0 0 644 837423 -9740 0
0 0 0 634 838057 -9106 0
0 0 0 644 838701 -8462 0
0 0 0 621 839322 -7841 0
0 0 0 613 839935 -7228 0
0 0 0 635 840570 -6593 0
0 0 0 618 841188 -5975 0
0 0 0 610 841798 -5365 0
0 0 0 596 842394 -4769 0
0 0 0 641 843035 -4128 0
0 0 0 658 843693 -3470 0
0 0 0 631 844324 -2839 0
0 0 0 629 844953 -2210 0
41 1 S102 604 845557 -1606 0
41 1 S102 613 846170 -993 0
41 1 S102 665 846835 -328 0
41 2 S102 644 847479 316 0
41 2 S102 638 848117 954 0
41 2 S102 654 848771 1608 0
41 2 S102 678 849449 2286 0
41 2 S102 720 850169 3006 0
41 2 S102 757 850926 3763 0
41 2 S102 729 851655 4492 0
41 2 S102 713 852368 5205 0
41 2 S102 681 853049 5886 0
41 2 S102 681 853730 6567 0
0 0 0 716 854446 -5979 0
0 0 0 803 855249 -5176 0
0 0 0 791 856040 -4385 0
0 0 0 765 856805 -3620 0
0 0 0 766 857571 -2854 0
0 0 0 773 858344 -2081 0
42 1 S112 763 859107 -1318 0
42 1 S112 758 859865 -560 0
42 2 S112 766 860631 206 0
42 2 S112 766 861397 972 0
42 2 S112 763 862160 1735 0
42 2 S112 757 862917 2492 0
42 2 S112 765 863682 3257 0
42 2 S112 815 864497 4072 0
42 2 S112 805 865302 4877 0
42 2 S112 819 866121 5696 0
42 2 S112 755 866876 6451 0
0 0 0 752 867628 -9160 0
0 0 0 778 868406 -8382 0
0 0 0 771 869177 -7611 0
0 0 0 795 869972 -6816 0
0 0 0 751 870723 -6065 0
0 0 0 717 871440 -5348 0
0 0 0 727 872167 -4621 0
0 0 0 723 872890 -3898 0
0 0 0 744 873634 -3154 0
0 0 0 758 874392 -2396 0
43 1 S116 721 875113 -1675 0
43 1 S116 721 875834 -954 0
43 1 S116 760 876594 -194 0
43 2 S116 769 877363 575 0
43 2 S116 783 878146 1358 0
43 2 S116 805 878951 2163 0
43 2 S116 778 879729 2941 0
43 2 S116 762 880491 3703 0
43 2 S116 800 881291 4503 0
43 2 S116 821 882112 5324 0
43 2 S116 798 882910 6122 0
43 2 S116 762 883672 6884 0
0 0 0 750 884422 -6043 0
0 0 0 756 885178 -5287 0
0 0 0 730 885908 -4557 0
0 0 0 710 886618 -3847 0
0 0 0 690 887308 -3157 0
0 0 0 676 887984 -2481 0
44 1 S102 688 888672 -1793 0
44 1 S102 722 889394 -1071 0
44 1 S102 815 890209 -256 0
44 2 S102 770 890979 514 0
44 2 S102 772 891751 1286 0
44 2 S102 771 892522 2057 0
44 2 S102 758 893280 2815 0
44 2 S102 769 894049 3584 0
44 2 S102 744 894793 4328 0
44 2 S102 726 895519 5054 0
44 2 S102 743 896262 5797 0
44 2 S102 718 896980 6515 0
0 0 0 732 897712 -7823 0
0 0 0 738 898450 -7085 0
0 0 0 730 899180 -6355 0
0 0 0 747 899927 -5608 0
0 0 0 781 900708 -4827 0
0 0 0 792 901500 -4035 0
0 0 0 742 902242 -3293 0
0 0 0 703 902945 -2590 0
45 1 S116 652 903597 -1938 0
45 1 S116 647 904244 -1291 0
45 1 S116 642 904886 -649 0
45 2 S116 657 905543 8 0
45 2 S116 751 906294 759 0
45 2 S116 765 907059 1524 0
45 2 S116 790 907849 2314 0
45 2 S116 805 908654 3119 0
45 2 S116 823 909477 3942 0
45 2 S116 817 910294 4759 0
45 2 S116 818 911112 5577 0
45 2 S116 820 911932 6397 0
0 0 0 825 912757 -11362 0
0 0 0 825 913582 -10537 0
0 0 0 791 914373 -9746 0
0 0 0 773 915146 -8973 0
0 0 0 758 915904 -8215 0
0 0 0 743 916647 -7472 0
0 0 0 714 917361 -6758 0
0 0 0 718 918079 -6040 0
0 0 0 757 918836 -5283 0
0 0 0 835 919671 -4448 0
0 0 0 848 920519 -3600 0
0 0 0 850 921369 -2750 0
46 1 S102 822 922191 -1928 0
46 1 S102 760 922951 -1168 0
46 1 S102 757 923708 -411 0
46 2 S102 747 924455 336 0
46 2 S102 755 925210 1091 0
46 2 S102 748 925958 1839 0
46 2 S102 722 926680 2561 0
46 2 S102 693 927373 3254 0
46 2 S102 709 928082 3963 0
46 2 S102 717 928799 4680 0
46 2 S102 778 929577 5458 0
46 2 S102 767 930344 6225 0
46 2 S102 756 931100 6981 0
0 0 0 745 931845 -8239 0
0 0 0 732 932577 -7507 0
0 0 0 723 933300 -6784 0
0 0 0 679 933979 -6105 0
0 0 0 672 934651 -5433 0
0 0 0 671 935322 -4762 0
0 0 0 681 936003 -4081 0
0 0 0 693 936696 -3388 0
0 0 0 671 937367 -2717 0
0 0 0 666 938033 -2051 0
47 1 S112 690 938723 -1361 0
47 1 S112 740 939463 -621 0
47 2 S112 757 940220 136 0
47 2 S112 745 940965 881 0
47 2 S112 751 941716 1632 0
47 2 S112 811 942527 2443 0
47 2 S112 762 943289 3205 0
47 2 S112 753 944042 3958 0
47 2 S112 765 944807 4723 0
47 2 S112 739 945546 5462 0
47 2 S112 714 946260 6176 0
47 2 S112 717 946977 6893 0
0 0 0 739 947716 -10008 0
0 0 0 744 948460 -9264 0
0 0 0 717 949177 -8547 0
0 0 0 676 949853 -7871 0
0 0 0 675 950528 -7196 0
0 0 0 663 951191 -6533 0
0 0 0 666 951857 -5867 0
0 0 0 689 952546 -5178 0
0 0 0 673 953219 -4505 0
0 0 0 678 953897 -3827 0
0 0 0 690 954587 -3137 0
0 0 0 706 955293 -2431 0
48 1 S116 723 956016 -1708 0
48 1 S116 735 956751 -973 0
48 1 S116 689 957440 -284 0
48 2 S116 676 958116 392 0
48 2 S116 705 958821 1097 0
48 2 S116 718 959539 1815 0
48 2 S116 736 960275 2551 0
48 2 S116 715 960990 3266 0
48 2 S116 716 961706 3982 0
48 2 S116 692 962398 4674 0
48 2 S116 717 963115 5391 0
48 2 S116 752 963867 6143 0
48 2 S116 763 964630 6906 0
0 0 0 793 965423 -5945 0
0 0 0 744 966167 -5201 0
0 0 0 726 966893 -4475 0
0 0 0 685 967578 -3790 0
0 0 0 652 968230 -3138 0
0 0 0 629 968859 -2509 0
49 1 S112 656 969515 -1853 0
49 1 S112 714 970229 -1139 0
49 1 S112 679 970908 -460 0
49 2 S112 698 971606 238 0
49 2 S112 747 972353 985 0
49 2 S112 788 973141 1773 0
49 2 S112 788 973929 2561 0
49 2 S112 779 974708 3340 0
49 2 S112 756 975464 4096 0
49 2 S112 769 976233 4865 0
49 2 S112 785 977018 5650 0
49 2 S112 790 977808 6440 0
0 0 0 755 978563 -10577 0
0 0 0 733 979296 -9844 0
0 0 0 720 980016 -9124 0
0 0 0 711 980727 -8413 0
0 0 0 749 981476 -7664 0
0 0 0 739 982215 -6925 0
0 0 0 722 982937 -6203 0
0 0 0 721 983658 -5482 0
0 0 0 741 984399 -4741 0
0 0 0 773 985172 -3968 0
0 0 0 759 985931 -3209 0
0 0 0 761 986692 -2448 0
50 1 S106 768 987460 -1680 0
50 1 S106 776 988236 -904 0
50 1 S106 775 989011 -129 0
50 2 S106 773 989784 644 0
50 2 S106 763 990547 1407 0
50 2 S106 739 991286 2146 0
50 2 S106 753 992039 2899 0
50 2 S106 758 992797 3657 0
50 2 S106 777 993574 4434 0
50 2 S106 799 994373 5233 0
50 2 S106 773 995146 6006 0
50 2 S106 762 995908 6768 0
0 0 0 785 996693 -5776 0
0 0 0 783 997476 -4993 0
0 0 0 752 998228 -4241 0
0 0 0 726 998954 -3515 0
0 0 0 731 999685 -2784 0
51 1 S112 799 1000484 -1985 0
51 1 S112 778 1001262 -1207 0
51 1 S112 764 1002026 -443 0
51 2 S112 734 1002760 291 0
51 2 S112 746 1003506 1037 0
51 2 S112 721 1004227 1758 0
51 2 S112 713 1004940 2471 0
51 2 S112 686 1005626 3157 0
51 2 S112 679 1006305 3836 0
51 2 S112 678 1006983 4514 0
51 2 S112 728 1007711 5242 0
51 2 S112 735 1008446 5977 0
51 2 S112 716 1009162 6693 0
0 0 0 745 1009907 -6720 0
0 0 0 770 1010677 -5950 0
0 0 0 744 1011421 -5206 0
0 0 0 717 1012138 -4489 0
0 0 0 709 1012847 -3780 0
0 0 0 697 1013544 -3083 0
0 0 0 706 1014250 -2377 0
52 1 S116 663 1014913 -1714 0
52 1 S116 672 1015585 -1042 0
52 1 S116 690 1016275 -352 0
52 2 S116 741 1017016 389 0
52 2 S116 751 1017767 1140 0
52 2 S116 762 1018529 1902 0
52 2 S116 725 1019254 2627 0
52 2 S116 720 1019974 3347 0
52 2 S116 765 1020739 4112 0
52 2 S116 809 1021548 4921 0
52 2 S116 834 1022382 5755 0
52 2 S116 801 1023183 6556 0
0 0 0 787 1023970 -8307 0
0 0 0 801 1024771 -7506 0
0 0 0 770 1025541 -6736 0
0 0 0 758 1026299 -5978 0
0 0 0 720 1027019 -5258 0
0 0 0 712 1027731 -4546 0
0 0 0 740 1028471 -3806 0
0 0 0 773 1029244 -3033 0
0 0 0 757 1030001 -2276 0
53 1 S106 751 1030752 -1525 0
53 1 S106 769 1031521 -756 0
53 2 S106 787 1032308 31 0
53 2 S106 801 1033109 832 0
53 2 S106 796 1033905 1628 0
53 2 S106 762 1034667 2390 0
53 2 S106 742 1035409 3132 0
53 2 S106 751 1036160 3883 0
53 2 S106 785 1036945 4668 0
53 2 S106 789 1037734 5457 0
53 2 S106 805 1038539 6262 0
0 0 0 771 1039310 -6213 0
0 0 0 789 1040099 -5424 0
0 0 0 795 1040894 -4629 0
0 0 0 755 1041649 -3874 0
0 0 0 750 1042399 -3124 0
0 0 0 720 1043119 -2404 0
54 1 S102 708 1043827 -1696 0
54 1 S102 736 1044563 -960 0
54 1 S102 758 1045321 -202 0
54 2 S102 772 1046093 570 0
54 2 S102 718 1046811 1288 0
54 2 S102 702 1047513 1990 0
54 2 S102 680 1048193 2670 0
54 2 S102 738 1048931 3408 0
54 2 S102 798 1049729 4206 0
54 2 S102 796 1050525 5002 0
54 2 S102 764 1051289 5766 0
54 2 S102 738 1052027 6504 0
0 0 0 773 1052800 -10296 0
0 0 0 769 1053569 -9527 0
0 0 0 765 1054334 -8762 0
0 0 0 750 1055084 -8012 0
0 0 0 733 1055817 -7279 0
0 0 0 729 1056546 -6550 0
0 0 0 748 1057294 -5802 0
0 0 0 819 1058113 -4983 0
0 0 0 844 1058957 -4139 0
0 0 0 808 1059765 -3331 0
0 0 0 779 1060544 -2552 0
55 1 S106 812 1061356 -1740 0
55 1 S106 780 1062136 -960 0
55 1 S106 812 1062948 -148 0
55 2 S106 787 1063735 639 0
55 2 S106 776 1064511 1415 0
55 2 S106 788 1065299 2203 0
55 2 S106 779 1066078 2982 0
55 2 S106 779 1066857 3761 0
55 2 S106 759 1067616 4520 0
55 2 S106 733 1068349 5253 0
55 2 S106 750 1069099 6003 0
55 2 S106 750 1069849 6753 0
0 0 0 746 1070595 -5581 0
0 0 0 734 1071329 -4847 0
0 0 0 696 1072025 -4151 0
0 0 0 732 1072757 -3419 0
0 0 0 737 1073494 -2682 0
56 1 S116 736 1074230 -1946 0
56 1 S116 699 1074929 -1247 0
56 1 S116 705 1075634 -542 0
56 2 S116 713 1076347 171 0
56 2 S116 736 1077083 907 0
56 2 S116 746 1077829 1653 0
56 2 S116 723 1078552 2376 0
56 2 S116 698 1079250 3074 0
56 2 S116 690 1079940 3764 0
56 2 S116 697 1080637 4461 0
56 2 S116 748 1081385 5209 0
56 2 S116 805 1082190 6014 0
56 2 S116 727 1082917 6741 0
0 0 0 753 1083670 -6117 0
0 0 0 766 1084436 -5351 0
0 0 0 702 1085138 -4649 0
0 0 0 678 1085816 -3971 0
0 0 0 645 1086461 -3326 0
0 0 0 621 1087082 -2705 0
0 0 0 616 1087698 -2089 0
57 1 S106 619 1088317 -1470 0
57 1 S106 681 1088998 -789 0
57 1 S106 741 1089739 -48 0
57 2 S106 694 1090433 646 0
57 2 S106 690 1091123 1336 0
57 2 S106 689 1091812 2025 0
57 2 S106 700 1092512 2725 0
57 2 S106 727 1093239 3452 0
57 2 S106 725 1093964 4177 0
57 2 S106 689 1094653 4866 0
57 2 S106 665 1095318 5531 0
57 2 S106 670 1095988 6201 0
57 2 S106 689 1096677 6890 0
0 0 0 785 1097462 -7610 0
0 0 0 755 1098217 -6855 0
0 0 0 754 1098971 -6101 0
0 0 0 741 1099712 -5360 0
0 0 0 762 1100474 -4598 0
0 0 0 774 1101248 -3824 0
0 0 0 801 1102049 -3023 0
0 0 0 792 1102841 -2231 0
58 1 S102 757 1103598 -1474 0
58 1 S102 767 1104365 -707 0
58 2 S102 778 1105143 71 0
58 2 S102 778 1105921 849 0
58 2 S102 767 1106688 1616 0
58 2 S102 747 1107435 2363 0
58 2 S102 747 1108182 3110 0
58 2 S102 739 1108921 3849 0
58 2 S102 734 1109655 4583 0
58 2 S102 734 1110389 5317 0
58 2 S102 709 1111098 6026 0
58 2 S102 751 1111849 6777 0
0 0 0 804 1112653 -5964 0
0 0 0 782 1113435 -5182 0
0 0 0 735 1114170 -4447 0
0 0 0 710 1114880 -3737 0
0 0 0 677 1115557 -3060 0
0 0 0 651 1116208 -2409 0
59 1 S112 656 1116864 -1753 0
59 1 S112 659 1117523 -1094 0
59 1 S112 647 1118170 -447 0
59 2 S112 648 1118818 201 0
59 2 S112 661 1119479 862 0
59 2 S112 783 1120262 1645 0
59 2 S112 811 1121073 2456 0
59 2 S112 795 1121868 3251 0
59 2 S112 801 1122669 4052 0
59 2 S112 792 1123461 4844 0
59 2 S112 780 1124241 5624 0
59 2 S112 745 1124986 6369 0
0 0 0 721 1125707 -8444 0
0 0 0 695 1126402 -7749 0
0 0 0 674 1127076 -7075 0
0 0 0 688 1127764 -6387 0
0 0 0 683 1128447 -5704 0
0 0 0 661 1129108 -5043 0
0 0 0 663 1129771 -4380 0
0 0 0 704 1130475 -3676 0
0 0 0 786 1131261 -2890 0
0 0 0 775 1132036 -2115 0
60 1 S102 745 1132781 -1370 0
60 1 S102 718 1133499 -652 0
60 2 S102 762 1134261 110 0
60 2 S102 790 1135051 900 0
60 2 S102 780 1135831 1680 0
60 2 S102 740 1136571 2420 0
60 2 S102 710 1137281 3130 0
60 2 S102 698 1137979 3828 0
60 2 S102 695 1138674 4523 0
60 2 S102 705 1139379 5228 0
60 2 S102 666 1140045 5894 0
60 2 S102 654 1140699 6548 0
0 0 0 683 1141382 -10276 0
0 0 0 697 1142079 -9579 0
0 0 0 726 1142805 -8853 0
0 0 0 734 1143539 -8119 0
0 0 0 721 1144260 -7398 0
0 0 0 743 1145003 -6655 0
0 0 0 745 1145748 -5910 0
0 0 0 762 1146510 -5148 0
0 0 0 724 1147234 -4424 0
0 0 0 739 1147973 -3685 0
0 0 0 728 1148701 -2957 0
0 0 0 715 1149416 -2242 0
61 1 S106 689 1150105 -1553 0
61 1 S106 670 1150775 -883 0
61 1 S106 688 1151463 -195 0
61 2 S106 674 1152137 479 0
61 2 S106 685 1152822 1164 0
61 2 S106 717 1153539 1881 0
61 2 S106 760 1154299 2641 0
61 2 S106 756 1155055 3397 0
61 2 S106 797 1155852 4194 0
61 2 S106 818 1156670 5012 0
61 2 S106 839 1157509 5851 0
61 2 S106 844 1158353 6695 0
0 0 0 809 1159162 -6852 0
0 0 0 813 1159975 -6039 0
0 0 0 814 1160789 -5225 0
0 0 0 777 1161566 -4448 0
0 0 0 725 1162291 -3723 0
0 0 0 689 1162980 -3034 0
0 0 0 645 1163625 -2389 0
62 1 S112 615 1164240 -1774 0
62 1 S112 623 1164863 -1151 0
62 1 S112 605 1165468 -546 0
62 2 S112 666 1166134 120 0
62 2 S112 764 1166898 884 0
62 2 S112 761 1167659 1645 0
62 2 S112 775 1168434 2420 0
62 2 S112 823 1169257 3243 0
62 2 S112 823 1170080 4066 0
62 2 S112 793 1170873 4859 0
62 2 S112 772 1171645 5631 0
62 2 S112 736 1172381 6367 0
0 0 0 751 1173132 -10588 0
0 0 0 760 1173892 -9828 0
0 0 0 707 1174599 -9121 0
0 0 0 697 1175296 -8424 0
0 0 0 684 1175980 -7740 0
0 0 0 661 1176641 -7079 0
0 0 0 667 1177308 -6412 0
0 0 0 709 1178017 -5703 0
0 0 0 740 1178757 -4963 0
0 0 0 780 1179537 -4183 0
0 0 0 741 1180278 -3442 0
0 0 0 753 1181031 -2689 0
63 1 S102 720 1181751 -1969 0
63 1 S102 698 1182449 -1271 0
63 1 S102 685 1183134 -586 0
63 2 S102 739 1183873 153 0
63 2 S102 728 1184601 881 0
63 2 S102 773 1185374 1654 0
63 2 S102 788 1186162 2442 0
63 2 S102 759 1186921 3201 0
63 2 S102 752 1187673 3953 0
63 2 S102 744 1188417 4697 0
63 2 S102 754 1189171 5451 0
63 2 S102 781 1189952 6232 0
63 2 S102 789 1190741 7021 0
0 0 0 774 1191515 -7590 0
0 0 0 764 1192279 -6826 0
0 0 0 750 1193029 -6076 0
0 0 0 744 1193773 -5332 0
0 0 0 697 1194470 -4635 0
0 0 0 702 1195172 -3933 0
0 0 0 767 1195939 -3166 0
0 0 0 803 1196742 -2363 0
64 1 S112 781 1197523 -1582 0
64 1 S112 830 1198353 -752 0
64 2 S112 827 1199180 75 0
64 2 S112 801 1199981 876 0
64 2 S112 764 1200745 1640 0
64 2 S112 710 1201455 2350 0
64 2 S112 687 1202142 3037 0
64 2 S112 679 1202821 3716 0
64 2 S112 687 1203508 4403 0
64 2 S112 702 1204210 5105 0
64 2 S112 729 1204939 5834 0
64 2 S112 696 1205635 6530 0
0 0 0 678 1206313 -6817 0
0 0 0 697 1207010 -6120 0
0 0 0 666 1207676 -5454 0
0 0 0 680 1208356 -4774 0
0 0 0 689 1209045 -4085 0
0 0 0 669 1209714 -3416 0
0 0 0 658 1210372 -2758 0
0 0 0 648 1211020 -2110 0
65 1 S106 630 1211650 -1480 0
65 1 S106 613 1212263 -867 0
65 1 S106 618 1212881 -249 0
65 2 S106 664 1213545 415 0
65 2 S106 669 1214214 1084 0
65 2 S106 650 1214864 1734 0
65 2 S106 674 1215538 2408 0
65 2 S106 728 1216266 3136 0
65 2 S106 720 1216986 3856 0
65 2 S106 711 1217697 4567 0
65 2 S106 701 1218398 5268 0
65 2 S106 681 1219079 5949 0
65 2 S106 687 1219766 6636 0
0 0 0 706 1220472 -5821 0
0 0 0 728 1221200 -5093 0
0 0 0 710 1221910 -4383 0
0 0 0 695 1222605 -3688 0
0 0 0 683 1223288 -3005 0
0 0 0 670 1223958 -2335 0
66 1 S116 690 1224648 -1645 0
66 1 S116 691 1225339 -954 0
66 1 S116 794 1226133 -160 0
66 2 S116 752 1226885 592 0
66 2 S116 763 1227648 1355 0
66 2 S116 856 1228504 2211 0
66 2 S116 869 1229373 3080 0
66 2 S116 874 1230247 3954 0
66 2 S116 847 1231094 4801 0
66 2 S116 828 1231922 5629 0
66 2 S116 855 1232777 6484 0
0 0 0 824 1233601 -10415 0
0 0 0 793 1234394 -9622 0
0 0 0 729 1235123 -8893 0
0 0 0 695 1235818 -8198 0
0 0 0 692 1236510 -7506 0
0 0 0 718 1237228 -6788 0
0 0 0 764 1237992 -6024 0
0 0 0 737 1238729 -5287 0
0 0 0 727 1239456 -4560 0
0 0 0 788 1240244 -3772 0
0 0 0 793 1241037 -2979 0
0 0 0 819 1241856 -2160 0
67 1 S102 767 1242623 -1393 0
67 1 S102 762 1243385 -631 0
67 2 S102 766 1244151 135 0
67 2 S102 759 1244910 894 0
67 2 S102 778 1245688 1672 0
67 2 S102 758 1246446 2430 0
67 2 S102 733 1247179 3163 0
67 2 S102 727 1247906 3890 0
67 2 S102 727 1248633 4617 0
67 2 S102 719 1249352 5336 0
67 2 S102 754 1250106 6090 0
67 2 S102 760 1250866 6850 0
0 0 0 770 1251636 -6206 0
0 0 0 791 1252427 -5415 0
0 0 0 789 1253216 -4626 0
0 0 0 763 1253979 -3863 0
0 0 0 726 1254705 -3137 0
0 0 0 717 1255422 -2420 0
68 1 S106 721 1256143 -1699 0
68 1 S106 751 1256894 -948 0
68 1 S106 719 1257613 -229 0
68 2 S106 725 1258338 496 0
68 2 S106 756 1259094 1252 0
68 2 S106 761 1259855 2013 0
68 2 S106 809 1260664 2822 0
68 2 S106 775 1261439 3597 0
68 2 S106 749 1262188 4346 0
68 2 S106 753 1262941 5099 0
68 2 S106 750 1263691 5849 0
68 2 S106 775 1264466 6624 0
0 0 0 759 1265225 -9892 0
0 0 0 741 1265966 -9151 0
0 0 0 736 1266702 -8415 0
0 0 0 718 1267420 -7697 0
0 0 0 725 1268145 -6972 0
0 0 0 681 1268826 -6291 0
0 0 0 664 1269490 -5627 0
0 0 0 658 1270148 -4969 0
0 0 0 674 1270822 -4295 0
0 0 0 732 1271554 -3563 0
0 0 0 755 1272309 -2808 0
0 0 0 735 1273044 -2073 0
69 1 S102 725 1273769 -1348 0
69 1 S102 736 1274505 -612 0
69 2 S102 729 1275234 117 0
69 2 S102 765 1275999 882 0
69 2 S102 745 1276744 1627 0
69 2 S102 726 1277470 2353 0
69 2 S102 707 1278177 3060 0
69 2 S102 696 1278873 3756 0
69 2 S102 692 1279565 4448 0
69 2 S102 709 1280274 5157 0
69 2 S102 705 1280979 5862 0
69 2 S102 698 1281677 6560 0
0 0 0 676 1282353 -8629 0
0 0 0 690 1283043 -7939 0
0 0 0 674 1283717 -7265 0
0 0 0 676 1284393 -6589 0
0 0 0 638 1285031 -5951 0
0 0 0 625 1285656 -5326 0
0 0 0 644 1286300 -4682 0
0 0 0 680 1286980 -4002 0
0 0 0 703 1287683 -3299 0
0 0 0 697 1288380 -2602 0
70 1 S112 677 1289057 -1925 0
70 1 S112 697 1289754 -1228 0
70 1 S112 701 1290455 -527 0
70 2 S112 718 1291173 191 0
70 2 S112 696 1291869 887 0
70 2 S112 688 1292557 1575 0
70 2 S112 712 1293269 2287 0
70 2 S112 731 1294000 3018 0
70 2 S112 740 1294740 3758 0
70 2 S112 741 1295481 4499 0
70 2 S112 743 1296224 5242 0
70 2 S112 789 1297013 6031 0
70 2 S112 806 1297819 6837 0
0 0 0 792 1298611 -10491 0
0 0 0 768 1299379 -9723 0
0 0 0 736 1300115 -8987 0
0 0 0 752 1300867 -8235 0
0 0 0 764 1301631 -7471 0
0 0 0 751 1302382 -6720 0
0 0 0 719 1303101 -6001 0
0 0 0 717 1303818 -5284 0
0 0 0 737 1304555 -4547 0
0 0 0 772 1305327 -3775 0
0 0 0 755 1306082 -3020 0
0 0 0 741 1306823 -2279 0
71 1 S116 745 1307568 -1534 0
71 1 S116 753 1308321 -781 0
71 1 S116 775 1309096 -6 0
71 2 S116 784 1309880 778 0
71 2 S116 788 1310668 1566 0
71 2 S116 752 1311420 2318 0
71 2 S116 755 1312175 3073 0
71 2 S116 764 1312939 3837 0
71 2 S116 766 1313705 4603 0
71 2 S116 780 1314485 5383 0
71 2 S116 772 1315257 6155 0
71 2 S116 765 1316022 6920 0
0 0 0 776 1316798 -8518 0
0 0 0 764 1317562 -7754 0
0 0 0 755 1318317 -6999 0
0 0 0 739 1319056 -6260 0
0 0 0 703 1319759 -5557 0
0 0 0 687 1320446 -4870 0
0 0 0 681 1321127 -4189 0
0 0 0 702 1321829 -3487 0
0 0 0 733 1322562 -2754 0
0 0 0 733 1323295 -2021 0
72 1 S102 742 1324037 -1279 0
72 1 S102 766 1324803 -513 0
72 2 S102 768 1325571 255 0
72 2 S102 836 1326407 1091 0
72 2 S102 759 1327166 1850 0
72 2 S102 732 1327898 2582 0
72 2 S102 733 1328631 3315 0
72 2 S102 728 1329359 4043 0
72 2 S102 732 1330091 4775 0
72 2 S102 762 1330853 5537 0
72 2 S102 756 1331609 6293 0
72 2 S102 711 1332320 7004 0
0 0 0 683 1333003 -6355 0
0 0 0 680 1333683 -5675 0
0 0 0 728 1334411 -4947 0
0 0 0 741 1335152 -4206 0
0 0 0 709 1335861 -3497 0
0 0 0 725 1336586 -2772 0
0 0 0 708 1337294 -2064 0
73 1 S116 700 1337994 -1364 0
73 1 S116 648 1338642 -716 0
73 1 S116 666 1339308 -50 0
73 2 S116 735 1340043 685 0
73 2 S116 733 1340776 1418 0
73 2 S116 733 1341509 2151 0
73 2 S116 764 1342273 2915 0
73 2 S116 760 1343033 3675 0
73 2 S116 766 1343799 4441 0
73 2 S116 746 1344545 5187 0
73 2 S116 732 1345277 5919 0
73 2 S116 756 1346033 6675 0
0 0 0 769 1346802 -8554 0
0 0 0 748 1347550 -7806 0
0 0 0 731 1348281 -7075 0
0 0 0 712 1348993 -6363 0
0 0 0 738 1349731 -5625 0
0 0 0 785 1350516 -4840 0
0 0 0 791 1351307 -4049 0
0 0 0 854 1352161 -3195 0
0 0 0 789 1352950 -2406 0
74 1 S106 789 1353739 -1617 0
74 1 S106 813 1354552 -804 0
74 2 S106 806 1355358 2 0
74 2 S106 828 1356186 830 0
74 2 S106 810 1356996 1640 0
74 2 S106 758 1357754 2398 0
74 2 S106 756 1358510 3154 0
74 2 S106 745 1359255 3899 0
74 2 S106 738 1359993 4637 0
74 2 S106 721 1360714 5358 0
74 2 S106 730 1361444 6088 0
74 2 S106 718 1362162 6806 0
0 0 0 762 1362924 -5529 0
0 0 0 774 1363698 -4755 0
0 0 0 739 1364437 -4016 0
0 0 0 717 1365154 -3299 0
0 0 0 704 1365858 -2595 0
75 1 S112 706 1366564 -1889 0
75 1 S112 715 1367279 -1174 0
75 1 S112 711 1367990 -463 0
75 2 S112 699 1368689 236 0
75 2 S112 731 1369420 967 0
75 2 S112 759 1370179 1726 0
75 2 S112 784 1370963 2510 0
75 2 S112 781 1371744 3291 0
75 2 S112 756 1372500 4047 0
75 2 S112 788 1373288 4835 0
75 2 S112 780 1374068 5615 0
75 2 S112 785 1374853 6400 0
0 0 0 741 1375594 -6486 0
0 0 0 751 1376345 -5735 0
0 0 0 718 1377063 -5017 0
0 0 0 699 1377762 -4318 0
0 0 0 683 1378445 -3635 0
0 0 0 672 1379117 -2963 0
0 0 0 667 1379784 -2296 0
76 1 S116 680 1380464 -1616 0
76 1 S116 732 1381196 -884 0
76 1 S116 716 1381912 -168 0
76 2 S116 691 1382603 523 0
76 2 S116 701 1383304 1224 0
76 2 S116 761 1384065 1985 0
76 2 S116 746 1384811 2731 0
76 2 S116 736 1385547 3467 0
76 2 S116 710 1386257 4177 0
76 2 S116 724 1386981 4901 0
76 2 S116 716 1387697 5617 0
76 2 S116 713 1388410 6330 0
0 0 0 717 1389127 -6879 0
0 0 0 715 1389842 -6164 0
0 0 0 682 1390524 -5482 0
0 0 0 682 1391206 -4800 0
0 0 0 671 1391877 -4129 0
0 0 0 659 1392536 -3470 0
0 0 0 639 1393175 -2831 0
0 0 0 618 1393793 -2213 0
77 1 S106 619 1394412 -1594 0
77 1 S106 680 1395092 -914 0
77 1 S106 679 1395771 -235 0
77 2 S106 688 1396459 453 0
77 2 S106 713 1397172 1166 0
77 2 S106 755 1397927 1921 0
77 2 S106 803 1398730 2724 0
77 2 S106 786 1399516 3510 0
77 2 S106 772 1400288 4282 0
77 2 S106 767 1401055 5049 0
77 2 S106 767 1401822 5816 0
77 2 S106 778 1402600 6594 0
0 0 0 757 1403357 -7735 0
0 0 0 723 1404080 -7012 0
0 0 0 706 1404786 -6306 0
0 0 0 696 1405482 -5610 0
0 0 0 729 1406211 -4881 0
0 0 0 734 1406945 -4147 0
0 0 0 725 1407670 -3422 0
0 0 0 762 1408432 -2660 0
78 1 S112 775 1409207 -1885 0
78 1 S112 784 1409991 -1101 0
78 1 S112 749 1410740 -352 0
78 2 S112 701 1411441 349 0
78 2 S112 672 1412113 1021 0
78 2 S112 695 1412808 1716 0
78 2 S112 777 1413585 2493 0
78 2 S112 859 1414444 3352 0
78 2 S112 800 1415244 4152 0
78 2 S112 815 1416059 4967 0
78 2 S112 795 1416854 5762 0
78 2 S112 762 1417616 6524 0
0 0 0 744 1418360 -10438 0
0 0 0 706 1419066 -9732 0
0 0 0 681 1419747 -9051 0
0 0 0 703 1420450 -8348 0
0 0 0 687 1421137 -7661 0
0 0 0 692 1421829 -6969 0
0 0 0 703 1422532 -6266 0
0 0 0 779 1423311 -5487 0
0 0 0 862 1424173 -4625 0
0 0 0 865 1425038 -3760 0
0 0 0 831 1425869 -2929 0
0 0 0 831 1426700 -2098 0
79 1 S102 810 1427510 -1288 0
79 1 S102 804 1428314 -484 0
79 2 S102 812 1429126 328 0
79 2 S102 789 1429915 1117 0
79 2 S102 785 1430700 1902 0
79 2 S102 814 1431514 2716 0
79 2 S102 811 1432325 3527 0
79 2 S102 739 1433064 4266 0
79 2 S102 745 1433809 5011 0
79 2 S102 771 1434580 5782 0
79 2 S102 822 1435402 6604 0
0 0 0 843 1436245 -7954 0
0 0 0 821 1437066 -7133 0
0 0 0 759 1437825 -6374 0
0 0 0 721 1438546 -5653 0
0 0 0 692 1439238 -4961 0
0 0 0 655 1439893 -4306 0
0 0 0 649 1440542 -3657 0
0 0 0 696 1441238 -2961 0
0 0 0 684 1441922 -2277 0
80 1 S116 654 1442576 -1623 0
80 1 S116 663 1443239 -960 0
80 1 S116 708 1443947 -252 0
80 2 S116 723 1444670 471 0
80 2 S116 757 1445427 1228 0
80 2 S116 724 1446151 1952 0
80 2 S116 830 1446981 2782 0
80 2 S116 853 1447834 3635 0
80 2 S116 853 1448687 4488 0
80 2 S116 859 1449546 5347 0
80 2 S116 867 1450413 6214 0
80 2 S116 810 1451223 7024 0
