T_0034
BeatCount Mean SD BeatCountNoOutliers MeanNoOutliers SDNoOutliers
2185 707,913043478261 48,6813924024022 2164 706,79898336414 46,9313609563523

Trial TrialStatus Trialtype IBI AbsPosition RelPosition Outlier
0 0 0 663 1157 -13269 0
0 0 0 726 1883 -12543 0
0 0 0 774 2657 -11769 0
0 0 0 743 3400 -11026 0
0 0 0 735 4135 -10291 0
0 0 0 769 4904 -9522 0
0 0 0 803 5707 -8719 0
0 0 0 792 6499 -7927 0
0 0 0 734 7233 -7193 0
0 0 0 683 7916 -6510 0
0 0 0 704 8620 -5806 0
0 0 0 701 9321 -5105 0
0 0 0 718 10039 -4387 0
0 0 0 730 10769 -3657 0
0 0 0 703 11472 -2954 0
0 0 0 667 12139 -2287 0
1 1 S112 655 12794 -1632 0
1 1 S112 659 13453 -973 0
1 1 S112 673 14126 -300 0
1 2 S112 669 14795 369 0
1 2 S112 658 15453 1027 0
1 2 S112 650 16103 1677 0
1 2 S112 624 16727 2301 0
1 2 S112 606 17333 2907 0
1 2 S112 614 17947 3521 0
1 2 S112 621 18568 4142 0
1 2 S112 653 19221 4795 0
1 2 S112 681 19902 5476 0
1 2 S112 668 20570 6144 0
1 2 S112 637 21207 6781 0
0 0 0 618 21825 -11318 0
0 0 0 624 22449 -10694 0
0 0 0 615 23064 -10079 0
0 0 0 619 23683 -9460 0
0 0 0 601 24284 -8859 0
0 0 0 580 24864 -8279 1
0 0 0 580 25444 -7699 1
0 0 0 592 26036 -7107 0
0 0 0 638 26674 -6469 0
0 0 0 669 27343 -5800 0
0 0 0 651 27994 -5149 0
0 0 0 618 28612 -4531 0
0 0 0 621 29233 -3910 0
0 0 0 626 29859 -3284 0
0 0 0 645 30504 -2639 0
2 1 S102 656 31160 -1983 0
2 1 S102 648 31808 -1335 0
2 1 S102 630 32438 -705 0
2 1 S102 606 33044 -99 0
2 2 S102 596 33640 497 0
2 2 S102 597 34237 1094 0
2 2 S102 606 34843 1700 0
2 2 S102 626 35469 2326 0
2 2 S102 644 36113 2970 0
2 2 S102 647 36760 3617 0
2 2 S102 653 37413 4270 0
2 2 S102 628 38041 4898 0
2 2 S102 614 38655 5512 0
2 2 S102 614 39269 6126 0
2 2 S102 625 39894 6751 0
0 0 0 661 40555 -9597 0
0 0 0 699 41254 -8898 0
0 0 0 646 41900 -8252 0
0 0 0 625 42525 -7627 0
0 0 0 632 43157 -6995 0
0 0 0 632 43789 -6363 0
0 0 0 645 44434 -5718 0
0 0 0 668 45102 -5050 0
0 0 0 665 45767 -4385 0
0 0 0 629 46396 -3756 0
0 0 0 613 47009 -3143 0
0 0 0 618 47627 -2525 0
3 1 S116 634 48261 -1891 0
3 1 S116 649 48910 -1242 0
3 1 S116 645 49555 -597 0
3 2 S116 609 50164 12 0
3 2 S116 601 50765 613 0
3 2 S116 599 51364 1212 0
3 2 S116 608 51972 1820 0
3 2 S116 629 52601 2449 0
3 2 S116 687 53288 3136 0
3 2 S116 744 54032 3880 0
3 2 S116 781 54813 4661 0
3 2 S116 762 55575 5423 0
3 2 S116 720 56295 6143 0
3 2 S116 672 56967 6815 0
0 0 0 666 57633 -11916 0
0 0 0 671 58304 -11245 0
0 0 0 675 58979 -10570 0
0 0 0 634 59613 -9936 0
0 0 0 624 60237 -9312 0
0 0 0 624 60861 -8688 0
0 0 0 646 61507 -8042 0
0 0 0 690 62197 -7352 0
0 0 0 712 62909 -6640 0
0 0 0 673 63582 -5967 0
0 0 0 639 64221 -5328 0
0 0 0 649 64870 -4679 0
0 0 0 675 65545 -4004 0
0 0 0 715 66260 -3289 0
0 0 0 715 66975 -2574 0
4 1 S106 669 67644 -1905 0
4 1 S106 636 68280 -1269 0
4 1 S106 645 68925 -624 0
4 2 S106 653 69578 29 0
4 2 S106 690 70268 719 0
4 2 S106 716 70984 1435 0
4 2 S106 736 71720 2171 0
4 2 S106 731 72451 2902 0
4 2 S106 723 73174 3625 0
4 2 S106 679 73853 4304 0
4 2 S106 647 74500 4951 0
4 2 S106 661 75161 5612 0
4 2 S106 688 75849 6300 0
0 0 0 756 76605 -8445 0
0 0 0 782 77387 -7663 0
0 0 0 720 78107 -6943 0
0 0 0 671 78778 -6272 0
0 0 0 690 79468 -5582 0
0 0 0 721 80189 -4861 0
0 0 0 731 80920 -4130 0
0 0 0 734 81654 -3396 0
0 0 0 710 82364 -2686 0
5 1 S116 688 83052 -1998 0
5 1 S116 713 83765 -1285 0
5 1 S116 712 84477 -573 0
5 2 S116 718 85195 145 0
5 2 S116 715 85910 860 0
5 2 S116 700 86610 1560 0
5 2 S116 682 87292 2242 0
5 2 S116 682 87974 2924 0
5 2 S116 697 88671 3621 0
5 2 S116 721 89392 4342 0
5 2 S116 772 90164 5114 0
5 2 S116 784 90948 5898 0
5 2 S116 753 91701 6651 0
0 0 0 704 92405 -9389 0
0 0 0 700 93105 -8689 0
0 0 0 680 93785 -8009 0
0 0 0 674 94459 -7335 0
0 0 0 653 95112 -6682 0
0 0 0 622 95734 -6060 0
0 0 0 631 96365 -5429 0
0 0 0 674 97039 -4755 0
0 0 0 660 97699 -4095 0
0 0 0 659 98358 -3436 0
0 0 0 688 99046 -2748 0
6 1 S106 759 99805 -1989 0
6 1 S106 785 100590 -1204 0
6 1 S106 769 101359 -435 0
6 2 S106 751 102110 316 0
6 2 S106 700 102810 1016 0
6 2 S106 671 103481 1687 0
6 2 S106 684 104165 2371 0
6 2 S106 692 104857 3063 0
6 2 S106 711 105568 3774 0
6 2 S106 744 106312 4518 0
6 2 S106 741 107053 5259 0
6 2 S106 720 107773 5979 0
6 2 S106 679 108452 6658 0
0 0 0 671 109123 -11123 0
0 0 0 702 109825 -10421 0
0 0 0 720 110545 -9701 0
0 0 0 758 111303 -8943 0
0 0 0 710 112013 -8233 0
0 0 0 667 112680 -7566 0
0 0 0 669 113349 -6897 0
0 0 0 686 114035 -6211 0
0 0 0 713 114748 -5498 0
0 0 0 730 115478 -4768 0
0 0 0 731 116209 -4037 0
0 0 0 690 116899 -3347 0
0 0 0 651 117550 -2696 0
0 0 0 631 118181 -2065 0
7 1 S102 646 118827 -1419 0
7 1 S102 673 119500 -746 0
7 1 S102 736 120236 -10 0
7 2 S102 744 120980 734 0
7 2 S102 749 121729 1483 0
7 2 S102 708 122437 2191 0
7 2 S102 668 123105 2859 0
7 2 S102 677 123782 3536 0
7 2 S102 691 124473 4227 0
7 2 S102 727 125200 4954 0
7 2 S102 735 125935 5689 0
7 2 S102 719 126654 6408 0
0 0 0 689 127343 -9614 0
0 0 0 658 128001 -8956 0
0 0 0 651 128652 -8305 0
0 0 0 633 129285 -7672 0
0 0 0 616 129901 -7056 0
0 0 0 601 130502 -6455 0
0 0 0 593 131095 -5862 0
0 0 0 606 131701 -5256 0
0 0 0 669 132370 -4587 0
0 0 0 669 133039 -3918 0
0 0 0 649 133688 -3269 0
0 0 0 635 134323 -2634 0
8 1 S112 641 134964 -1993 0
8 1 S112 668 135632 -1325 0
8 1 S112 758 136390 -567 0
8 2 S112 809 137199 242 0
8 2 S112 808 138007 1050 0
8 2 S112 797 138804 1847 0
8 2 S112 758 139562 2605 0
8 2 S112 693 140255 3298 0
8 2 S112 653 140908 3951 0
8 2 S112 661 141569 4612 0
8 2 S112 670 142239 5282 0
8 2 S112 685 142924 5967 0
8 2 S112 689 143613 6656 0
0 0 0 669 144282 -8424 0
0 0 0 666 144948 -7758 0
0 0 0 680 145628 -7078 0
0 0 0 716 146344 -6362 0
0 0 0 766 147110 -5596 0
0 0 0 738 147848 -4858 0
0 0 0 679 148527 -4179 0
0 0 0 680 149207 -3499 0
0 0 0 690 149897 -2809 0
0 0 0 702 150599 -2107 0
9 1 S116 701 151300 -1406 0
9 1 S116 669 151969 -737 0
9 1 S116 680 152649 -57 0
9 2 S116 697 153346 640 0
9 2 S116 727 154073 1367 0
9 2 S116 755 154828 2122 0
9 2 S116 767 155595 2889 0
9 2 S116 743 156338 3632 0
9 2 S116 693 157031 4325 0
9 2 S116 669 157700 4994 0
9 2 S116 689 158389 5683 0
9 2 S116 720 159109 6403 0
0 0 0 790 159899 -13248 0
0 0 0 842 160741 -12406 1
0 0 0 774 161515 -11632 0
0 0 0 722 162237 -10910 0
0 0 0 747 162984 -10163 0
0 0 0 783 163767 -9380 0
0 0 0 802 164569 -8578 0
0 0 0 730 165299 -7848 0
0 0 0 685 165984 -7163 0
0 0 0 706 166690 -6457 0
0 0 0 736 167426 -5721 0
0 0 0 792 168218 -4929 0
0 0 0 782 169000 -4147 0
0 0 0 783 169783 -3364 0
0 0 0 734 170517 -2630 0
10 1 S102 687 171204 -1943 0
10 1 S102 681 171885 -1262 0
10 1 S102 703 172588 -559 0
10 2 S102 754 173342 195 0
10 2 S102 806 174148 1001 0
10 2 S102 803 174951 1804 0
10 2 S102 771 175722 2575 0
10 2 S102 707 176429 3282 0
10 2 S102 687 177116 3969 0
10 2 S102 683 177799 4652 0
10 2 S102 699 178498 5351 0
10 2 S102 725 179223 6076 0
10 2 S102 733 179956 6809 0
0 0 0 723 180679 -11484 0
0 0 0 694 181373 -10790 0
0 0 0 691 182064 -10099 0
0 0 0 699 182763 -9400 0
0 0 0 754 183517 -8646 0
0 0 0 767 184284 -7879 0
0 0 0 763 185047 -7116 0
0 0 0 718 185765 -6398 0
0 0 0 668 186433 -5730 0
0 0 0 627 187060 -5103 0
0 0 0 608 187668 -4495 0
0 0 0 608 188276 -3887 0
0 0 0 640 188916 -3247 0
0 0 0 743 189659 -2504 0
11 1 S112 788 190447 -1716 0
11 1 S112 766 191213 -950 0
11 1 S112 690 191903 -260 0
11 2 S112 666 192569 406 0
11 2 S112 680 193249 1086 0
11 2 S112 710 193959 1796 0
11 2 S112 724 194683 2520 0
11 2 S112 720 195403 3240 0
11 2 S112 730 196133 3970 0
11 2 S112 716 196849 4686 0
11 2 S112 670 197519 5356 0
11 2 S112 678 198197 6034 0
11 2 S112 693 198890 6727 0
0 0 0 707 199597 -8564 0
0 0 0 745 200342 -7819 0
0 0 0 705 201047 -7114 0
0 0 0 671 201718 -6443 0
0 0 0 697 202415 -5746 0
0 0 0 710 203125 -5036 0
0 0 0 725 203850 -4311 0
0 0 0 722 204572 -3589 0
0 0 0 680 205252 -2909 0
0 0 0 702 205954 -2207 0
12 1 S116 710 206664 -1497 0
12 1 S116 735 207399 -762 0
12 1 S116 735 208134 -27 0
12 2 S116 704 208838 677 0
12 2 S116 672 209510 1349 0
12 2 S116 692 210202 2041 0
12 2 S116 708 210910 2749 0
12 2 S116 727 211637 3476 0
12 2 S116 776 212413 4252 0
12 2 S116 774 213187 5026 0
12 2 S116 745 213932 5771 0
12 2 S116 720 214652 6491 0
0 0 0 685 215337 -11839 0
0 0 0 691 216028 -11148 0
0 0 0 694 216722 -10454 0
0 0 0 729 217451 -9725 0
0 0 0 791 218242 -8934 0
0 0 0 731 218973 -8203 0
0 0 0 709 219682 -7494 0
0 0 0 742 220424 -6752 0
0 0 0 757 221181 -5995 0
0 0 0 773 221954 -5222 0
0 0 0 756 222710 -4466 0
0 0 0 711 223421 -3755 0
0 0 0 670 224091 -3085 0
0 0 0 681 224772 -2404 0
13 1 S112 685 225457 -1719 0
13 1 S112 720 226177 -999 0
13 1 S112 755 226932 -244 0
13 2 S112 755 227687 511 0
13 2 S112 725 228412 1236 0
13 2 S112 737 229149 1973 0
13 2 S112 722 229871 2695 0
13 2 S112 738 230609 3433 0
13 2 S112 740 231349 4173 0
13 2 S112 711 232060 4884 0
13 2 S112 671 232731 5555 0
13 2 S112 682 233413 6237 0
13 2 S112 689 234102 6926 0
0 0 0 722 234824 -12843 0
0 0 0 766 235590 -12077 0
0 0 0 740 236330 -11337 0
0 0 0 690 237020 -10647 0
0 0 0 698 237718 -9949 0
0 0 0 729 238447 -9220 0
0 0 0 757 239204 -8463 0
0 0 0 726 239930 -7737 0
0 0 0 686 240616 -7051 0
0 0 0 655 241271 -6396 0
0 0 0 664 241935 -5732 0
0 0 0 674 242609 -5058 0
0 0 0 702 243311 -4356 0
0 0 0 698 244009 -3658 0
0 0 0 666 244675 -2992 0
0 0 0 640 245315 -2352 0
14 1 S106 654 245969 -1698 0
14 1 S106 665 246634 -1033 0
14 1 S106 734 247368 -299 0
14 2 S106 756 248124 457 0
14 2 S106 775 248899 1232 0
14 2 S106 765 249664 1997 0
14 2 S106 747 250411 2744 0
14 2 S106 703 251114 3447 0
14 2 S106 666 251780 4113 0
14 2 S106 668 252448 4781 0
14 2 S106 687 253135 5468 0
14 2 S106 730 253865 6198 0
14 2 S106 770 254635 6968 0
0 0 0 787 255422 -11393 0
0 0 0 745 256167 -10648 0
0 0 0 726 256893 -9922 0
0 0 0 717 257610 -9205 0
0 0 0 716 258326 -8489 0
0 0 0 703 259029 -7786 0
0 0 0 698 259727 -7088 0
0 0 0 671 260398 -6417 0
0 0 0 659 261057 -5758 0
0 0 0 633 261690 -5125 0
0 0 0 625 262315 -4500 0
0 0 0 642 262957 -3858 0
0 0 0 656 263613 -3202 0
0 0 0 652 264265 -2550 0
15 1 S116 657 264922 -1893 0
15 1 S116 662 265584 -1231 0
15 1 S116 695 266279 -536 0
15 2 S116 708 266987 172 0
15 2 S116 695 267682 867 0
15 2 S116 664 268346 1531 0
15 2 S116 656 269002 2187 0
15 2 S116 678 269680 2865 0
15 2 S116 712 270392 3577 0
15 2 S116 735 271127 4312 0
15 2 S116 731 271858 5043 0
15 2 S116 706 272564 5749 0
15 2 S116 659 273223 6408 0
0 0 0 678 273901 -11515 0
0 0 0 696 274597 -10819 0
0 0 0 724 275321 -10095 0
0 0 0 705 276026 -9390 0
0 0 0 662 276688 -8728 0
0 0 0 670 277358 -8058 0
0 0 0 673 278031 -7385 0
0 0 0 707 278738 -6678 0
0 0 0 680 279418 -5998 0
0 0 0 674 280092 -5324 0
0 0 0 688 280780 -4636 0
0 0 0 706 281486 -3930 0
0 0 0 753 282239 -3177 0
0 0 0 760 282999 -2417 0
16 1 S116 717 283716 -1700 0
16 1 S116 728 284444 -972 0
16 1 S116 742 285186 -230 0
16 2 S116 767 285953 537 0
16 2 S116 789 286742 1326 0
16 2 S116 795 287537 2121 0
16 2 S116 755 288292 2876 0
16 2 S116 699 288991 3575 0
16 2 S116 702 289693 4277 0
16 2 S116 711 290404 4988 0
16 2 S116 742 291146 5730 0
16 2 S116 770 291916 6500 0
0 0 0 779 292695 -9979 0
0 0 0 747 293442 -9232 0
0 0 0 703 294145 -8529 0
0 0 0 721 294866 -7808 0
0 0 0 735 295601 -7073 0
0 0 0 741 296342 -6332 0
0 0 0 696 297038 -5636 0
0 0 0 664 297702 -4972 0
0 0 0 673 298375 -4299 0
0 0 0 677 299052 -3622 0
0 0 0 714 299766 -2908 0
0 0 0 749 300515 -2159 0
17 1 S106 732 301247 -1427 0
17 1 S106 691 301938 -736 0
17 1 S106 695 302633 -41 0
17 2 S106 706 303339 665 0
17 2 S106 730 304069 1395 0
17 2 S106 763 304832 2158 0
17 2 S106 757 305589 2915 0
17 2 S106 717 306306 3632 0
17 2 S106 668 306974 4300 0
17 2 S106 653 307627 4953 0
17 2 S106 658 308285 5611 0
17 2 S106 676 308961 6287 0
17 2 S106 722 309683 7009 0
0 0 0 756 310439 -10571 0
0 0 0 727 311166 -9844 0
0 0 0 709 311875 -9135 0
0 0 0 708 312583 -8427 0
0 0 0 710 313293 -7717 0
0 0 0 745 314038 -6972 0
0 0 0 741 314779 -6231 0
0 0 0 705 315484 -5526 0
0 0 0 701 316185 -4825 0
0 0 0 708 316893 -4117 0
0 0 0 739 317632 -3378 0
0 0 0 746 318378 -2632 0
18 1 S102 740 319118 -1892 0
18 1 S102 700 319818 -1192 0
18 1 S102 681 320499 -511 0
18 2 S102 684 321183 173 0
18 2 S102 690 321873 863 0
18 2 S102 708 322581 1571 0
18 2 S102 729 323310 2300 0
18 2 S102 719 324029 3019 0
18 2 S102 696 324725 3715 0
18 2 S102 665 325390 4380 0
18 2 S102 656 326046 5036 0
18 2 S102 666 326712 5702 0
18 2 S102 697 327409 6399 0
0 0 0 730 328139 -7891 0
0 0 0 759 328898 -7132 0
0 0 0 710 329608 -6422 0
0 0 0 655 330263 -5767 0
0 0 0 674 330937 -5093 0
0 0 0 673 331610 -4420 0
0 0 0 702 332312 -3718 0
0 0 0 739 333051 -2979 0
0 0 0 706 333757 -2273 0
19 1 S106 717 334474 -1556 0
19 1 S106 728 335202 -828 0
19 1 S106 767 335969 -61 0
19 2 S106 772 336741 711 0
19 2 S106 745 337486 1456 0
19 2 S106 696 338182 2152 0
19 2 S106 660 338842 2812 0
19 2 S106 670 339512 3482 0
19 2 S106 679 340191 4161 0
19 2 S106 721 340912 4882 0
19 2 S106 748 341660 5630 0
19 2 S106 751 342411 6381 0
0 0 0 734 343145 -11536 0
0 0 0 681 343826 -10855 0
0 0 0 674 344500 -10181 0
0 0 0 658 345158 -9523 0
0 0 0 647 345805 -8876 0
0 0 0 623 346428 -8253 0
0 0 0 615 347043 -7638 0
0 0 0 634 347677 -7004 0
0 0 0 669 348346 -6335 0
0 0 0 648 348994 -5687 0
0 0 0 630 349624 -5057 0
0 0 0 614 350238 -4443 0
0 0 0 630 350868 -3813 0
0 0 0 674 351542 -3139 0
0 0 0 744 352286 -2395 0
20 1 S112 760 353046 -1635 0
20 1 S112 762 353808 -873 0
20 1 S112 742 354550 -131 0
20 2 S112 710 355260 579 0
20 2 S112 668 355928 1247 0
20 2 S112 672 356600 1919 0
20 2 S112 659 357259 2578 0
20 2 S112 664 357923 3242 0
20 2 S112 672 358595 3914 0
20 2 S112 678 359273 4592 0
20 2 S112 668 359941 5260 0
20 2 S112 647 360588 5907 0
20 2 S112 657 361245 6564 0
0 0 0 669 361914 -9942 0
0 0 0 703 362617 -9239 0
0 0 0 711 363328 -8528 0
0 0 0 701 364029 -7827 0
0 0 0 688 364717 -7139 0
0 0 0 705 365422 -6434 0
0 0 0 701 366123 -5733 0
0 0 0 709 366832 -5024 0
0 0 0 704 367536 -4320 0
0 0 0 677 368213 -3643 0
0 0 0 694 368907 -2949 0
0 0 0 694 369601 -2255 0
21 1 S106 703 370304 -1552 0
21 1 S106 710 371014 -842 0
21 1 S106 689 371703 -153 0
21 2 S106 640 372343 487 0
21 2 S106 614 372957 1101 0
21 2 S106 613 373570 1714 0
21 2 S106 615 374185 2329 0
21 2 S106 666 374851 2995 0
21 2 S106 793 375644 3788 0
21 2 S106 836 376480 4624 1
21 2 S106 834 377314 5458 1
21 2 S106 818 378132 6276 0
0 0 0 766 378898 -11493 0
0 0 0 730 379628 -10763 0
0 0 0 732 380360 -10031 0
0 0 0 725 381085 -9306 0
0 0 0 729 381814 -8577 0
0 0 0 684 382498 -7893 0
0 0 0 652 383150 -7241 0
0 0 0 671 383821 -6570 0
0 0 0 672 384493 -5898 0
0 0 0 699 385192 -5199 0
0 0 0 712 385904 -4487 0
0 0 0 716 386620 -3771 0
0 0 0 696 387316 -3075 0
0 0 0 676 387992 -2399 0
22 1 S116 699 388691 -1700 0
22 1 S116 702 389393 -998 0
22 1 S116 735 390128 -263 0
22 2 S116 746 390874 483 0
22 2 S116 762 391636 1245 0
22 2 S116 751 392387 1996 0
22 2 S116 705 393092 2701 0
22 2 S116 684 393776 3385 0
22 2 S116 704 394480 4089 0
22 2 S116 740 395220 4829 0
22 2 S116 790 396010 5619 0
22 2 S116 810 396820 6429 0
0 0 0 791 397611 -10701 0
0 0 0 761 398372 -9940 0
0 0 0 709 399081 -9231 0
0 0 0 701 399782 -8530 0
0 0 0 671 400453 -7859 0
0 0 0 642 401095 -7217 0
0 0 0 631 401726 -6586 0
0 0 0 642 402368 -5944 0
0 0 0 642 403010 -5302 0
0 0 0 643 403653 -4659 0
0 0 0 660 404313 -3999 0
0 0 0 698 405011 -3301 0
0 0 0 761 405772 -2540 0
23 1 S112 777 406549 -1763 0
23 1 S112 788 407337 -975 0
23 1 S112 735 408072 -240 0
23 2 S112 676 408748 436 0
23 2 S112 683 409431 1119 0
23 2 S112 693 410124 1812 0
23 2 S112 692 410816 2504 0
23 2 S112 684 411500 3188 0
23 2 S112 662 412162 3850 0
23 2 S112 642 412804 4492 0
23 2 S112 666 413470 5158 0
23 2 S112 691 414161 5849 0
23 2 S112 763 414924 6612 0
0 0 0 786 415710 -9528 0
0 0 0 737 416447 -8791 0
0 0 0 725 417172 -8066 0
0 0 0 732 417904 -7334 0
0 0 0 740 418644 -6594 0
0 0 0 715 419359 -5879 0
0 0 0 670 420029 -5209 0
0 0 0 655 420684 -4554 0
0 0 0 657 421341 -3897 0
0 0 0 679 422020 -3218 0
0 0 0 714 422734 -2504 0
24 1 S106 727 423461 -1777 0
24 1 S106 713 424174 -1064 0
24 1 S106 662 424836 -402 0
24 2 S106 661 425497 259 0
24 2 S106 662 426159 921 0
24 2 S106 681 426840 1602 0
24 2 S106 722 427562 2324 0
24 2 S106 743 428305 3067 0
24 2 S106 768 429073 3835 0
24 2 S106 762 429835 4597 0
24 2 S106 723 430558 5320 0
24 2 S106 705 431263 6025 0
24 2 S106 733 431996 6758 0
0 0 0 764 432760 -8692 0
0 0 0 795 433555 -7897 0
0 0 0 782 434337 -7115 0
0 0 0 738 435075 -6377 0
0 0 0 690 435765 -5687 0
0 0 0 708 436473 -4979 0
0 0 0 734 437207 -4245 0
0 0 0 760 437967 -3485 0
0 0 0 777 438744 -2708 0
25 1 S102 747 439491 -1961 0
25 1 S102 704 440195 -1257 0
25 1 S102 723 440918 -534 0
25 2 S102 724 441642 190 0
25 2 S102 740 442382 930 0
25 2 S102 742 443124 1672 0
25 2 S102 734 443858 2406 0
25 2 S102 706 444564 3112 0
25 2 S102 674 445238 3786 0
25 2 S102 665 445903 4451 0
25 2 S102 677 446580 5128 0
25 2 S102 704 447284 5832 0
25 2 S102 760 448044 6592 0
0 0 0 787 448831 -7028 0
0 0 0 752 449583 -6276 0
0 0 0 725 450308 -5551 0
0 0 0 749 451057 -4802 0
0 0 0 737 451794 -4065 0
0 0 0 738 452532 -3327 0
0 0 0 709 453241 -2618 0
26 1 S116 670 453911 -1948 0
26 1 S116 677 454588 -1271 0
26 1 S116 680 455268 -591 0
26 2 S116 688 455956 97 0
26 2 S116 691 456647 788 0
26 2 S116 710 457357 1498 0
26 2 S116 714 458071 2212 0
26 2 S116 686 458757 2898 0
26 2 S116 685 459442 3583 0
26 2 S116 723 460165 4306 0
26 2 S116 808 460973 5114 0
26 2 S116 864 461837 5978 1
26 2 S116 859 462696 6837 1
0 0 0 804 463500 -7594 0
0 0 0 713 464213 -6881 0
0 0 0 700 464913 -6181 0
0 0 0 668 465581 -5513 0
0 0 0 654 466235 -4859 0
0 0 0 625 466860 -4234 0
0 0 0 612 467472 -3622 0
0 0 0 606 468078 -3016 0
0 0 0 594 468672 -2422 0
27 1 S106 610 469282 -1812 0
27 1 S106 635 469917 -1177 0
27 1 S106 670 470587 -507 0
27 2 S106 649 471236 142 0
27 2 S106 650 471886 792 0
27 2 S106 653 472539 1445 0
27 2 S106 670 473209 2115 0
27 2 S106 684 473893 2799 0
27 2 S106 687 474580 3486 0
27 2 S106 665 475245 4151 0
27 2 S106 636 475881 4787 0
27 2 S106 636 476517 5423 0
27 2 S106 631 477148 6054 0
27 2 S106 633 477781 6687 0
0 0 0 650 478431 -8247 0
0 0 0 653 479084 -7594 0
0 0 0 619 479703 -6975 0
0 0 0 600 480303 -6375 0
0 0 0 597 480900 -5778 0
0 0 0 599 481499 -5179 0
0 0 0 632 482131 -4547 0
0 0 0 742 482873 -3805 0
0 0 0 789 483662 -3016 0
0 0 0 761 484423 -2255 0
28 1 S102 726 485149 -1529 0
28 1 S102 772 485921 -757 0
28 2 S102 809 486730 52 0
28 2 S102 835 487565 887 1
28 2 S102 823 488388 1710 0
28 2 S102 775 489163 2485 0
28 2 S102 718 489881 3203 0
28 2 S102 709 490590 3912 0
28 2 S102 694 491284 4606 0
28 2 S102 702 491986 5308 0
28 2 S102 717 492703 6025 0
28 2 S102 706 493409 6731 0
0 0 0 682 494091 -11006 0
0 0 0 655 494746 -10351 0
0 0 0 661 495407 -9690 0
0 0 0 664 496071 -9026 0
0 0 0 680 496751 -8346 0
0 0 0 682 497433 -7664 0
0 0 0 659 498092 -7005 0
0 0 0 664 498756 -6341 0
0 0 0 680 499436 -5661 0
0 0 0 716 500152 -4945 0
0 0 0 721 500873 -4224 0
0 0 0 706 501579 -3518 0
0 0 0 672 502251 -2846 0
0 0 0 676 502927 -2170 0
29 1 S112 678 503605 -1492 0
29 1 S112 682 504287 -810 0
29 1 S112 692 504979 -118 0
29 2 S112 678 505657 560 0
29 2 S112 676 506333 1236 0
29 2 S112 692 507025 1928 0
29 2 S112 713 507738 2641 0
29 2 S112 763 508501 3404 0
29 2 S112 792 509293 4196 0
29 2 S112 743 510036 4939 0
29 2 S112 687 510723 5626 0
29 2 S112 684 511407 6310 0
29 2 S112 678 512085 6988 0
0 0 0 683 512768 -7050 0
0 0 0 699 513467 -6351 0
0 0 0 665 514132 -5686 0
0 0 0 697 514829 -4989 0
0 0 0 701 515530 -4288 0
0 0 0 735 516265 -3553 0
0 0 0 751 517016 -2802 0
0 0 0 732 517748 -2070 0
30 1 S112 701 518449 -1369 0
30 1 S112 707 519156 -662 0
30 2 S112 716 519872 54 0
30 2 S112 712 520584 766 0
30 2 S112 700 521284 1466 0
30 2 S112 674 521958 2140 0
30 2 S112 648 522606 2788 0
30 2 S112 654 523260 3442 0
30 2 S112 665 523925 4107 0
30 2 S112 712 524637 4819 0
30 2 S112 783 525420 5602 0
30 2 S112 779 526199 6381 0
0 0 0 749 526948 -9764 0
0 0 0 701 527649 -9063 0
0 0 0 705 528354 -8358 0
0 0 0 705 529059 -7653 0
0 0 0 729 529788 -6924 0
0 0 0 722 530510 -6202 0
0 0 0 691 531201 -5511 0
0 0 0 648 531849 -4863 0
0 0 0 619 532468 -4244 0
0 0 0 607 533075 -3637 0
0 0 0 603 533678 -3034 0
0 0 0 618 534296 -2416 0
31 1 S106 694 534990 -1722 0
31 1 S106 749 535739 -973 0
31 1 S106 762 536501 -211 0
31 2 S106 764 537265 553 0
31 2 S106 768 538033 1321 0
31 2 S106 768 538801 2089 0
31 2 S106 759 539560 2848 0
31 2 S106 747 540307 3595 0
31 2 S106 742 541049 4337 0
31 2 S106 719 541768 5056 0
31 2 S106 712 542480 5768 0
31 2 S106 707 543187 6475 0
0 0 0 701 543888 -9468 0
0 0 0 701 544589 -8767 0
0 0 0 673 545262 -8094 0
0 0 0 646 545908 -7448 0
0 0 0 667 546575 -6781 0
0 0 0 668 547243 -6113 0
0 0 0 701 547944 -5412 0
0 0 0 689 548633 -4723 0
0 0 0 649 549282 -4074 0
0 0 0 630 549912 -3444 0
0 0 0 654 550566 -2790 0
0 0 0 715 551281 -2075 0
32 1 S102 697 551978 -1378 0
32 1 S102 731 552709 -647 0
32 2 S102 732 553441 85 0
32 2 S102 747 554188 832 0
32 2 S102 728 554916 1560 0
32 2 S102 711 555627 2271 0
32 2 S102 661 556288 2932 0
32 2 S102 646 556934 3578 0
32 2 S102 652 557586 4230 0
32 2 S102 668 558254 4898 0
32 2 S102 716 558970 5614 0
32 2 S102 740 559710 6354 0
0 0 0 757 560467 -11540 0
0 0 0 739 561206 -10801 0
0 0 0 690 561896 -10111 0
0 0 0 704 562600 -9407 0
0 0 0 714 563314 -8693 0
0 0 0 696 564010 -7997 0
0 0 0 659 564669 -7338 0
0 0 0 646 565315 -6692 0
0 0 0 657 565972 -6035 0
0 0 0 668 566640 -5367 0
0 0 0 684 567324 -4683 0
0 0 0 692 568016 -3991 0
0 0 0 681 568697 -3310 0
0 0 0 646 569343 -2664 0
0 0 0 631 569974 -2033 0
33 1 S112 651 570625 -1382 0
33 1 S112 670 571295 -712 0
33 2 S112 734 572029 22 0
33 2 S112 790 572819 812 0
33 2 S112 804 573623 1616 0
33 2 S112 796 574419 2412 0
33 2 S112 751 575170 3163 0
33 2 S112 725 575895 3888 0
33 2 S112 709 576604 4597 0
33 2 S112 698 577302 5295 0
33 2 S112 698 578000 5993 0
33 2 S112 692 578692 6685 0
0 0 0 659 579351 -11671 0
0 0 0 669 580020 -11002 0
0 0 0 666 580686 -10336 0
0 0 0 687 581373 -9649 0
0 0 0 702 582075 -8947 0
0 0 0 673 582748 -8274 0
0 0 0 679 583427 -7595 0
0 0 0 676 584103 -6919 0
0 0 0 678 584781 -6241 0
0 0 0 667 585448 -5574 0
0 0 0 636 586084 -4938 0
0 0 0 638 586722 -4300 0
0 0 0 639 587361 -3661 0
0 0 0 623 587984 -3038 0
0 0 0 629 588613 -2409 0
34 1 S106 628 589241 -1781 0
34 1 S106 642 589883 -1139 0
34 1 S106 654 590537 -485 0
34 2 S106 636 591173 151 0
34 2 S106 625 591798 776 0
34 2 S106 640 592438 1416 0
34 2 S106 666 593104 2082 0
34 2 S106 716 593820 2798 0
34 2 S106 745 594565 3543 0
34 2 S106 751 595316 4294 0
34 2 S106 735 596051 5029 0
34 2 S106 686 596737 5715 0
34 2 S106 684 597421 6399 0
0 0 0 679 598100 -9700 0
0 0 0 710 598810 -8990 0
0 0 0 725 599535 -8265 0
0 0 0 707 600242 -7558 0
0 0 0 698 600940 -6860 0
0 0 0 700 601640 -6160 0
0 0 0 711 602351 -5449 0
0 0 0 741 603092 -4708 0
0 0 0 698 603790 -4010 0
0 0 0 684 604474 -3326 0
0 0 0 693 605167 -2633 0
35 1 S102 717 605884 -1916 0
35 1 S102 732 606616 -1184 0
35 1 S102 726 607342 -458 0
35 2 S102 693 608035 235 0
35 2 S102 701 608736 936 0
35 2 S102 705 609441 1641 0
35 2 S102 715 610156 2356 0
35 2 S102 726 610882 3082 0
35 2 S102 715 611597 3797 0
35 2 S102 694 612291 4491 0
35 2 S102 668 612959 5159 0
35 2 S102 671 613630 5830 0
35 2 S102 680 614310 6510 0
0 0 0 727 615037 -7302 0
0 0 0 783 615820 -6519 0
0 0 0 774 616594 -5745 0
0 0 0 731 617325 -5014 0
0 0 0 736 618061 -4278 0
0 0 0 739 618800 -3539 0
0 0 0 753 619553 -2786 0
0 0 0 725 620278 -2061 0
36 1 S106 681 620959 -1380 0
36 1 S106 686 621645 -694 0
36 1 S106 687 622332 -7 0
36 2 S106 716 623048 709 0
36 2 S106 732 623780 1441 0
36 2 S106 747 624527 2188 0
36 2 S106 733 625260 2921 0
36 2 S106 684 625944 3605 0
36 2 S106 682 626626 4287 0
36 2 S106 681 627307 4968 0
36 2 S106 703 628010 5671 0
36 2 S106 727 628737 6398 0
0 0 0 750 629487 -8336 0
0 0 0 756 630243 -7580 0
0 0 0 723 630966 -6857 0
0 0 0 670 631636 -6187 0
0 0 0 677 632313 -5510 0
0 0 0 670 632983 -4840 0
0 0 0 694 633677 -4146 0
0 0 0 714 634391 -3432 0
0 0 0 720 635111 -2712 0
0 0 0 697 635808 -2015 0
37 1 S116 660 636468 -1355 0
37 1 S116 654 637122 -701 0
37 1 S116 658 637780 -43 0
37 2 S116 670 638450 627 0
37 2 S116 703 639153 1330 0
37 2 S116 743 639896 2073 0
37 2 S116 749 640645 2822 0
37 2 S116 732 641377 3554 0
37 2 S116 687 642064 4241 0
37 2 S116 701 642765 4942 0
37 2 S116 704 643469 5646 0
37 2 S116 709 644178 6355 0
0 0 0 730 644908 -12063 0
0 0 0 727 645635 -11336 0
0 0 0 685 646320 -10651 0
0 0 0 697 647017 -9954 0
0 0 0 700 647717 -9254 0
0 0 0 743 648460 -8511 0
0 0 0 725 649185 -7786 0
0 0 0 688 649873 -7098 0
0 0 0 682 650555 -6416 0
0 0 0 684 651239 -5732 0
0 0 0 695 651934 -5037 0
0 0 0 707 652641 -4330 0
0 0 0 701 653342 -3629 0
0 0 0 677 654019 -2952 0
0 0 0 654 654673 -2298 0
38 1 S102 665 655338 -1633 0
38 1 S102 661 655999 -972 0
38 1 S102 668 656667 -304 0
38 2 S102 672 657339 368 0
38 2 S102 657 657996 1025 0
38 2 S102 645 658641 1670 0
38 2 S102 659 659300 2329 0
38 2 S102 678 659978 3007 0
38 2 S102 700 660678 3707 0
38 2 S102 738 661416 4445 0
38 2 S102 728 662144 5173 0
38 2 S102 694 662838 5867 0
38 2 S102 703 663541 6570 0
0 0 0 704 664245 -9620 0
0 0 0 709 664954 -8911 0
0 0 0 721 665675 -8190 0
0 0 0 692 666367 -7498 0
0 0 0 707 667074 -6791 0
0 0 0 702 667776 -6089 0
0 0 0 707 668483 -5382 0
0 0 0 703 669186 -4679 0
0 0 0 661 669847 -4018 0
0 0 0 668 670515 -3350 0
0 0 0 658 671173 -2692 0
0 0 0 664 671837 -2028 0
39 1 S116 651 672488 -1377 0
39 1 S116 636 673124 -741 0
39 1 S116 661 673785 -80 0
39 2 S116 663 674448 583 0
39 2 S116 687 675135 1270 0
39 2 S116 705 675840 1975 0
39 2 S116 717 676557 2692 0
39 2 S116 707 677264 3399 0
39 2 S116 679 677943 4078 0
39 2 S116 672 678615 4750 0
39 2 S116 674 679289 5424 0
39 2 S116 688 679977 6112 0
39 2 S116 709 680686 6821 0
0 0 0 731 681417 -7252 0
0 0 0 713 682130 -6539 0
0 0 0 658 682788 -5881 0
0 0 0 635 683423 -5246 0
0 0 0 627 684050 -4619 0
0 0 0 644 684694 -3975 0
0 0 0 655 685349 -3320 0
0 0 0 626 685975 -2694 0
0 0 0 631 686606 -2063 0
40 1 S112 663 687269 -1400 0
40 1 S112 646 687915 -754 0
40 1 S112 648 688563 -106 0
40 2 S112 658 689221 552 0
40 2 S112 670 689891 1222 0
40 2 S112 701 690592 1923 0
40 2 S112 701 691293 2624 0
40 2 S112 689 691982 3313 0
40 2 S112 671 692653 3984 0
40 2 S112 640 693293 4624 0
40 2 S112 640 693933 5264 0
40 2 S112 630 694563 5894 0
40 2 S112 632 695195 6526 0
0 0 0 647 695842 -187706 0
0 0 0 675 696517 -187031 0
0 0 0 668 697185 -186363 0
0 0 0 677 697862 -185686 0
0 0 0 731 698593 -184955 0
0 0 0 801 699394 -184154 0
0 0 0 803 700197 -183351 0
0 0 0 696 700893 -182655 0
0 0 0 636 701529 -182019 0
0 0 0 615 702144 -181404 0
0 0 0 608 702752 -180796 0
0 0 0 625 703377 -180171 0
0 0 0 707 704084 -179464 0
0 0 0 753 704837 -178711 0
0 0 0 745 705582 -177966 0
0 0 0 742 706324 -177224 0
0 0 0 710 707034 -176514 0
0 0 0 684 707718 -175830 0
0 0 0 666 708384 -175164 0
0 0 0 649 709033 -174515 0
0 0 0 628 709661 -173887 0
0 0 0 633 710294 -173254 0
0 0 0 637 710931 -172617 0
0 0 0 652 711583 -171965 0
0 0 0 655 712238 -171310 0
0 0 0 642 712880 -170668 0
0 0 0 635 713515 -170033 0
0 0 0 649 714164 -169384 0
0 0 0 680 714844 -168704 0
0 0 0 709 715553 -167995 0
0 0 0 751 716304 -167244 0
0 0 0 728 717032 -166516 0
0 0 0 711 717743 -165805 0
0 0 0 690 718433 -165115 0
0 0 0 652 719085 -164463 0
0 0 0 639 719724 -163824 0
0 0 0 629 720353 -163195 0
0 0 0 620 720973 -162575 0
0 0 0 606 721579 -161969 0
0 0 0 603 722182 -161366 0
0 0 0 608 722790 -160758 0
0 0 0 613 723403 -160145 0
0 0 0 598 724001 -159547 0
0 0 0 595 724596 -158952 0
0 0 0 593 725189 -158359 0
0 0 0 594 725783 -157765 0
0 0 0 608 726391 -157157 0
0 0 0 643 727034 -156514 0
0 0 0 648 727682 -155866 0
0 0 0 613 728295 -155253 0
0 0 0 642 728937 -154611 0
0 0 0 660 729597 -153951 0
0 0 0 703 730300 -153248 0
0 0 0 683 730983 -152565 0
0 0 0 638 731621 -151927 0
0 0 0 643 732264 -151284 0
0 0 0 646 732910 -150638 0
0 0 0 682 733592 -149956 0
0 0 0 701 734293 -149255 0
0 0 0 690 734983 -148565 0
0 0 0 683 735666 -147882 0
0 0 0 653 736319 -147229 0
0 0 0 660 736979 -146569 0
0 0 0 653 737632 -145916 0
0 0 0 664 738296 -145252 0
0 0 0 676 738972 -144576 0
0 0 0 679 739651 -143897 0
0 0 0 662 740313 -143235 0
0 0 0 669 740982 -142566 0
0 0 0 683 741665 -141883 0
0 0 0 691 742356 -141192 0
0 0 0 701 743057 -140491 0
0 0 0 680 743737 -139811 0
0 0 0 664 744401 -139147 0
0 0 0 686 745087 -138461 0
0 0 0 681 745768 -137780 0
0 0 0 669 746437 -137111 0
0 0 0 640 747077 -136471 0
0 0 0 609 747686 -135862 0
0 0 0 606 748292 -135256 0
0 0 0 615 748907 -134641 0
0 0 0 644 749551 -133997 0
0 0 0 681 750232 -133316 0
0 0 0 712 750944 -132604 0
0 0 0 671 751615 -131933 0
0 0 0 647 752262 -131286 0
0 0 0 639 752901 -130647 0
0 0 0 634 753535 -130013 0
0 0 0 679 754214 -129334 0
0 0 0 722 754936 -128612 0
0 0 0 738 755674 -127874 0
0 0 0 734 756408 -127140 0
0 0 0 693 757101 -126447 0
0 0 0 663 757764 -125784 0
0 0 0 648 758412 -125136 0
0 0 0 641 759053 -124495 0
0 0 0 640 759693 -123855 0
0 0 0 647 760340 -123208 0
0 0 0 643 760983 -122565 0
0 0 0 632 761615 -121933 0
0 0 0 612 762227 -121321 0
0 0 0 598 762825 -120723 0
0 0 0 594 763419 -120129 0
0 0 0 607 764026 -119522 0
0 0 0 648 764674 -118874 0
0 0 0 665 765339 -118209 0
0 0 0 730 766069 -117479 0
0 0 0 804 766873 -116675 0
0 0 0 834 767707 -115841 1
0 0 0 876 768583 -114965 1
0 0 0 890 769473 -114075 1
0 0 0 814 770287 -113261 0
0 0 0 772 771059 -112489 0
0 0 0 754 771813 -111735 0
0 0 0 740 772553 -110995 0
0 0 0 739 773292 -110256 0
0 0 0 698 773990 -109558 0
0 0 0 677 774667 -108881 0
0 0 0 655 775322 -108226 0
0 0 0 651 775973 -107575 0
0 0 0 661 776634 -106914 0
0 0 0 670 777304 -106244 0
0 0 0 647 777951 -105597 0
0 0 0 661 778612 -104936 0
0 0 0 688 779300 -104248 0
0 0 0 751 780051 -103497 0
0 0 0 774 780825 -102723 0
0 0 0 753 781578 -101970 0
0 0 0 746 782324 -101224 0
0 0 0 724 783048 -100500 0
0 0 0 728 783776 -99772 0
0 0 0 717 784493 -99055 0
0 0 0 681 785174 -98374 0
0 0 0 652 785826 -97722 0
0 0 0 654 786480 -97068 0
0 0 0 636 787116 -96432 0
0 0 0 619 787735 -95813 0
0 0 0 602 788337 -95211 0
0 0 0 591 788928 -94620 0
0 0 0 588 789516 -94032 0
0 0 0 604 790120 -93428 0
0 0 0 611 790731 -92817 0
0 0 0 633 791364 -92184 0
0 0 0 647 792011 -91537 0
0 0 0 702 792713 -90835 0
0 0 0 752 793465 -90083 0
0 0 0 729 794194 -89354 0
0 0 0 716 794910 -88638 0
0 0 0 700 795610 -87938 0
0 0 0 707 796317 -87231 0
0 0 0 700 797017 -86531 0
0 0 0 655 797672 -85876 0
0 0 0 645 798317 -85231 0
0 0 0 639 798956 -84592 0
0 0 0 638 799594 -83954 0
0 0 0 628 800222 -83326 0
0 0 0 623 800845 -82703 0
0 0 0 626 801471 -82077 0
0 0 0 633 802104 -81444 0
0 0 0 664 802768 -80780 0
0 0 0 729 803497 -80051 0
0 0 0 738 804235 -79313 0
0 0 0 724 804959 -78589 0
0 0 0 719 805678 -77870 0
0 0 0 724 806402 -77146 0
0 0 0 762 807164 -76384 0
0 0 0 773 807937 -75611 0
0 0 0 762 808699 -74849 0
0 0 0 720 809419 -74129 0
0 0 0 696 810115 -73433 0
0 0 0 707 810822 -72726 0
0 0 0 729 811551 -71997 0
0 0 0 738 812289 -71259 0
0 0 0 742 813031 -70517 0
0 0 0 697 813728 -69820 0
0 0 0 687 814415 -69133 0
0 0 0 681 815096 -68452 0
0 0 0 693 815789 -67759 0
0 0 0 721 816510 -67038 0
0 0 0 718 817228 -66320 0
0 0 0 683 817911 -65637 0
0 0 0 641 818552 -64996 0
0 0 0 609 819161 -64387 0
0 0 0 609 819770 -63778 0
0 0 0 606 820376 -63172 0
0 0 0 623 820999 -62549 0
0 0 0 655 821654 -61894 0
0 0 0 649 822303 -61245 0
0 0 0 634 822937 -60611 0
0 0 0 657 823594 -59954 0
0 0 0 696 824290 -59258 0
0 0 0 711 825001 -58547 0
0 0 0 702 825703 -57845 0
0 0 0 690 826393 -57155 0
0 0 0 692 827085 -56463 0
0 0 0 706 827791 -55757 0
0 0 0 698 828489 -55059 0
0 0 0 671 829160 -54388 0
0 0 0 653 829813 -53735 0
0 0 0 648 830461 -53087 0
0 0 0 667 831128 -52420 0
0 0 0 675 831803 -51745 0
0 0 0 680 832483 -51065 0
0 0 0 685 833168 -50380 0
0 0 0 692 833860 -49688 0
0 0 0 681 834541 -49007 0
0 0 0 726 835267 -48281 0
0 0 0 757 836024 -47524 0
0 0 0 832 836856 -46692 0
0 0 0 827 837683 -45865 0
0 0 0 772 838455 -45093 0
0 0 0 733 839188 -44360 0
0 0 0 717 839905 -43643 0
0 0 0 723 840628 -42920 0
0 0 0 720 841348 -42200 0
0 0 0 691 842039 -41509 0
0 0 0 672 842711 -40837 0
0 0 0 688 843399 -40149 0
0 0 0 705 844104 -39444 0
0 0 0 753 844857 -38691 0
0 0 0 750 845607 -37941 0
0 0 0 715 846322 -37226 0
0 0 0 710 847032 -36516 0
0 0 0 722 847754 -35794 0
0 0 0 768 848522 -35026 0
0 0 0 772 849294 -34254 0
0 0 0 734 850028 -33520 0
0 0 0 713 850741 -32807 0
0 0 0 716 851457 -32091 0
0 0 0 721 852178 -31370 0
0 0 0 731 852909 -30639 0
0 0 0 723 853632 -29916 0
0 0 0 707 854339 -29209 0
0 0 0 725 855064 -28484 0
0 0 0 743 855807 -27741 0
0 0 0 764 856571 -26977 0
0 0 0 766 857337 -26211 0
0 0 0 720 858057 -25491 0
0 0 0 727 858784 -24764 0
0 0 0 722 859506 -24042 0
0 0 0 733 860239 -23309 0
0 0 0 740 860979 -22569 0
0 0 0 718 861697 -21851 0
0 0 0 710 862407 -21141 0
0 0 0 726 863133 -20415 0
0 0 0 729 863862 -19686 0
0 0 0 743 864605 -18943 0
0 0 0 738 865343 -18205 0
0 0 0 710 866053 -17495 0
0 0 0 718 866771 -16777 0
0 0 0 723 867494 -16054 0
0 0 0 735 868229 -15319 0
0 0 0 727 868956 -14592 0
0 0 0 704 869660 -13888 0
0 0 0 690 870350 -13198 0
0 0 0 715 871065 -12483 0
0 0 0 722 871787 -11761 0
0 0 0 743 872530 -11018 0
0 0 0 738 873268 -10280 0
0 0 0 700 873968 -9580 0
0 0 0 690 874658 -8890 0
0 0 0 682 875340 -8208 0
0 0 0 697 876037 -7511 0
0 0 0 709 876746 -6802 0
0 0 0 710 877456 -6092 0
0 0 0 695 878151 -5397 0
0 0 0 706 878857 -4691 0
0 0 0 727 879584 -3964 0
0 0 0 751 880335 -3213 0
0 0 0 740 881075 -2473 0
41 1 S102 703 881778 -1770 0
41 1 S102 747 882525 -1023 0
41 1 S102 760 883285 -263 0
41 2 S102 743 884028 480 0
41 2 S102 736 884764 1216 0
41 2 S102 699 885463 1915 0
41 2 S102 657 886120 2572 0
41 2 S102 643 886763 3215 0
41 2 S102 653 887416 3868 0
41 2 S102 676 888092 4544 0
41 2 S102 732 888824 5276 0
41 2 S102 756 889580 6032 0
41 2 S102 744 890324 6776 0
0 0 0 714 891038 -6320 0
0 0 0 718 891756 -5602 0
0 0 0 722 892478 -4880 0
0 0 0 727 893205 -4153 0
0 0 0 709 893914 -3444 0
0 0 0 684 894598 -2760 0
0 0 0 678 895276 -2082 0
42 1 S112 666 895942 -1416 0
42 1 S112 676 896618 -740 0
42 1 S112 690 897308 -50 0
42 2 S112 688 897996 638 0
42 2 S112 672 898668 1310 0
42 2 S112 671 899339 1981 0
42 2 S112 683 900022 2664 0
42 2 S112 685 900707 3349 0
42 2 S112 701 901408 4050 0
42 2 S112 708 902116 4758 0
42 2 S112 699 902815 5457 0
42 2 S112 680 903495 6137 0
42 2 S112 699 904194 6836 0
0 0 0 697 904891 -9327 0
0 0 0 724 905615 -8603 0
0 0 0 726 906341 -7877 0
0 0 0 705 907046 -7172 0
0 0 0 720 907766 -6452 0
0 0 0 704 908470 -5748 0
0 0 0 666 909136 -5082 0
0 0 0 636 909772 -4446 0
0 0 0 638 910410 -3808 0
0 0 0 643 911053 -3165 0
0 0 0 629 911682 -2536 0
43 1 S116 636 912318 -1900 0
43 1 S116 646 912964 -1254 0
43 1 S116 669 913633 -585 0
43 2 S116 684 914317 99 0
43 2 S116 659 914976 758 0
43 2 S116 639 915615 1397 0
43 2 S116 649 916264 2046 0
43 2 S116 653 916917 2699 0
43 2 S116 706 917623 3405 0
43 2 S116 746 918369 4151 0
43 2 S116 756 919125 4907 0
43 2 S116 743 919868 5650 0
43 2 S116 708 920576 6358 0
0 0 0 705 921281 -7775 0
0 0 0 710 921991 -7065 0
0 0 0 727 922718 -6338 0
0 0 0 718 923436 -5620 0
0 0 0 694 924130 -4926 0
0 0 0 697 924827 -4229 0
0 0 0 713 925540 -3516 0
0 0 0 766 926306 -2750 0
44 1 S102 784 927090 -1966 0
44 1 S102 733 927823 -1233 0
44 1 S102 713 928536 -520 0
44 2 S102 725 929261 205 0
44 2 S102 763 930024 968 0
44 2 S102 796 930820 1764 0
44 2 S102 769 931589 2533 0
44 2 S102 747 932336 3280 0
44 2 S102 708 933044 3988 0
44 2 S102 702 933746 4690 0
44 2 S102 700 934446 5390 0
44 2 S102 715 935161 6105 0
44 2 S102 736 935897 6841 0
0 0 0 730 936627 -8112 0
0 0 0 696 937323 -7416 0
0 0 0 705 938028 -6711 0
0 0 0 698 938726 -6013 0
0 0 0 713 939439 -5300 0
0 0 0 734 940173 -4566 0
0 0 0 721 940894 -3845 0
0 0 0 732 941626 -3113 0
0 0 0 754 942380 -2359 0
45 1 S116 800 943180 -1559 0
45 1 S116 810 943990 -749 0
45 2 S116 765 944755 16 0
45 2 S116 743 945498 759 0
45 2 S116 758 946256 1517 0
45 2 S116 787 947043 2304 0
45 2 S116 797 947840 3101 0
45 2 S116 763 948603 3864 0
45 2 S116 726 949329 4590 0
45 2 S116 690 950019 5280 0
45 2 S116 689 950708 5969 0
45 2 S116 701 951409 6670 0
0 0 0 734 952143 -10915 0
0 0 0 766 952909 -10149 0
0 0 0 752 953661 -9397 0
0 0 0 708 954369 -8689 0
0 0 0 713 955082 -7976 0
0 0 0 695 955777 -7281 0
0 0 0 690 956467 -6591 0
0 0 0 661 957128 -5930 0
0 0 0 649 957777 -5281 0
0 0 0 666 958443 -4615 0
0 0 0 685 959128 -3930 0
0 0 0 679 959807 -3251 0
0 0 0 700 960507 -2551 0
46 1 S102 706 961213 -1845 0
46 1 S102 739 961952 -1106 0
46 1 S102 733 962685 -373 0
46 2 S102 716 963401 343 0
46 2 S102 681 964082 1024 0
46 2 S102 684 964766 1708 0
46 2 S102 704 965470 2412 0
46 2 S102 739 966209 3151 0
46 2 S102 794 967003 3945 0
46 2 S102 813 967816 4758 0
46 2 S102 787 968603 5545 0
46 2 S102 731 969334 6276 0
46 2 S102 736 970070 7012 0
0 0 0 747 970817 -9035 0
0 0 0 746 971563 -8289 0
0 0 0 757 972320 -7532 0
0 0 0 720 973040 -6812 0
0 0 0 702 973742 -6110 0
0 0 0 700 974442 -5410 0
0 0 0 709 975151 -4701 0
0 0 0 726 975877 -3975 0
0 0 0 702 976579 -3273 0
0 0 0 686 977265 -2587 0
47 1 S112 705 977970 -1882 0
47 1 S112 715 978685 -1167 0
47 1 S112 736 979421 -431 0
47 2 S112 735 980156 304 0
47 2 S112 709 980865 1013 0
47 2 S112 732 981597 1745 0
47 2 S112 718 982315 2463 0
47 2 S112 743 983058 3206 0
47 2 S112 765 983823 3971 0
47 2 S112 719 984542 4690 0
47 2 S112 705 985247 5395 0
47 2 S112 698 985945 6093 0
47 2 S112 684 986629 6777 0
0 0 0 699 987328 -11805 0
0 0 0 685 988013 -11120 0
0 0 0 651 988664 -10469 0
0 0 0 653 989317 -9816 0
0 0 0 665 989982 -9151 0
0 0 0 676 990658 -8475 0
0 0 0 666 991324 -7809 0
0 0 0 635 991959 -7174 0
0 0 0 639 992598 -6535 0
0 0 0 634 993232 -5901 0
0 0 0 642 993874 -5259 0
0 0 0 656 994530 -4603 0
0 0 0 666 995196 -3937 0
0 0 0 649 995845 -3288 0
0 0 0 648 996493 -2640 0
48 1 S116 666 997159 -1974 0
48 1 S116 698 997857 -1276 0
48 1 S116 750 998607 -526 0
48 2 S116 781 999388 255 0
48 2 S116 769 1000157 1024 0
48 2 S116 750 1000907 1774 0
48 2 S116 766 1001673 2540 0
48 2 S116 785 1002458 3325 0
48 2 S116 826 1003284 4151 0
48 2 S116 830 1004114 4981 0
48 2 S116 810 1004924 5791 0
48 2 S116 781 1005705 6572 0
0 0 0 743 1006448 -8036 0
0 0 0 747 1007195 -7289 0
0 0 0 718 1007913 -6571 0
0 0 0 712 1008625 -5859 0
0 0 0 695 1009320 -5164 0
0 0 0 696 1010016 -4468 0
0 0 0 696 1010712 -3772 0
0 0 0 734 1011446 -3038 0
0 0 0 754 1012200 -2284 0
49 1 S112 729 1012929 -1555 0
49 1 S112 700 1013629 -855 0
49 1 S112 715 1014344 -140 0
49 2 S112 719 1015063 579 0
49 2 S112 779 1015842 1358 0
49 2 S112 783 1016625 2141 0
49 2 S112 774 1017399 2915 0
49 2 S112 731 1018130 3646 0
49 2 S112 696 1018826 4342 0
49 2 S112 705 1019531 5047 0
49 2 S112 718 1020249 5765 0
49 2 S112 743 1020992 6508 0
0 0 0 730 1021722 -12242 0
0 0 0 691 1022413 -11551 0
0 0 0 685 1023098 -10866 0
0 0 0 674 1023772 -10192 0
0 0 0 676 1024448 -9516 0
0 0 0 647 1025095 -8869 0
0 0 0 645 1025740 -8224 0
0 0 0 657 1026397 -7567 0
0 0 0 652 1027049 -6915 0
0 0 0 665 1027714 -6250 0
0 0 0 694 1028408 -5556 0
0 0 0 753 1029161 -4803 0
0 0 0 771 1029932 -4032 0
0 0 0 738 1030670 -3294 0
0 0 0 724 1031394 -2570 0
50 1 S106 722 1032116 -1848 0
50 1 S106 748 1032864 -1100 0
50 1 S106 738 1033602 -362 0
50 2 S106 709 1034311 347 0
50 2 S106 682 1034993 1029 0
50 2 S106 704 1035697 1733 0
50 2 S106 733 1036430 2466 0
50 2 S106 775 1037205 3241 0
50 2 S106 804 1038009 4045 0
50 2 S106 792 1038801 4837 0
50 2 S106 753 1039554 5590 0
50 2 S106 739 1040293 6329 0
0 0 0 765 1041058 -7246 0
0 0 0 789 1041847 -6457 0
0 0 0 788 1042635 -5669 0
0 0 0 786 1043421 -4883 0
0 0 0 718 1044139 -4165 0
0 0 0 659 1044798 -3506 0
0 0 0 635 1045433 -2871 0
0 0 0 642 1046075 -2229 0
51 1 S112 639 1046714 -1590 0
51 1 S112 738 1047452 -852 0
51 1 S112 846 1048298 -6 1
51 2 S112 840 1049138 834 1
51 2 S112 858 1049996 1692 1
51 2 S112 863 1050859 2555 1
51 2 S112 854 1051713 3409 1
51 2 S112 835 1052548 4244 1
51 2 S112 834 1053382 5078 1
51 2 S112 839 1054221 5917 1
51 2 S112 809 1055030 6726 0
0 0 0 805 1055835 -7738 0
0 0 0 792 1056627 -6946 0
0 0 0 780 1057407 -6166 0
0 0 0 770 1058177 -5396 0
0 0 0 790 1058967 -4606 0
0 0 0 752 1059719 -3854 0
0 0 0 700 1060419 -3154 0
0 0 0 732 1061151 -2422 0
52 1 S116 739 1061890 -1683 0
52 1 S116 803 1062693 -880 0
52 1 S116 815 1063508 -65 0
52 2 S116 777 1064285 712 0
52 2 S116 791 1065076 1503 0
52 2 S116 829 1065905 2332 0
52 2 S116 838 1066743 3170 1
52 2 S116 826 1067569 3996 0
52 2 S116 794 1068363 4790 0
52 2 S116 742 1069105 5532 0
52 2 S116 694 1069799 6226 0
52 2 S116 691 1070490 6917 0
0 0 0 697 1071187 -8434 0
0 0 0 742 1071929 -7692 0
0 0 0 752 1072681 -6940 0
0 0 0 713 1073394 -6227 0
0 0 0 734 1074128 -5493 0
0 0 0 725 1074853 -4768 0
0 0 0 731 1075584 -4037 0
0 0 0 679 1076263 -3358 0
0 0 0 663 1076926 -2695 0
0 0 0 674 1077600 -2021 0
53 1 S106 669 1078269 -1352 0
53 1 S106 691 1078960 -661 0
53 2 S106 692 1079652 31 0
53 2 S106 706 1080358 737 0
53 2 S106 720 1081078 1457 0
53 2 S106 728 1081806 2185 0
53 2 S106 694 1082500 2879 0
53 2 S106 669 1083169 3548 0
53 2 S106 670 1083839 4218 0
53 2 S106 667 1084506 4885 0
53 2 S106 725 1085231 5610 0
53 2 S106 792 1086023 6402 0
0 0 0 809 1086832 -7643 0
0 0 0 771 1087603 -6872 0
0 0 0 738 1088341 -6134 0
0 0 0 741 1089082 -5393 0
0 0 0 768 1089850 -4625 0
0 0 0 749 1090599 -3876 0
0 0 0 698 1091297 -3178 0
0 0 0 667 1091964 -2511 0
54 1 S102 678 1092642 -1833 0
54 1 S102 679 1093321 -1154 0
54 1 S102 704 1094025 -450 0
54 2 S102 732 1094757 282 0
54 2 S102 717 1095474 999 0
54 2 S102 702 1096176 1701 0
54 2 S102 714 1096890 2415 0
54 2 S102 740 1097630 3155 0
54 2 S102 759 1098389 3914 0
54 2 S102 752 1099141 4666 0
54 2 S102 713 1099854 5379 0
54 2 S102 700 1100554 6079 0
54 2 S102 698 1101252 6777 0
0 0 0 706 1101958 -11085 0
0 0 0 731 1102689 -10354 0
0 0 0 704 1103393 -9650 0
0 0 0 717 1104110 -8933 0
0 0 0 707 1104817 -8226 0
0 0 0 712 1105529 -7514 0
0 0 0 699 1106228 -6815 0
0 0 0 671 1106899 -6144 0
0 0 0 677 1107576 -5467 0
0 0 0 683 1108259 -4784 0
0 0 0 734 1108993 -4050 0
0 0 0 760 1109753 -3290 0
0 0 0 727 1110480 -2563 0
55 1 S106 714 1111194 -1849 0
55 1 S106 709 1111903 -1140 0
55 1 S106 716 1112619 -424 0
55 2 S106 728 1113347 304 0
55 2 S106 729 1114076 1033 0
55 2 S106 718 1114794 1751 0
55 2 S106 682 1115476 2433 0
55 2 S106 657 1116133 3090 0
55 2 S106 667 1116800 3757 0
55 2 S106 671 1117471 4428 0
55 2 S106 698 1118169 5126 0
55 2 S106 712 1118881 5838 0
55 2 S106 718 1119599 6556 0
0 0 0 707 1120306 -6762 0
0 0 0 712 1121018 -6050 0
0 0 0 700 1121718 -5350 0
0 0 0 705 1122423 -4645 0
0 0 0 695 1123118 -3950 0
0 0 0 668 1123786 -3282 0
0 0 0 653 1124439 -2629 0
56 1 S116 671 1125110 -1958 0
56 1 S116 694 1125804 -1264 0
56 1 S116 727 1126531 -537 0
56 2 S116 757 1127288 220 0
56 2 S116 741 1128029 961 0
56 2 S116 738 1128767 1699 0
56 2 S116 748 1129515 2447 0
56 2 S116 755 1130270 3202 0
56 2 S116 742 1131012 3944 0
56 2 S116 711 1131723 4655 0
56 2 S116 709 1132432 5364 0
56 2 S116 709 1133141 6073 0
56 2 S116 689 1133830 6762 0
0 0 0 663 1134493 -7280 0
0 0 0 674 1135167 -6606 0
0 0 0 669 1135836 -5937 0
0 0 0 700 1136536 -5237 0
0 0 0 737 1137273 -4500 0
0 0 0 697 1137970 -3803 0
0 0 0 718 1138688 -3085 0
0 0 0 729 1139417 -2356 0
57 1 S106 767 1140184 -1589 0
57 1 S106 759 1140943 -830 0
57 1 S106 705 1141648 -125 0
57 2 S106 716 1142364 591 0
57 2 S106 716 1143080 1307 0
57 2 S106 722 1143802 2029 0
57 2 S106 712 1144514 2741 0
57 2 S106 704 1145218 3445 0
57 2 S106 682 1145900 4127 0
57 2 S106 677 1146577 4804 0
57 2 S106 685 1147262 5489 0
57 2 S106 714 1147976 6203 0
57 2 S106 738 1148714 6941 0
0 0 0 759 1149473 -8746 0
0 0 0 723 1150196 -8023 0
0 0 0 702 1150898 -7321 0
0 0 0 713 1151611 -6608 0
0 0 0 693 1152304 -5915 0
0 0 0 682 1152986 -5233 0
0 0 0 651 1153637 -4582 0
0 0 0 630 1154267 -3952 0
0 0 0 624 1154891 -3328 0
0 0 0 644 1155535 -2684 0
0 0 0 646 1156181 -2038 0
58 1 S102 673 1156854 -1365 0
58 1 S102 706 1157560 -659 0
58 2 S102 765 1158325 106 0
58 2 S102 777 1159102 883 0
58 2 S102 779 1159881 1662 0
58 2 S102 729 1160610 2391 0
58 2 S102 676 1161286 3067 0
58 2 S102 682 1161968 3749 0
58 2 S102 684 1162652 4433 0
58 2 S102 711 1163363 5144 0
58 2 S102 735 1164098 5879 0
58 2 S102 731 1164829 6610 0
0 0 0 694 1165523 -6539 0
0 0 0 703 1166226 -5836 0
0 0 0 718 1166944 -5118 0
0 0 0 766 1167710 -4352 0
0 0 0 756 1168466 -3596 0
0 0 0 711 1169177 -2885 0
0 0 0 693 1169870 -2192 0
59 1 S112 709 1170579 -1483 0
59 1 S112 745 1171324 -738 0
59 2 S112 801 1172125 63 0
59 2 S112 792 1172917 855 0
59 2 S112 756 1173673 1611 0
59 2 S112 721 1174394 2332 0
59 2 S112 727 1175121 3059 0
59 2 S112 734 1175855 3793 0
59 2 S112 744 1176599 4537 0
59 2 S112 754 1177353 5291 0
59 2 S112 724 1178077 6015 0
59 2 S112 687 1178764 6702 0
0 0 0 693 1179457 -7940 0
0 0 0 711 1180168 -7229 0
0 0 0 774 1180942 -6455 0
0 0 0 795 1181737 -5660 0
0 0 0 776 1182513 -4884 0
0 0 0 727 1183240 -4157 0
0 0 0 730 1183970 -3427 0
0 0 0 739 1184709 -2688 0
60 1 S102 767 1185476 -1921 0
60 1 S102 786 1186262 -1135 0
60 1 S102 768 1187030 -367 0
60 2 S102 731 1187761 364 0
60 2 S102 699 1188460 1063 0
60 2 S102 707 1189167 1770 0
60 2 S102 719 1189886 2489 0
60 2 S102 748 1190634 3237 0
60 2 S102 766 1191400 4003 0
60 2 S102 762 1192162 4765 0
60 2 S102 733 1192895 5498 0
60 2 S102 735 1193630 6233 0
60 2 S102 740 1194370 6973 0
0 0 0 775 1195145 -10124 0
0 0 0 774 1195919 -9350 0
0 0 0 761 1196680 -8589 0
0 0 0 694 1197374 -7895 0
0 0 0 687 1198061 -7208 0
0 0 0 686 1198747 -6522 0
0 0 0 690 1199437 -5832 0
0 0 0 697 1200134 -5135 0
0 0 0 683 1200817 -4452 0
0 0 0 676 1201493 -3776 0
0 0 0 713 1202206 -3063 0
0 0 0 738 1202944 -2325 0
61 1 S106 763 1203707 -1562 0
61 1 S106 776 1204483 -786 0
61 1 S106 724 1205207 -62 0
61 2 S106 699 1205906 637 0
61 2 S106 702 1206608 1339 0
61 2 S106 727 1207335 2066 0
61 2 S106 726 1208061 2792 0
61 2 S106 721 1208782 3513 0
61 2 S106 682 1209464 4195 0
61 2 S106 654 1210118 4849 0
61 2 S106 660 1210778 5509 0
61 2 S106 664 1211442 6173 0
61 2 S106 669 1212111 6842 0
0 0 0 681 1212792 -6519 0
0 0 0 682 1213474 -5837 0
0 0 0 665 1214139 -5172 0
0 0 0 671 1214810 -4501 0
0 0 0 677 1215487 -3824 0
0 0 0 704 1216191 -3120 0
0 0 0 714 1216905 -2406 0
62 1 S112 670 1217575 -1736 0
62 1 S112 675 1218250 -1061 0
62 1 S112 662 1218912 -399 0
62 2 S112 662 1219574 263 0
62 2 S112 677 1220251 940 0
62 2 S112 691 1220942 1631 0
62 2 S112 690 1221632 2321 0
62 2 S112 684 1222316 3005 0
62 2 S112 686 1223002 3691 0
62 2 S112 691 1223693 4382 0
62 2 S112 704 1224397 5086 0
62 2 S112 711 1225108 5797 0
62 2 S112 700 1225808 6497 0
0 0 0 677 1226485 -10714 0
0 0 0 660 1227145 -10054 0
0 0 0 667 1227812 -9387 0
0 0 0 711 1228523 -8676 0
0 0 0 740 1229263 -7936 0
0 0 0 739 1230002 -7197 0
0 0 0 701 1230703 -6496 0
0 0 0 667 1231370 -5829 0
0 0 0 662 1232032 -5167 0
0 0 0 675 1232707 -4492 0
0 0 0 749 1233456 -3743 0
0 0 0 801 1234257 -2942 0
0 0 0 790 1235047 -2152 0
63 1 S102 774 1235821 -1378 0
63 1 S102 744 1236565 -634 0
63 2 S102 730 1237295 96 0
63 2 S102 692 1237987 788 0
63 2 S102 684 1238671 1472 0
63 2 S102 683 1239354 2155 0
63 2 S102 696 1240050 2851 0
63 2 S102 726 1240776 3577 0
63 2 S102 736 1241512 4313 0
63 2 S102 748 1242260 5061 0
63 2 S102 729 1242989 5790 0
63 2 S102 705 1243694 6495 0
0 0 0 719 1244413 -8469 0
0 0 0 723 1245136 -7746 0
0 0 0 767 1245903 -6979 0
0 0 0 747 1246650 -6232 0
0 0 0 716 1247366 -5516 0
0 0 0 729 1248095 -4787 0
0 0 0 752 1248847 -4035 0
0 0 0 768 1249615 -3267 0
0 0 0 761 1250376 -2506 0
64 1 S112 741 1251117 -1765 0
64 1 S112 702 1251819 -1063 0
64 1 S112 707 1252526 -356 0
64 2 S112 711 1253237 355 0
64 2 S112 729 1253966 1084 0
64 2 S112 735 1254701 1819 0
64 2 S112 720 1255421 2539 0
64 2 S112 688 1256109 3227 0
64 2 S112 668 1256777 3895 0
64 2 S112 681 1257458 4576 0
64 2 S112 718 1258176 5294 0
64 2 S112 777 1258953 6071 0
64 2 S112 784 1259737 6855 0
0 0 0 763 1260500 -6208 0
0 0 0 725 1261225 -5483 0
0 0 0 758 1261983 -4725 0
0 0 0 748 1262731 -3977 0
0 0 0 765 1263496 -3212 0
0 0 0 743 1264239 -2469 0
65 1 S106 683 1264922 -1786 0
65 1 S106 690 1265612 -1096 0
65 1 S106 691 1266303 -405 0
65 2 S106 727 1267030 322 0
65 2 S106 770 1267800 1092 0
65 2 S106 782 1268582 1874 0
65 2 S106 738 1269320 2612 0
65 2 S106 710 1270030 3322 0
65 2 S106 722 1270752 4044 0
65 2 S106 722 1271474 4766 0
65 2 S106 772 1272246 5538 0
65 2 S106 763 1273009 6301 0
65 2 S106 726 1273735 7027 0
0 0 0 711 1274446 -6205 0
0 0 0 720 1275166 -5485 0
0 0 0 730 1275896 -4755 0
0 0 0 734 1276630 -4021 0
0 0 0 746 1277376 -3275 0
0 0 0 736 1278112 -2539 0
66 1 S116 740 1278852 -1799 0
66 1 S116 747 1279599 -1052 0
66 1 S116 774 1280373 -278 0
66 2 S116 780 1281153 502 0
66 2 S116 802 1281955 1304 0
66 2 S116 804 1282759 2108 0
66 2 S116 762 1283521 2870 0
66 2 S116 776 1284297 3646 0
66 2 S116 787 1285084 4433 0
66 2 S116 790 1285874 5223 0
66 2 S116 792 1286666 6015 0
66 2 S116 771 1287437 6786 0
0 0 0 742 1288179 -10957 0
0 0 0 767 1288946 -10190 0
0 0 0 742 1289688 -9448 0
0 0 0 705 1290393 -8743 0
0 0 0 663 1291056 -8080 0
0 0 0 660 1291716 -7420 0
0 0 0 676 1292392 -6744 0
0 0 0 656 1293048 -6088 0
0 0 0 663 1293711 -5425 0
0 0 0 665 1294376 -4760 0
0 0 0 689 1295065 -4071 0
0 0 0 727 1295792 -3344 0
0 0 0 738 1296530 -2606 0
67 1 S102 710 1297240 -1896 0
67 1 S102 679 1297919 -1217 0
67 1 S102 691 1298610 -526 0
67 2 S102 705 1299315 179 0
67 2 S102 744 1300059 923 0
67 2 S102 755 1300814 1678 0
67 2 S102 721 1301535 2399 0
67 2 S102 694 1302229 3093 0
67 2 S102 705 1302934 3798 0
67 2 S102 729 1303663 4527 0
67 2 S102 778 1304441 5305 0
67 2 S102 814 1305255 6119 0
67 2 S102 802 1306057 6921 0
0 0 0 764 1306821 -7102 0
0 0 0 760 1307581 -6342 0
0 0 0 759 1308340 -5583 0
0 0 0 784 1309124 -4799 0
0 0 0 735 1309859 -4064 0
0 0 0 698 1310557 -3366 0
0 0 0 708 1311265 -2658 0
68 1 S106 718 1311983 -1940 0
68 1 S106 738 1312721 -1202 0
68 1 S106 737 1313458 -465 0
68 2 S106 713 1314171 248 0
68 2 S106 732 1314903 980 0
68 2 S106 738 1315641 1718 0
68 2 S106 761 1316402 2479 0
68 2 S106 755 1317157 3234 0
68 2 S106 737 1317894 3971 0
68 2 S106 711 1318605 4682 0
68 2 S106 699 1319304 5381 0
68 2 S106 718 1320022 6099 0
68 2 S106 740 1320762 6839 0
0 0 0 774 1321536 -11171 0
0 0 0 782 1322318 -10389 0
0 0 0 729 1323047 -9660 0
0 0 0 730 1323777 -8930 0
0 0 0 710 1324487 -8220 0
0 0 0 705 1325192 -7515 0
0 0 0 712 1325904 -6803 0
0 0 0 701 1326605 -6102 0
0 0 0 670 1327275 -5432 0
0 0 0 653 1327928 -4779 0
0 0 0 678 1328606 -4101 0
0 0 0 721 1329327 -3380 0
0 0 0 793 1330120 -2587 0
69 1 S102 800 1330920 -1787 0
69 1 S102 777 1331697 -1010 0
69 1 S102 729 1332426 -281 0
69 2 S102 706 1333132 425 0
69 2 S102 703 1333835 1128 0
69 2 S102 698 1334533 1826 0
69 2 S102 689 1335222 2515 0
69 2 S102 682 1335904 3197 0
69 2 S102 676 1336580 3873 0
69 2 S102 655 1337235 4528 0
69 2 S102 652 1337887 5180 0
69 2 S102 657 1338544 5837 0
69 2 S102 676 1339220 6513 0
0 0 0 709 1339929 -8560 0
0 0 0 731 1340660 -7829 0
0 0 0 711 1341371 -7118 0
0 0 0 655 1342026 -6463 0
0 0 0 623 1342649 -5840 0
0 0 0 613 1343262 -5227 0
0 0 0 618 1343880 -4609 0
0 0 0 661 1344541 -3948 0
0 0 0 823 1345364 -3125 0
0 0 0 818 1346182 -2307 0
70 1 S112 802 1346984 -1505 0
70 1 S112 779 1347763 -726 0
70 2 S112 751 1348514 25 0
70 2 S112 725 1349239 750 0
70 2 S112 733 1349972 1483 0
70 2 S112 725 1350697 2208 0
70 2 S112 713 1351410 2921 0
70 2 S112 714 1352124 3635 0
70 2 S112 693 1352817 4328 0
70 2 S112 703 1353520 5031 0
70 2 S112 707 1354227 5738 0
70 2 S112 723 1354950 6461 0
0 0 0 744 1355694 -11280 0
0 0 0 767 1356461 -10513 0
0 0 0 740 1357201 -9773 0
0 0 0 716 1357917 -9057 0
0 0 0 733 1358650 -8324 0
0 0 0 713 1359363 -7611 0
0 0 0 679 1360042 -6932 0
0 0 0 658 1360700 -6274 0
0 0 0 683 1361383 -5591 0
0 0 0 709 1362092 -4882 0
0 0 0 689 1362781 -4193 0
0 0 0 704 1363485 -3489 0
0 0 0 711 1364196 -2778 0
0 0 0 729 1364925 -2049 0
71 1 S116 735 1365660 -1314 0
71 1 S116 715 1366375 -599 0
71 2 S116 694 1367069 95 0
71 2 S116 724 1367793 819 0
71 2 S116 771 1368564 1590 0
71 2 S116 816 1369380 2406 0
71 2 S116 821 1370201 3227 0
71 2 S116 815 1371016 4042 0
71 2 S116 774 1371790 4816 0
71 2 S116 771 1372561 5587 0
71 2 S116 801 1373362 6388 0
0 0 0 840 1374202 -10246 1
0 0 0 818 1375020 -9428 0
0 0 0 745 1375765 -8683 0
0 0 0 749 1376514 -7934 0
0 0 0 786 1377300 -7148 0
0 0 0 791 1378091 -6357 0
0 0 0 777 1378868 -5580 0
0 0 0 723 1379591 -4857 0
0 0 0 734 1380325 -4123 0
0 0 0 722 1381047 -3401 0
0 0 0 727 1381774 -2674 0
72 1 S102 739 1382513 -1935 0
72 1 S102 726 1383239 -1209 0
72 1 S102 744 1383983 -465 0
72 2 S102 746 1384729 281 0
72 2 S102 791 1385520 1072 0
72 2 S102 806 1386326 1878 0
72 2 S102 788 1387114 2666 0
72 2 S102 736 1387850 3402 0
72 2 S102 697 1388547 4099 0
72 2 S102 703 1389250 4802 0
72 2 S102 714 1389964 5516 0
72 2 S102 759 1390723 6275 0
0 0 0 820 1391543 -6532 0
0 0 0 816 1392359 -5716 0
0 0 0 761 1393120 -4955 0
0 0 0 724 1393844 -4231 0
0 0 0 727 1394571 -3504 0
0 0 0 733 1395304 -2771 0
0 0 0 751 1396055 -2020 0
73 1 S116 738 1396793 -1282 0
73 1 S116 715 1397508 -567 0
73 2 S116 731 1398239 164 0
73 2 S116 742 1398981 906 0
73 2 S116 809 1399790 1715 0
73 2 S116 814 1400604 2529 0
73 2 S116 810 1401414 3339 0
73 2 S116 783 1402197 4122 0
73 2 S116 789 1402986 4911 0
73 2 S116 792 1403778 5703 0
73 2 S116 790 1404568 6493 0
0 0 0 802 1405370 -9367 0
0 0 0 788 1406158 -8579 0
0 0 0 728 1406886 -7851 0
0 0 0 744 1407630 -7107 0
0 0 0 756 1408386 -6351 0
0 0 0 768 1409154 -5583 0
0 0 0 748 1409902 -4835 0
0 0 0 720 1410622 -4115 0
0 0 0 750 1411372 -3365 0
0 0 0 777 1412149 -2588 0
74 1 S106 800 1412949 -1788 0
74 1 S106 768 1413717 -1020 0
74 1 S106 729 1414446 -291 0
74 2 S106 752 1415198 461 0
74 2 S106 768 1415966 1229 0
74 2 S106 783 1416749 2012 0
74 2 S106 785 1417534 2797 0
74 2 S106 749 1418283 3546 0
74 2 S106 712 1418995 4258 0
74 2 S106 733 1419728 4991 0
74 2 S106 740 1420468 5731 0
74 2 S106 762 1421230 6493 0
0 0 0 788 1422018 -6131 0
0 0 0 786 1422804 -5345 0
0 0 0 745 1423549 -4600 0
0 0 0 725 1424274 -3875 0
0 0 0 709 1424983 -3166 0
0 0 0 726 1425709 -2440 0
75 1 S112 729 1426438 -1711 0
75 1 S112 744 1427182 -967 0
75 1 S112 713 1427895 -254 0
75 2 S112 686 1428581 432 0
75 2 S112 715 1429296 1147 0
75 2 S112 758 1430054 1905 0
75 2 S112 813 1430867 2718 0
75 2 S112 816 1431683 3534 0
75 2 S112 789 1432472 4323 0
75 2 S112 749 1433221 5072 0
75 2 S112 763 1433984 5835 0
75 2 S112 774 1434758 6609 0
0 0 0 767 1435525 -6350 0
0 0 0 740 1436265 -5610 0
0 0 0 706 1436971 -4904 0
0 0 0 710 1437681 -4194 0
0 0 0 712 1438393 -3482 0
0 0 0 742 1439135 -2740 0
76 1 S116 757 1439892 -1983 0
76 1 S116 733 1440625 -1250 0
76 1 S116 754 1441379 -496 0
76 2 S116 779 1442158 283 0
76 2 S116 807 1442965 1090 0
76 2 S116 812 1443777 1902 0
76 2 S116 788 1444565 2690 0
76 2 S116 751 1445316 3441 0
76 2 S116 727 1446043 4168 0
76 2 S116 737 1446780 4905 0
76 2 S116 765 1447545 5670 0
76 2 S116 791 1448336 6461 0
0 0 0 798 1449134 -7480 0
0 0 0 777 1449911 -6703 0
0 0 0 726 1450637 -5977 0
0 0 0 749 1451386 -5228 0
0 0 0 772 1452158 -4456 0
0 0 0 758 1452916 -3698 0
0 0 0 722 1453638 -2976 0
0 0 0 686 1454324 -2290 0
77 1 S106 704 1455028 -1586 0
77 1 S106 709 1455737 -877 0
77 1 S106 740 1456477 -137 0
77 2 S106 735 1457212 598 0
77 2 S106 725 1457937 1323 0
77 2 S106 729 1458666 2052 0
77 2 S106 695 1459361 2747 0
77 2 S106 685 1460046 3432 0
77 2 S106 695 1460741 4127 0
77 2 S106 715 1461456 4842 0
77 2 S106 790 1462246 5632 0
77 2 S106 794 1463040 6426 0
0 0 0 781 1463821 -8592 0
0 0 0 746 1464567 -7846 0
0 0 0 763 1465330 -7083 0
0 0 0 755 1466085 -6328 0
0 0 0 736 1466821 -5592 0
0 0 0 708 1467529 -4884 0
0 0 0 680 1468209 -4204 0
0 0 0 694 1468903 -3510 0
0 0 0 696 1469599 -2814 0
0 0 0 710 1470309 -2104 0
78 1 S112 741 1471050 -1363 0
78 1 S112 710 1471760 -653 0
78 2 S112 683 1472443 30 0
78 2 S112 690 1473133 720 0
78 2 S112 698 1473831 1418 0
78 2 S112 721 1474552 2139 0
78 2 S112 752 1475304 2891 0
78 2 S112 733 1476037 3624 0
78 2 S112 706 1476743 4330 0
78 2 S112 726 1477469 5056 0
78 2 S112 724 1478193 5780 0
78 2 S112 751 1478944 6531 0
0 0 0 757 1479701 -11578 0
0 0 0 735 1480436 -10843 0
0 0 0 686 1481122 -10157 0
0 0 0 699 1481821 -9458 0
0 0 0 698 1482519 -8760 0
0 0 0 689 1483208 -8071 0
0 0 0 693 1483901 -7378 0
0 0 0 677 1484578 -6701 0
0 0 0 669 1485247 -6032 0
0 0 0 698 1485945 -5334 0
0 0 0 704 1486649 -4630 0
0 0 0 733 1487382 -3897 0
0 0 0 749 1488131 -3148 0
0 0 0 722 1488853 -2426 0
79 1 S102 699 1489552 -1727 0
79 1 S102 713 1490265 -1014 0
79 1 S102 732 1490997 -282 0
79 2 S102 769 1491766 487 0
79 2 S102 782 1492548 1269 0
79 2 S102 753 1493301 2022 0
79 2 S102 711 1494012 2733 0
79 2 S102 699 1494711 3432 0
79 2 S102 711 1495422 4143 0
79 2 S102 721 1496143 4864 0
79 2 S102 754 1496897 5618 0
79 2 S102 749 1497646 6367 0
0 0 0 709 1498355 -8508 0
0 0 0 695 1499050 -7813 0
0 0 0 710 1499760 -7103 0
0 0 0 706 1500466 -6397 0
0 0 0 677 1501143 -5720 0
0 0 0 647 1501790 -5073 0
0 0 0 621 1502411 -4452 0
0 0 0 614 1503025 -3838 0
0 0 0 634 1503659 -3204 0
0 0 0 658 1504317 -2546 0
80 1 S116 723 1505040 -1823 0
80 1 S116 748 1505788 -1075 0
80 1 S116 717 1506505 -358 0
80 2 S116 720 1507225 362 0
80 2 S116 729 1507954 1091 0
80 2 S116 767 1508721 1858 0
80 2 S116 796 1509517 2654 0
80 2 S116 762 1510279 3416 0
80 2 S116 737 1511016 4153 0
80 2 S116 692 1511708 4845 0
80 2 S116 697 1512405 5542 0
80 2 S116 710 1513115 6252 0
80 2 S116 736 1513851 6988 0
