T_0021
BeatCount Mean SD BeatCountNoOutliers MeanNoOutliers SDNoOutliers
1839 841,076128330614 550,271503539117 1837 823,361458900381 86,5574099746573

Trial TrialStatus Trialtype IBI AbsPosition RelPosition Outlier
0 0 0 850 1269 -15002 0
0 0 0 819 2088 -14183 0
0 0 0 780 2868 -13403 0
0 0 0 711 3579 -12692 0
0 0 0 684 4263 -12008 0
0 0 0 710 4973 -11298 0
0 0 0 849 5822 -10449 0
0 0 0 962 6784 -9487 0
0 0 0 974 7758 -8513 0
0 0 0 987 8745 -7526 0
0 0 0 956 9701 -6570 0
0 0 0 950 10651 -5620 0
0 0 0 893 11544 -4727 0
0 0 0 804 12348 -3923 0
0 0 0 790 13138 -3133 0
0 0 0 795 13933 -2338 0
1 1 S112 830 14763 -1508 0
1 1 S112 849 15612 -659 0
1 2 S112 863 16475 204 0
1 2 S112 875 17350 1079 0
1 2 S112 884 18234 1963 0
1 2 S112 863 19097 2826 0
1 2 S112 878 19975 3704 0
1 2 S112 884 20859 4588 0
1 2 S112 918 21777 5506 0
1 2 S112 905 22682 6411 0
0 0 0 865 23547 -12253 0
0 0 0 868 24415 -11385 0
0 0 0 898 25313 -10487 0
0 0 0 905 26218 -9582 0
0 0 0 925 27143 -8657 0
0 0 0 898 28041 -7759 0
0 0 0 831 28872 -6928 0
0 0 0 814 29686 -6114 0
0 0 0 827 30513 -5287 0
0 0 0 878 31391 -4409 0
0 0 0 901 32292 -3508 0
0 0 0 857 33149 -2651 0
2 1 S102 798 33947 -1853 0
2 1 S102 757 34704 -1096 0
2 1 S102 769 35473 -327 0
2 2 S102 798 36271 471 0
2 2 S102 900 37171 1371 0
2 2 S102 974 38145 2345 0
2 2 S102 909 39054 3254 0
2 2 S102 862 39916 4116 0
2 2 S102 922 40838 5038 0
2 2 S102 934 41772 5972 0
2 2 S102 958 42730 6930 0
0 0 0 924 43654 -8708 0
0 0 0 890 44544 -7818 0
0 0 0 923 45467 -6895 0
0 0 0 908 46375 -5987 0
0 0 0 897 47272 -5090 0
0 0 0 833 48105 -4257 0
0 0 0 858 48963 -3399 0
0 0 0 862 49825 -2537 0
3 1 S116 891 50716 -1646 0
3 1 S116 851 51567 -795 0
3 2 S116 799 52366 4 0
3 2 S116 841 53207 845 0
3 2 S116 909 54116 1754 0
3 2 S116 896 55012 2650 0
3 2 S116 819 55831 3469 0
3 2 S116 875 56706 4344 0
3 2 S116 892 57598 5236 0
3 2 S116 937 58535 6173 0
0 0 0 954 59489 -12502 0
0 0 0 908 60397 -11594 0
0 0 0 845 61242 -10749 0
0 0 0 892 62134 -9857 0
0 0 0 914 63048 -8943 0
0 0 0 882 63930 -8061 0
0 0 0 833 64763 -7228 0
0 0 0 783 65546 -6445 0
0 0 0 803 66349 -5642 0
0 0 0 852 67201 -4790 0
0 0 0 885 68086 -3905 0
0 0 0 865 68951 -3040 0
0 0 0 842 69793 -2198 0
4 1 S106 882 70675 -1316 0
4 1 S106 889 71564 -427 0
4 2 S106 913 72477 486 0
4 2 S106 912 73389 1398 0
4 2 S106 845 74234 2243 0
4 2 S106 843 75077 3086 0
4 2 S106 888 75965 3974 0
4 2 S106 886 76851 4860 0
4 2 S106 892 77743 5752 0
4 2 S106 904 78647 6656 0
0 0 0 876 79523 -5830 0
0 0 0 842 80365 -4988 0
0 0 0 839 81204 -4149 0
0 0 0 835 82039 -3314 0
0 0 0 856 82895 -2458 0
5 1 S116 864 83759 -1594 0
5 1 S116 795 84554 -799 0
5 2 S116 819 85373 20 0
5 2 S116 840 86213 860 0
5 2 S116 890 87103 1750 0
5 2 S116 833 87936 2583 0
5 2 S116 773 88709 3356 0
5 2 S116 792 89501 4148 0
5 2 S116 837 90338 4985 0
5 2 S116 901 91239 5886 0
5 2 S116 923 92162 6809 0
0 0 0 924 93086 -9044 0
0 0 0 877 93963 -8167 0
0 0 0 873 94836 -7294 0
0 0 0 899 95735 -6395 0
0 0 0 910 96645 -5485 0
0 0 0 898 97543 -4587 0
0 0 0 845 98388 -3742 0
0 0 0 818 99206 -2924 0
0 0 0 831 100037 -2093 0
6 1 S106 842 100879 -1251 0
6 1 S106 858 101737 -393 0
6 2 S106 860 102597 467 0
6 2 S106 831 103428 1298 0
6 2 S106 800 104228 2098 0
6 2 S106 845 105073 2943 0
6 2 S106 869 105942 3812 0
6 2 S106 931 106873 4743 0
6 2 S106 935 107808 5678 0
6 2 S106 887 108695 6565 0
0 0 0 814 109509 -10310 0
0 0 0 834 110343 -9476 0
0 0 0 858 111201 -8618 0
0 0 0 850 112051 -7768 0
0 0 0 824 112875 -6944 0
0 0 0 745 113620 -6199 0
0 0 0 705 114325 -5494 0
0 0 0 699 115024 -4795 0
0 0 0 717 115741 -4078 0
0 0 0 783 116524 -3295 0
0 0 0 809 117333 -2486 0
7 1 S102 800 118133 -1686 0
7 1 S102 773 118906 -913 0
7 1 S102 730 119636 -183 0
7 2 S102 700 120336 517 0
7 2 S102 694 121030 1211 0
7 2 S102 699 121729 1910 0
7 2 S102 712 122441 2622 0
7 2 S102 727 123168 3349 0
7 2 S102 743 123911 4092 0
7 2 S102 728 124639 4820 0
7 2 S102 714 125353 5534 0
7 2 S102 758 126111 6292 0
0 0 0 780 126891 -8860 0
0 0 0 818 127709 -8042 0
0 0 0 823 128532 -7219 0
0 0 0 775 129307 -6444 0
0 0 0 733 130040 -5711 0
0 0 0 774 130814 -4937 0
0 0 0 820 131634 -4117 0
0 0 0 871 132505 -3246 0
0 0 0 855 133360 -2391 0
8 1 S112 784 134144 -1607 0
8 1 S112 754 134898 -853 0
8 1 S112 749 135647 -104 0
8 2 S112 754 136401 650 0
8 2 S112 818 137219 1468 0
8 2 S112 811 138030 2279 0
8 2 S112 769 138799 3048 0
8 2 S112 814 139613 3862 0
8 2 S112 873 140486 4735 0
8 2 S112 893 141379 5628 0
8 2 S112 935 142314 6563 0
0 0 0 875 143189 -8759 0
0 0 0 867 144056 -7892 0
0 0 0 851 144907 -7041 0
0 0 0 863 145770 -6178 0
0 0 0 924 146694 -5254 0
0 0 0 852 147546 -4402 0
0 0 0 802 148348 -3600 0
0 0 0 811 149159 -2789 0
9 1 S116 828 149987 -1961 0
9 1 S116 863 150850 -1098 0
9 1 S116 832 151682 -266 0
9 2 S116 835 152517 569 0
9 2 S116 900 153417 1469 0
9 2 S116 909 154326 2378 0
9 2 S116 896 155222 3274 0
9 2 S116 822 156044 4096 0
9 2 S116 860 156904 4956 0
9 2 S116 884 157788 5840 0
9 2 S116 921 158709 6761 0
0 0 0 905 159614 -11632 0
0 0 0 838 160452 -10794 0
0 0 0 881 161333 -9913 0
0 0 0 940 162273 -8973 0
0 0 0 905 163178 -8068 0
0 0 0 838 164016 -7230 0
0 0 0 832 164848 -6398 0
0 0 0 856 165704 -5542 0
0 0 0 847 166551 -4695 0
0 0 0 858 167409 -3837 0
0 0 0 844 168253 -2993 0
0 0 0 765 169018 -2228 0
10 1 S102 766 169784 -1462 0
10 1 S102 796 170580 -666 0
10 2 S102 868 171448 202 0
10 2 S102 902 172350 1104 0
10 2 S102 889 173239 1993 0
10 2 S102 819 174058 2812 0
10 2 S102 845 174903 3657 0
10 2 S102 890 175793 4547 0
10 2 S102 899 176692 5446 0
10 2 S102 892 177584 6338 0
0 0 0 850 178434 -11877 0
0 0 0 829 179263 -11048 0
0 0 0 825 180088 -10223 0
0 0 0 835 180923 -9388 0
0 0 0 837 181760 -8551 0
0 0 0 807 182567 -7744 0
0 0 0 767 183334 -6977 0
0 0 0 804 184138 -6173 0
0 0 0 845 184983 -5328 0
0 0 0 915 185898 -4413 0
0 0 0 881 186779 -3532 0
0 0 0 829 187608 -2703 0
11 1 S112 861 188469 -1842 0
11 1 S112 843 189312 -999 0
11 1 S112 826 190138 -173 0
11 2 S112 780 190918 607 0
11 2 S112 729 191647 1336 0
11 2 S112 708 192355 2044 0
11 2 S112 735 193090 2779 0
11 2 S112 742 193832 3521 0
11 2 S112 729 194561 4250 0
11 2 S112 747 195308 4997 0
11 2 S112 766 196074 5763 0
11 2 S112 802 196876 6565 0
0 0 0 803 197679 -7967 0
0 0 0 800 198479 -7167 0
0 0 0 750 199229 -6417 0
0 0 0 729 199958 -5688 0
0 0 0 749 200707 -4939 0
0 0 0 744 201451 -4195 0
0 0 0 765 202216 -3430 0
0 0 0 752 202968 -2678 0
12 1 S116 744 203712 -1934 0
12 1 S116 756 204468 -1178 0
12 1 S116 792 205260 -386 0
12 2 S116 793 206053 407 0
12 2 S116 824 206877 1231 0
12 2 S116 851 207728 2082 0
12 2 S116 812 208540 2894 0
12 2 S116 819 209359 3713 0
12 2 S116 829 210188 4542 0
12 2 S116 855 211043 5397 0
12 2 S116 864 211907 6261 0
0 0 0 835 212742 -13279 0
0 0 0 844 213586 -12435 0
0 0 0 819 214405 -11616 0
0 0 0 816 215221 -10800 0
0 0 0 828 216049 -9972 0
0 0 0 836 216885 -9136 0
0 0 0 779 217664 -8357 0
0 0 0 793 218457 -7564 0
0 0 0 806 219263 -6758 0
0 0 0 859 220122 -5899 0
0 0 0 852 220974 -5047 0
0 0 0 807 221781 -4240 0
0 0 0 811 222592 -3429 0
0 0 0 814 223406 -2615 0
13 1 S112 820 224226 -1795 0
13 1 S112 824 225050 -971 0
13 1 S112 785 225835 -186 0
13 2 S112 738 226573 552 0
13 2 S112 740 227313 1292 0
13 2 S112 766 228079 2058 0
13 2 S112 828 228907 2886 0
13 2 S112 869 229776 3755 0
13 2 S112 811 230587 4566 0
13 2 S112 762 231349 5328 0
13 2 S112 775 232124 6103 0
13 2 S112 851 232975 6954 0
0 0 0 946 233921 -10054 0
0 0 0 932 234853 -9122 0
0 0 0 868 235721 -8254 0
0 0 0 791 236512 -7463 0
0 0 0 768 237280 -6695 0
0 0 0 763 238043 -5932 0
0 0 0 768 238811 -5164 0
0 0 0 791 239602 -4373 0
0 0 0 784 240386 -3589 0
0 0 0 757 241143 -2832 0
0 0 0 722 241865 -2110 0
14 1 S106 731 242596 -1379 0
14 1 S106 732 243328 -647 0
14 2 S106 783 244111 136 0
14 2 S106 800 244911 936 0
14 2 S106 792 245703 1728 0
14 2 S106 753 246456 2481 0
14 2 S106 789 247245 3270 0
14 2 S106 840 248085 4110 0
14 2 S106 878 248963 4988 0
14 2 S106 907 249870 5895 0
14 2 S106 875 250745 6770 0
0 0 0 801 251546 -12423 0
0 0 0 787 252333 -11636 0
0 0 0 789 253122 -10847 0
0 0 0 812 253934 -10035 0
0 0 0 834 254768 -9201 0
0 0 0 816 255584 -8385 0
0 0 0 751 256335 -7634 0
0 0 0 791 257126 -6843 0
0 0 0 793 257919 -6050 0
0 0 0 791 258710 -5259 0
0 0 0 778 259488 -4481 0
0 0 0 720 260208 -3761 0
0 0 0 708 260916 -3053 0
0 0 0 716 261632 -2337 0
15 1 S116 755 262387 -1582 0
15 1 S116 786 263173 -796 0
15 1 S116 781 263954 -15 0
15 2 S116 739 264693 724 0
15 2 S116 728 265421 1452 0
15 2 S116 757 266178 2209 0
15 2 S116 799 266977 3008 0
15 2 S116 824 267801 3832 0
15 2 S116 836 268637 4668 0
15 2 S116 799 269436 5467 0
15 2 S116 760 270196 6227 0
15 2 S116 767 270963 6994 0
0 0 0 787 271750 -9212 0
0 0 0 819 272569 -8393 0
0 0 0 821 273390 -7572 0
0 0 0 802 274192 -6770 0
0 0 0 749 274941 -6021 0
0 0 0 767 275708 -5254 0
0 0 0 810 276518 -4444 0
0 0 0 848 277366 -3596 0
0 0 0 877 278243 -2719 0
16 1 S116 882 279125 -1837 0
16 1 S116 833 279958 -1004 0
16 1 S116 816 280774 -188 0
16 2 S116 825 281599 637 0
16 2 S116 839 282438 1476 0
16 2 S116 826 283264 2302 0
16 2 S116 773 284037 3075 0
16 2 S116 804 284841 3879 0
16 2 S116 822 285663 4701 0
16 2 S116 849 286512 5550 0
16 2 S116 840 287352 6390 0
0 0 0 761 288113 -10173 0
0 0 0 783 288896 -9390 0
0 0 0 771 289667 -8619 0
0 0 0 801 290468 -7818 0
0 0 0 834 291302 -6984 0
0 0 0 794 292096 -6190 0
0 0 0 750 292846 -5440 0
0 0 0 774 293620 -4666 0
0 0 0 810 294430 -3856 0
0 0 0 834 295264 -3022 0
0 0 0 809 296073 -2213 0
17 1 S106 764 296837 -1449 0
17 1 S106 772 297609 -677 0
17 2 S106 762 298371 85 0
17 2 S106 748 299119 833 0
17 2 S106 729 299848 1562 0
17 2 S106 718 300566 2280 0
17 2 S106 747 301313 3027 0
17 2 S106 782 302095 3809 0
17 2 S106 818 302913 4627 0
17 2 S106 818 303731 5445 0
17 2 S106 816 304547 6261 0
17 2 S106 759 305306 7020 0
0 0 0 759 306065 -10938 0
0 0 0 780 306845 -10158 0
0 0 0 783 307628 -9375 0
0 0 0 803 308431 -8572 0
0 0 0 757 309188 -7815 0
0 0 0 725 309913 -7090 0
0 0 0 730 310643 -6360 0
0 0 0 760 311403 -5600 0
0 0 0 790 312193 -4810 0
0 0 0 795 312988 -4015 0
0 0 0 771 313759 -3244 0
0 0 0 787 314546 -2457 0
18 1 S102 782 315328 -1675 0
18 1 S102 783 316111 -892 0
18 1 S102 800 316911 -92 0
18 2 S102 808 317719 716 0
18 2 S102 796 318515 1512 0
18 2 S102 743 319258 2255 0
18 2 S102 747 320005 3002 0
18 2 S102 784 320789 3786 0
18 2 S102 854 321643 4640 0
18 2 S102 893 322536 5533 0
18 2 S102 867 323403 6400 0
0 0 0 828 324231 -8473 0
0 0 0 812 325043 -7661 0
0 0 0 826 325869 -6835 0
0 0 0 840 326709 -5995 0
0 0 0 850 327559 -5145 0
0 0 0 814 328373 -4331 0
0 0 0 744 329117 -3587 0
0 0 0 746 329863 -2841 0
0 0 0 767 330630 -2074 0
19 1 S106 805 331435 -1269 0
19 1 S106 828 332263 -441 0
19 2 S106 807 333070 366 0
19 2 S106 766 333836 1132 0
19 2 S106 779 334615 1911 0
19 2 S106 805 335420 2716 0
19 2 S106 841 336261 3557 0
19 2 S106 848 337109 4405 0
19 2 S106 838 337947 5243 0
19 2 S106 787 338734 6030 0
19 2 S106 771 339505 6801 0
0 0 0 801 340306 -11114 0
0 0 0 845 341151 -10269 0
0 0 0 854 342005 -9415 0
0 0 0 826 342831 -8589 0
0 0 0 777 343608 -7812 0
0 0 0 787 344395 -7025 0
0 0 0 786 345181 -6239 0
0 0 0 811 345992 -5428 0
0 0 0 801 346793 -4627 0
0 0 0 768 347561 -3859 0
0 0 0 724 348285 -3135 0
0 0 0 721 349006 -2414 0
20 1 S112 719 349725 -1695 0
20 1 S112 762 350487 -933 0
20 1 S112 763 351250 -170 0
20 2 S112 724 351974 554 0
20 2 S112 690 352664 1244 0
20 2 S112 711 353375 1955 0
20 2 S112 771 354146 2726 0
20 2 S112 889 355035 3615 0
20 2 S112 888 355923 4503 0
20 2 S112 880 356803 5383 0
20 2 S112 834 357637 6217 0
20 2 S112 792 358429 7009 0
0 0 0 813 359242 -9834 0
0 0 0 812 360054 -9022 0
0 0 0 803 360857 -8219 0
0 0 0 801 361658 -7418 0
0 0 0 776 362434 -6642 0
0 0 0 738 363172 -5904 0
0 0 0 753 363925 -5151 0
0 0 0 777 364702 -4374 0
0 0 0 793 365495 -3581 0
0 0 0 810 366305 -2771 0
21 1 S106 807 367112 -1964 0
21 1 S106 768 367880 -1196 0
21 1 S106 764 368644 -432 0
21 2 S106 767 369411 335 0
21 2 S106 782 370193 1117 0
21 2 S106 803 370996 1920 0
21 2 S106 766 371762 2686 0
21 2 S106 773 372535 3459 0
21 2 S106 786 373321 4245 0
21 2 S106 825 374146 5070 0
21 2 S106 837 374983 5907 0
21 2 S106 789 375772 6696 0
0 0 0 781 376553 -12865 0
0 0 0 794 377347 -12071 0
0 0 0 807 378154 -11264 0
0 0 0 827 378981 -10437 0
0 0 0 818 379799 -9619 0
0 0 0 788 380587 -8831 0
0 0 0 749 381336 -8082 0
0 0 0 757 382093 -7325 0
0 0 0 769 382862 -6556 0
0 0 0 806 383668 -5750 0
0 0 0 796 384464 -4954 0
0 0 0 749 385213 -4205 0
0 0 0 756 385969 -3449 0
0 0 0 782 386751 -2667 0
22 1 S116 807 387558 -1860 0
22 1 S116 787 388345 -1073 0
22 1 S116 750 389095 -323 0
22 2 S116 717 389812 394 0
22 2 S116 727 390539 1121 0
22 2 S116 748 391287 1869 0
22 2 S116 777 392064 2646 0
22 2 S116 770 392834 3416 0
22 2 S116 738 393572 4154 0
22 2 S116 773 394345 4927 0
22 2 S116 808 395153 5735 0
22 2 S116 839 395992 6574 0
0 0 0 874 396866 -9793 0
0 0 0 833 397699 -8960 0
0 0 0 762 398461 -8198 0
0 0 0 754 399215 -7444 0
0 0 0 770 399985 -6674 0
0 0 0 764 400749 -5910 0
0 0 0 759 401508 -5151 0
0 0 0 737 402245 -4414 0
0 0 0 712 402957 -3702 0
0 0 0 729 403686 -2973 0
0 0 0 743 404429 -2230 0
23 1 S112 754 405183 -1476 0
23 1 S112 770 405953 -706 0
23 2 S112 749 406702 43 0
23 2 S112 757 407459 800 0
23 2 S112 789 408248 1589 0
23 2 S112 823 409071 2412 0
23 2 S112 832 409903 3244 0
23 2 S112 833 410736 4077 0
23 2 S112 780 411516 4857 0
23 2 S112 773 412289 5630 0
23 2 S112 810 413099 6440 0
0 0 0 846 413945 -9641 0
0 0 0 878 414823 -8763 0
0 0 0 832 415655 -7931 0
0 0 0 779 416434 -7152 0
0 0 0 774 417208 -6378 0
0 0 0 757 417965 -5621 0
0 0 0 749 418714 -4872 0
0 0 0 718 419432 -4154 0
0 0 0 685 420117 -3469 0
0 0 0 681 420798 -2788 0
0 0 0 691 421489 -2097 0
24 1 S106 700 422189 -1397 0
24 1 S106 720 422909 -677 0
24 2 S106 724 423633 47 0
24 2 S106 703 424336 750 0
24 2 S106 705 425041 1455 0
24 2 S106 712 425753 2167 0
24 2 S106 746 426499 2913 0
24 2 S106 761 427260 3674 0
24 2 S106 779 428039 4453 0
24 2 S106 763 428802 5216 0
24 2 S106 753 429555 5969 0
24 2 S106 781 430336 6750 0
0 0 0 798 431134 -8384 0
0 0 0 805 431939 -7579 0
0 0 0 782 432721 -6797 0
0 0 0 725 433446 -6072 0
0 0 0 693 434139 -5379 0
0 0 0 680 434819 -4699 0
0 0 0 752 435571 -3947 0
0 0 0 928 436499 -3019 0
0 0 0 965 437464 -2054 0
25 1 S102 992 438456 -1062 0
25 1 S102 935 439391 -127 0
25 2 S102 923 440314 796 0
25 2 S102 885 441199 1681 0
25 2 S102 813 442012 2494 0
25 2 S102 791 442803 3285 0
25 2 S102 787 443590 4072 0
25 2 S102 789 444379 4861 0
25 2 S102 802 445181 5663 0
25 2 S102 789 445970 6452 0
0 0 0 777 446747 -7807 0
0 0 0 739 447486 -7068 0
0 0 0 727 448213 -6341 0
0 0 0 753 448966 -5588 0
0 0 0 786 449752 -4802 0
0 0 0 793 450545 -4009 0
0 0 0 794 451339 -3215 0
0 0 0 810 452149 -2405 0
26 1 S116 775 452924 -1630 0
26 1 S116 777 453701 -853 0
26 1 S116 809 454510 -44 0
26 2 S116 817 455327 773 0
26 2 S116 832 456159 1605 0
26 2 S116 818 456977 2423 0
26 2 S116 839 457816 3262 0
26 2 S116 806 458622 4068 0
26 2 S116 792 459414 4860 0
26 2 S116 738 460152 5598 0
26 2 S116 730 460882 6328 0
0 0 0 733 461615 -6318 0
0 0 0 773 462388 -5545 0
0 0 0 797 463185 -4748 0
0 0 0 770 463955 -3978 0
0 0 0 735 464690 -3243 0
0 0 0 724 465414 -2519 0
27 1 S106 735 466149 -1784 0
27 1 S106 739 466888 -1045 0
27 1 S106 749 467637 -296 0
27 2 S106 756 468393 460 0
27 2 S106 753 469146 1213 0
27 2 S106 717 469863 1930 0
27 2 S106 722 470585 2652 0
27 2 S106 742 471327 3394 0
27 2 S106 781 472108 4175 0
27 2 S106 805 472913 4980 0
27 2 S106 823 473736 5803 0
27 2 S106 807 474543 6610 0
0 0 0 774 475317 -8216 0
0 0 0 807 476124 -7409 0
0 0 0 822 476946 -6587 0
0 0 0 823 477769 -5764 0
0 0 0 826 478595 -4938 0
0 0 0 783 479378 -4155 0
0 0 0 752 480130 -3403 0
0 0 0 765 480895 -2638 0
28 1 S102 777 481672 -1861 0
28 1 S102 800 482472 -1061 0
28 1 S102 799 483271 -262 0
28 2 S102 755 484026 493 0
28 2 S102 726 484752 1219 0
28 2 S102 732 485484 1951 0
28 2 S102 731 486215 2682 0
28 2 S102 731 486946 3413 0
28 2 S102 725 487671 4138 0
28 2 S102 723 488394 4861 0
28 2 S102 761 489155 5622 0
28 2 S102 818 489973 6440 0
0 0 0 841 490814 -11751 0
0 0 0 792 491606 -10959 0
0 0 0 764 492370 -10195 0
0 0 0 792 493162 -9403 0
0 0 0 773 493935 -8630 0
0 0 0 754 494689 -7876 0
0 0 0 748 495437 -7128 0
0 0 0 719 496156 -6409 0
0 0 0 722 496878 -5687 0
0 0 0 741 497619 -4946 0
0 0 0 750 498369 -4196 0
0 0 0 773 499142 -3423 0
0 0 0 772 499914 -2651 0
29 1 S112 753 500667 -1898 0
29 1 S112 733 501400 -1165 0
29 1 S112 731 502131 -434 0
29 2 S112 753 502884 319 0
29 2 S112 767 503651 1086 0
29 2 S112 776 504427 1862 0
29 2 S112 774 505201 2636 0
29 2 S112 824 506025 3460 0
29 2 S112 850 506875 4310 0
29 2 S112 845 507720 5155 0
29 2 S112 847 508567 6002 0
29 2 S112 779 509346 6781 0
0 0 0 748 510094 -7757 0
0 0 0 765 510859 -6992 0
0 0 0 781 511640 -6211 0
0 0 0 799 512439 -5412 0
0 0 0 783 513222 -4629 0
0 0 0 745 513967 -3884 0
0 0 0 731 514698 -3153 0
0 0 0 750 515448 -2403 0
30 1 S112 764 516212 -1639 0
30 1 S112 782 516994 -857 0
30 1 S112 767 517761 -90 0
30 2 S112 724 518485 634 0
30 2 S112 734 519219 1368 0
30 2 S112 773 519992 2141 0
30 2 S112 836 520828 2977 0
30 2 S112 859 521687 3836 0
30 2 S112 843 522530 4679 0
30 2 S112 793 523323 5472 0
30 2 S112 812 524135 6284 0
0 0 0 844 524979 -10229 0
0 0 0 856 525835 -9373 0
0 0 0 858 526693 -8515 0
0 0 0 809 527502 -7706 0
0 0 0 772 528274 -6934 0
0 0 0 753 529027 -6181 0
0 0 0 755 529782 -5426 0
0 0 0 770 530552 -4656 0
0 0 0 788 531340 -3868 0
0 0 0 754 532094 -3114 0
0 0 0 739 532833 -2375 0
31 1 S106 780 533613 -1595 0
31 1 S106 845 534458 -750 0
31 2 S106 883 535341 133 0
31 2 S106 868 536209 1001 0
31 2 S106 803 537012 1804 0
31 2 S106 767 537779 2571 0
31 2 S106 763 538542 3334 0
31 2 S106 788 539330 4122 0
31 2 S106 797 540127 4919 0
31 2 S106 760 540887 5679 0
31 2 S106 725 541612 6404 0
0 0 0 752 542364 -8876 0
0 0 0 770 543134 -8106 0
0 0 0 833 543967 -7273 0
0 0 0 817 544784 -6456 0
0 0 0 788 545572 -5668 0
0 0 0 787 546359 -4881 0
0 0 0 818 547177 -4063 0
0 0 0 817 547994 -3246 0
0 0 0 812 548806 -2434 0
32 1 S102 771 549577 -1663 0
32 1 S102 755 550332 -908 0
32 1 S102 765 551097 -143 0
32 2 S102 784 551881 641 0
32 2 S102 799 552680 1440 0
32 2 S102 796 553476 2236 0
32 2 S102 780 554256 3016 0
32 2 S102 759 555015 3775 0
32 2 S102 781 555796 4556 0
32 2 S102 782 556578 5338 0
32 2 S102 784 557362 6122 0
32 2 S102 795 558157 6917 0
0 0 0 758 558915 -11058 0
0 0 0 749 559664 -10309 0
0 0 0 767 560431 -9542 0
0 0 0 794 561225 -8748 0
0 0 0 786 562011 -7962 0
0 0 0 767 562778 -7195 0
0 0 0 769 563547 -6426 0
0 0 0 791 564338 -5635 0
0 0 0 801 565139 -4834 0
0 0 0 744 565883 -4090 0
0 0 0 713 566596 -3377 0
0 0 0 790 567386 -2587 0
33 1 S112 910 568296 -1677 0
33 1 S112 827 569123 -850 0
33 1 S112 808 569931 -42 0
33 2 S112 805 570736 763 0
33 2 S112 804 571540 1567 0
33 2 S112 792 572332 2359 0
33 2 S112 783 573115 3142 0
33 2 S112 792 573907 3934 0
33 2 S112 753 574660 4687 0
33 2 S112 715 575375 5402 0
33 2 S112 689 576064 6091 0
33 2 S112 687 576751 6778 0
0 0 0 703 577454 -12364 0
0 0 0 732 578186 -11632 0
0 0 0 765 578951 -10867 0
0 0 0 736 579687 -10131 0
0 0 0 738 580425 -9393 0
0 0 0 712 581137 -8681 0
0 0 0 724 581861 -7957 0
0 0 0 828 582689 -7129 0
0 0 0 834 583523 -6295 0
0 0 0 812 584335 -5483 0
0 0 0 816 585151 -4667 0
0 0 0 830 585981 -3837 0
0 0 0 869 586850 -2968 0
0 0 0 885 587735 -2083 0
34 1 S106 886 588621 -1197 0
34 1 S106 809 589430 -388 0
34 2 S106 793 590223 405 0
34 2 S106 791 591014 1196 0
34 2 S106 805 591819 2001 0
34 2 S106 808 592627 2809 0
34 2 S106 783 593410 3592 0
34 2 S106 745 594155 4337 0
34 2 S106 781 594936 5118 0
34 2 S106 866 595802 5984 0
34 2 S106 1009 596811 6993 0
0 0 0 1011 597822 -8209 0
0 0 0 928 598750 -7281 0
0 0 0 821 599571 -6460 0
0 0 0 847 600418 -5613 0
0 0 0 854 601272 -4759 0
0 0 0 859 602131 -3900 0
0 0 0 815 602946 -3085 0
0 0 0 782 603728 -2303 0
35 1 S102 789 604517 -1514 0
35 1 S102 833 605350 -681 0
35 2 S102 857 606207 176 0
35 2 S102 851 607058 1027 0
35 2 S102 835 607893 1862 0
35 2 S102 764 608657 2626 0
35 2 S102 759 609416 3385 0
35 2 S102 776 610192 4161 0
35 2 S102 851 611043 5012 0
35 2 S102 871 611914 5883 0
35 2 S102 854 612768 6737 0
0 0 0 818 613586 -6388 0
0 0 0 848 614434 -5540 0
0 0 0 852 615286 -4688 0
0 0 0 856 616142 -3832 0
0 0 0 823 616965 -3009 0
0 0 0 775 617740 -2234 0
36 1 S106 767 618507 -1467 0
36 1 S106 749 619256 -718 0
36 2 S106 754 620010 36 0
36 2 S106 766 620776 802 0
36 2 S106 758 621534 1560 0
36 2 S106 736 622270 2296 0
36 2 S106 749 623019 3045 0
36 2 S106 775 623794 3820 0
36 2 S106 817 624611 4637 0
36 2 S106 831 625442 5468 0
36 2 S106 836 626278 6304 0
0 0 0 785 627063 -9307 0
0 0 0 786 627849 -8521 0
0 0 0 799 628648 -7722 0
0 0 0 791 629439 -6931 0
0 0 0 775 630214 -6156 0
0 0 0 746 630960 -5410 0
0 0 0 723 631683 -4687 0
0 0 0 747 632430 -3940 0
0 0 0 767 633197 -3173 0
0 0 0 785 633982 -2388 0
37 1 S116 802 634784 -1586 0
37 1 S116 786 635570 -800 0
37 1 S116 760 636330 -40 0
37 2 S116 785 637115 745 0
37 2 S116 795 637910 1540 0
37 2 S116 812 638722 2352 0
37 2 S116 801 639523 3153 0
37 2 S116 764 640287 3917 0
37 2 S116 779 641066 4696 0
37 2 S116 821 641887 5517 0
37 2 S116 849 642736 6366 0
0 0 0 843 643579 -12768 0
0 0 0 801 644380 -11967 0
0 0 0 805 645185 -11162 0
0 0 0 786 645971 -10376 0
0 0 0 781 646752 -9595 0
0 0 0 802 647554 -8793 0
0 0 0 807 648361 -7986 0
0 0 0 837 649198 -7149 0
0 0 0 838 650036 -6311 0
0 0 0 802 650838 -5509 0
0 0 0 778 651616 -4731 0
0 0 0 782 652398 -3949 0
0 0 0 808 653206 -3141 0
0 0 0 812 654018 -2329 0
38 1 S102 793 654811 -1536 0
38 1 S102 750 655561 -786 0
38 1 S102 735 656296 -51 0
38 2 S102 722 657018 671 0
38 2 S102 727 657745 1398 0
38 2 S102 737 658482 2135 0
38 2 S102 719 659201 2854 0
38 2 S102 709 659910 3563 0
38 2 S102 730 660640 4293 0
38 2 S102 758 661398 5051 0
38 2 S102 794 662192 5845 0
38 2 S102 826 663018 6671 0
0 0 0 809 663827 -8982 0
0 0 0 803 664630 -8179 0
0 0 0 803 665433 -7376 0
0 0 0 805 666238 -6571 0
0 0 0 761 666999 -5810 0
0 0 0 732 667731 -5078 0
0 0 0 727 668458 -4351 0
0 0 0 737 669195 -3614 0
0 0 0 766 669961 -2848 0
0 0 0 786 670747 -2062 0
39 1 S116 773 671520 -1289 0
39 1 S116 738 672258 -551 0
39 2 S116 739 672997 188 0
39 2 S116 758 673755 946 0
39 2 S116 784 674539 1730 0
39 2 S116 816 675355 2546 0
39 2 S116 797 676152 3343 0
39 2 S116 812 676964 4155 0
39 2 S116 862 677826 5017 0
39 2 S116 885 678711 5902 0
39 2 S116 877 679588 6779 0
0 0 0 834 680422 -7192 0
0 0 0 775 681197 -6417 0
0 0 0 784 681981 -5633 0
0 0 0 785 682766 -4848 0
0 0 0 772 683538 -4076 0
0 0 0 745 684283 -3331 0
0 0 0 721 685004 -2610 0
40 1 S112 732 685736 -1878 0
40 1 S112 756 686492 -1122 0
40 1 S112 772 687264 -350 0
40 2 S112 791 688055 441 0
40 2 S112 764 688819 1205 0
40 2 S112 754 689573 1959 0
40 2 S112 794 690367 2753 0
40 2 S112 802 691169 3555 0
40 2 S112 817 691986 4372 0
40 2 S112 803 692789 5175 0
40 2 S112 776 693565 5951 0
40 2 S112 759 694324 6710 0
0 0 0 778 695102 -187573 0
0 0 0 798 695900 -186775 0
0 0 0 772 696672 -186003 0
0 0 0 733 697405 -185270 0
0 0 0 746 698151 -184524 0
0 0 0 762 698913 -183762 0
0 0 0 801 699714 -182961 0
0 0 0 785 700499 -182176 0
0 0 0 730 701229 -181446 0
0 0 0 710 701939 -180736 0
0 0 0 712 702651 -180024 0
0 0 0 739 703390 -179285 0
0 0 0 762 704152 -178523 0
0 0 0 783 704935 -177740 0
0 0 0 760 705695 -176980 0
0 0 0 723 706418 -176257 0
0 0 0 714 707132 -175543 0
0 0 0 718 707850 -174825 0
0 0 0 793 708643 -174032 0
0 0 0 870 709513 -173162 0
0 0 0 831 710344 -172331 0
0 0 0 820 711164 -171511 0
0 0 0 748 711912 -170763 0
0 0 0 727 712639 -170036 0
0 0 0 706 713345 -169330 0
0 0 0 667 714012 -168663 0
0 0 0 645 714657 -168018 0
0 0 0 634 715291 -167384 0
0 0 0 623 715914 -166761 0
0 0 0 636 716550 -166125 0
0 0 0 660 717210 -165465 0
0 0 0 734 717944 -164731 0
0 0 0 878 718822 -163853 0
0 0 0 620 719442 -163233 0
0 0 0 1322 720764 -161911 0
0 0 0 894 721658 -161017 0
0 0 0 798 722456 -160219 0
0 0 0 746 723202 -159473 0
0 0 0 703 723905 -158770 0
0 0 0 677 724582 -158093 0
0 0 0 648 725230 -157445 0
0 0 0 641 725871 -156804 0
0 0 0 659 726530 -156145 0
0 0 0 675 727205 -155470 0
0 0 0 674 727879 -154796 0
0 0 0 692 728571 -154104 0
0 0 0 738 729309 -153366 0
0 0 0 746 730055 -152620 0
0 0 0 761 730816 -151859 0
0 0 0 763 731579 -151096 0
0 0 0 788 732367 -150308 0
0 0 0 819 733186 -149489 0
0 0 0 852 734038 -148637 0
0 0 0 839 734877 -147798 0
0 0 0 802 735679 -146996 0
0 0 0 807 736486 -146189 0
0 0 0 843 737329 -145346 0
0 0 0 814 738143 -144532 0
0 0 0 751 738894 -143781 0
0 0 0 722 739616 -143059 0
0 0 0 717 740333 -142342 0
0 0 0 698 741031 -141644 0
0 0 0 691 741722 -140953 0
0 0 0 721 742443 -140232 0
0 0 0 690 743133 -139542 0
0 0 0 685 743818 -138857 0
0 0 0 674 744492 -138183 0
0 0 0 667 745159 -137516 0
0 0 0 666 745825 -136850 0
0 0 0 636 746461 -136214 0
0 0 0 651 747112 -135563 0
0 0 0 636 747748 -134927 0
0 0 0 637 748385 -134290 0
0 0 0 638 749023 -133652 0
0 0 0 630 749653 -133022 0
0 0 0 648 750301 -132374 0
0 0 0 636 750937 -131738 0
0 0 0 642 751579 -131096 0
0 0 0 645 752224 -130451 0
0 0 0 691 752915 -129760 0
0 0 0 698 753613 -129062 0
0 0 0 685 754298 -128377 0
0 0 0 692 754990 -127685 0
0 0 0 667 755657 -127018 0
0 0 0 698 756355 -126320 0
0 0 0 680 757035 -125640 0
0 0 0 657 757692 -124983 0
0 0 0 671 758363 -124312 0
0 0 0 671 759034 -123641 0
0 0 0 759 759793 -122882 0
0 0 0 846 760639 -122036 0
0 0 0 824 761463 -121212 0
0 0 0 811 762274 -120401 0
0 0 0 907 763181 -119494 0
0 0 0 953 764134 -118541 0
0 0 0 907 765041 -117634 0
0 0 0 867 765908 -116767 0
0 0 0 813 766721 -115954 0
0 0 0 760 767481 -115194 0
0 0 0 714 768195 -114480 0
0 0 0 698 768893 -113782 0
0 0 0 666 769559 -113116 0
0 0 0 653 770212 -112463 0
0 0 0 713 770925 -111750 0
0 0 0 760 771685 -110990 0
0 0 0 782 772467 -110208 0
0 0 0 747 773214 -109461 0
0 0 0 733 773947 -108728 0
0 0 0 715 774662 -108013 0
0 0 0 693 775355 -107320 0
0 0 0 682 776037 -106638 0
0 0 0 666 776703 -105972 0
0 0 0 678 777381 -105294 0
0 0 0 683 778064 -104611 0
0 0 0 715 778779 -103896 0
0 0 0 684 779463 -103212 0
0 0 0 669 780132 -102543 0
0 0 0 735 780867 -101808 0
0 0 0 787 781654 -101021 0
0 0 0 771 782425 -100250 0
0 0 0 759 783184 -99491 0
0 0 0 768 783952 -98723 0
0 0 0 752 784704 -97971 0
0 0 0 791 785495 -97180 0
0 0 0 747 786242 -96433 0
0 0 0 715 786957 -95718 0
0 0 0 698 787655 -95020 0
0 0 0 684 788339 -94336 0
0 0 0 663 789002 -93673 0
0 0 0 654 789656 -93019 0
0 0 0 649 790305 -92370 0
0 0 0 649 790954 -91721 0
0 0 0 705 791659 -91016 0
0 0 0 890 792549 -90126 0
0 0 0 1067 793616 -89059 0
0 0 0 956 794572 -88103 0
0 0 0 880 795452 -87223 0
0 0 0 809 796261 -86414 0
0 0 0 758 797019 -85656 0
0 0 0 712 797731 -84944 0
0 0 0 673 798404 -84271 0
0 0 0 652 799056 -83619 0
0 0 0 655 799711 -82964 0
0 0 0 1503 801214 -81461 0
0 0 0 831 802045 -80630 0
0 0 0 856 802901 -79774 0
0 0 0 753 803654 -79021 0
0 0 0 759 804413 -78262 0
0 0 0 783 805196 -77479 0
0 0 0 858 806054 -76621 0
0 0 0 826 806880 -75795 0
0 0 0 737 807617 -75058 0
0 0 0 715 808332 -74343 0
0 0 0 704 809036 -73639 0
0 0 0 707 809743 -72932 0
0 0 0 770 810513 -72162 0
0 0 0 750 811263 -71412 0
0 0 0 696 811959 -70716 0
0 0 0 696 812655 -70020 0
0 0 0 724 813379 -69296 0
0 0 0 774 814153 -68522 0
0 0 0 788 814941 -67734 0
0 0 0 727 815668 -67007 0
0 0 0 770 816438 -66237 0
0 0 0 908 817346 -65329 0
0 0 0 935 818281 -64394 0
0 0 0 878 819159 -63516 0
0 0 0 767 819926 -62749 0
0 0 0 788 820714 -61961 0
0 0 0 832 821546 -61129 0
0 0 0 876 822422 -60253 0
0 0 0 806 823228 -59447 0
0 0 0 844 824072 -58603 0
0 0 0 945 825017 -57658 0
0 0 0 1028 826045 -56630 0
0 0 0 874 826919 -55756 0
0 0 0 816 827735 -54940 0
0 0 0 823 828558 -54117 0
0 0 0 913 829471 -53204 0
0 0 0 866 830337 -52338 0
0 0 0 806 831143 -51532 0
0 0 0 862 832005 -50670 0
0 0 0 1084 833089 -49586 0
0 0 0 1019 834108 -48567 0
0 0 0 941 835049 -47626 0
0 0 0 830 835879 -46796 0
0 0 0 884 836763 -45912 0
0 0 0 931 837694 -44981 0
0 0 0 888 838582 -44093 0
0 0 0 849 839431 -43244 0
0 0 0 900 840331 -42344 0
0 0 0 876 841207 -41468 0
0 0 0 736 841943 -40732 0
0 0 0 721 842664 -40011 0
0 0 0 790 843454 -39221 0
0 0 0 750 844204 -38471 0
0 0 0 804 845008 -37667 0
0 0 0 919 845927 -36748 0
0 0 0 816 846743 -35932 0
0 0 0 762 847505 -35170 0
0 0 0 734 848239 -34436 0
0 0 0 14533 862772 -19903 1
0 0 0 850 863622 -19053 0
0 0 0 1650 865272 -17403 0
0 0 0 682 865954 -16721 0
0 0 0 582 866536 -16139 0
0 0 0 1900 868436 -14239 0
0 0 0 1211 869647 -13028 0
41 2 S102 19691 889338 6663 1
0 0 0 966 890304 -6778 0
0 0 0 956 891260 -5822 0
0 0 0 861 892121 -4961 0
0 0 0 781 892902 -4180 0
0 0 0 798 893700 -3382 0
0 0 0 790 894490 -2592 0
42 1 S112 826 895316 -1766 0
42 1 S112 816 896132 -950 0
42 1 S112 802 896934 -148 0
42 2 S112 887 897821 739 0
42 2 S112 928 898749 1667 0
42 2 S112 999 899748 2666 0
42 2 S112 965 900713 3631 0
42 2 S112 855 901568 4486 0
42 2 S112 892 902460 5378 0
42 2 S112 989 903449 6367 0
0 0 0 1086 904535 -9507 0
0 0 0 1037 905572 -8470 0
0 0 0 907 906479 -7563 0
0 0 0 891 907370 -6672 0
0 0 0 909 908279 -5763 0
0 0 0 981 909260 -4782 0
0 0 0 929 910189 -3853 0
0 0 0 1015 911204 -2838 0
43 1 S116 1035 912239 -1803 0
43 1 S116 988 913227 -815 0
43 2 S116 916 914143 101 0
43 2 S116 907 915050 1008 0
43 2 S116 967 916017 1975 0
43 2 S116 961 916978 2936 0
43 2 S116 917 917895 3853 0
43 2 S116 836 918731 4689 0
43 2 S116 899 919630 5588 0
43 2 S116 979 920609 6567 0
0 0 0 1046 921655 -7274 0
0 0 0 930 922585 -6344 0
0 0 0 879 923464 -5465 0
0 0 0 928 924392 -4537 0
0 0 0 932 925324 -3605 0
0 0 0 886 926210 -2719 0
44 1 S102 872 927082 -1847 0
44 1 S102 946 928028 -901 0
44 2 S102 976 929004 75 0
44 2 S102 954 929958 1029 0
44 2 S102 886 930844 1915 0
44 2 S102 839 931683 2754 0
44 2 S102 859 932542 3613 0
44 2 S102 875 933417 4488 0
44 2 S102 906 934323 5394 0
44 2 S102 853 935176 6247 0
0 0 0 813 935989 -10381 0
0 0 0 857 936846 -9524 0
0 0 0 929 937775 -8595 0
0 0 0 989 938764 -7606 0
0 0 0 975 939739 -6631 0
0 0 0 877 940616 -5754 0
0 0 0 838 941454 -4916 0
0 0 0 884 942338 -4032 0
0 0 0 867 943205 -3165 0
0 0 0 875 944080 -2290 0
45 1 S116 859 944939 -1431 0
45 1 S116 818 945757 -613 0
45 2 S116 856 946613 243 0
45 2 S116 885 947498 1128 0
45 2 S116 899 948397 2027 0
45 2 S116 824 949221 2851 0
45 2 S116 892 950113 3743 0
45 2 S116 940 951053 4683 0
45 2 S116 974 952027 5657 0
45 2 S116 922 952949 6579 0
0 0 0 896 953845 -13098 0
0 0 0 900 954745 -12198 0
0 0 0 930 955675 -11268 0
0 0 0 926 956601 -10342 0
0 0 0 869 957470 -9473 0
0 0 0 901 958371 -8572 0
0 0 0 908 959279 -7664 0
0 0 0 886 960165 -6778 0
0 0 0 815 960980 -5963 0
0 0 0 805 961785 -5158 0
0 0 0 845 962630 -4313 0
0 0 0 917 963547 -3396 0
0 0 0 935 964482 -2461 0
46 1 S102 885 965367 -1576 0
46 1 S102 863 966230 -713 0
46 2 S102 898 967128 185 0
46 2 S102 970 968098 1155 0
46 2 S102 969 969067 2124 0
46 2 S102 938 970005 3062 0
46 2 S102 898 970903 3960 0
46 2 S102 944 971847 4904 0
46 2 S102 960 972807 5864 0
46 2 S102 950 973757 6814 0
0 0 0 880 974637 -8669 0
0 0 0 873 975510 -7796 0
0 0 0 905 976415 -6891 0
0 0 0 898 977313 -5993 0
0 0 0 878 978191 -5115 0
0 0 0 845 979036 -4270 0
0 0 0 870 979906 -3400 0
0 0 0 935 980841 -2465 0
47 1 S112 1023 981864 -1442 0
47 1 S112 988 982852 -454 0
47 2 S112 844 983696 390 0
47 2 S112 872 984568 1262 0
47 2 S112 924 985492 2186 0
47 2 S112 924 986416 3110 0
47 2 S112 883 987299 3993 0
47 2 S112 826 988125 4819 0
47 2 S112 872 988997 5691 0
47 2 S112 906 989903 6597 0
0 0 0 948 990851 -11355 0
0 0 0 878 991729 -10477 0
0 0 0 865 992594 -9612 0
0 0 0 907 993501 -8705 0
0 0 0 863 994364 -7842 0
0 0 0 805 995169 -7037 0
0 0 0 827 995996 -6210 0
0 0 0 836 996832 -5374 0
0 0 0 856 997688 -4518 0
0 0 0 823 998511 -3695 0
0 0 0 793 999304 -2902 0
0 0 0 817 1000121 -2085 0
48 1 S116 817 1000938 -1268 0
48 1 S116 845 1001783 -423 0
48 2 S116 785 1002568 362 0
48 2 S116 780 1003348 1142 0
48 2 S116 823 1004171 1965 0
48 2 S116 875 1005046 2840 0
48 2 S116 885 1005931 3725 0
48 2 S116 837 1006768 4562 0
48 2 S116 869 1007637 5431 0
48 2 S116 931 1008568 6362 0
0 0 0 974 1009542 -7966 0
0 0 0 908 1010450 -7058 0
0 0 0 862 1011312 -6196 0
0 0 0 875 1012187 -5321 0
0 0 0 852 1013039 -4469 0
0 0 0 882 1013921 -3587 0
0 0 0 845 1014766 -2742 0
49 1 S112 797 1015563 -1945 0
49 1 S112 806 1016369 -1139 0
49 1 S112 824 1017193 -315 0
49 2 S112 831 1018024 516 0
49 2 S112 811 1018835 1327 0
49 2 S112 794 1019629 2121 0
49 2 S112 848 1020477 2969 0
49 2 S112 897 1021374 3866 0
49 2 S112 944 1022318 4810 0
49 2 S112 925 1023243 5735 0
49 2 S112 877 1024120 6612 0
0 0 0 903 1025023 -10638 0
0 0 0 912 1025935 -9726 0
0 0 0 894 1026829 -8832 0
0 0 0 848 1027677 -7984 0
0 0 0 843 1028520 -7141 0
0 0 0 892 1029412 -6249 0
0 0 0 928 1030340 -5321 0
0 0 0 935 1031275 -4386 0
0 0 0 892 1032167 -3494 0
0 0 0 885 1033052 -2609 0
50 1 S106 884 1033936 -1725 0
50 1 S106 917 1034853 -808 0
50 2 S106 866 1035719 58 0
50 2 S106 825 1036544 883 0
50 2 S106 875 1037419 1758 0
50 2 S106 921 1038340 2679 0
50 2 S106 952 1039292 3631 0
50 2 S106 903 1040195 4534 0
50 2 S106 901 1041096 5435 0
50 2 S106 945 1042041 6380 0
0 0 0 933 1042974 -6629 0
0 0 0 928 1043902 -5701 0
0 0 0 909 1044811 -4792 0
0 0 0 824 1045635 -3968 0
0 0 0 853 1046488 -3115 0
0 0 0 886 1047374 -2229 0
51 1 S112 940 1048314 -1289 0
51 1 S112 912 1049226 -377 0
51 2 S112 843 1050069 466 0
51 2 S112 863 1050932 1329 0
51 2 S112 888 1051820 2217 0
51 2 S112 914 1052734 3131 0
51 2 S112 882 1053616 4013 0
51 2 S112 817 1054433 4830 0
51 2 S112 882 1055315 5712 0
51 2 S112 971 1056286 6683 0
0 0 0 969 1057255 -6374 0
0 0 0 894 1058149 -5480 0
0 0 0 860 1059009 -4620 0
0 0 0 874 1059883 -3746 0
0 0 0 837 1060720 -2909 0
0 0 0 795 1061515 -2114 0
52 1 S116 759 1062274 -1355 0
52 1 S116 724 1062998 -631 0
52 2 S116 733 1063731 102 0
52 2 S116 946 1064677 1048 0
52 2 S116 880 1065557 1928 0
52 2 S116 850 1066407 2778 0
52 2 S116 811 1067218 3589 0
52 2 S116 813 1068031 4402 0
52 2 S116 767 1068798 5169 0
52 2 S116 742 1069540 5911 0
52 2 S116 750 1070290 6661 0
0 0 0 772 1071062 -9808 0
0 0 0 764 1071826 -9044 0
0 0 0 738 1072564 -8306 0
0 0 0 759 1073323 -7547 0
0 0 0 748 1074071 -6799 0
0 0 0 757 1074828 -6042 0
0 0 0 774 1075602 -5268 0
0 0 0 782 1076384 -4486 0
0 0 0 759 1077143 -3727 0
0 0 0 761 1077904 -2966 0
0 0 0 829 1078733 -2137 0
53 1 S106 867 1079600 -1270 0
53 1 S106 887 1080487 -383 0
53 2 S106 881 1081368 498 0
53 2 S106 938 1082306 1436 0
53 2 S106 935 1083241 2371 0
53 2 S106 884 1084125 3255 0
53 2 S106 827 1084952 4082 0
53 2 S106 873 1085825 4955 0
53 2 S106 908 1086733 5863 0
53 2 S106 962 1087695 6825 0
0 0 0 942 1088637 -6341 0
0 0 0 932 1089569 -5409 0
0 0 0 909 1090478 -4500 0
0 0 0 890 1091368 -3610 0
0 0 0 813 1092181 -2797 0
54 1 S102 797 1092978 -2000 0
54 1 S102 839 1093817 -1161 0
54 1 S102 886 1094703 -275 0
54 2 S102 965 1095668 690 0
54 2 S102 914 1096582 1604 0
54 2 S102 895 1097477 2499 0
54 2 S102 932 1098409 3431 0
54 2 S102 968 1099377 4399 0
54 2 S102 949 1100326 5348 0
54 2 S102 905 1101231 6253 0
0 0 0 884 1102115 -10370 0
0 0 0 885 1103000 -9485 0
0 0 0 845 1103845 -8640 0
0 0 0 809 1104654 -7831 0
0 0 0 773 1105427 -7058 0
0 0 0 764 1106191 -6294 0
0 0 0 787 1106978 -5507 0
0 0 0 796 1107774 -4711 0
0 0 0 827 1108601 -3884 0
0 0 0 791 1109392 -3093 0
0 0 0 766 1110158 -2327 0
55 1 S106 774 1110932 -1553 0
55 1 S106 771 1111703 -782 0
55 1 S106 749 1112452 -33 0
55 2 S106 719 1113171 686 0
55 2 S106 704 1113875 1390 0
55 2 S106 698 1114573 2088 0
55 2 S106 705 1115278 2793 0
55 2 S106 739 1116017 3532 0
55 2 S106 732 1116749 4264 0
55 2 S106 720 1117469 4984 0
55 2 S106 739 1118208 5723 0
55 2 S106 752 1118960 6475 0
0 0 0 722 1119682 -7309 0
0 0 0 750 1120432 -6559 0
0 0 0 789 1121221 -5770 0
0 0 0 861 1122082 -4909 0
0 0 0 872 1122954 -4037 0
0 0 0 819 1123773 -3218 0
0 0 0 797 1124570 -2421 0
56 1 S116 868 1125438 -1553 0
56 1 S116 894 1126332 -659 0
56 2 S116 943 1127275 284 0
56 2 S116 906 1128181 1190 0
56 2 S116 824 1129005 2014 0
56 2 S116 866 1129871 2880 0
56 2 S116 896 1130767 3776 0
56 2 S116 943 1131710 4719 0
56 2 S116 965 1132675 5684 0
56 2 S116 894 1133569 6578 0
0 0 0 896 1134465 -6585 0
0 0 0 894 1135359 -5691 0
0 0 0 891 1136250 -4800 0
0 0 0 861 1137111 -3939 0
0 0 0 801 1137912 -3138 0
0 0 0 815 1138727 -2323 0
57 1 S106 863 1139590 -1460 0
57 1 S106 892 1140482 -568 0
57 2 S106 912 1141394 344 0
57 2 S106 846 1142240 1190 0
57 2 S106 855 1143095 2045 0
57 2 S106 896 1143991 2941 0
57 2 S106 936 1144927 3877 0
57 2 S106 908 1145835 4785 0
57 2 S106 841 1146676 5626 0
57 2 S106 870 1147546 6496 0
0 0 0 883 1148429 -9183 0
0 0 0 906 1149335 -8277 0
0 0 0 902 1150237 -7375 0
0 0 0 839 1151076 -6536 0
0 0 0 799 1151875 -5737 0
0 0 0 846 1152721 -4891 0
0 0 0 867 1153588 -4024 0
0 0 0 888 1154476 -3136 0
0 0 0 837 1155313 -2299 0
58 1 S102 799 1156112 -1500 0
58 1 S102 850 1156962 -650 0
58 2 S102 870 1157832 220 0
58 2 S102 892 1158724 1112 0
58 2 S102 839 1159563 1951 0
58 2 S102 798 1160361 2749 0
58 2 S102 848 1161209 3597 0
58 2 S102 849 1162058 4446 0
58 2 S102 866 1162924 5312 0
58 2 S102 810 1163734 6122 0
58 2 S102 817 1164551 6939 0
0 0 0 834 1165385 -6666 0
0 0 0 833 1166218 -5833 0
0 0 0 852 1167070 -4981 0
0 0 0 790 1167860 -4191 0
0 0 0 780 1168640 -3411 0
0 0 0 792 1169432 -2619 0
59 1 S112 814 1170246 -1805 0
59 1 S112 844 1171090 -961 0
59 1 S112 849 1171939 -112 0
59 2 S112 801 1172740 689 0
59 2 S112 860 1173600 1549 0
59 2 S112 881 1174481 2430 0
59 2 S112 894 1175375 3324 0
59 2 S112 842 1176217 4166 0
59 2 S112 869 1177086 5035 0
59 2 S112 889 1177975 5924 0
59 2 S112 927 1178902 6851 0
0 0 0 957 1179859 -8870 0
0 0 0 908 1180767 -7962 0
0 0 0 831 1181598 -7131 0
0 0 0 821 1182419 -6310 0
0 0 0 825 1183244 -5485 0
0 0 0 856 1184100 -4629 0
0 0 0 900 1185000 -3729 0
0 0 0 852 1185852 -2877 0
0 0 0 836 1186688 -2041 0
60 1 S102 893 1187581 -1148 0
60 1 S102 946 1188527 -202 0
60 2 S102 979 1189506 777 0
60 2 S102 910 1190416 1687 0
60 2 S102 834 1191250 2521 0
60 2 S102 869 1192119 3390 0
60 2 S102 878 1192997 4268 0
60 2 S102 909 1193906 5177 0
60 2 S102 877 1194783 6054 0
60 2 S102 824 1195607 6878 0
0 0 0 909 1196516 -11444 0
0 0 0 972 1197488 -10472 0
0 0 0 1058 1198546 -9414 0
0 0 0 921 1199467 -8493 0
0 0 0 875 1200342 -7618 0
0 0 0 931 1201273 -6687 0
0 0 0 987 1202260 -5700 0
0 0 0 951 1203211 -4749 0
0 0 0 856 1204067 -3893 0
0 0 0 839 1204906 -3054 0
0 0 0 825 1205731 -2229 0
61 1 S106 823 1206554 -1406 0
61 1 S106 817 1207371 -589 0
61 2 S106 770 1208141 181 0
61 2 S106 759 1208900 940 0
61 2 S106 796 1209696 1736 0
61 2 S106 840 1210536 2576 0
61 2 S106 920 1211456 3496 0
61 2 S106 906 1212362 4402 0
61 2 S106 838 1213200 5240 0
61 2 S106 873 1214073 6113 0
61 2 S106 862 1214935 6975 0
0 0 0 873 1215808 -6095 0
0 0 0 810 1216618 -5285 0
0 0 0 821 1217439 -4464 0
0 0 0 822 1218261 -3642 0
0 0 0 830 1219091 -2812 0
0 0 0 790 1219881 -2022 0
62 1 S112 788 1220669 -1234 0
62 1 S112 761 1221430 -473 0
62 2 S112 729 1222159 256 0
62 2 S112 722 1222881 978 0
62 2 S112 726 1223607 1704 0
62 2 S112 702 1224309 2406 0
62 2 S112 709 1225018 3115 0
62 2 S112 714 1225732 3829 0
62 2 S112 720 1226452 4549 0
62 2 S112 733 1227185 5282 0
62 2 S112 763 1227948 6045 0
62 2 S112 719 1228667 6764 0
0 0 0 703 1229370 -12725 0
0 0 0 729 1230099 -11996 0
0 0 0 746 1230845 -11250 0
0 0 0 782 1231627 -10468 0
0 0 0 785 1232412 -9683 0
0 0 0 749 1233161 -8934 0
0 0 0 756 1233917 -8178 0
0 0 0 807 1234724 -7371 0
0 0 0 872 1235596 -6499 0
0 0 0 942 1236538 -5557 0
0 0 0 855 1237393 -4702 0
0 0 0 818 1238211 -3884 0
0 0 0 841 1239052 -3043 0
0 0 0 825 1239877 -2218 0
63 1 S102 830 1240707 -1388 0
63 1 S102 823 1241530 -565 0
63 2 S102 774 1242304 209 0
63 2 S102 734 1243038 943 0
63 2 S102 754 1243792 1697 0
63 2 S102 773 1244565 2470 0
63 2 S102 797 1245362 3267 0
63 2 S102 765 1246127 4032 0
63 2 S102 722 1246849 4754 0
63 2 S102 719 1247568 5473 0
63 2 S102 773 1248341 6246 0
0 0 0 950 1249291 -8753 0
0 0 0 942 1250233 -7811 0
0 0 0 925 1251158 -6886 0
0 0 0 822 1251980 -6064 0
0 0 0 825 1252805 -5239 0
0 0 0 826 1253631 -4413 0
0 0 0 835 1254466 -3578 0
0 0 0 809 1255275 -2769 0
64 1 S112 774 1256049 -1995 0
64 1 S112 779 1256828 -1216 0
64 1 S112 806 1257634 -410 0
64 2 S112 844 1258478 434 0
64 2 S112 866 1259344 1300 0
64 2 S112 881 1260225 2181 0
64 2 S112 833 1261058 3014 0
64 2 S112 841 1261899 3855 0
64 2 S112 853 1262752 4708 0
64 2 S112 851 1263603 5559 0
64 2 S112 792 1264395 6351 0
0 0 0 824 1265219 -6916 0
0 0 0 879 1266098 -6037 0
0 0 0 904 1267002 -5133 0
0 0 0 880 1267882 -4253 0
0 0 0 800 1268682 -3453 0
0 0 0 842 1269524 -2611 0
65 1 S106 892 1270416 -1719 0
65 1 S106 913 1271329 -806 0
65 2 S106 856 1272185 50 0
65 2 S106 827 1273012 877 0
65 2 S106 861 1273873 1738 0
65 2 S106 886 1274759 2624 0
65 2 S106 881 1275640 3505 0
65 2 S106 811 1276451 4316 0
65 2 S106 808 1277259 5124 0
65 2 S106 849 1278108 5973 0
65 2 S106 859 1278967 6832 0
0 0 0 914 1279881 -6363 0
0 0 0 910 1280791 -5453 0
0 0 0 820 1281611 -4633 0
0 0 0 900 1282511 -3733 0
0 0 0 948 1283459 -2785 0
66 1 S116 993 1284452 -1792 0
66 1 S116 951 1285403 -841 0
66 1 S116 820 1286223 -21 0
66 2 S116 816 1287039 795 0
66 2 S116 818 1287857 1613 0
66 2 S116 835 1288692 2448 0
66 2 S116 793 1289485 3241 0
66 2 S116 918 1290403 4159 0
66 2 S116 1061 1291464 5220 0
66 2 S116 1089 1292553 6309 0
0 0 0 1006 1293559 -11816 0
0 0 0 967 1294526 -10849 0
0 0 0 982 1295508 -9867 0
0 0 0 994 1296502 -8873 0
0 0 0 895 1297397 -7978 0
0 0 0 849 1298246 -7129 0
0 0 0 863 1299109 -6266 0
0 0 0 869 1299978 -5397 0
0 0 0 865 1300843 -4532 0
0 0 0 820 1301663 -3712 0
0 0 0 828 1302491 -2884 0
67 1 S102 917 1303408 -1967 0
67 1 S102 948 1304356 -1019 0
67 1 S102 903 1305259 -116 0
67 2 S102 865 1306124 749 0
67 2 S102 943 1307067 1692 0
67 2 S102 955 1308022 2647 0
67 2 S102 944 1308966 3591 0
67 2 S102 899 1309865 4490 0
67 2 S102 859 1310724 5349 0
67 2 S102 900 1311624 6249 0
0 0 0 916 1312540 -7374 0
0 0 0 994 1313534 -6380 0
0 0 0 947 1314481 -5433 0
0 0 0 843 1315324 -4590 0
0 0 0 797 1316121 -3793 0
0 0 0 828 1316949 -2965 0
0 0 0 869 1317818 -2096 0
68 1 S106 920 1318738 -1176 0
68 1 S106 990 1319728 -186 0
68 2 S106 971 1320699 785 0
68 2 S106 990 1321689 1775 0
68 2 S106 990 1322679 2765 0
68 2 S106 959 1323638 3724 0
68 2 S106 904 1324542 4628 0
68 2 S106 871 1325413 5499 0
68 2 S106 907 1326320 6406 0
0 0 0 906 1327226 -11206 0
0 0 0 928 1328154 -10278 0
0 0 0 910 1329064 -9368 0
0 0 0 808 1329872 -8560 0
0 0 0 805 1330677 -7755 0
0 0 0 817 1331494 -6938 0
0 0 0 873 1332367 -6065 0
0 0 0 893 1333260 -5172 0
0 0 0 862 1334122 -4310 0
0 0 0 879 1335001 -3431 0
0 0 0 932 1335933 -2499 0
69 1 S102 1081 1337014 -1418 0
69 1 S102 1010 1338024 -408 0
69 2 S102 900 1338924 492 0
69 2 S102 917 1339841 1409 0
69 2 S102 864 1340705 2273 0
69 2 S102 862 1341567 3135 0
69 2 S102 770 1342337 3905 0
69 2 S102 741 1343078 4646 0
69 2 S102 727 1343805 5373 0
69 2 S102 719 1344524 6092 0
69 2 S102 742 1345266 6834 0
0 0 0 717 1345983 -8514 0
0 0 0 704 1346687 -7810 0
0 0 0 759 1347446 -7051 0
0 0 0 832 1348278 -6219 0
0 0 0 778 1349056 -5441 0
0 0 0 756 1349812 -4685 0
0 0 0 747 1350559 -3938 0
0 0 0 754 1351313 -3184 0
0 0 0 728 1352041 -2456 0
70 1 S112 717 1352758 -1739 0
70 1 S112 726 1353484 -1013 0
70 1 S112 722 1354206 -291 0
70 2 S112 722 1354928 431 0
70 2 S112 743 1355671 1174 0
70 2 S112 736 1356407 1910 0
70 2 S112 742 1357149 2652 0
70 2 S112 822 1357971 3474 0
70 2 S112 924 1358895 4398 0
70 2 S112 974 1359869 5372 0
70 2 S112 950 1360819 6322 0
0 0 0 888 1361707 -12021 0
0 0 0 844 1362551 -11177 0
0 0 0 897 1363448 -10280 0
0 0 0 940 1364388 -9340 0
0 0 0 940 1365328 -8400 0
0 0 0 857 1366185 -7543 0
0 0 0 809 1366994 -6734 0
0 0 0 845 1367839 -5889 0
0 0 0 906 1368745 -4983 0
0 0 0 960 1369705 -4023 0
0 0 0 926 1370631 -3097 0
0 0 0 842 1371473 -2255 0
71 1 S116 854 1372327 -1401 0
71 1 S116 889 1373216 -512 0
71 2 S116 921 1374137 409 0
71 2 S116 902 1375039 1311 0
71 2 S116 820 1375859 2131 0
71 2 S116 872 1376731 3003 0
71 2 S116 946 1377677 3949 0
71 2 S116 925 1378602 4874 0
71 2 S116 835 1379437 5709 0
71 2 S116 841 1380278 6550 0
0 0 0 880 1381158 -9463 0
0 0 0 959 1382117 -8504 0
0 0 0 893 1383010 -7611 0
0 0 0 791 1383801 -6820 0
0 0 0 792 1384593 -6028 0
0 0 0 813 1385406 -5215 0
0 0 0 831 1386237 -4384 0
0 0 0 828 1387065 -3556 0
0 0 0 787 1387852 -2769 0
0 0 0 766 1388618 -2003 0
72 1 S102 818 1389436 -1185 0
72 1 S102 882 1390318 -303 0
72 2 S102 935 1391253 632 0
72 2 S102 880 1392133 1512 0
72 2 S102 870 1393003 2382 0
72 2 S102 936 1393939 3318 0
72 2 S102 945 1394884 4263 0
72 2 S102 908 1395792 5171 0
72 2 S102 797 1396589 5968 0
72 2 S102 738 1397327 6706 0
0 0 0 723 1398050 -6331 0
0 0 0 1177 1399227 -5154 0
0 0 0 1105 1400332 -4049 0
0 0 0 977 1401309 -3072 0
0 0 0 933 1402242 -2139 0
73 1 S116 912 1403154 -1227 0
73 1 S116 876 1404030 -351 0
73 2 S116 847 1404877 496 0
73 2 S116 827 1405704 1323 0
73 2 S116 841 1406545 2164 0
73 2 S116 829 1407374 2993 0
73 2 S116 784 1408158 3777 0
73 2 S116 839 1408997 4616 0
73 2 S116 883 1409880 5499 0
73 2 S116 924 1410804 6423 0
0 0 0 958 1411762 -9678 0
0 0 0 926 1412688 -8752 0
0 0 0 859 1413547 -7893 0
0 0 0 845 1414392 -7048 0
0 0 0 814 1415206 -6234 0
0 0 0 809 1416015 -5425 0
0 0 0 816 1416831 -4609 0
0 0 0 786 1417617 -3823 0
0 0 0 771 1418388 -3052 0
0 0 0 810 1419198 -2242 0
74 1 S106 830 1420028 -1412 0
74 1 S106 860 1420888 -552 0
74 2 S106 829 1421717 277 0
74 2 S106 859 1422576 1136 0
74 2 S106 878 1423454 2014 0
74 2 S106 892 1424346 2906 0
74 2 S106 888 1425234 3794 0
74 2 S106 849 1426083 4643 0
74 2 S106 830 1426913 5473 0
74 2 S106 842 1427755 6315 0
0 0 0 854 1428609 -6708 0
0 0 0 866 1429475 -5842 0
0 0 0 799 1430274 -5043 0
0 0 0 823 1431097 -4220 0
0 0 0 816 1431913 -3404 0
0 0 0 853 1432766 -2551 0
75 1 S112 812 1433578 -1739 0
75 1 S112 791 1434369 -948 0
75 1 S112 797 1435166 -151 0
75 2 S112 857 1436023 706 0
75 2 S112 879 1436902 1585 0
75 2 S112 831 1437733 2416 0
75 2 S112 787 1438520 3203 0
75 2 S112 851 1439371 4054 0
75 2 S112 921 1440292 4975 0
75 2 S112 878 1441170 5853 0
75 2 S112 877 1442047 6730 0
0 0 0 857 1442904 -7018 0
0 0 0 801 1443705 -6217 0
0 0 0 798 1444503 -5419 0
0 0 0 801 1445304 -4618 0
0 0 0 797 1446101 -3821 0
0 0 0 820 1446921 -3001 0
0 0 0 797 1447718 -2204 0
76 1 S116 809 1448527 -1395 0
76 1 S116 837 1449364 -558 0
76 2 S116 872 1450236 314 0
76 2 S116 924 1451160 1238 0
76 2 S116 919 1452079 2157 0
76 2 S116 856 1452935 3013 0
76 2 S116 904 1453839 3917 0
76 2 S116 917 1454756 4834 0
76 2 S116 899 1455655 5733 0
76 2 S116 837 1456492 6570 0
0 0 0 811 1457303 -7772 0
0 0 0 852 1458155 -6920 0
0 0 0 874 1459029 -6046 0
0 0 0 918 1459947 -5128 0
0 0 0 845 1460792 -4283 0
0 0 0 819 1461611 -3464 0
0 0 0 856 1462467 -2608 0
77 1 S106 901 1463368 -1707 0
77 1 S106 920 1464288 -787 0
77 2 S106 889 1465177 102 0
77 2 S106 863 1466040 965 0
77 2 S106 880 1466920 1845 0
77 2 S106 860 1467780 2705 0
77 2 S106 811 1468591 3516 0
77 2 S106 749 1469340 4265 0
77 2 S106 768 1470108 5033 0
77 2 S106 782 1470890 5815 0
77 2 S106 811 1471701 6626 0
0 0 0 852 1472553 -8885 0
0 0 0 821 1473374 -8064 0
0 0 0 803 1474177 -7261 0
0 0 0 843 1475020 -6418 0
0 0 0 866 1475886 -5552 0
0 0 0 829 1476715 -4723 0
0 0 0 774 1477489 -3949 0
0 0 0 784 1478273 -3165 0
0 0 0 789 1479062 -2376 0
78 1 S112 806 1479868 -1570 0
78 1 S112 836 1480704 -734 0
78 2 S112 818 1481522 84 0
78 2 S112 768 1482290 852 0
78 2 S112 793 1483083 1645 0
78 2 S112 817 1483900 2462 0
78 2 S112 861 1484761 3323 0
78 2 S112 874 1485635 4197 0
78 2 S112 844 1486479 5041 0
78 2 S112 827 1487306 5868 0
78 2 S112 898 1488204 6766 0
0 0 0 932 1489136 -11251 0
0 0 0 961 1490097 -10290 0
0 0 0 966 1491063 -9324 0
0 0 0 878 1491941 -8446 0
0 0 0 835 1492776 -7611 0
0 0 0 843 1493619 -6768 0
0 0 0 852 1494471 -5916 0
0 0 0 853 1495324 -5063 0
0 0 0 854 1496178 -4209 0
0 0 0 816 1496994 -3393 0
0 0 0 810 1497804 -2583 0
79 1 S102 809 1498613 -1774 0
79 1 S102 838 1499451 -936 0
79 1 S102 866 1500317 -70 0
79 2 S102 819 1501136 749 0
79 2 S102 861 1501997 1610 0
79 2 S102 892 1502889 2502 0
79 2 S102 962 1503851 3464 0
79 2 S102 930 1504781 4394 0
79 2 S102 890 1505671 5284 0
79 2 S102 906 1506577 6190 0
0 0 0 945 1507522 -10289 0
0 0 0 929 1508451 -9360 0
0 0 0 872 1509323 -8488 0
0 0 0 807 1510130 -7681 0
0 0 0 817 1510947 -6864 0
0 0 0 835 1511782 -6029 0
0 0 0 837 1512619 -5192 0
0 0 0 821 1513440 -4371 0
0 0 0 791 1514231 -3580 0
0 0 0 868 1515099 -2712 0
80 1 S116 944 1516043 -1768 0
80 1 S116 958 1517001 -810 0
80 2 S116 913 1517914 103 0
80 2 S116 827 1518741 930 0
80 2 S116 854 1519595 1784 0
80 2 S116 855 1520450 2639 0
80 2 S116 860 1521310 3499 0
80 2 S116 826 1522136 4325 0
80 2 S116 788 1522924 5113 0
80 2 S116 815 1523739 5928 0
80 2 S116 884 1524623 6812 0
