T_0063
BeatCount Mean SD BeatCountNoOutliers MeanNoOutliers SDNoOutliers
1798 863,011123470523 66,298484332453 1754 867,271379703535 55,8882918454136

Trial TrialStatus Trialtype IBI AbsPosition RelPosition Outlier
0 0 0 616 1046 -14772 1
0 0 0 617 1663 -14155 1
0 0 0 618 2281 -13537 1
0 0 0 637 2918 -12900 1
0 0 0 611 3529 -12289 1
0 0 0 594 4123 -11695 1
0 0 0 589 4712 -11106 1
0 0 0 631 5343 -10475 1
0 0 0 757 6100 -9718 0
0 0 0 815 6915 -8903 0
0 0 0 932 7847 -7971 0
0 0 0 953 8800 -7018 0
0 0 0 946 9746 -6072 0
0 0 0 873 10619 -5199 0
0 0 0 806 11425 -4393 0
0 0 0 818 12243 -3575 0
0 0 0 781 13024 -2794 0
0 0 0 768 13792 -2026 0
1 1 S112 733 14525 -1293 0
1 1 S112 763 15288 -530 0
1 2 S112 787 16075 257 0
1 2 S112 849 16924 1106 0
1 2 S112 851 17775 1957 0
1 2 S112 788 18563 2745 0
1 2 S112 817 19380 3562 0
1 2 S112 848 20228 4410 0
1 2 S112 901 21129 5311 0
1 2 S112 891 22020 6202 0
0 0 0 882 22902 -12943 0
0 0 0 870 23772 -12073 0
0 0 0 805 24577 -11268 0
0 0 0 743 25320 -10525 0
0 0 0 731 26051 -9794 0
0 0 0 731 26782 -9063 0
0 0 0 696 27478 -8367 0
0 0 0 679 28157 -7688 1
0 0 0 754 28911 -6934 0
0 0 0 773 29684 -6161 0
0 0 0 944 30628 -5217 0
0 0 0 936 31564 -4281 0
0 0 0 889 32453 -3392 0
0 0 0 932 33385 -2460 0
2 1 S102 907 34292 -1553 0
2 1 S102 823 35115 -730 0
2 2 S102 823 35938 93 0
2 2 S102 852 36790 945 0
2 2 S102 832 37622 1777 0
2 2 S102 851 38473 2628 0
2 2 S102 861 39334 3489 0
2 2 S102 919 40253 4408 0
2 2 S102 837 41090 5245 0
2 2 S102 829 41919 6074 0
2 2 S102 862 42781 6936 0
0 0 0 874 43655 -8735 0
0 0 0 810 44465 -7925 0
0 0 0 876 45341 -7049 0
0 0 0 871 46212 -6178 0
0 0 0 818 47030 -5360 0
0 0 0 919 47949 -4441 0
0 0 0 934 48883 -3507 0
0 0 0 851 49734 -2656 0
3 1 S116 835 50569 -1821 0
3 1 S116 857 51426 -964 0
3 1 S116 911 52337 -53 0
3 2 S116 818 53155 765 0
3 2 S116 847 54002 1612 0
3 2 S116 874 54876 2486 0
3 2 S116 832 55708 3318 0
3 2 S116 847 56555 4165 0
3 2 S116 885 57440 5050 0
3 2 S116 899 58339 5949 0
3 2 S116 833 59172 6782 0
0 0 0 888 60060 -10716 0
0 0 0 903 60963 -9813 0
0 0 0 844 61807 -8969 0
0 0 0 861 62668 -8108 0
0 0 0 861 63529 -7247 0
0 0 0 810 64339 -6437 0
0 0 0 835 65174 -5602 0
0 0 0 878 66052 -4724 0
0 0 0 902 66954 -3822 0
0 0 0 834 67788 -2988 0
0 0 0 868 68656 -2120 0
4 1 S106 918 69574 -1202 0
4 1 S106 900 70474 -302 0
4 2 S106 840 71314 538 0
4 2 S106 902 72216 1440 0
4 2 S106 928 73144 2368 0
4 2 S106 852 73996 3220 0
4 2 S106 907 74903 4127 0
4 2 S106 934 75837 5061 0
4 2 S106 938 76775 5999 0
4 2 S106 875 77650 6874 0
0 0 0 974 78624 -7404 0
0 0 0 957 79581 -6447 0
0 0 0 868 80449 -5579 0
0 0 0 921 81370 -4658 0
0 0 0 861 82231 -3797 0
0 0 0 806 83037 -2991 0
0 0 0 842 83879 -2149 0
5 1 S116 906 84785 -1243 0
5 1 S116 972 85757 -271 0
5 2 S116 895 86652 624 0
5 2 S116 938 87590 1562 0
5 2 S116 947 88537 2509 0
5 2 S116 881 89418 3390 0
5 2 S116 844 90262 4234 0
5 2 S116 851 91113 5085 0
5 2 S116 846 91959 5931 0
5 2 S116 827 92786 6758 0
0 0 0 920 93706 -10923 0
0 0 0 933 94639 -9990 0
0 0 0 877 95516 -9113 0
0 0 0 957 96473 -8156 0
0 0 0 963 97436 -7193 0
0 0 0 873 98309 -6320 0
0 0 0 816 99125 -5504 0
0 0 0 823 99948 -4681 0
0 0 0 854 100802 -3827 0
0 0 0 810 101612 -3017 0
0 0 0 831 102443 -2186 0
6 1 S106 874 103317 -1312 0
6 1 S106 888 104205 -424 0
6 2 S106 846 105051 422 0
6 2 S106 888 105939 1310 0
6 2 S106 957 106896 2267 0
6 2 S106 855 107751 3122 0
6 2 S106 797 108548 3919 0
6 2 S106 863 109411 4782 0
6 2 S106 930 110341 5712 0
6 2 S106 904 111245 6616 0
0 0 0 861 112106 -13130 0
0 0 0 909 113015 -12221 0
0 0 0 918 113933 -11303 0
0 0 0 844 114777 -10459 0
0 0 0 882 115659 -9577 0
0 0 0 932 116591 -8645 0
0 0 0 879 117470 -7766 0
0 0 0 881 118351 -6885 0
0 0 0 886 119237 -5999 0
0 0 0 892 120129 -5107 0
0 0 0 912 121041 -4195 0
0 0 0 945 121986 -3250 0
0 0 0 892 122878 -2358 0
7 1 S102 929 123807 -1429 0
7 1 S102 937 124744 -492 0
7 2 S102 876 125620 384 0
7 2 S102 865 126485 1249 0
7 2 S102 914 127399 2163 0
7 2 S102 924 128323 3087 0
7 2 S102 908 129231 3995 0
7 2 S102 925 130156 4920 0
7 2 S102 908 131064 5828 0
7 2 S102 832 131896 6660 0
0 0 0 865 132761 -8738 0
0 0 0 870 133631 -7868 0
0 0 0 816 134447 -7052 0
0 0 0 830 135277 -6222 0
0 0 0 835 136112 -5387 0
0 0 0 802 136914 -4585 0
0 0 0 802 137716 -3783 0
0 0 0 875 138591 -2908 0
8 1 S112 908 139499 -2000 0
8 1 S112 853 140352 -1147 0
8 1 S112 775 141127 -372 0
8 2 S112 757 141884 385 0
8 2 S112 747 142631 1132 0
8 2 S112 724 143355 1856 0
8 2 S112 707 144062 2563 0
8 2 S112 731 144793 3294 0
8 2 S112 788 145581 4082 0
8 2 S112 833 146414 4915 0
8 2 S112 791 147205 5706 0
8 2 S112 810 148015 6516 0
0 0 0 783 148798 -7439 0
0 0 0 740 149538 -6699 0
0 0 0 730 150268 -5969 0
0 0 0 756 151024 -5213 0
0 0 0 828 151852 -4385 0
0 0 0 785 152637 -3600 0
0 0 0 804 153441 -2796 0
9 1 S116 882 154323 -1914 0
9 1 S116 950 155273 -964 0
9 1 S116 895 156168 -69 0
9 2 S116 942 157110 873 0
9 2 S116 955 158065 1828 0
9 2 S116 951 159016 2779 0
9 2 S116 851 159867 3630 0
9 2 S116 897 160764 4527 0
9 2 S116 947 161711 5474 0
9 2 S116 892 162603 6366 0
0 0 0 830 163433 -11588 0
0 0 0 840 164273 -10748 0
0 0 0 877 165150 -9871 0
0 0 0 942 166092 -8929 0
0 0 0 875 166967 -8054 0
0 0 0 977 167944 -7077 0
0 0 0 974 168918 -6103 0
0 0 0 911 169829 -5192 0
0 0 0 949 170778 -4243 0
0 0 0 947 171725 -3296 0
0 0 0 883 172608 -2413 0
10 1 S102 877 173485 -1536 0
10 1 S102 892 174377 -644 0
10 2 S102 935 175312 291 0
10 2 S102 912 176224 1203 0
10 2 S102 922 177146 2125 0
10 2 S102 960 178106 3085 0
10 2 S102 941 179047 4026 0
10 2 S102 841 179888 4867 0
10 2 S102 856 180744 5723 0
10 2 S102 866 181610 6589 0
0 0 0 843 182453 -11136 0
0 0 0 868 183321 -10268 0
0 0 0 954 184275 -9314 0
0 0 0 890 185165 -8424 0
0 0 0 893 186058 -7531 0
0 0 0 948 187006 -6583 0
0 0 0 894 187900 -5689 0
0 0 0 849 188749 -4840 0
0 0 0 880 189629 -3960 0
0 0 0 917 190546 -3043 0
0 0 0 865 191411 -2178 0
11 1 S112 805 192216 -1373 0
11 1 S112 840 193056 -533 0
11 2 S112 883 193939 350 0
11 2 S112 873 194812 1223 0
11 2 S112 857 195669 2080 0
11 2 S112 895 196564 2975 0
11 2 S112 941 197505 3916 0
11 2 S112 867 198372 4783 0
11 2 S112 891 199263 5674 0
11 2 S112 913 200176 6587 0
0 0 0 872 201048 -6002 0
0 0 0 860 201908 -5142 0
0 0 0 875 202783 -4267 0
0 0 0 840 203623 -3427 0
0 0 0 860 204483 -2567 0
12 1 S116 882 205365 -1685 0
12 1 S116 845 206210 -840 0
12 1 S116 810 207020 -30 0
12 2 S116 853 207873 823 0
12 2 S116 889 208762 1712 0
12 2 S116 855 209617 2567 0
12 2 S116 865 210482 3432 0
12 2 S116 913 211395 4345 0
12 2 S116 887 212282 5232 0
12 2 S116 798 213080 6030 0
12 2 S116 819 213899 6849 0
0 0 0 847 214746 -11983 0
0 0 0 859 215605 -11124 0
0 0 0 790 216395 -10334 0
0 0 0 864 217259 -9470 0
0 0 0 898 218157 -8572 0
0 0 0 816 218973 -7756 0
0 0 0 802 219775 -6954 0
0 0 0 895 220670 -6059 0
0 0 0 899 221569 -5160 0
0 0 0 823 222392 -4337 0
0 0 0 803 223195 -3534 0
0 0 0 835 224030 -2699 0
13 1 S112 907 224937 -1792 0
13 1 S112 875 225812 -917 0
13 1 S112 905 226717 -12 0
13 2 S112 917 227634 905 0
13 2 S112 936 228570 1841 0
13 2 S112 905 229475 2746 0
13 2 S112 942 230417 3688 0
13 2 S112 917 231334 4605 0
13 2 S112 868 232202 5473 0
13 2 S112 883 233085 6356 0
0 0 0 900 233985 -13351 0
0 0 0 911 234896 -12440 0
0 0 0 815 235711 -11625 0
0 0 0 841 236552 -10784 0
0 0 0 870 237422 -9914 0
0 0 0 894 238316 -9020 0
0 0 0 890 239206 -8130 0
0 0 0 921 240127 -7209 0
0 0 0 910 241037 -6299 0
0 0 0 832 241869 -5467 0
0 0 0 877 242746 -4590 0
0 0 0 888 243634 -3702 0
0 0 0 860 244494 -2842 0
14 1 S106 844 245338 -1998 0
14 1 S106 883 246221 -1115 0
14 1 S106 910 247131 -205 0
14 2 S106 916 248047 711 0
14 2 S106 814 248861 1525 0
14 2 S106 834 249695 2359 0
14 2 S106 889 250584 3248 0
14 2 S106 919 251503 4167 0
14 2 S106 877 252380 5044 0
14 2 S106 824 253204 5868 0
14 2 S106 919 254123 6787 0
0 0 0 951 255074 -10647 0
0 0 0 913 255987 -9734 0
0 0 0 851 256838 -8883 0
0 0 0 832 257670 -8051 0
0 0 0 809 258479 -7242 0
0 0 0 769 259248 -6473 0
0 0 0 793 260041 -5680 0
0 0 0 847 260888 -4833 0
0 0 0 936 261824 -3897 0
0 0 0 939 262763 -2958 0
0 0 0 838 263601 -2120 0
15 1 S116 781 264382 -1339 0
15 1 S116 808 265190 -531 0
15 2 S116 856 266046 325 0
15 2 S116 850 266896 1175 0
15 2 S116 779 267675 1954 0
15 2 S116 828 268503 2782 0
15 2 S116 944 269447 3726 0
15 2 S116 958 270405 4684 0
15 2 S116 840 271245 5524 0
15 2 S116 813 272058 6337 0
0 0 0 829 272887 -10374 0
0 0 0 894 273781 -9480 0
0 0 0 807 274588 -8673 0
0 0 0 782 275370 -7891 0
0 0 0 847 276217 -7044 0
0 0 0 868 277085 -6176 0
0 0 0 835 277920 -5341 0
0 0 0 827 278747 -4514 0
0 0 0 908 279655 -3606 0
0 0 0 946 280601 -2660 0
16 1 S116 883 281484 -1777 0
16 1 S116 830 282314 -947 0
16 1 S116 851 283165 -96 0
16 2 S116 893 284058 797 0
16 2 S116 885 284943 1682 0
16 2 S116 822 285765 2504 0
16 2 S116 886 286651 3390 0
16 2 S116 934 287585 4324 0
16 2 S116 901 288486 5225 0
16 2 S116 836 289322 6061 0
16 2 S116 878 290200 6939 0
0 0 0 915 291115 -7232 0
0 0 0 836 291951 -6396 0
0 0 0 804 292755 -5592 0
0 0 0 830 293585 -4762 0
0 0 0 851 294436 -3911 0
0 0 0 859 295295 -3052 0
0 0 0 778 296073 -2274 0
17 1 S106 818 296891 -1456 0
17 1 S106 875 297766 -581 0
17 2 S106 916 298682 335 0
17 2 S106 873 299555 1208 0
17 2 S106 834 300389 2042 0
17 2 S106 854 301243 2896 0
17 2 S106 891 302134 3787 0
17 2 S106 844 302978 4631 0
17 2 S106 866 303844 5497 0
17 2 S106 888 304732 6385 0
0 0 0 868 305600 -10221 0
0 0 0 845 306445 -9376 0
0 0 0 906 307351 -8470 0
0 0 0 840 308191 -7630 0
0 0 0 788 308979 -6842 0
0 0 0 849 309828 -5993 0
0 0 0 877 310705 -5116 0
0 0 0 876 311581 -4240 0
0 0 0 826 312407 -3414 0
0 0 0 872 313279 -2542 0
18 1 S102 895 314174 -1647 0
18 1 S102 870 315044 -777 0
18 2 S102 795 315839 18 0
18 2 S102 832 316671 850 0
18 2 S102 840 317511 1690 0
18 2 S102 881 318392 2571 0
18 2 S102 815 319207 3386 0
18 2 S102 943 320150 4329 0
18 2 S102 943 321093 5272 0
18 2 S102 902 321995 6174 0
18 2 S102 847 322842 7021 0
0 0 0 892 323734 -7041 0
0 0 0 857 324591 -6184 0
0 0 0 784 325375 -5400 0
0 0 0 817 326192 -4583 0
0 0 0 824 327016 -3759 0
0 0 0 872 327888 -2887 0
0 0 0 804 328692 -2083 0
19 1 S106 882 329574 -1201 0
19 1 S106 894 330468 -307 0
19 2 S106 875 331343 568 0
19 2 S106 800 332143 1368 0
19 2 S106 818 332961 2186 0
19 2 S106 849 333810 3035 0
19 2 S106 861 334671 3896 0
19 2 S106 807 335478 4703 0
19 2 S106 835 336313 5538 0
19 2 S106 897 337210 6435 0
0 0 0 873 338083 -10165 0
0 0 0 796 338879 -9369 0
0 0 0 826 339705 -8543 0
0 0 0 805 340510 -7738 0
0 0 0 783 341293 -6955 0
0 0 0 792 342085 -6163 0
0 0 0 880 342965 -5283 0
0 0 0 913 343878 -4370 0
0 0 0 864 344742 -3506 0
0 0 0 876 345618 -2630 0
20 1 S112 882 346500 -1748 0
20 1 S112 854 347354 -894 0
20 1 S112 796 348150 -98 0
20 2 S112 830 348980 732 0
20 2 S112 861 349841 1593 0
20 2 S112 857 350698 2450 0
20 2 S112 825 351523 3275 0
20 2 S112 872 352395 4147 0
20 2 S112 876 353271 5023 0
20 2 S112 882 354153 5905 0
20 2 S112 809 354962 6714 0
0 0 0 861 355823 -8871 0
0 0 0 884 356707 -7987 0
0 0 0 802 357509 -7185 0
0 0 0 797 358306 -6388 0
0 0 0 799 359105 -5589 0
0 0 0 825 359930 -4764 0
0 0 0 802 360732 -3962 0
0 0 0 845 361577 -3117 0
0 0 0 881 362458 -2236 0
21 1 S106 903 363361 -1333 0
21 1 S106 833 364194 -500 0
21 2 S106 878 365072 378 0
21 2 S106 936 366008 1314 0
21 2 S106 920 366928 2234 0
21 2 S106 838 367766 3072 0
21 2 S106 854 368620 3926 0
21 2 S106 877 369497 4803 0
21 2 S106 884 370381 5687 0
21 2 S106 809 371190 6496 0
0 0 0 839 372029 -10504 0
0 0 0 845 372874 -9659 0
0 0 0 818 373692 -8841 0
0 0 0 799 374491 -8042 0
0 0 0 857 375348 -7185 0
0 0 0 833 376181 -6352 0
0 0 0 829 377010 -5523 0
0 0 0 830 377840 -4693 0
0 0 0 797 378637 -3896 0
0 0 0 742 379379 -3154 0
0 0 0 723 380102 -2431 0
22 1 S116 725 380827 -1706 0
22 1 S116 755 381582 -951 0
22 1 S116 831 382413 -120 0
22 2 S116 867 383280 747 0
22 2 S116 870 384150 1617 0
22 2 S116 827 384977 2444 0
22 2 S116 780 385757 3224 0
22 2 S116 820 386577 4044 0
22 2 S116 831 387408 4875 0
22 2 S116 832 388240 5707 0
22 2 S116 885 389125 6592 0
0 0 0 876 390001 -10602 0
0 0 0 865 390866 -9737 0
0 0 0 816 391682 -8921 0
0 0 0 855 392537 -8066 0
0 0 0 876 393413 -7190 0
0 0 0 820 394233 -6370 0
0 0 0 829 395062 -5541 0
0 0 0 880 395942 -4661 0
0 0 0 879 396821 -3782 0
0 0 0 826 397647 -2956 0
0 0 0 857 398504 -2099 0
23 1 S112 855 399359 -1244 0
23 1 S112 796 400155 -448 0
23 2 S112 811 400966 363 0
23 2 S112 847 401813 1210 0
23 2 S112 888 402701 2098 0
23 2 S112 823 403524 2921 0
23 2 S112 794 404318 3715 0
23 2 S112 863 405181 4578 0
23 2 S112 944 406125 5522 0
23 2 S112 907 407032 6429 0
0 0 0 866 407898 -8968 0
0 0 0 918 408816 -8050 0
0 0 0 889 409705 -7161 0
0 0 0 799 410504 -6362 0
0 0 0 796 411300 -5566 0
0 0 0 831 412131 -4735 0
0 0 0 867 412998 -3868 0
0 0 0 832 413830 -3036 0
0 0 0 832 414662 -2204 0
24 1 S106 867 415529 -1337 0
24 1 S106 903 416432 -434 0
24 2 S106 850 417282 416 0
24 2 S106 889 418171 1305 0
24 2 S106 894 419065 2199 0
24 2 S106 904 419969 3103 0
24 2 S106 825 420794 3928 0
24 2 S106 841 421635 4769 0
24 2 S106 903 422538 5672 0
24 2 S106 907 423445 6579 0
0 0 0 847 424292 -9269 0
0 0 0 886 425178 -8383 0
0 0 0 859 426037 -7524 0
0 0 0 854 426891 -6670 0
0 0 0 852 427743 -5818 0
0 0 0 853 428596 -4965 0
0 0 0 790 429386 -4175 0
0 0 0 800 430186 -3375 0
0 0 0 821 431007 -2554 0
25 1 S102 843 431850 -1711 0
25 1 S102 792 432642 -919 0
25 1 S102 783 433425 -136 0
25 2 S102 773 434198 637 0
25 2 S102 729 434927 1366 0
25 2 S102 742 435669 2108 0
25 2 S102 862 436531 2970 0
25 2 S102 778 437309 3748 0
25 2 S102 791 438100 4539 0
25 2 S102 829 438929 5368 0
25 2 S102 873 439802 6241 0
0 0 0 868 440670 -6651 0
0 0 0 792 441462 -5859 0
0 0 0 794 442256 -5065 0
0 0 0 787 443043 -4278 0
0 0 0 766 443809 -3512 0
0 0 0 759 444568 -2753 0
26 1 S116 827 445395 -1926 0
26 1 S116 906 446301 -1020 0
26 1 S116 877 447178 -143 0
26 2 S116 834 448012 691 0
26 2 S116 891 448903 1582 0
26 2 S116 913 449816 2495 0
26 2 S116 857 450673 3352 0
26 2 S116 847 451520 4199 0
26 2 S116 856 452376 5055 0
26 2 S116 879 453255 5934 0
26 2 S116 798 454053 6732 0
0 0 0 841 454894 -7381 0
0 0 0 886 455780 -6495 0
0 0 0 860 456640 -5635 0
0 0 0 836 457476 -4799 0
0 0 0 875 458351 -3924 0
0 0 0 925 459276 -2999 0
0 0 0 864 460140 -2135 0
27 1 S106 880 461020 -1255 0
27 1 S106 931 461951 -324 0
27 2 S106 916 462867 592 0
27 2 S106 827 463694 1419 0
27 2 S106 843 464537 2262 0
27 2 S106 864 465401 3126 0
27 2 S106 882 466283 4008 0
27 2 S106 839 467122 4847 0
27 2 S106 919 468041 5766 0
27 2 S106 947 468988 6713 0
0 0 0 888 469876 -6888 0
0 0 0 908 470784 -5980 0
0 0 0 938 471722 -5042 0
0 0 0 864 472586 -4178 0
0 0 0 794 473380 -3384 0
0 0 0 817 474197 -2567 0
28 1 S102 872 475069 -1695 0
28 1 S102 881 475950 -814 0
28 2 S102 835 476785 21 0
28 2 S102 887 477672 908 0
28 2 S102 899 478571 1807 0
28 2 S102 845 479416 2652 0
28 2 S102 835 480251 3487 0
28 2 S102 885 481136 4372 0
28 2 S102 929 482065 5301 0
28 2 S102 846 482911 6147 0
28 2 S102 850 483761 6997 0
0 0 0 897 484658 -10889 0
0 0 0 842 485500 -10047 0
0 0 0 829 486329 -9218 0
0 0 0 881 487210 -8337 0
0 0 0 883 488093 -7454 0
0 0 0 823 488916 -6631 0
0 0 0 812 489728 -5819 0
0 0 0 853 490581 -4966 0
0 0 0 856 491437 -4110 0
0 0 0 809 492246 -3301 0
0 0 0 848 493094 -2453 0
29 1 S112 854 493948 -1599 0
29 1 S112 820 494768 -779 0
29 2 S112 797 495565 18 0
29 2 S112 820 496385 838 0
29 2 S112 867 497252 1705 0
29 2 S112 865 498117 2570 0
29 2 S112 818 498935 3388 0
29 2 S112 896 499831 4284 0
29 2 S112 937 500768 5221 0
29 2 S112 868 501636 6089 0
29 2 S112 851 502487 6940 0
0 0 0 839 503326 -7689 0
0 0 0 824 504150 -6865 0
0 0 0 774 504924 -6091 0
0 0 0 830 505754 -5261 0
0 0 0 902 506656 -4359 0
0 0 0 844 507500 -3515 0
0 0 0 864 508364 -2651 0
30 1 S112 914 509278 -1737 0
30 1 S112 928 510206 -809 0
30 2 S112 829 511035 20 0
30 2 S112 874 511909 894 0
30 2 S112 906 512815 1800 0
30 2 S112 907 513722 2707 0
30 2 S112 861 514583 3568 0
30 2 S112 937 515520 4505 0
30 2 S112 941 516461 5446 0
30 2 S112 899 517360 6345 0
0 0 0 835 518195 -9813 0
0 0 0 877 519072 -8936 0
0 0 0 919 519991 -8017 0
0 0 0 850 520841 -7167 0
0 0 0 909 521750 -6258 0
0 0 0 902 522652 -5356 0
0 0 0 844 523496 -4512 0
0 0 0 845 524341 -3667 0
0 0 0 863 525204 -2804 0
31 1 S106 890 526094 -1914 0
31 1 S106 829 526923 -1085 0
31 1 S106 847 527770 -238 0
31 2 S106 867 528637 629 0
31 2 S106 894 529531 1523 0
31 2 S106 826 530357 2349 0
31 2 S106 866 531223 3215 0
31 2 S106 892 532115 4107 0
31 2 S106 887 533002 4994 0
31 2 S106 824 533826 5818 0
31 2 S106 868 534694 6686 0
0 0 0 931 535625 -8597 0
0 0 0 915 536540 -7682 0
0 0 0 821 537361 -6861 0
0 0 0 827 538188 -6034 0
0 0 0 850 539038 -5184 0
0 0 0 846 539884 -4338 0
0 0 0 796 540680 -3542 0
0 0 0 838 541518 -2704 0
32 1 S102 923 542441 -1781 0
32 1 S102 915 543356 -866 0
32 1 S102 837 544193 -29 0
32 2 S102 874 545067 845 0
32 2 S102 880 545947 1725 0
32 2 S102 879 546826 2604 0
32 2 S102 815 547641 3419 0
32 2 S102 853 548494 4272 0
32 2 S102 902 549396 5174 0
32 2 S102 915 550311 6089 0
32 2 S102 816 551127 6905 0
0 0 0 848 551975 -9555 0
0 0 0 875 552850 -8680 0
0 0 0 843 553693 -7837 0
0 0 0 806 554499 -7031 0
0 0 0 864 555363 -6167 0
0 0 0 892 556255 -5275 0
0 0 0 855 557110 -4420 0
0 0 0 864 557974 -3556 0
0 0 0 881 558855 -2675 0
33 1 S112 839 559694 -1836 0
33 1 S112 806 560500 -1030 0
33 1 S112 816 561316 -214 0
33 2 S112 830 562146 616 0
33 2 S112 813 562959 1429 0
33 2 S112 803 563762 2232 0
33 2 S112 842 564604 3074 0
33 2 S112 886 565490 3960 0
33 2 S112 888 566378 4848 0
33 2 S112 893 567271 5741 0
33 2 S112 954 568225 6695 0
0 0 0 940 569165 -11778 0
0 0 0 825 569990 -10953 0
0 0 0 841 570831 -10112 0
0 0 0 877 571708 -9235 0
0 0 0 864 572572 -8371 0
0 0 0 791 573363 -7580 0
0 0 0 868 574231 -6712 0
0 0 0 888 575119 -5824 0
0 0 0 893 576012 -4931 0
0 0 0 827 576839 -4104 0
0 0 0 871 577710 -3233 0
0 0 0 908 578618 -2325 0
34 1 S106 841 579459 -1484 0
34 1 S106 852 580311 -632 0
34 2 S106 914 581225 282 0
34 2 S106 950 582175 1232 0
34 2 S106 876 583051 2108 0
34 2 S106 863 583914 2971 0
34 2 S106 898 584812 3869 0
34 2 S106 901 585713 4770 0
34 2 S106 817 586530 5587 0
34 2 S106 848 587378 6435 0
0 0 0 886 588264 -10285 0
0 0 0 895 589159 -9390 0
0 0 0 810 589969 -8580 0
0 0 0 841 590810 -7739 0
0 0 0 879 591689 -6860 0
0 0 0 840 592529 -6020 0
0 0 0 800 593329 -5220 0
0 0 0 882 594211 -4338 0
0 0 0 930 595141 -3408 0
0 0 0 883 596024 -2525 0
35 1 S102 815 596839 -1710 0
35 1 S102 827 597666 -883 0
35 1 S102 828 598494 -55 0
35 2 S102 821 599315 766 0
35 2 S102 854 600169 1620 0
35 2 S102 916 601085 2536 0
35 2 S102 910 601995 3446 0
35 2 S102 843 602838 4289 0
35 2 S102 921 603759 5210 0
35 2 S102 958 604717 6168 0
0 0 0 876 605593 -8490 0
0 0 0 886 606479 -7604 0
0 0 0 884 607363 -6720 0
0 0 0 857 608220 -5863 0
0 0 0 852 609072 -5011 0
0 0 0 861 609933 -4150 0
0 0 0 833 610766 -3317 0
0 0 0 805 611571 -2512 0
36 1 S106 851 612422 -1661 0
36 1 S106 884 613306 -777 0
36 2 S106 865 614171 88 0
36 2 S106 801 614972 889 0
36 2 S106 859 615831 1748 0
36 2 S106 880 616711 2628 0
36 2 S106 856 617567 3484 0
36 2 S106 825 618392 4309 0
36 2 S106 862 619254 5171 0
36 2 S106 918 620172 6089 0
36 2 S106 876 621048 6965 0
0 0 0 840 621888 -9238 0
0 0 0 887 622775 -8351 0
0 0 0 945 623720 -7406 0
0 0 0 850 624570 -6556 0
0 0 0 889 625459 -5667 0
0 0 0 939 626398 -4728 0
0 0 0 890 627288 -3838 0
0 0 0 882 628170 -2956 0
0 0 0 913 629083 -2043 0
37 1 S116 923 630006 -1120 0
37 1 S116 847 630853 -273 0
37 2 S116 845 631698 572 0
37 2 S116 874 632572 1446 0
37 2 S116 911 633483 2357 0
37 2 S116 860 634343 3217 0
37 2 S116 884 635227 4101 0
37 2 S116 996 636223 5097 0
37 2 S116 961 637184 6058 0
37 2 S116 873 638057 6931 0
0 0 0 895 638952 -11521 0
0 0 0 873 639825 -10648 0
0 0 0 838 640663 -9810 0
0 0 0 815 641478 -8995 0
0 0 0 900 642378 -8095 0
0 0 0 921 643299 -7174 0
0 0 0 862 644161 -6312 0
0 0 0 885 645046 -5427 0
0 0 0 946 645992 -4481 0
0 0 0 951 646943 -3530 0
0 0 0 871 647814 -2659 0
38 1 S102 909 648723 -1750 0
38 1 S102 898 649621 -852 0
38 2 S102 865 650486 13 0
38 2 S102 814 651300 827 0
38 2 S102 864 652164 1691 0
38 2 S102 889 653053 2580 0
38 2 S102 857 653910 3437 0
38 2 S102 825 654735 4262 0
38 2 S102 883 655618 5145 0
38 2 S102 917 656535 6062 0
38 2 S102 847 657382 6909 0
0 0 0 834 658216 -9415 0
0 0 0 882 659098 -8533 0
0 0 0 899 659997 -7634 0
0 0 0 836 660833 -6798 0
0 0 0 891 661724 -5907 0
0 0 0 922 662646 -4985 0
0 0 0 868 663514 -4117 0
0 0 0 833 664347 -3284 0
0 0 0 872 665219 -2412 0
39 1 S116 885 666104 -1527 0
39 1 S116 860 666964 -667 0
39 2 S116 926 667890 259 0
39 2 S116 938 668828 1197 0
39 2 S116 948 669776 2145 0
39 2 S116 955 670731 3100 0
39 2 S116 885 671616 3985 0
39 2 S116 841 672457 4826 0
39 2 S116 898 673355 5724 0
39 2 S116 935 674290 6659 0
0 0 0 888 675178 -7805 0
0 0 0 922 676100 -6883 0
0 0 0 969 677069 -5914 0
0 0 0 931 678000 -4983 0
0 0 0 881 678881 -4102 0
0 0 0 892 679773 -3210 0
0 0 0 920 680693 -2290 0
40 1 S112 829 681522 -1461 0
40 1 S112 868 682390 -593 0
40 2 S112 912 683302 319 0
40 2 S112 894 684196 1213 0
40 2 S112 857 685053 2070 0
40 2 S112 916 685969 2986 0
40 2 S112 938 686907 3924 0
40 2 S112 906 687813 4830 0
40 2 S112 880 688693 5710 0
40 2 S112 915 689608 6625 0
0 0 0 934 690542 -186408 0
0 0 0 840 691382 -185568 0
0 0 0 879 692261 -184689 0
0 0 0 943 693204 -183746 0
0 0 0 914 694118 -182832 0
0 0 0 799 694917 -182033 0
0 0 0 804 695721 -181229 0
0 0 0 777 696498 -180452 0
0 0 0 742 697240 -179710 0
0 0 0 734 697974 -178976 0
0 0 0 772 698746 -178204 0
0 0 0 803 699549 -177401 0
0 0 0 767 700316 -176634 0
0 0 0 723 701039 -175911 0
0 0 0 704 701743 -175207 0
0 0 0 655 702398 -174552 1
0 0 0 639 703037 -173913 1
0 0 0 647 703684 -173266 1
0 0 0 641 704325 -172625 1
0 0 0 637 704962 -171988 1
0 0 0 615 705577 -171373 1
0 0 0 617 706194 -170756 1
0 0 0 616 706810 -170140 1
0 0 0 624 707434 -169516 1
0 0 0 602 708036 -168914 1
0 0 0 607 708643 -168307 1
0 0 0 636 709279 -167671 1
0 0 0 641 709920 -167030 1
0 0 0 614 710534 -166416 1
0 0 0 609 711143 -165807 1
0 0 0 605 711748 -165202 1
0 0 0 598 712346 -164604 1
0 0 0 593 712939 -164011 1
0 0 0 588 713527 -163423 1
0 0 0 584 714111 -162839 1
0 0 0 585 714696 -162254 1
0 0 0 586 715282 -161668 1
0 0 0 599 715881 -161069 1
0 0 0 627 716508 -160442 1
0 0 0 668 717176 -159774 1
0 0 0 719 717895 -159055 0
0 0 0 750 718645 -158305 0
0 0 0 810 719455 -157495 0
0 0 0 866 720321 -156629 0
0 0 0 917 721238 -155712 0
0 0 0 975 722213 -154737 0
0 0 0 1009 723222 -153728 0
0 0 0 877 724099 -152851 0
0 0 0 840 724939 -152011 0
0 0 0 877 725816 -151134 0
0 0 0 1054 726870 -150080 1
0 0 0 1074 727944 -149006 1
0 0 0 965 728909 -148041 0
0 0 0 888 729797 -147153 0
0 0 0 899 730696 -146254 0
0 0 0 1007 731703 -145247 0
0 0 0 1046 732749 -144201 1
0 0 0 897 733646 -143304 0
0 0 0 889 734535 -142415 0
0 0 0 898 735433 -141517 0
0 0 0 964 736397 -140553 0
0 0 0 911 737308 -139642 0
0 0 0 979 738287 -138663 0
0 0 0 1070 739357 -137593 1
0 0 0 997 740354 -136596 0
0 0 0 990 741344 -135606 0
0 0 0 936 742280 -134670 0
0 0 0 850 743130 -133820 0
0 0 0 899 744029 -132921 0
0 0 0 860 744889 -132061 0
0 0 0 834 745723 -131227 0
0 0 0 763 746486 -130464 0
0 0 0 790 747276 -129674 0
0 0 0 887 748163 -128787 0
0 0 0 916 749079 -127871 0
0 0 0 869 749948 -127002 0
0 0 0 1011 750959 -125991 0
0 0 0 965 751924 -125026 0
0 0 0 842 752766 -124184 0
0 0 0 906 753672 -123278 0
0 0 0 913 754585 -122365 0
0 0 0 849 755434 -121516 0
0 0 0 870 756304 -120646 0
0 0 0 929 757233 -119717 0
0 0 0 959 758192 -118758 0
0 0 0 886 759078 -117872 0
0 0 0 850 759928 -117022 0
0 0 0 831 760759 -116191 0
0 0 0 822 761581 -115369 0
0 0 0 811 762392 -114558 0
0 0 0 785 763177 -113773 0
0 0 0 751 763928 -113022 0
0 0 0 803 764731 -112219 0
0 0 0 838 765569 -111381 0
0 0 0 823 766392 -110558 0
0 0 0 890 767282 -109668 0
0 0 0 909 768191 -108759 0
0 0 0 848 769039 -107911 0
0 0 0 857 769896 -107054 0
0 0 0 836 770732 -106218 0
0 0 0 825 771557 -105393 0
0 0 0 919 772476 -104474 0
0 0 0 942 773418 -103532 0
0 0 0 889 774307 -102643 0
0 0 0 936 775243 -101707 0
0 0 0 984 776227 -100723 0
0 0 0 917 777144 -99806 0
0 0 0 836 777980 -98970 0
0 0 0 905 778885 -98065 0
0 0 0 910 779795 -97155 0
0 0 0 869 780664 -96286 0
0 0 0 847 781511 -95439 0
0 0 0 898 782409 -94541 0
0 0 0 884 783293 -93657 0
0 0 0 810 784103 -92847 0
0 0 0 850 784953 -91997 0
0 0 0 821 785774 -91176 0
0 0 0 729 786503 -90447 0
0 0 0 769 787272 -89678 0
0 0 0 770 788042 -88908 0
0 0 0 744 788786 -88164 0
0 0 0 727 789513 -87437 0
0 0 0 718 790231 -86719 0
0 0 0 754 790985 -85965 0
0 0 0 816 791801 -85149 0
0 0 0 866 792667 -84283 0
0 0 0 950 793617 -83333 0
0 0 0 984 794601 -82349 0
0 0 0 995 795596 -81354 0
0 0 0 909 796505 -80445 0
0 0 0 824 797329 -79621 0
0 0 0 740 798069 -78881 0
0 0 0 722 798791 -78159 0
0 0 0 687 799478 -77472 1
0 0 0 731 800209 -76741 0
0 0 0 801 801010 -75940 0
0 0 0 780 801790 -75160 0
0 0 0 810 802600 -74350 0
0 0 0 839 803439 -73511 0
0 0 0 839 804278 -72672 0
0 0 0 898 805176 -71774 0
0 0 0 937 806113 -70837 0
0 0 0 887 807000 -69950 0
0 0 0 854 807854 -69096 0
0 0 0 915 808769 -68181 0
0 0 0 910 809679 -67271 0
0 0 0 918 810597 -66353 0
0 0 0 894 811491 -65459 0
0 0 0 845 812336 -64614 0
0 0 0 883 813219 -63731 0
0 0 0 948 814167 -62783 0
0 0 0 923 815090 -61860 0
0 0 0 912 816002 -60948 0
0 0 0 912 816914 -60036 0
0 0 0 906 817820 -59130 0
0 0 0 903 818723 -58227 0
0 0 0 799 819522 -57428 0
0 0 0 817 820339 -56611 0
0 0 0 823 821162 -55788 0
0 0 0 816 821978 -54972 0
0 0 0 795 822773 -54177 0
0 0 0 891 823664 -53286 0
0 0 0 966 824630 -52320 0
0 0 0 901 825531 -51419 0
0 0 0 900 826431 -50519 0
0 0 0 915 827346 -49604 0
0 0 0 855 828201 -48749 0
0 0 0 796 828997 -47953 0
0 0 0 815 829812 -47138 0
0 0 0 876 830688 -46262 0
0 0 0 871 831559 -45391 0
0 0 0 941 832500 -44450 0
0 0 0 1003 833503 -43447 0
0 0 0 998 834501 -42449 0
0 0 0 881 835382 -41568 0
0 0 0 923 836305 -40645 0
0 0 0 961 837266 -39684 0
0 0 0 916 838182 -38768 0
0 0 0 939 839121 -37829 0
0 0 0 906 840027 -36923 0
0 0 0 854 840881 -36069 0
0 0 0 912 841793 -35157 0
0 0 0 931 842724 -34226 0
0 0 0 934 843658 -33292 0
0 0 0 943 844601 -32349 0
0 0 0 908 845509 -31441 0
0 0 0 862 846371 -30579 0
0 0 0 850 847221 -29729 0
0 0 0 915 848136 -28814 0
0 0 0 868 849004 -27946 0
0 0 0 875 849879 -27071 0
0 0 0 892 850771 -26179 0
0 0 0 933 851704 -25246 0
0 0 0 910 852614 -24336 0
0 0 0 959 853573 -23377 0
0 0 0 922 854495 -22455 0
0 0 0 875 855370 -21580 0
0 0 0 894 856264 -20686 0
0 0 0 897 857161 -19789 0
0 0 0 834 857995 -18955 0
0 0 0 866 858861 -18089 0
0 0 0 876 859737 -17213 0
0 0 0 910 860647 -16303 0
0 0 0 952 861599 -15351 0
0 0 0 1081 862680 -14270 1
0 0 0 1004 863684 -13266 0
0 0 0 986 864670 -12280 0
0 0 0 906 865576 -11374 0
0 0 0 843 866419 -10531 0
0 0 0 880 867299 -9651 0
0 0 0 888 868187 -8763 0
0 0 0 819 869006 -7944 0
0 0 0 835 869841 -7109 0
0 0 0 877 870718 -6232 0
0 0 0 901 871619 -5331 0
0 0 0 897 872516 -4434 0
0 0 0 930 873446 -3504 0
0 0 0 817 874263 -2687 0
41 1 S102 779 875042 -1908 0
41 1 S102 745 875787 -1163 0
41 1 S102 812 876599 -351 0
41 2 S102 862 877461 511 0
41 2 S102 763 878224 1274 0
41 2 S102 768 878992 2042 0
41 2 S102 819 879811 2861 0
41 2 S102 863 880674 3724 0
41 2 S102 798 881472 4522 0
41 2 S102 814 882286 5336 0
41 2 S102 886 883172 6222 0
0 0 0 893 884065 -7640 0
0 0 0 796 884861 -6844 0
0 0 0 811 885672 -6033 0
0 0 0 919 886591 -5114 0
0 0 0 930 887521 -4184 0
0 0 0 837 888358 -3347 0
0 0 0 815 889173 -2532 0
42 1 S112 815 889988 -1717 0
42 1 S112 770 890758 -947 0
42 1 S112 727 891485 -220 0
42 2 S112 712 892197 492 0
42 2 S112 717 892914 1209 0
42 2 S112 753 893667 1962 0
42 2 S112 817 894484 2779 0
42 2 S112 855 895339 3634 0
42 2 S112 799 896138 4433 0
42 2 S112 838 896976 5271 0
42 2 S112 889 897865 6160 0
0 0 0 927 898792 -8961 0
0 0 0 867 899659 -8094 0
0 0 0 908 900567 -7186 0
0 0 0 934 901501 -6252 0
0 0 0 852 902353 -5400 0
0 0 0 881 903234 -4519 0
0 0 0 933 904167 -3586 0
0 0 0 924 905091 -2662 0
43 1 S116 866 905957 -1796 0
43 1 S116 936 906893 -860 0
43 2 S116 972 907865 112 0
43 2 S116 931 908796 1043 0
43 2 S116 915 909711 1958 0
43 2 S116 1003 910714 2961 0
43 2 S116 936 911650 3897 0
43 2 S116 861 912511 4758 0
43 2 S116 947 913458 5705 0
43 2 S116 1057 914515 6762 1
0 0 0 964 915479 -8703 0
0 0 0 865 916344 -7838 0
0 0 0 902 917246 -6936 0
0 0 0 957 918203 -5979 0
0 0 0 900 919103 -5079 0
0 0 0 931 920034 -4148 0
0 0 0 1002 921036 -3146 0
0 0 0 1000 922036 -2146 0
44 1 S102 929 922965 -1217 0
44 1 S102 958 923923 -259 0
44 2 S102 936 924859 677 0
44 2 S102 862 925721 1539 0
44 2 S102 894 926615 2433 0
44 2 S102 926 927541 3359 0
44 2 S102 973 928514 4332 0
44 2 S102 877 929391 5209 0
44 2 S102 936 930327 6145 0
0 0 0 1003 931330 -8800 0
0 0 0 999 932329 -7801 0
0 0 0 881 933210 -6920 0
0 0 0 899 934109 -6021 0
0 0 0 869 934978 -5152 0
0 0 0 835 935813 -4317 0
0 0 0 833 936646 -3484 0
0 0 0 905 937551 -2579 0
45 1 S116 926 938477 -1653 0
45 1 S116 904 939381 -749 0
45 2 S116 880 940261 131 0
45 2 S116 908 941169 1039 0
45 2 S116 905 942074 1944 0
45 2 S116 827 942901 2771 0
45 2 S116 822 943723 3593 0
45 2 S116 861 944584 4454 0
45 2 S116 922 945506 5376 0
45 2 S116 847 946353 6223 0
0 0 0 856 947209 -10544 0
0 0 0 928 948137 -9616 0
0 0 0 972 949109 -8644 0
0 0 0 861 949970 -7783 0
0 0 0 930 950900 -6853 0
0 0 0 988 951888 -5865 0
0 0 0 939 952827 -4926 0
0 0 0 898 953725 -4028 0
0 0 0 884 954609 -3144 0
0 0 0 872 955481 -2272 0
46 1 S102 809 956290 -1463 0
46 1 S102 845 957135 -618 0
46 2 S102 894 958029 276 0
46 2 S102 879 958908 1155 0
46 2 S102 959 959867 2114 0
46 2 S102 964 960831 3078 0
46 2 S102 925 961756 4003 0
46 2 S102 969 962725 4972 0
46 2 S102 966 963691 5938 0
46 2 S102 879 964570 6817 0
0 0 0 882 965452 -7603 0
0 0 0 904 966356 -6699 0
0 0 0 857 967213 -5842 0
0 0 0 811 968024 -5031 0
0 0 0 832 968856 -4199 0
0 0 0 876 969732 -3323 0
0 0 0 894 970626 -2429 0
47 1 S112 850 971476 -1579 0
47 1 S112 911 972387 -668 0
47 2 S112 934 973321 266 0
47 2 S112 880 974201 1146 0
47 2 S112 904 975105 2050 0
47 2 S112 955 976060 3005 0
47 2 S112 919 976979 3924 0
47 2 S112 953 977932 4877 0
47 2 S112 917 978849 5794 0
47 2 S112 838 979687 6632 0
0 0 0 871 980558 -12358 0
0 0 0 914 981472 -11444 0
0 0 0 855 982327 -10589 0
0 0 0 800 983127 -9789 0
0 0 0 858 983985 -8931 0
0 0 0 885 984870 -8046 0
0 0 0 901 985771 -7145 0
0 0 0 891 986662 -6254 0
0 0 0 930 987592 -5324 0
0 0 0 951 988543 -4373 0
0 0 0 855 989398 -3518 0
0 0 0 896 990294 -2622 0
48 1 S116 895 991189 -1727 0
48 1 S116 848 992037 -879 0
48 1 S116 867 992904 -12 0
48 2 S116 897 993801 885 0
48 2 S116 927 994728 1812 0
48 2 S116 908 995636 2720 0
48 2 S116 951 996587 3671 0
48 2 S116 967 997554 4638 0
48 2 S116 901 998455 5539 0
48 2 S116 878 999333 6417 0
0 0 0 872 1000205 -7648 0
0 0 0 861 1001066 -6787 0
0 0 0 804 1001870 -5983 0
0 0 0 858 1002728 -5125 0
0 0 0 880 1003608 -4245 0
0 0 0 857 1004465 -3388 0
0 0 0 899 1005364 -2489 0
49 1 S112 907 1006271 -1582 0
49 1 S112 868 1007139 -714 0
49 2 S112 878 1008017 164 0
49 2 S112 849 1008866 1013 0
49 2 S112 836 1009702 1849 0
49 2 S112 890 1010592 2739 0
49 2 S112 906 1011498 3645 0
49 2 S112 834 1012332 4479 0
49 2 S112 885 1013217 5364 0
49 2 S112 946 1014163 6310 0
0 0 0 957 1015120 -13373 0
0 0 0 835 1015955 -12538 0
0 0 0 854 1016809 -11684 0
0 0 0 892 1017701 -10792 0
0 0 0 910 1018611 -9882 0
0 0 0 867 1019478 -9015 0
0 0 0 937 1020415 -8078 0
0 0 0 933 1021348 -7145 0
0 0 0 876 1022224 -6269 0
0 0 0 928 1023152 -5341 0
0 0 0 926 1024078 -4415 0
0 0 0 860 1024938 -3555 0
0 0 0 853 1025791 -2702 0
50 1 S106 857 1026648 -1845 0
50 1 S106 834 1027482 -1011 0
50 1 S106 832 1028314 -179 0
50 2 S106 875 1029189 696 0
50 2 S106 924 1030113 1620 0
50 2 S106 855 1030968 2475 0
50 2 S106 888 1031856 3363 0
50 2 S106 923 1032779 4286 0
50 2 S106 855 1033634 5141 0
50 2 S106 840 1034474 5981 0
50 2 S106 861 1035335 6842 0
0 0 0 858 1036193 -5894 0
0 0 0 801 1036994 -5093 0
0 0 0 801 1037795 -4292 0
0 0 0 746 1038541 -3546 0
0 0 0 709 1039250 -2837 0
0 0 0 733 1039983 -2104 0
51 1 S112 798 1040781 -1306 0
51 1 S112 869 1041650 -437 0
51 2 S112 839 1042489 402 0
51 2 S112 879 1043368 1281 0
51 2 S112 895 1044263 2176 0
51 2 S112 845 1045108 3021 0
51 2 S112 804 1045912 3825 0
51 2 S112 821 1046733 4646 0
51 2 S112 828 1047561 5474 0
51 2 S112 786 1048347 6260 0
0 0 0 804 1049151 -7376 0
0 0 0 835 1049986 -6541 0
0 0 0 851 1050837 -5690 0
0 0 0 827 1051664 -4863 0
0 0 0 835 1052499 -4028 0
0 0 0 855 1053354 -3173 0
0 0 0 840 1054194 -2333 0
52 1 S116 897 1055091 -1436 0
52 1 S116 908 1055999 -528 0
52 2 S116 837 1056836 309 0
52 2 S116 874 1057710 1183 0
52 2 S116 917 1058627 2100 0
52 2 S116 895 1059522 2995 0
52 2 S116 822 1060344 3817 0
52 2 S116 880 1061224 4697 0
52 2 S116 907 1062131 5604 0
52 2 S116 877 1063008 6481 0
0 0 0 863 1063871 -10544 0
0 0 0 928 1064799 -9616 0
0 0 0 893 1065692 -8723 0
0 0 0 816 1066508 -7907 0
0 0 0 871 1067379 -7036 0
0 0 0 871 1068250 -6165 0
0 0 0 809 1069059 -5356 0
0 0 0 820 1069879 -4536 0
0 0 0 843 1070722 -3693 0
0 0 0 851 1071573 -2842 0
0 0 0 798 1072371 -2044 0
53 1 S106 848 1073219 -1196 0
53 1 S106 879 1074098 -317 0
53 2 S106 900 1074998 583 0
53 2 S106 876 1075874 1459 0
53 2 S106 946 1076820 2405 0
53 2 S106 947 1077767 3352 0
53 2 S106 875 1078642 4227 0
53 2 S106 910 1079552 5137 0
53 2 S106 902 1080454 6039 0
53 2 S106 849 1081303 6888 0
0 0 0 842 1082145 -7605 0
0 0 0 877 1083022 -6728 0
0 0 0 942 1083964 -5786 0
0 0 0 915 1084879 -4871 0
0 0 0 891 1085770 -3980 0
0 0 0 874 1086644 -3106 0
0 0 0 812 1087456 -2294 0
54 1 S102 875 1088331 -1419 0
54 1 S102 894 1089225 -525 0
54 2 S102 840 1090065 315 0
54 2 S102 831 1090896 1146 0
54 2 S102 885 1091781 2031 0
54 2 S102 894 1092675 2925 0
54 2 S102 871 1093546 3796 0
54 2 S102 937 1094483 4733 0
54 2 S102 917 1095400 5650 0
54 2 S102 884 1096284 6534 0
0 0 0 863 1097147 -9580 0
0 0 0 899 1098046 -8681 0
0 0 0 857 1098903 -7824 0
0 0 0 821 1099724 -7003 0
0 0 0 850 1100574 -6153 0
0 0 0 854 1101428 -5299 0
0 0 0 814 1102242 -4485 0
0 0 0 839 1103081 -3646 0
0 0 0 854 1103935 -2792 0
55 1 S106 871 1104806 -1921 0
55 1 S106 836 1105642 -1085 0
55 1 S106 873 1106515 -212 0
55 2 S106 906 1107421 694 0
55 2 S106 885 1108306 1579 0
55 2 S106 808 1109114 2387 0
55 2 S106 815 1109929 3202 0
55 2 S106 850 1110779 4052 0
55 2 S106 847 1111626 4899 0
55 2 S106 855 1112481 5754 0
55 2 S106 887 1113368 6641 0
0 0 0 919 1114287 -6216 0
0 0 0 862 1115149 -5354 0
0 0 0 858 1116007 -4496 0
0 0 0 850 1116857 -3646 0
0 0 0 832 1117689 -2814 0
0 0 0 811 1118500 -2003 0
56 1 S116 845 1119345 -1158 0
56 1 S116 828 1120173 -330 0
56 2 S116 794 1120967 464 0
56 2 S116 837 1121804 1301 0
56 2 S116 923 1122727 2224 0
56 2 S116 871 1123598 3095 0
56 2 S116 822 1124420 3917 0
56 2 S116 866 1125286 4783 0
56 2 S116 871 1126157 5654 0
56 2 S116 809 1126966 6463 0
0 0 0 838 1127804 -6924 0
0 0 0 871 1128675 -6053 0
0 0 0 891 1129566 -5162 0
0 0 0 850 1130416 -4312 0
0 0 0 890 1131306 -3422 0
0 0 0 878 1132184 -2544 0
57 1 S106 814 1132998 -1730 0
57 1 S106 808 1133806 -922 0
57 1 S106 809 1134615 -113 0
57 2 S106 804 1135419 691 0
57 2 S106 805 1136224 1496 0
57 2 S106 942 1137166 2438 0
57 2 S106 965 1138131 3403 0
57 2 S106 917 1139048 4320 0
57 2 S106 917 1139965 5237 0
57 2 S106 943 1140908 6180 0
0 0 0 908 1141816 -8014 0
0 0 0 845 1142661 -7169 0
0 0 0 831 1143492 -6338 0
0 0 0 803 1144295 -5535 0
0 0 0 765 1145060 -4770 0
0 0 0 775 1145835 -3995 0
0 0 0 795 1146630 -3200 0
0 0 0 848 1147478 -2352 0
58 1 S102 826 1148304 -1526 0
58 1 S102 860 1149164 -666 0
58 2 S102 910 1150074 244 0
58 2 S102 870 1150944 1114 0
58 2 S102 850 1151794 1964 0
58 2 S102 949 1152743 2913 0
58 2 S102 1018 1153761 3931 0
58 2 S102 953 1154714 4884 0
58 2 S102 980 1155694 5864 0
58 2 S102 969 1156663 6833 0
0 0 0 899 1157562 -8880 0
0 0 0 892 1158454 -7988 0
0 0 0 917 1159371 -7071 0
0 0 0 862 1160233 -6209 0
0 0 0 938 1161171 -5271 0
0 0 0 1032 1162203 -4239 0
0 0 0 891 1163094 -3348 0
0 0 0 915 1164009 -2433 0
59 1 S112 924 1164933 -1509 0
59 1 S112 878 1165811 -631 0
59 2 S112 847 1166658 216 0
59 2 S112 878 1167536 1094 0
59 2 S112 884 1168420 1978 0
59 2 S112 811 1169231 2789 0
59 2 S112 819 1170050 3608 0
59 2 S112 842 1170892 4450 0
59 2 S112 840 1171732 5290 0
59 2 S112 809 1172541 6099 0
59 2 S112 892 1173433 6991 0
0 0 0 958 1174391 -7834 0
0 0 0 899 1175290 -6935 0
0 0 0 880 1176170 -6055 0
0 0 0 881 1177051 -5174 0
0 0 0 828 1177879 -4346 0
0 0 0 794 1178673 -3552 0
0 0 0 806 1179479 -2746 0
60 1 S102 826 1180305 -1920 0
60 1 S102 795 1181100 -1125 0
60 1 S102 828 1181928 -297 0
60 2 S102 827 1182755 530 0
60 2 S102 835 1183590 1365 0
60 2 S102 826 1184416 2191 0
60 2 S102 897 1185313 3088 0
60 2 S102 930 1186243 4018 0
60 2 S102 874 1187117 4892 0
60 2 S102 896 1188013 5788 0
60 2 S102 869 1188882 6657 0
0 0 0 817 1189699 -11276 0
0 0 0 836 1190535 -10440 0
0 0 0 859 1191394 -9581 0
0 0 0 862 1192256 -8719 0
0 0 0 880 1193136 -7839 0
0 0 0 925 1194061 -6914 0
0 0 0 838 1194899 -6076 0
0 0 0 838 1195737 -5238 0
0 0 0 853 1196590 -4385 0
0 0 0 866 1197456 -3519 0
0 0 0 808 1198264 -2711 0
61 1 S106 830 1199094 -1881 0
61 1 S106 812 1199906 -1069 0
61 1 S106 780 1200686 -289 0
61 2 S106 796 1201482 507 0
61 2 S106 845 1202327 1352 0
61 2 S106 885 1203212 2237 0
61 2 S106 856 1204068 3093 0
61 2 S106 919 1204987 4012 0
61 2 S106 959 1205946 4971 0
61 2 S106 872 1206818 5843 0
61 2 S106 866 1207684 6709 0
0 0 0 877 1208561 -5561 0
0 0 0 865 1209426 -4696 0
0 0 0 811 1210237 -3885 0
0 0 0 859 1211096 -3026 0
0 0 0 923 1212019 -2103 0
62 1 S112 866 1212885 -1237 0
62 1 S112 879 1213764 -358 0
62 2 S112 862 1214626 504 0
62 2 S112 833 1215459 1337 0
62 2 S112 860 1216319 2197 0
62 2 S112 872 1217191 3069 0
62 2 S112 863 1218054 3932 0
62 2 S112 848 1218902 4780 0
62 2 S112 947 1219849 5727 0
62 2 S112 963 1220812 6690 0
0 0 0 849 1221661 -11161 0
0 0 0 838 1222499 -10323 0
0 0 0 857 1223356 -9466 0
0 0 0 801 1224157 -8665 0
0 0 0 779 1224936 -7886 0
0 0 0 809 1225745 -7077 0
0 0 0 810 1226555 -6267 0
0 0 0 827 1227382 -5440 0
0 0 0 935 1228317 -4505 0
0 0 0 943 1229260 -3562 0
0 0 0 858 1230118 -2704 0
63 1 S102 949 1231067 -1755 0
63 1 S102 933 1232000 -822 0
63 2 S102 873 1232873 51 0
63 2 S102 849 1233722 900 0
63 2 S102 861 1234583 1761 0
63 2 S102 885 1235468 2646 0
63 2 S102 836 1236304 3482 0
63 2 S102 859 1237163 4341 0
63 2 S102 884 1238047 5225 0
63 2 S102 868 1238915 6093 0
63 2 S102 872 1239787 6965 0
0 0 0 969 1240756 -8329 0
0 0 0 917 1241673 -7412 0
0 0 0 847 1242520 -6565 0
0 0 0 846 1243366 -5719 0
0 0 0 825 1244191 -4894 0
0 0 0 793 1244984 -4101 0
0 0 0 876 1245860 -3225 0
0 0 0 944 1246804 -2281 0
64 1 S112 931 1247735 -1350 0
64 1 S112 876 1248611 -474 0
64 2 S112 909 1249520 435 0
64 2 S112 928 1250448 1363 0
64 2 S112 905 1251353 2268 0
64 2 S112 835 1252188 3103 0
64 2 S112 902 1253090 4005 0
64 2 S112 902 1253992 4907 0
64 2 S112 873 1254865 5780 0
64 2 S112 935 1255800 6715 0
0 0 0 939 1256739 -7748 0
0 0 0 870 1257609 -6878 0
0 0 0 855 1258464 -6023 0
0 0 0 909 1259373 -5114 0
0 0 0 856 1260229 -4258 0
0 0 0 803 1261032 -3455 0
0 0 0 829 1261861 -2626 0
65 1 S106 864 1262725 -1762 0
65 1 S106 812 1263537 -950 0
65 1 S106 846 1264383 -104 0
65 2 S106 886 1265269 782 0
65 2 S106 901 1266170 1683 0
65 2 S106 823 1266993 2506 0
65 2 S106 837 1267830 3343 0
65 2 S106 832 1268662 4175 0
65 2 S106 787 1269449 4962 0
65 2 S106 793 1270242 5755 0
65 2 S106 805 1271047 6560 0
0 0 0 832 1271879 -5771 0
0 0 0 845 1272724 -4926 0
0 0 0 854 1273578 -4072 0
0 0 0 888 1274466 -3184 0
0 0 0 878 1275344 -2306 0
66 1 S116 939 1276283 -1367 0
66 1 S116 953 1277236 -414 0
66 2 S116 877 1278113 463 0
66 2 S116 843 1278956 1306 0
66 2 S116 841 1279797 2147 0
66 2 S116 800 1280597 2947 0
66 2 S116 773 1281370 3720 0
66 2 S116 817 1282187 4537 0
66 2 S116 939 1283126 5476 0
66 2 S116 980 1284106 6456 0
0 0 0 903 1285009 -12369 0
0 0 0 996 1286005 -11373 0
0 0 0 969 1286974 -10404 0
0 0 0 872 1287846 -9532 0
0 0 0 880 1288726 -8652 0
0 0 0 850 1289576 -7802 0
0 0 0 789 1290365 -7013 0
0 0 0 818 1291183 -6195 0
0 0 0 844 1292027 -5351 0
0 0 0 842 1292869 -4509 0
0 0 0 781 1293650 -3728 0
0 0 0 797 1294447 -2931 0
0 0 0 837 1295284 -2094 0
67 1 S102 858 1296142 -1236 0
67 1 S102 800 1296942 -436 0
67 2 S102 852 1297794 416 0
67 2 S102 890 1298684 1306 0
67 2 S102 854 1299538 2160 0
67 2 S102 865 1300403 3025 0
67 2 S102 942 1301345 3967 0
67 2 S102 1000 1302345 4967 0
67 2 S102 895 1303240 5862 0
67 2 S102 923 1304163 6785 0
0 0 0 949 1305112 -5595 0
0 0 0 876 1305988 -4719 0
0 0 0 774 1306762 -3945 0
0 0 0 767 1307529 -3178 0
0 0 0 775 1308304 -2403 0
68 1 S106 849 1309153 -1554 0
68 1 S106 936 1310089 -618 0
68 2 S106 1040 1311129 422 1
68 2 S106 949 1312078 1371 0
68 2 S106 948 1313026 2319 0
68 2 S106 1019 1314045 3338 0
68 2 S106 922 1314967 4260 0
68 2 S106 893 1315860 5153 0
68 2 S106 922 1316782 6075 0
68 2 S106 885 1317667 6960 0
0 0 0 886 1318553 -9976 0
0 0 0 866 1319419 -9110 0
0 0 0 824 1320243 -8286 0
0 0 0 808 1321051 -7478 0
0 0 0 931 1321982 -6547 0
0 0 0 1013 1322995 -5534 0
0 0 0 904 1323899 -4630 0
0 0 0 887 1324786 -3743 0
0 0 0 923 1325709 -2820 0
69 1 S102 882 1326591 -1938 0
69 1 S102 885 1327476 -1053 0
69 1 S102 896 1328372 -157 0
69 2 S102 875 1329247 718 0
69 2 S102 881 1330128 1599 0
69 2 S102 939 1331067 2538 0
69 2 S102 894 1331961 3432 0
69 2 S102 805 1332766 4237 0
69 2 S102 817 1333583 5054 0
69 2 S102 886 1334469 5940 0
69 2 S102 913 1335382 6853 0
0 0 0 927 1336309 -9578 0
0 0 0 873 1337182 -8705 0
0 0 0 804 1337986 -7901 0
0 0 0 842 1338828 -7059 0
0 0 0 793 1339621 -6266 0
0 0 0 754 1340375 -5512 0
0 0 0 721 1341096 -4791 0
0 0 0 693 1341789 -4098 0
0 0 0 693 1342482 -3405 0
0 0 0 743 1343225 -2662 0
70 1 S112 812 1344037 -1850 0
70 1 S112 809 1344846 -1041 0
70 1 S112 766 1345612 -275 0
70 2 S112 810 1346422 535 0
70 2 S112 847 1347269 1382 0
70 2 S112 852 1348121 2234 0
70 2 S112 814 1348935 3048 0
70 2 S112 818 1349753 3866 0
70 2 S112 829 1350582 4695 0
70 2 S112 793 1351375 5488 0
70 2 S112 772 1352147 6260 0
0 0 0 842 1352989 -11250 0
0 0 0 955 1353944 -10295 0
0 0 0 946 1354890 -9349 0
0 0 0 939 1355829 -8410 0
0 0 0 911 1356740 -7499 0
0 0 0 843 1357583 -6656 0
0 0 0 877 1358460 -5779 0
0 0 0 902 1359362 -4877 0
0 0 0 836 1360198 -4041 0
0 0 0 809 1361007 -3232 0
0 0 0 823 1361830 -2409 0
71 1 S116 875 1362705 -1534 0
71 1 S116 850 1363555 -684 0
71 2 S116 868 1364423 184 0
71 2 S116 920 1365343 1104 0
71 2 S116 914 1366257 2018 0
71 2 S116 948 1367205 2966 0
71 2 S116 903 1368108 3869 0
71 2 S116 838 1368946 4707 0
71 2 S116 917 1369863 5624 0
71 2 S116 989 1370852 6613 0
0 0 0 913 1371765 -9533 0
0 0 0 820 1372585 -8713 0
0 0 0 859 1373444 -7854 0
0 0 0 918 1374362 -6936 0
0 0 0 827 1375189 -6109 0
0 0 0 880 1376069 -5229 0
0 0 0 994 1377063 -4235 0
0 0 0 965 1378028 -3270 0
0 0 0 848 1378876 -2422 0
72 1 S102 866 1379742 -1556 0
72 1 S102 874 1380616 -682 0
72 2 S102 808 1381424 126 0
72 2 S102 815 1382239 941 0
72 2 S102 835 1383074 1776 0
72 2 S102 869 1383943 2645 0
72 2 S102 881 1384824 3526 0
72 2 S102 979 1385803 4505 0
72 2 S102 963 1386766 5468 0
72 2 S102 867 1387633 6335 0
0 0 0 915 1388548 -6295 0
0 0 0 936 1389484 -5359 0
0 0 0 844 1390328 -4515 0
0 0 0 838 1391166 -3677 0
0 0 0 833 1391999 -2844 0
0 0 0 827 1392826 -2017 0
73 1 S116 870 1393696 -1147 0
73 1 S116 929 1394625 -218 0
73 2 S116 912 1395537 694 0
73 2 S116 886 1396423 1580 0
73 2 S116 921 1397344 2501 0
73 2 S116 932 1398276 3433 0
73 2 S116 856 1399132 4289 0
73 2 S116 859 1399991 5148 0
73 2 S116 868 1400859 6016 0
73 2 S116 870 1401729 6886 0
0 0 0 831 1402560 -9159 0
0 0 0 898 1403458 -8261 0
0 0 0 968 1404426 -7293 0
0 0 0 871 1405297 -6422 0
0 0 0 883 1406180 -5539 0
0 0 0 925 1407105 -4614 0
0 0 0 897 1408002 -3717 0
0 0 0 937 1408939 -2780 0
74 1 S106 920 1409859 -1860 0
74 1 S106 882 1410741 -978 0
74 1 S106 819 1411560 -159 0
74 2 S106 846 1412406 687 0
74 2 S106 886 1413292 1573 0
74 2 S106 898 1414190 2471 0
74 2 S106 860 1415050 3331 0
74 2 S106 905 1415955 4236 0
74 2 S106 897 1416852 5133 0
74 2 S106 877 1417729 6010 0
74 2 S106 898 1418627 6908 0
0 0 0 891 1419518 -5365 0
0 0 0 854 1420372 -4511 0
0 0 0 868 1421240 -3643 0
0 0 0 837 1422077 -2806 0
0 0 0 789 1422866 -2017 0
75 1 S112 840 1423706 -1177 0
75 1 S112 943 1424649 -234 0
75 2 S112 935 1425584 701 0
75 2 S112 975 1426559 1676 0
75 2 S112 984 1427543 2660 0
75 2 S112 983 1428526 3643 0
75 2 S112 893 1429419 4536 0
75 2 S112 882 1430301 5418 0
75 2 S112 887 1431188 6305 0
0 0 0 933 1432121 -8926 0
0 0 0 840 1432961 -8086 0
0 0 0 846 1433807 -7240 0
0 0 0 890 1434697 -6350 0
0 0 0 882 1435579 -5468 0
0 0 0 860 1436439 -4608 0
0 0 0 898 1437337 -3710 0
0 0 0 833 1438170 -2877 0
0 0 0 832 1439002 -2045 0
76 1 S116 841 1439843 -1204 0
76 1 S116 805 1440648 -399 0
76 2 S116 743 1441391 344 0
76 2 S116 717 1442108 1061 0
76 2 S116 722 1442830 1783 0
76 2 S116 811 1443641 2594 0
76 2 S116 944 1444585 3538 0
76 2 S116 959 1445544 4497 0
76 2 S116 952 1446496 5449 0
76 2 S116 883 1447379 6332 0
0 0 0 897 1448276 -6862 0
0 0 0 887 1449163 -5975 0
0 0 0 842 1450005 -5133 0
0 0 0 813 1450818 -4320 0
0 0 0 824 1451642 -3496 0
0 0 0 837 1452479 -2659 0
77 1 S106 849 1453328 -1810 0
77 1 S106 880 1454208 -930 0
77 1 S106 879 1455087 -51 0
77 2 S106 896 1455983 845 0
77 2 S106 858 1456841 1703 0
77 2 S106 888 1457729 2591 0
77 2 S106 977 1458706 3568 0
77 2 S106 919 1459625 4487 0
77 2 S106 880 1460505 5367 0
77 2 S106 906 1461411 6273 0
0 0 0 919 1462330 -8093 0
0 0 0 954 1463284 -7139 0
0 0 0 912 1464196 -6227 0
0 0 0 876 1465072 -5351 0
0 0 0 918 1465990 -4433 0
0 0 0 913 1466903 -3520 0
0 0 0 875 1467778 -2645 0
78 1 S112 903 1468681 -1742 0
78 1 S112 883 1469564 -859 0
78 2 S112 893 1470457 34 0
78 2 S112 931 1471388 965 0
78 2 S112 886 1472274 1851 0
78 2 S112 879 1473153 2730 0
78 2 S112 915 1474068 3645 0
78 2 S112 882 1474950 4527 0
78 2 S112 820 1475770 5347 0
78 2 S112 873 1476643 6220 0
0 0 0 850 1477493 -12228 0
0 0 0 769 1478262 -11459 0
0 0 0 793 1479055 -10666 0
0 0 0 825 1479880 -9841 0
0 0 0 816 1480696 -9025 0
0 0 0 880 1481576 -8145 0
0 0 0 832 1482408 -7313 0
0 0 0 818 1483226 -6495 0
0 0 0 901 1484127 -5594 0
0 0 0 963 1485090 -4631 0
0 0 0 850 1485940 -3781 0
0 0 0 857 1486797 -2924 0
0 0 0 870 1487667 -2054 0
79 1 S102 855 1488522 -1199 0
79 1 S102 849 1489371 -350 0
79 2 S102 913 1490284 563 0
79 2 S102 939 1491223 1502 0
79 2 S102 876 1492099 2378 0
79 2 S102 930 1493029 3308 0
79 2 S102 931 1493960 4239 0
79 2 S102 952 1494912 5191 0
79 2 S102 995 1495907 6186 0
0 0 0 939 1496846 -8011 0
0 0 0 866 1497712 -7145 0
0 0 0 859 1498571 -6286 0
0 0 0 853 1499424 -5433 0
0 0 0 837 1500261 -4596 0
0 0 0 895 1501156 -3701 0
0 0 0 964 1502120 -2737 0
80 1 S116 969 1503089 -1768 0
80 1 S116 905 1503994 -863 0
80 2 S116 947 1504941 84 0
80 2 S116 929 1505870 1013 0
80 2 S116 918 1506788 1931 0
80 2 S116 927 1507715 2858 0
80 2 S116 891 1508606 3749 0
80 2 S116 871 1509477 4620 0
80 2 S116 904 1510381 5524 0
80 2 S116 912 1511293 6436 0
