T_0005
BeatCount Mean SD BeatCountNoOutliers MeanNoOutliers SDNoOutliers
1753 923,498003422704 63,6156240815881 1715 924,751603498542 57,6216653479365

Trial TrialStatus Trialtype IBI AbsPosition RelPosition Outlier
0 0 0 893 1421 -14667 0
0 0 0 923 2344 -13744 0
0 0 0 918 3262 -12826 0
0 0 0 847 4109 -11979 0
0 0 0 818 4927 -11161 0
0 0 0 815 5742 -10346 0
0 0 0 884 6626 -9462 0
0 0 0 940 7566 -8522 0
0 0 0 917 8483 -7605 0
0 0 0 920 9403 -6685 0
0 0 0 969 10372 -5716 0
0 0 0 948 11320 -4768 0
0 0 0 939 12259 -3829 0
0 0 0 965 13224 -2864 0
1 1 S112 975 14199 -1889 0
1 1 S112 949 15148 -940 0
1 1 S112 930 16078 -10 0
1 2 S112 998 17076 988 0
1 2 S112 1036 18112 2024 0
1 2 S112 1018 19130 3042 0
1 2 S112 976 20106 4018 0
1 2 S112 991 21097 5009 0
1 2 S112 981 22078 5990 0
1 2 S112 970 23048 6960 0
0 0 0 936 23984 -10788 0
0 0 0 926 24910 -9862 0
0 0 0 956 25866 -8906 0
0 0 0 953 26819 -7953 0
0 0 0 925 27744 -7028 0
0 0 0 923 28667 -6105 0
0 0 0 958 29625 -5147 0
0 0 0 964 30589 -4183 0
0 0 0 949 31538 -3234 0
0 0 0 940 32478 -2294 0
2 1 S102 941 33419 -1353 0
2 1 S102 923 34342 -430 0
2 2 S102 887 35229 457 0
2 2 S102 918 36147 1375 0
2 2 S102 957 37104 2332 0
2 2 S102 949 38053 3281 0
2 2 S102 910 38963 4191 0
2 2 S102 938 39901 5129 0
2 2 S102 960 40861 6089 0
0 0 0 971 41832 -10198 0
0 0 0 939 42771 -9259 0
0 0 0 925 43696 -8334 0
0 0 0 924 44620 -7410 0
0 0 0 910 45530 -6500 0
0 0 0 860 46390 -5640 0
0 0 0 852 47242 -4788 0
0 0 0 889 48131 -3899 0
0 0 0 897 49028 -3002 0
0 0 0 894 49922 -2108 0
3 1 S116 863 50785 -1245 0
3 1 S116 891 51676 -354 0
3 2 S116 917 52593 563 0
3 2 S116 933 53526 1496 0
3 2 S116 890 54416 2386 0
3 2 S116 870 55286 3256 0
3 2 S116 893 56179 4149 0
3 2 S116 920 57099 5069 0
3 2 S116 936 58035 6005 0
3 2 S116 911 58946 6916 0
0 0 0 949 59895 -11830 0
0 0 0 941 60836 -10889 0
0 0 0 940 61776 -9949 0
0 0 0 901 62677 -9048 0
0 0 0 917 63594 -8131 0
0 0 0 928 64522 -7203 0
0 0 0 942 65464 -6261 0
0 0 0 925 66389 -5336 0
0 0 0 980 67369 -4356 0
0 0 0 972 68341 -3384 0
0 0 0 950 69291 -2434 0
4 1 S106 937 70228 -1497 0
4 1 S106 957 71185 -540 0
4 2 S106 980 72165 440 0
4 2 S106 1000 73165 1440 0
4 2 S106 947 74112 2387 0
4 2 S106 961 75073 3348 0
4 2 S106 975 76048 4323 0
4 2 S106 963 77011 5286 0
4 2 S106 915 77926 6201 0
0 0 0 940 78866 -8575 0
0 0 0 968 79834 -7607 0
0 0 0 941 80775 -6666 0
0 0 0 912 81687 -5754 0
0 0 0 932 82619 -4822 0
0 0 0 935 83554 -3887 0
0 0 0 915 84469 -2972 0
0 0 0 878 85347 -2094 0
5 1 S116 902 86249 -1192 0
5 1 S116 917 87166 -275 0
5 2 S116 927 88093 652 0
5 2 S116 879 88972 1531 0
5 2 S116 899 89871 2430 0
5 2 S116 921 90792 3351 0
5 2 S116 928 91720 4279 0
5 2 S116 911 92631 5190 0
5 2 S116 887 93518 6077 0
5 2 S116 927 94445 7004 0
0 0 0 968 95413 -10480 0
0 0 0 932 96345 -9548 0
0 0 0 883 97228 -8665 0
0 0 0 875 98103 -7790 0
0 0 0 893 98996 -6897 0
0 0 0 879 99875 -6018 0
0 0 0 855 100730 -5163 0
0 0 0 859 101589 -4304 0
0 0 0 890 102479 -3414 0
0 0 0 914 103393 -2500 0
6 1 S106 907 104300 -1593 0
6 1 S106 925 105225 -668 0
6 2 S106 944 106169 276 0
6 2 S106 957 107126 1233 0
6 2 S106 933 108059 2166 0
6 2 S106 894 108953 3060 0
6 2 S106 909 109862 3969 0
6 2 S106 926 110788 4895 0
6 2 S106 950 111738 5845 0
6 2 S106 912 112650 6757 0
0 0 0 951 113601 -12899 0
0 0 0 968 114569 -11931 0
0 0 0 952 115521 -10979 0
0 0 0 889 116410 -10090 0
0 0 0 912 117322 -9178 0
0 0 0 915 118237 -8263 0
0 0 0 897 119134 -7366 0
0 0 0 868 120002 -6498 0
0 0 0 943 120945 -5555 0
0 0 0 989 121934 -4566 0
0 0 0 1026 122960 -3540 0
0 0 0 999 123959 -2541 0
7 1 S102 1024 124983 -1517 0
7 1 S102 1018 126001 -499 0
7 2 S102 965 126966 466 0
7 2 S102 837 127803 1303 0
7 2 S102 823 128626 2126 0
7 2 S102 848 129474 2974 0
7 2 S102 941 130415 3915 0
7 2 S102 1048 131463 4963 0
7 2 S102 1074 132537 6037 0
0 0 0 1047 133584 -9412 0
0 0 0 1011 134595 -8401 0
0 0 0 988 135583 -7413 0
0 0 0 980 136563 -6433 0
0 0 0 937 137500 -5496 0
0 0 0 936 138436 -4560 0
0 0 0 956 139392 -3604 0
0 0 0 941 140333 -2663 0
8 1 S112 893 141226 -1770 0
8 1 S112 947 142173 -823 0
8 2 S112 981 143154 158 0
8 2 S112 980 144134 1138 0
8 2 S112 937 145071 2075 0
8 2 S112 956 146027 3031 0
8 2 S112 972 146999 4003 0
8 2 S112 974 147973 4977 0
8 2 S112 961 148934 5938 0
8 2 S112 971 149905 6909 0
0 0 0 989 150894 -7619 0
0 0 0 980 151874 -6639 0
0 0 0 965 152839 -5674 0
0 0 0 923 153762 -4751 0
0 0 0 923 154685 -3828 0
0 0 0 921 155606 -2907 0
0 0 0 887 156493 -2020 0
9 1 S116 928 157421 -1092 0
9 1 S116 951 158372 -141 0
9 2 S116 949 159321 808 0
9 2 S116 919 160240 1727 0
9 2 S116 927 161167 2654 0
9 2 S116 954 162121 3608 0
9 2 S116 938 163059 4546 0
9 2 S116 918 163977 5464 0
9 2 S116 925 164902 6389 0
0 0 0 956 165858 -12267 0
0 0 0 967 166825 -11300 0
0 0 0 946 167771 -10354 0
0 0 0 883 168654 -9471 0
0 0 0 891 169545 -8580 0
0 0 0 832 170377 -7748 0
0 0 0 764 171141 -6984 0
0 0 0 797 171938 -6187 0
0 0 0 795 172733 -5392 0
0 0 0 807 173540 -4585 0
0 0 0 797 174337 -3788 0
0 0 0 975 175312 -2813 0
10 1 S102 923 176235 -1890 0
10 1 S102 912 177147 -978 0
10 1 S102 949 178096 -29 0
10 2 S102 989 179085 960 0
10 2 S102 963 180048 1923 0
10 2 S102 941 180989 2864 0
10 2 S102 892 181881 3756 0
10 2 S102 907 182788 4663 0
10 2 S102 904 183692 5567 0
10 2 S102 923 184615 6490 0
0 0 0 898 185513 -11628 0
0 0 0 917 186430 -10711 0
0 0 0 906 187336 -9805 0
0 0 0 924 188260 -8881 0
0 0 0 913 189173 -7968 0
0 0 0 939 190112 -7029 0
0 0 0 970 191082 -6059 0
0 0 0 1012 192094 -5047 0
0 0 0 973 193067 -4074 0
0 0 0 990 194057 -3084 0
0 0 0 997 195054 -2087 0
11 1 S112 993 196047 -1094 0
11 1 S112 942 196989 -152 0
11 2 S112 961 197950 809 0
11 2 S112 998 198948 1807 0
11 2 S112 967 199915 2774 0
11 2 S112 964 200879 3738 0
11 2 S112 939 201818 4677 0
11 2 S112 953 202771 5630 0
11 2 S112 965 203736 6595 0
0 0 0 955 204691 -7983 0
0 0 0 927 205618 -7056 0
0 0 0 896 206514 -6160 0
0 0 0 894 207408 -5266 0
0 0 0 882 208290 -4384 0
0 0 0 872 209162 -3512 0
0 0 0 846 210008 -2666 0
12 1 S116 895 210903 -1771 0
12 1 S116 934 211837 -837 0
12 2 S116 965 212802 128 0
12 2 S116 922 213724 1050 0
12 2 S116 971 214695 2021 0
12 2 S116 988 215683 3009 0
12 2 S116 971 216654 3980 0
12 2 S116 931 217585 4911 0
12 2 S116 931 218516 5842 0
12 2 S116 959 219475 6801 0
0 0 0 959 220434 -12847 0
0 0 0 945 221379 -11902 0
0 0 0 835 222214 -11067 0
0 0 0 813 223027 -10254 0
0 0 0 786 223813 -9468 0
0 0 0 779 224592 -8689 0
0 0 0 796 225388 -7893 0
0 0 0 825 226213 -7068 0
0 0 0 957 227170 -6111 0
0 0 0 1052 228222 -5059 0
0 0 0 1074 229296 -3985 0
0 0 0 1091 230387 -2894 1
13 1 S112 1098 231485 -1796 1
13 1 S112 983 232468 -813 0
13 2 S112 973 233441 160 0
13 2 S112 1036 234477 1196 0
13 2 S112 1052 235529 2248 0
13 2 S112 979 236508 3227 0
13 2 S112 963 237471 4190 0
13 2 S112 978 238449 5168 0
13 2 S112 1020 239469 6188 0
0 0 0 1018 240487 -11578 0
0 0 0 983 241470 -10595 0
0 0 0 1005 242475 -9590 0
0 0 0 987 243462 -8603 0
0 0 0 979 244441 -7624 0
0 0 0 926 245367 -6698 0
0 0 0 966 246333 -5732 0
0 0 0 1015 247348 -4717 0
0 0 0 1025 248373 -3692 0
0 0 0 951 249324 -2741 0
14 1 S106 956 250280 -1785 0
14 1 S106 984 251264 -801 0
14 2 S106 999 252263 198 0
14 2 S106 1016 253279 1214 0
14 2 S106 1006 254285 2220 0
14 2 S106 1017 255302 3237 0
14 2 S106 973 256275 4210 0
14 2 S106 970 257245 5180 0
14 2 S106 997 258242 6177 0
0 0 0 1007 259249 -12809 0
0 0 0 978 260227 -11831 0
0 0 0 981 261208 -10850 0
0 0 0 994 262202 -9856 0
0 0 0 1019 263221 -8837 0
0 0 0 966 264187 -7871 0
0 0 0 917 265104 -6954 0
0 0 0 914 266018 -6040 0
0 0 0 950 266968 -5090 0
0 0 0 959 267927 -4131 0
0 0 0 968 268895 -3163 0
0 0 0 1000 269895 -2163 0
15 1 S116 1042 270937 -1121 0
15 1 S116 1033 271970 -88 0
15 2 S116 904 272874 816 0
15 2 S116 926 273800 1742 0
15 2 S116 961 274761 2703 0
15 2 S116 977 275738 3680 0
15 2 S116 965 276703 4645 0
15 2 S116 945 277648 5590 0
15 2 S116 938 278586 6528 0
0 0 0 942 279528 -10932 0
0 0 0 940 280468 -9992 0
0 0 0 925 281393 -9067 0
0 0 0 841 282234 -8226 0
0 0 0 865 283099 -7361 0
0 0 0 881 283980 -6480 0
0 0 0 898 284878 -5582 0
0 0 0 912 285790 -4670 0
0 0 0 906 286696 -3764 0
0 0 0 966 287662 -2798 0
16 1 S116 993 288655 -1805 0
16 1 S116 1011 289666 -794 0
16 2 S116 945 290611 151 0
16 2 S116 959 291570 1110 0
16 2 S116 962 292532 2072 0
16 2 S116 953 293485 3025 0
16 2 S116 930 294415 3955 0
16 2 S116 914 295329 4869 0
16 2 S116 929 296258 5798 0
16 2 S116 935 297193 6733 0
0 0 0 952 298145 -10402 0
0 0 0 931 299076 -9471 0
0 0 0 853 299929 -8618 0
0 0 0 878 300807 -7740 0
0 0 0 906 301713 -6834 0
0 0 0 917 302630 -5917 0
0 0 0 874 303504 -5043 0
0 0 0 896 304400 -4147 0
0 0 0 969 305369 -3178 0
0 0 0 1007 306376 -2171 0
17 1 S106 1002 307378 -1169 0
17 1 S106 897 308275 -272 0
17 2 S106 819 309094 547 0
17 2 S106 827 309921 1374 0
17 2 S106 868 310789 2242 0
17 2 S106 934 311723 3176 0
17 2 S106 956 312679 4132 0
17 2 S106 984 313663 5116 0
17 2 S106 984 314647 6100 0
0 0 0 966 315613 -12928 0
0 0 0 943 316556 -11985 0
0 0 0 863 317419 -11122 0
0 0 0 862 318281 -10260 0
0 0 0 873 319154 -9387 0
0 0 0 874 320028 -8513 0
0 0 0 843 320871 -7670 0
0 0 0 888 321759 -6782 0
0 0 0 931 322690 -5851 0
0 0 0 963 323653 -4888 0
0 0 0 946 324599 -3942 0
0 0 0 985 325584 -2957 0
18 1 S102 975 326559 -1982 0
18 1 S102 972 327531 -1010 0
18 1 S102 920 328451 -90 0
18 2 S102 938 329389 848 0
18 2 S102 991 330380 1839 0
18 2 S102 980 331360 2819 0
18 2 S102 936 332296 3755 0
18 2 S102 953 333249 4708 0
18 2 S102 972 334221 5680 0
18 2 S102 958 335179 6638 0
0 0 0 906 336085 -7476 0
0 0 0 927 337012 -6549 0
0 0 0 902 337914 -5647 0
0 0 0 903 338817 -4744 0
0 0 0 846 339663 -3898 0
0 0 0 878 340541 -3020 0
0 0 0 911 341452 -2109 0
19 1 S106 935 342387 -1174 0
19 1 S106 883 343270 -291 0
19 2 S106 927 344197 636 0
19 2 S106 930 345127 1566 0
19 2 S106 870 345997 2436 0
19 2 S106 873 346870 3309 0
19 2 S106 880 347750 4189 0
19 2 S106 896 348646 5085 0
19 2 S106 902 349548 5987 0
19 2 S106 880 350428 6867 0
0 0 0 923 351351 -12087 0
0 0 0 924 352275 -11163 0
0 0 0 926 353201 -10237 0
0 0 0 877 354078 -9360 0
0 0 0 883 354961 -8477 0
0 0 0 876 355837 -7601 0
0 0 0 850 356687 -6751 0
0 0 0 882 357569 -5869 0
0 0 0 911 358480 -4958 0
0 0 0 948 359428 -4010 0
0 0 0 954 360382 -3056 0
0 0 0 927 361309 -2129 0
20 1 S112 965 362274 -1164 0
20 1 S112 967 363241 -197 0
20 2 S112 975 364216 778 0
20 2 S112 920 365136 1698 0
20 2 S112 924 366060 2622 0
20 2 S112 924 366984 3546 0
20 2 S112 940 367924 4486 0
20 2 S112 895 368819 5381 0
20 2 S112 924 369743 6305 0
0 0 0 943 370686 -11055 0
0 0 0 969 371655 -10086 0
0 0 0 948 372603 -9138 0
0 0 0 883 373486 -8255 0
0 0 0 921 374407 -7334 0
0 0 0 925 375332 -6409 0
0 0 0 953 376285 -5456 0
0 0 0 920 377205 -4536 0
0 0 0 948 378153 -3588 0
0 0 0 986 379139 -2602 0
21 1 S106 976 380115 -1626 0
21 1 S106 973 381088 -653 0
21 2 S106 1030 382118 377 0
21 2 S106 1022 383140 1399 0
21 2 S106 964 384104 2363 0
21 2 S106 945 385049 3308 0
21 2 S106 961 386010 4269 0
21 2 S106 987 386997 5256 0
21 2 S106 1008 388005 6264 0
0 0 0 956 388961 -13320 0
0 0 0 985 389946 -12335 0
0 0 0 964 390910 -11371 0
0 0 0 877 391787 -10494 0
0 0 0 786 392573 -9708 0
0 0 0 799 393372 -8909 0
0 0 0 782 394154 -8127 0
0 0 0 863 395017 -7264 0
0 0 0 896 395913 -6368 0
0 0 0 930 396843 -5438 0
0 0 0 936 397779 -4502 0
0 0 0 998 398777 -3504 0
0 0 0 1000 399777 -2504 0
22 1 S116 987 400764 -1517 0
22 1 S116 969 401733 -548 0
22 2 S116 964 402697 416 0
22 2 S116 972 403669 1388 0
22 2 S116 930 404599 2318 0
22 2 S116 893 405492 3211 0
22 2 S116 920 406412 4131 0
22 2 S116 953 407365 5084 0
22 2 S116 934 408299 6018 0
22 2 S116 973 409272 6991 0
0 0 0 996 410268 -9619 0
0 0 0 972 411240 -8647 0
0 0 0 961 412201 -7686 0
0 0 0 916 413117 -6770 0
0 0 0 931 414048 -5839 0
0 0 0 959 415007 -4880 0
0 0 0 976 415983 -3904 0
0 0 0 932 416915 -2972 0
0 0 0 966 417881 -2006 0
23 1 S112 965 418846 -1041 0
23 1 S112 976 419822 -65 0
23 2 S112 934 420756 869 0
23 2 S112 966 421722 1835 0
23 2 S112 963 422685 2798 0
23 2 S112 960 423645 3758 0
23 2 S112 911 424556 4669 0
23 2 S112 918 425474 5587 0
23 2 S112 960 426434 6547 0
0 0 0 981 427415 -10079 0
0 0 0 951 428366 -9128 0
0 0 0 912 429278 -8216 0
0 0 0 952 430230 -7264 0
0 0 0 945 431175 -6319 0
0 0 0 942 432117 -5377 0
0 0 0 923 433040 -4454 0
0 0 0 954 433994 -3500 0
0 0 0 977 434971 -2523 0
24 1 S106 951 435922 -1572 0
24 1 S106 943 436865 -629 0
24 2 S106 949 437814 320 0
24 2 S106 983 438797 1303 0
24 2 S106 930 439727 2233 0
24 2 S106 918 440645 3151 0
24 2 S106 932 441577 4083 0
24 2 S106 955 442532 5038 0
24 2 S106 948 443480 5986 0
24 2 S106 931 444411 6917 0
0 0 0 966 445377 -9308 0
0 0 0 960 446337 -8348 0
0 0 0 915 447252 -7433 0
0 0 0 887 448139 -6546 0
0 0 0 896 449035 -5650 0
0 0 0 910 449945 -4740 0
0 0 0 864 450809 -3876 0
0 0 0 893 451702 -2983 0
0 0 0 965 452667 -2018 0
25 1 S102 982 453649 -1036 0
25 1 S102 928 454577 -108 0
25 2 S102 958 455535 850 0
25 2 S102 975 456510 1825 0
25 2 S102 961 457471 2786 0
25 2 S102 905 458376 3691 0
25 2 S102 902 459278 4593 0
25 2 S102 919 460197 5512 0
25 2 S102 922 461119 6434 0
0 0 0 873 461992 -8078 0
0 0 0 885 462877 -7193 0
0 0 0 888 463765 -6305 0
0 0 0 899 464664 -5406 0
0 0 0 841 465505 -4565 0
0 0 0 836 466341 -3729 0
0 0 0 800 467141 -2929 0
0 0 0 819 467960 -2110 0
26 1 S116 867 468827 -1243 0
26 1 S116 826 469653 -417 0
26 2 S116 887 470540 470 0
26 2 S116 954 471494 1424 0
26 2 S116 958 472452 2382 0
26 2 S116 899 473351 3281 0
26 2 S116 911 474262 4192 0
26 2 S116 906 475168 5098 0
26 2 S116 907 476075 6005 0
26 2 S116 875 476950 6880 0
0 0 0 873 477823 -8113 0
0 0 0 885 478708 -7228 0
0 0 0 864 479572 -6364 0
0 0 0 841 480413 -5523 0
0 0 0 849 481262 -4674 0
0 0 0 875 482137 -3799 0
0 0 0 832 482969 -2967 0
0 0 0 811 483780 -2156 0
27 1 S106 769 484549 -1387 0
27 1 S106 838 485387 -549 0
27 2 S106 900 486287 351 0
27 2 S106 942 487229 1293 0
27 2 S106 947 488176 2240 0
27 2 S106 935 489111 3175 0
27 2 S106 954 490065 4129 0
27 2 S106 963 491028 5092 0
27 2 S106 952 491980 6044 0
27 2 S106 916 492896 6960 0
0 0 0 938 493834 -7437 0
0 0 0 946 494780 -6491 0
0 0 0 939 495719 -5552 0
0 0 0 893 496612 -4659 0
0 0 0 922 497534 -3737 0
0 0 0 908 498442 -2829 0
28 1 S102 893 499335 -1936 0
28 1 S102 912 500247 -1024 0
28 1 S102 974 501221 -50 0
28 2 S102 1010 502231 960 0
28 2 S102 974 503205 1934 0
28 2 S102 969 504174 2903 0
28 2 S102 967 505141 3870 0
28 2 S102 975 506116 4845 0
28 2 S102 937 507053 5782 0
28 2 S102 920 507973 6702 0
0 0 0 944 508917 -12132 0
0 0 0 928 509845 -11204 0
0 0 0 898 510743 -10306 0
0 0 0 897 511640 -9409 0
0 0 0 903 512543 -8506 0
0 0 0 911 513454 -7595 0
0 0 0 875 514329 -6720 0
0 0 0 892 515221 -5828 0
0 0 0 911 516132 -4917 0
0 0 0 923 517055 -3994 0
0 0 0 920 517975 -3074 0
0 0 0 927 518902 -2147 0
29 1 S112 948 519850 -1199 0
29 1 S112 950 520800 -249 0
29 2 S112 934 521734 685 0
29 2 S112 932 522666 1617 0
29 2 S112 945 523611 2562 0
29 2 S112 951 524562 3513 0
29 2 S112 940 525502 4453 0
29 2 S112 900 526402 5353 0
29 2 S112 931 527333 6284 0
0 0 0 954 528287 -8776 0
0 0 0 954 529241 -7822 0
0 0 0 888 530129 -6934 0
0 0 0 862 530991 -6072 0
0 0 0 859 531850 -5213 0
0 0 0 875 532725 -4338 0
0 0 0 889 533614 -3449 0
0 0 0 861 534475 -2588 0
30 1 S112 932 535407 -1656 0
30 1 S112 986 536393 -670 0
30 2 S112 975 537368 305 0
30 2 S112 1012 538380 1317 0
30 2 S112 1021 539401 2338 0
30 2 S112 1001 540402 3339 0
30 2 S112 972 541374 4311 0
30 2 S112 960 542334 5271 0
30 2 S112 994 543328 6265 0
0 0 0 1020 544348 -10007 0
0 0 0 988 545336 -9019 0
0 0 0 953 546289 -8066 0
0 0 0 883 547172 -7183 0
0 0 0 889 548061 -6294 0
0 0 0 877 548938 -5417 0
0 0 0 879 549817 -4538 0
0 0 0 840 550657 -3698 0
0 0 0 907 551564 -2791 0
31 1 S106 979 552543 -1812 0
31 1 S106 1003 553546 -809 0
31 2 S106 930 554476 121 0
31 2 S106 950 555426 1071 0
31 2 S106 951 556377 2022 0
31 2 S106 934 557311 2956 0
31 2 S106 894 558205 3850 0
31 2 S106 944 559149 4794 0
31 2 S106 968 560117 5762 0
31 2 S106 970 561087 6732 0
0 0 0 936 562023 -10120 0
0 0 0 945 562968 -9175 0
0 0 0 930 563898 -8245 0
0 0 0 914 564812 -7331 0
0 0 0 890 565702 -6441 0
0 0 0 883 566585 -5558 0
0 0 0 872 567457 -4686 0
0 0 0 854 568311 -3832 0
0 0 0 926 569237 -2906 0
32 1 S102 944 570181 -1962 0
32 1 S102 996 571177 -966 0
32 2 S102 968 572145 2 0
32 2 S102 1024 573169 1026 0
32 2 S102 1059 574228 2085 0
32 2 S102 1045 575273 3130 0
32 2 S102 983 576256 4113 0
32 2 S102 964 577220 5077 0
32 2 S102 983 578203 6060 0
32 2 S102 926 579129 6986 0
0 0 0 930 580059 -11862 0
0 0 0 937 580996 -10925 0
0 0 0 917 581913 -10008 0
0 0 0 930 582843 -9078 0
0 0 0 875 583718 -8203 0
0 0 0 932 584650 -7271 0
0 0 0 953 585603 -6318 0
0 0 0 970 586573 -5348 0
0 0 0 937 587510 -4411 0
0 0 0 986 588496 -3425 0
0 0 0 990 589486 -2435 0
33 1 S112 1008 590494 -1427 0
33 1 S112 950 591444 -477 0
33 2 S112 964 592408 487 0
33 2 S112 954 593362 1441 0
33 2 S112 943 594305 2384 0
33 2 S112 903 595208 3287 0
33 2 S112 898 596106 4185 0
33 2 S112 917 597023 5102 0
33 2 S112 944 597967 6046 0
33 2 S112 971 598938 7017 0
0 0 0 950 599888 -12242 0
0 0 0 935 600823 -11307 0
0 0 0 951 601774 -10356 0
0 0 0 959 602733 -9397 0
0 0 0 908 603641 -8489 0
0 0 0 914 604555 -7575 0
0 0 0 915 605470 -6660 0
0 0 0 818 606288 -5842 0
0 0 0 752 607040 -5090 1
0 0 0 736 607776 -4354 1
0 0 0 772 608548 -3582 0
0 0 0 855 609403 -2727 0
34 1 S106 904 610307 -1823 0
34 1 S106 916 611223 -907 0
34 2 S106 925 612148 18 0
34 2 S106 885 613033 903 0
34 2 S106 858 613891 1761 0
34 2 S106 864 614755 2625 0
34 2 S106 861 615616 3486 0
34 2 S106 850 616466 4336 0
34 2 S106 826 617292 5162 0
34 2 S106 868 618160 6030 0
34 2 S106 893 619053 6923 0
0 0 0 942 619995 -9725 0
0 0 0 946 620941 -8779 0
0 0 0 930 621871 -7849 0
0 0 0 882 622753 -6967 0
0 0 0 872 623625 -6095 0
0 0 0 870 624495 -5225 0
0 0 0 843 625338 -4382 0
0 0 0 927 626265 -3455 0
0 0 0 1009 627274 -2446 0
35 1 S102 1036 628310 -1410 0
35 1 S102 1005 629315 -405 0
35 2 S102 1004 630319 599 0
35 2 S102 987 631306 1586 0
35 2 S102 939 632245 2525 0
35 2 S102 910 633155 3435 0
35 2 S102 927 634082 4362 0
35 2 S102 947 635029 5309 0
35 2 S102 933 635962 6242 0
0 0 0 879 636841 -7402 0
0 0 0 904 637745 -6498 0
0 0 0 897 638642 -5601 0
0 0 0 913 639555 -4688 0
0 0 0 858 640413 -3830 0
0 0 0 856 641269 -2974 0
0 0 0 890 642159 -2084 0
36 1 S106 913 643072 -1171 0
36 1 S106 915 643987 -256 0
36 2 S106 922 644909 666 0
36 2 S106 939 645848 1605 0
36 2 S106 950 646798 2555 0
36 2 S106 920 647718 3475 0
36 2 S106 893 648611 4368 0
36 2 S106 904 649515 5272 0
36 2 S106 920 650435 6192 0
0 0 0 916 651351 -10564 0
0 0 0 886 652237 -9678 0
0 0 0 873 653110 -8805 0
0 0 0 862 653972 -7943 0
0 0 0 872 654844 -7071 0
0 0 0 806 655650 -6265 0
0 0 0 767 656417 -5498 0
0 0 0 757 657174 -4741 1
0 0 0 771 657945 -3970 0
0 0 0 759 658704 -3211 1
0 0 0 725 659429 -2486 1
37 1 S116 777 660206 -1709 0
37 1 S116 812 661018 -897 0
37 1 S116 890 661908 -7 0
37 2 S116 820 662728 813 0
37 2 S116 866 663594 1679 0
37 2 S116 905 664499 2584 0
37 2 S116 846 665345 3430 0
37 2 S116 823 666168 4253 0
37 2 S116 812 666980 5065 0
37 2 S116 811 667791 5876 0
37 2 S116 830 668621 6706 0
0 0 0 795 669416 -13106 0
0 0 0 797 670213 -12309 0
0 0 0 811 671024 -11498 0
0 0 0 839 671863 -10659 0
0 0 0 865 672728 -9794 0
0 0 0 835 673563 -8959 0
0 0 0 896 674459 -8063 0
0 0 0 904 675363 -7159 0
0 0 0 977 676340 -6182 0
0 0 0 901 677241 -5281 0
0 0 0 942 678183 -4339 0
0 0 0 966 679149 -3373 0
0 0 0 984 680133 -2389 0
38 1 S102 949 681082 -1440 0
38 1 S102 986 682068 -454 0
38 2 S102 981 683049 527 0
38 2 S102 973 684022 1500 0
38 2 S102 928 684950 2428 0
38 2 S102 947 685897 3375 0
38 2 S102 956 686853 4331 0
38 2 S102 948 687801 5279 0
38 2 S102 922 688723 6201 0
0 0 0 947 689670 -9961 0
0 0 0 966 690636 -8995 0
0 0 0 942 691578 -8053 0
0 0 0 888 692466 -7165 0
0 0 0 901 693367 -6264 0
0 0 0 903 694270 -5361 0
0 0 0 923 695193 -4438 0
0 0 0 902 696095 -3536 0
0 0 0 953 697048 -2583 0
39 1 S116 973 698021 -1610 0
39 1 S116 959 698980 -651 0
39 2 S116 936 699916 285 0
39 2 S116 974 700890 1259 0
39 2 S116 991 701881 2250 0
39 2 S116 959 702840 3209 0
39 2 S116 935 703775 4144 0
39 2 S116 975 704750 5119 0
39 2 S116 1007 705757 6126 0
0 0 0 1006 706763 -8568 0
0 0 0 980 707743 -7588 0
0 0 0 949 708692 -6639 0
0 0 0 963 709655 -5676 0
0 0 0 954 710609 -4722 0
0 0 0 907 711516 -3815 0
0 0 0 910 712426 -2905 0
40 1 S112 930 713356 -1975 0
40 1 S112 951 714307 -1024 0
40 1 S112 921 715228 -103 0
40 2 S112 964 716192 861 0
40 2 S112 988 717180 1849 0
40 2 S112 994 718174 2843 0
40 2 S112 921 719095 3764 0
40 2 S112 931 720026 4695 0
40 2 S112 959 720985 5654 0
40 2 S112 976 721961 6630 0
0 0 0 958 722919 -187871 0
0 0 0 907 723826 -186964 0
0 0 0 929 724755 -186035 0
0 0 0 948 725703 -185087 0
0 0 0 959 726662 -184128 0
0 0 0 907 727569 -183221 0
0 0 0 908 728477 -182313 0
0 0 0 888 729365 -181425 0
0 0 0 826 730191 -180599 0
0 0 0 777 730968 -179822 0
0 0 0 777 731745 -179045 0
0 0 0 766 732511 -178279 0
0 0 0 781 733292 -177498 0
0 0 0 850 734142 -176648 0
0 0 0 860 735002 -175788 0
0 0 0 839 735841 -174949 0
0 0 0 792 736633 -174157 0
0 0 0 774 737407 -173383 0
0 0 0 759 738166 -172624 1
0 0 0 721 738887 -171903 1
0 0 0 753 739640 -171150 1
0 0 0 746 740386 -170404 1
0 0 0 730 741116 -169674 1
0 0 0 720 741836 -168954 1
0 0 0 703 742539 -168251 1
0 0 0 695 743234 -167556 1
0 0 0 693 743927 -166863 1
0 0 0 742 744669 -166121 1
0 0 0 810 745479 -165311 0
0 0 0 827 746306 -164484 0
0 0 0 826 747132 -163658 0
0 0 0 829 747961 -162829 0
0 0 0 805 748766 -162024 0
0 0 0 777 749543 -161247 0
0 0 0 771 750314 -160476 0
0 0 0 823 751137 -159653 0
0 0 0 965 752102 -158688 0
0 0 0 944 753046 -157744 0
0 0 0 920 753966 -156824 0
0 0 0 924 754890 -155900 0
0 0 0 983 755873 -154917 0
0 0 0 1022 756895 -153895 0
0 0 0 1108 758003 -152787 1
0 0 0 1123 759126 -151664 1
0 0 0 930 760056 -150734 0
0 0 0 867 760923 -149867 0
0 0 0 909 761832 -148958 0
0 0 0 958 762790 -148000 0
0 0 0 982 763772 -147018 0
0 0 0 999 764771 -146019 0
0 0 0 1030 765801 -144989 0
0 0 0 1029 766830 -143960 0
0 0 0 994 767824 -142966 0
0 0 0 950 768774 -142016 0
0 0 0 889 769663 -141127 0
0 0 0 910 770573 -140217 0
0 0 0 954 771527 -139263 0
0 0 0 929 772456 -138334 0
0 0 0 926 773382 -137408 0
0 0 0 903 774285 -136505 0
0 0 0 901 775186 -135604 0
0 0 0 836 776022 -134768 0
0 0 0 819 776841 -133949 0
0 0 0 886 777727 -133063 0
0 0 0 901 778628 -132162 0
0 0 0 917 779545 -131245 0
0 0 0 902 780447 -130343 0
0 0 0 837 781284 -129506 0
0 0 0 840 782124 -128666 0
0 0 0 848 782972 -127818 0
0 0 0 858 783830 -126960 0
0 0 0 873 784703 -126087 0
0 0 0 848 785551 -125239 0
0 0 0 868 786419 -124371 0
0 0 0 884 787303 -123487 0
0 0 0 910 788213 -122577 0
0 0 0 901 789114 -121676 0
0 0 0 889 790003 -120787 0
0 0 0 880 790883 -119907 0
0 0 0 882 791765 -119025 0
0 0 0 880 792645 -118145 0
0 0 0 884 793529 -117261 0
0 0 0 846 794375 -116415 0
0 0 0 875 795250 -115540 0
0 0 0 898 796148 -114642 0
0 0 0 936 797084 -113706 0
0 0 0 930 798014 -112776 0
0 0 0 902 798916 -111874 0
0 0 0 931 799847 -110943 0
0 0 0 960 800807 -109983 0
0 0 0 949 801756 -109034 0
0 0 0 933 802689 -108101 0
0 0 0 916 803605 -107185 0
0 0 0 910 804515 -106275 0
0 0 0 915 805430 -105360 0
0 0 0 913 806343 -104447 0
0 0 0 897 807240 -103550 0
0 0 0 873 808113 -102677 0
0 0 0 891 809004 -101786 0
0 0 0 898 809902 -100888 0
0 0 0 933 810835 -99955 0
0 0 0 912 811747 -99043 0
0 0 0 873 812620 -98170 0
0 0 0 882 813502 -97288 0
0 0 0 866 814368 -96422 0
0 0 0 857 815225 -95565 0
0 0 0 872 816097 -94693 0
0 0 0 829 816926 -93864 0
0 0 0 779 817705 -93085 0
0 0 0 756 818461 -92329 1
0 0 0 709 819170 -91620 1
0 0 0 719 819889 -90901 1
0 0 0 731 820620 -90170 1
0 0 0 731 821351 -89439 1
0 0 0 782 822133 -88657 0
0 0 0 876 823009 -87781 0
0 0 0 847 823856 -86934 0
0 0 0 815 824671 -86119 0
0 0 0 821 825492 -85298 0
0 0 0 829 826321 -84469 0
0 0 0 845 827166 -83624 0
0 0 0 813 827979 -82811 0
0 0 0 783 828762 -82028 0
0 0 0 811 829573 -81217 0
0 0 0 818 830391 -80399 0
0 0 0 853 831244 -79546 0
0 0 0 837 832081 -78709 0
0 0 0 856 832937 -77853 0
0 0 0 917 833854 -76936 0
0 0 0 998 834852 -75938 0
0 0 0 1020 835872 -74918 0
0 0 0 1042 836914 -73876 0
0 0 0 999 837913 -72877 0
0 0 0 1016 838929 -71861 0
0 0 0 1014 839943 -70847 0
0 0 0 990 840933 -69857 0
0 0 0 972 841905 -68885 0
0 0 0 933 842838 -67952 0
0 0 0 932 843770 -67020 0
0 0 0 955 844725 -66065 0
0 0 0 961 845686 -65104 0
0 0 0 952 846638 -64152 0
0 0 0 939 847577 -63213 0
0 0 0 940 848517 -62273 0
0 0 0 929 849446 -61344 0
0 0 0 935 850381 -60409 0
0 0 0 919 851300 -59490 0
0 0 0 923 852223 -58567 0
0 0 0 922 853145 -57645 0
0 0 0 925 854070 -56720 0
0 0 0 875 854945 -55845 0
0 0 0 938 855883 -54907 0
0 0 0 987 856870 -53920 0
0 0 0 967 857837 -52953 0
0 0 0 949 858786 -52004 0
0 0 0 970 859756 -51034 0
0 0 0 983 860739 -50051 0
0 0 0 996 861735 -49055 0
0 0 0 859 862594 -48196 0
0 0 0 797 863391 -47399 0
0 0 0 783 864174 -46616 0
0 0 0 831 865005 -45785 0
0 0 0 858 865863 -44927 0
0 0 0 959 866822 -43968 0
0 0 0 993 867815 -42975 0
0 0 0 988 868803 -41987 0
0 0 0 962 869765 -41025 0
0 0 0 894 870659 -40131 0
0 0 0 920 871579 -39211 0
0 0 0 972 872551 -38239 0
0 0 0 944 873495 -37295 0
0 0 0 974 874469 -36321 0
0 0 0 860 875329 -35461 0
0 0 0 804 876133 -34657 0
0 0 0 851 876984 -33806 0
0 0 0 903 877887 -32903 0
0 0 0 936 878823 -31967 0
0 0 0 957 879780 -31010 0
0 0 0 1040 880820 -29970 0
0 0 0 1045 881865 -28925 0
0 0 0 993 882858 -27932 0
0 0 0 883 883741 -27049 0
0 0 0 890 884631 -26159 0
0 0 0 882 885513 -25277 0
0 0 0 908 886421 -24369 0
0 0 0 894 887315 -23475 0
0 0 0 925 888240 -22550 0
0 0 0 906 889146 -21644 0
0 0 0 894 890040 -20750 0
0 0 0 874 890914 -19876 0
0 0 0 886 891800 -18990 0
0 0 0 963 892763 -18027 0
0 0 0 1000 893763 -17027 0
0 0 0 1010 894773 -16017 0
0 0 0 1015 895788 -15002 0
0 0 0 916 896704 -14086 0
0 0 0 918 897622 -13168 0
0 0 0 936 898558 -12232 0
0 0 0 909 899467 -11323 0
0 0 0 901 900368 -10422 0
0 0 0 942 901310 -9480 0
0 0 0 886 902196 -8594 0
0 0 0 878 903074 -7716 0
0 0 0 892 903966 -6824 0
0 0 0 981 904947 -5843 0
0 0 0 1023 905970 -4820 0
0 0 0 995 906965 -3825 0
0 0 0 914 907879 -2911 0
41 1 S102 931 908810 -1980 0
41 1 S102 915 909725 -1065 0
41 1 S102 897 910622 -168 0
41 2 S102 855 911477 687 0
41 2 S102 933 912410 1620 0
41 2 S102 972 913382 2592 0
41 2 S102 1003 914385 3595 0
41 2 S102 984 915369 4579 0
41 2 S102 1022 916391 5601 0
41 2 S102 1061 917452 6662 0
0 0 0 1066 918518 -7142 0
0 0 0 1053 919571 -6089 0
0 0 0 945 920516 -5144 0
0 0 0 914 921430 -4230 0
0 0 0 903 922333 -3327 0
0 0 0 919 923252 -2408 0
42 1 S112 922 924174 -1486 0
42 1 S112 1014 925188 -472 0
42 2 S112 1079 926267 607 0
42 2 S112 1095 927362 1702 1
42 2 S112 1008 928370 2710 0
42 2 S112 1007 929377 3717 0
42 2 S112 1014 930391 4731 0
42 2 S112 1011 931402 5742 0
42 2 S112 972 932374 6714 0
0 0 0 1004 933378 -9474 0
0 0 0 1005 934383 -8469 0
0 0 0 980 935363 -7489 0
0 0 0 915 936278 -6574 0
0 0 0 924 937202 -5650 0
0 0 0 949 938151 -4701 0
0 0 0 963 939114 -3738 0
0 0 0 909 940023 -2829 0
43 1 S116 964 940987 -1865 0
43 1 S116 994 941981 -871 0
43 2 S116 1012 942993 141 0
43 2 S116 986 943979 1127 0
43 2 S116 969 944948 2096 0
43 2 S116 981 945929 3077 0
43 2 S116 984 946913 4061 0
43 2 S116 991 947904 5052 0
43 2 S116 970 948874 6022 0
0 0 0 1014 949888 -8365 0
0 0 0 1028 950916 -7337 0
0 0 0 965 951881 -6372 0
0 0 0 907 952788 -5465 0
0 0 0 909 953697 -4556 0
0 0 0 935 954632 -3621 0
0 0 0 945 955577 -2676 0
44 1 S102 919 956496 -1757 0
44 1 S102 957 957453 -800 0
44 2 S102 986 958439 186 0
44 2 S102 1022 959461 1208 0
44 2 S102 955 960416 2163 0
44 2 S102 955 961371 3118 0
44 2 S102 1005 962376 4123 0
44 2 S102 1002 963378 5125 0
44 2 S102 989 964367 6114 0
0 0 0 973 965340 -10089 0
0 0 0 973 966313 -9116 0
0 0 0 988 967301 -8128 0
0 0 0 965 968266 -7163 0
0 0 0 965 969231 -6198 0
0 0 0 1014 970245 -5184 0
0 0 0 1043 971288 -4141 0
0 0 0 1005 972293 -3136 0
0 0 0 1025 973318 -2111 0
45 1 S116 1033 974351 -1078 0
45 1 S116 1011 975362 -67 0
45 2 S116 976 976338 909 0
45 2 S116 995 977333 1904 0
45 2 S116 1012 978345 2916 0
45 2 S116 986 979331 3902 0
45 2 S116 960 980291 4862 0
45 2 S116 937 981228 5799 0
45 2 S116 958 982186 6757 0
0 0 0 975 983161 -12079 0
0 0 0 961 984122 -11118 0
0 0 0 894 985016 -10224 0
0 0 0 892 985908 -9332 0
0 0 0 906 986814 -8426 0
0 0 0 917 987731 -7509 0
0 0 0 916 988647 -6593 0
0 0 0 884 989531 -5709 0
0 0 0 923 990454 -4786 0
0 0 0 961 991415 -3825 0
0 0 0 982 992397 -2843 0
46 1 S102 958 993355 -1885 0
46 1 S102 951 994306 -934 0
46 2 S102 978 995284 44 0
46 2 S102 977 996261 1021 0
46 2 S102 931 997192 1952 0
46 2 S102 927 998119 2879 0
46 2 S102 937 999056 3816 0
46 2 S102 956 1000012 4772 0
46 2 S102 973 1000985 5745 0
46 2 S102 960 1001945 6705 0
0 0 0 974 1002919 -9247 0
0 0 0 955 1003874 -8292 0
0 0 0 944 1004818 -7348 0
0 0 0 856 1005674 -6492 0
0 0 0 810 1006484 -5682 0
0 0 0 803 1007287 -4879 0
0 0 0 801 1008088 -4078 0
0 0 0 769 1008857 -3309 0
0 0 0 740 1009597 -2569 1
47 1 S112 776 1010373 -1793 0
47 1 S112 762 1011135 -1031 0
47 1 S112 762 1011897 -269 0
47 2 S112 779 1012676 510 0
47 2 S112 761 1013437 1271 0
47 2 S112 868 1014305 2139 0
47 2 S112 841 1015146 2980 0
47 2 S112 806 1015952 3786 0
47 2 S112 827 1016779 4613 0
47 2 S112 857 1017636 5470 0
47 2 S112 895 1018531 6365 0
0 0 0 924 1019455 -12241 0
0 0 0 926 1020381 -11315 0
0 0 0 921 1021302 -10394 0
0 0 0 958 1022260 -9436 0
0 0 0 953 1023213 -8483 0
0 0 0 994 1024207 -7489 0
0 0 0 1097 1025304 -6392 1
0 0 0 1150 1026454 -5242 1
0 0 0 1105 1027559 -4137 1
0 0 0 1146 1028705 -2991 1
48 1 S116 1190 1029895 -1801 1
48 1 S116 1146 1031041 -655 1
48 2 S116 1071 1032112 416 0
48 2 S116 1086 1033198 1502 0
48 2 S116 1079 1034277 2581 0
48 2 S116 1047 1035324 3628 0
48 2 S116 990 1036314 4618 0
48 2 S116 1005 1037319 5623 0
48 2 S116 1033 1038352 6656 0
0 0 0 1023 1039375 -8799 0
0 0 0 1008 1040383 -7791 0
0 0 0 993 1041376 -6798 0
0 0 0 987 1042363 -5811 0
0 0 0 1013 1043376 -4798 0
0 0 0 937 1044313 -3861 0
0 0 0 930 1045243 -2931 0
49 1 S112 1011 1046254 -1920 0
49 1 S112 1054 1047308 -866 0
49 2 S112 1018 1048326 152 0
49 2 S112 941 1049267 1093 0
49 2 S112 982 1050249 2075 0
49 2 S112 1013 1051262 3088 0
49 2 S112 984 1052246 4072 0
49 2 S112 951 1053197 5023 0
49 2 S112 955 1054152 5978 0
49 2 S112 977 1055129 6955 0
0 0 0 959 1056088 -12693 0
0 0 0 930 1057018 -11763 0
0 0 0 885 1057903 -10878 0
0 0 0 926 1058829 -9952 0
0 0 0 947 1059776 -9005 0
0 0 0 936 1060712 -8069 0
0 0 0 900 1061612 -7169 0
0 0 0 913 1062525 -6256 0
0 0 0 966 1063491 -5290 0
0 0 0 1052 1064543 -4238 0
0 0 0 993 1065536 -3245 0
0 0 0 1031 1066567 -2214 0
50 1 S106 1042 1067609 -1172 0
50 1 S106 1036 1068645 -136 0
50 2 S106 972 1069617 836 0
50 2 S106 980 1070597 1816 0
50 2 S106 986 1071583 2802 0
50 2 S106 976 1072559 3778 0
50 2 S106 966 1073525 4744 0
50 2 S106 1005 1074530 5749 0
50 2 S106 1010 1075540 6759 0
0 0 0 1008 1076548 -7353 0
0 0 0 962 1077510 -6391 0
0 0 0 978 1078488 -5413 0
0 0 0 1005 1079493 -4408 0
0 0 0 940 1080433 -3468 0
0 0 0 924 1081357 -2544 0
51 1 S112 980 1082337 -1564 0
51 1 S112 1014 1083351 -550 0
51 2 S112 1004 1084355 454 0
51 2 S112 1004 1085359 1458 0
51 2 S112 1033 1086392 2491 0
51 2 S112 1021 1087413 3512 0
51 2 S112 990 1088403 4502 0
51 2 S112 997 1089400 5499 0
51 2 S112 1020 1090420 6519 0
0 0 0 996 1091416 -8715 0
0 0 0 950 1092366 -7765 0
0 0 0 883 1093249 -6882 0
0 0 0 838 1094087 -6044 0
0 0 0 850 1094937 -5194 0
0 0 0 841 1095778 -4353 0
0 0 0 851 1096629 -3502 0
0 0 0 909 1097538 -2593 0
52 1 S116 973 1098511 -1620 0
52 1 S116 977 1099488 -643 0
52 2 S116 988 1100476 345 0
52 2 S116 1042 1101518 1387 0
52 2 S116 1042 1102560 2429 0
52 2 S116 994 1103554 3423 0
52 2 S116 960 1104514 4383 0
52 2 S116 968 1105482 5351 0
52 2 S116 981 1106463 6332 0
0 0 0 982 1107445 -11022 0
0 0 0 968 1108413 -10054 0
0 0 0 921 1109334 -9133 0
0 0 0 914 1110248 -8219 0
0 0 0 929 1111177 -7290 0
0 0 0 918 1112095 -6372 0
0 0 0 829 1112924 -5543 0
0 0 0 804 1113728 -4739 0
0 0 0 840 1114568 -3899 0
0 0 0 854 1115422 -3045 0
0 0 0 962 1116384 -2083 0
53 1 S106 1001 1117385 -1082 0
53 1 S106 1025 1118410 -57 0
53 2 S106 1010 1119420 953 0
53 2 S106 1014 1120434 1967 0
53 2 S106 1038 1121472 3005 0
53 2 S106 1049 1122521 4054 0
53 2 S106 1009 1123530 5063 0
53 2 S106 955 1124485 6018 0
53 2 S106 981 1125466 6999 0
0 0 0 1034 1126500 -8131 0
0 0 0 1023 1127523 -7108 0
0 0 0 968 1128491 -6140 0
0 0 0 973 1129464 -5167 0
0 0 0 955 1130419 -4212 0
0 0 0 915 1131334 -3297 0
0 0 0 848 1132182 -2449 0
54 1 S102 902 1133084 -1547 0
54 1 S102 999 1134083 -548 0
54 2 S102 1016 1135099 468 0
54 2 S102 1000 1136099 1468 0
54 2 S102 1050 1137149 2518 0
54 2 S102 1062 1138211 3580 0
54 2 S102 1041 1139252 4621 0
54 2 S102 982 1140234 5603 0
54 2 S102 976 1141210 6579 0
0 0 0 981 1142191 -11521 0
0 0 0 962 1143153 -10559 0
0 0 0 939 1144092 -9620 0
0 0 0 891 1144983 -8729 0
0 0 0 898 1145881 -7831 0
0 0 0 896 1146777 -6935 0
0 0 0 902 1147679 -6033 0
0 0 0 882 1148561 -5151 0
0 0 0 911 1149472 -4240 0
0 0 0 951 1150423 -3289 0
0 0 0 942 1151365 -2347 0
55 1 S106 935 1152300 -1412 0
55 1 S106 963 1153263 -449 0
55 2 S106 1005 1154268 556 0
55 2 S106 999 1155267 1555 0
55 2 S106 980 1156247 2535 0
55 2 S106 991 1157238 3526 0
55 2 S106 970 1158208 4496 0
55 2 S106 948 1159156 5444 0
55 2 S106 959 1160115 6403 0
0 0 0 970 1161085 -8128 0
0 0 0 943 1162028 -7185 0
0 0 0 914 1162942 -6271 0
0 0 0 867 1163809 -5404 0
0 0 0 885 1164694 -4519 0
0 0 0 913 1165607 -3606 0
0 0 0 936 1166543 -2670 0
56 1 S116 924 1167467 -1746 0
56 1 S116 959 1168426 -787 0
56 2 S116 987 1169413 200 0
56 2 S116 989 1170402 1189 0
56 2 S116 969 1171371 2158 0
56 2 S116 992 1172363 3150 0
56 2 S116 993 1173356 4143 0
56 2 S116 1008 1174364 5151 0
56 2 S116 982 1175346 6133 0
0 0 0 925 1176271 -8012 0
0 0 0 927 1177198 -7085 0
0 0 0 909 1178107 -6176 0
0 0 0 877 1178984 -5299 0
0 0 0 817 1179801 -4482 0
0 0 0 794 1180595 -3688 0
0 0 0 790 1181385 -2898 0
0 0 0 787 1182172 -2111 0
57 1 S106 776 1182948 -1335 0
57 1 S106 873 1183821 -462 0
57 2 S106 889 1184710 427 0
57 2 S106 954 1185664 1381 0
57 2 S106 969 1186633 2350 0
57 2 S106 952 1187585 3302 0
57 2 S106 910 1188495 4212 0
57 2 S106 906 1189401 5118 0
57 2 S106 913 1190314 6031 0
57 2 S106 930 1191244 6961 0
0 0 0 930 1192174 -9450 0
0 0 0 886 1193060 -8564 0
0 0 0 880 1193940 -7684 0
0 0 0 914 1194854 -6770 0
0 0 0 920 1195774 -5850 0
0 0 0 854 1196628 -4996 0
0 0 0 880 1197508 -4116 0
0 0 0 911 1198419 -3205 0
0 0 0 946 1199365 -2259 0
58 1 S102 969 1200334 -1290 0
58 1 S102 932 1201266 -358 0
58 2 S102 949 1202215 591 0
58 2 S102 961 1203176 1552 0
58 2 S102 944 1204120 2496 0
58 2 S102 929 1205049 3425 0
58 2 S102 883 1205932 4308 0
58 2 S102 910 1206842 5218 0
58 2 S102 922 1207764 6140 0
0 0 0 921 1208685 -8323 0
0 0 0 892 1209577 -7431 0
0 0 0 882 1210459 -6549 0
0 0 0 879 1211338 -5670 0
0 0 0 885 1212223 -4785 0
0 0 0 848 1213071 -3937 0
0 0 0 849 1213920 -3088 0
0 0 0 852 1214772 -2236 0
59 1 S112 855 1215627 -1381 0
59 1 S112 772 1216399 -609 0
59 2 S112 797 1217196 188 0
59 2 S112 817 1218013 1005 0
59 2 S112 859 1218872 1864 0
59 2 S112 863 1219735 2727 0
59 2 S112 844 1220579 3571 0
59 2 S112 850 1221429 4421 0
59 2 S112 864 1222293 5285 0
59 2 S112 853 1223146 6138 0
59 2 S112 834 1223980 6972 0
0 0 0 843 1224823 -9908 0
0 0 0 819 1225642 -9089 0
0 0 0 822 1226464 -8267 0
0 0 0 806 1227270 -7461 0
0 0 0 808 1228078 -6653 0
0 0 0 822 1228900 -5831 0
0 0 0 832 1229732 -4999 0
0 0 0 844 1230576 -4155 0
0 0 0 891 1231467 -3264 0
0 0 0 931 1232398 -2333 0
60 1 S102 972 1233370 -1361 0
60 1 S102 972 1234342 -389 0
60 2 S102 957 1235299 568 0
60 2 S102 966 1236265 1534 0
60 2 S102 955 1237220 2489 0
60 2 S102 936 1238156 3425 0
60 2 S102 897 1239053 4322 0
60 2 S102 903 1239956 5225 0
60 2 S102 907 1240863 6132 0
0 0 0 906 1241769 -12773 0
0 0 0 875 1242644 -11898 0
0 0 0 848 1243492 -11050 0
0 0 0 871 1244363 -10179 0
0 0 0 889 1245252 -9290 0
0 0 0 874 1246126 -8416 0
0 0 0 854 1246980 -7562 0
0 0 0 903 1247883 -6659 0
0 0 0 926 1248809 -5733 0
0 0 0 935 1249744 -4798 0
0 0 0 941 1250685 -3857 0
0 0 0 942 1251627 -2915 0
61 1 S106 989 1252616 -1926 0
61 1 S106 970 1253586 -956 0
61 1 S106 949 1254535 -7 0
61 2 S106 922 1255457 915 0
61 2 S106 942 1256399 1857 0
61 2 S106 953 1257352 2810 0
61 2 S106 943 1258295 3753 0
61 2 S106 894 1259189 4647 0
61 2 S106 914 1260103 5561 0
61 2 S106 933 1261036 6494 0
0 0 0 944 1261980 -9074 0
0 0 0 936 1262916 -8138 0
0 0 0 899 1263815 -7239 0
0 0 0 916 1264731 -6323 0
0 0 0 955 1265686 -5368 0
0 0 0 920 1266606 -4448 0
0 0 0 891 1267497 -3557 0
0 0 0 909 1268406 -2648 0
62 1 S112 922 1269328 -1726 0
62 1 S112 902 1270230 -824 0
62 2 S112 888 1271118 64 0
62 2 S112 924 1272042 988 0
62 2 S112 951 1272993 1939 0
62 2 S112 934 1273927 2873 0
62 2 S112 910 1274837 3783 0
62 2 S112 932 1275769 4715 0
62 2 S112 936 1276705 5651 0
62 2 S112 918 1277623 6569 0
0 0 0 908 1278531 -11920 0
0 0 0 888 1279419 -11032 0
0 0 0 883 1280302 -10149 0
0 0 0 894 1281196 -9255 0
0 0 0 874 1282070 -8381 0
0 0 0 883 1282953 -7498 0
0 0 0 910 1283863 -6588 0
0 0 0 917 1284780 -5671 0
0 0 0 916 1285696 -4755 0
0 0 0 919 1286615 -3836 0
0 0 0 939 1287554 -2897 0
63 1 S102 957 1288511 -1940 0
63 1 S102 942 1289453 -998 0
63 1 S102 916 1290369 -82 0
63 2 S102 943 1291312 861 0
63 2 S102 960 1292272 1821 0
63 2 S102 954 1293226 2775 0
63 2 S102 914 1294140 3689 0
63 2 S102 926 1295066 4615 0
63 2 S102 946 1296012 5561 0
63 2 S102 937 1296949 6498 0
0 0 0 928 1297877 -10097 0
0 0 0 912 1298789 -9185 0
0 0 0 918 1299707 -8267 0
0 0 0 922 1300629 -7345 0
0 0 0 890 1301519 -6455 0
0 0 0 847 1302366 -5608 0
0 0 0 862 1303228 -4746 0
0 0 0 865 1304093 -3881 0
0 0 0 896 1304989 -2985 0
0 0 0 893 1305882 -2092 0
64 1 S112 935 1306817 -1157 0
64 1 S112 962 1307779 -195 0
64 2 S112 982 1308761 787 0
64 2 S112 978 1309739 1765 0
64 2 S112 951 1310690 2716 0
64 2 S112 933 1311623 3649 0
64 2 S112 922 1312545 4571 0
64 2 S112 911 1313456 5482 0
64 2 S112 870 1314326 6352 0
0 0 0 874 1315200 -8822 0
0 0 0 895 1316095 -7927 0
0 0 0 866 1316961 -7061 0
0 0 0 826 1317787 -6235 0
0 0 0 841 1318628 -5394 0
0 0 0 860 1319488 -4534 0
0 0 0 847 1320335 -3687 0
0 0 0 822 1321157 -2865 0
65 1 S106 873 1322030 -1992 0
65 1 S106 911 1322941 -1081 0
65 1 S106 949 1323890 -132 0
65 2 S106 929 1324819 797 0
65 2 S106 971 1325790 1768 0
65 2 S106 988 1326778 2756 0
65 2 S106 942 1327720 3698 0
65 2 S106 899 1328619 4597 0
65 2 S106 918 1329537 5515 0
65 2 S106 925 1330462 6440 0
0 0 0 913 1331375 -9093 0
0 0 0 875 1332250 -8218 0
0 0 0 905 1333155 -7313 0
0 0 0 917 1334072 -6396 0
0 0 0 912 1334984 -5484 0
0 0 0 901 1335885 -4583 0
0 0 0 887 1336772 -3696 0
0 0 0 903 1337675 -2793 0
66 1 S116 898 1338573 -1895 0
66 1 S116 841 1339414 -1054 0
66 1 S116 812 1340226 -242 0
66 2 S116 815 1341041 573 0
66 2 S116 809 1341850 1382 0
66 2 S116 799 1342649 2181 0
66 2 S116 812 1343461 2993 0
66 2 S116 856 1344317 3849 0
66 2 S116 881 1345198 4730 0
66 2 S116 862 1346060 5592 0
66 2 S116 867 1346927 6459 0
0 0 0 874 1347801 -13273 0
0 0 0 882 1348683 -12391 0
0 0 0 838 1349521 -11553 0
0 0 0 793 1350314 -10760 0
0 0 0 777 1351091 -9983 0
0 0 0 764 1351855 -9219 0
0 0 0 776 1352631 -8443 0
0 0 0 750 1353381 -7693 1
0 0 0 826 1354207 -6867 0
0 0 0 843 1355050 -6024 0
0 0 0 838 1355888 -5186 0
0 0 0 887 1356775 -4299 0
0 0 0 933 1357708 -3366 0
0 0 0 942 1358650 -2424 0
67 1 S102 966 1359616 -1458 0
67 1 S102 987 1360603 -471 0
67 2 S102 1002 1361605 531 0
67 2 S102 995 1362600 1526 0
67 2 S102 982 1363582 2508 0
67 2 S102 1005 1364587 3513 0
67 2 S102 992 1365579 4505 0
67 2 S102 949 1366528 5454 0
67 2 S102 917 1367445 6371 0
0 0 0 934 1368379 -7848 0
0 0 0 942 1369321 -6906 0
0 0 0 921 1370242 -5985 0
0 0 0 895 1371137 -5090 0
0 0 0 904 1372041 -4186 0
0 0 0 922 1372963 -3264 0
0 0 0 915 1373878 -2349 0
68 1 S106 897 1374775 -1452 0
68 1 S106 942 1375717 -510 0
68 2 S106 961 1376678 451 0
68 2 S106 967 1377645 1418 0
68 2 S106 948 1378593 2366 0
68 2 S106 942 1379535 3308 0
68 2 S106 947 1380482 4255 0
68 2 S106 947 1381429 5202 0
68 2 S106 919 1382348 6121 0
0 0 0 926 1383274 -12814 0
0 0 0 961 1384235 -11853 0
0 0 0 960 1385195 -10893 0
0 0 0 947 1386142 -9946 0
0 0 0 932 1387074 -9014 0
0 0 0 926 1388000 -8088 0
0 0 0 896 1388896 -7192 0
0 0 0 863 1389759 -6329 0
0 0 0 882 1390641 -5447 0
0 0 0 885 1391526 -4562 0
0 0 0 878 1392404 -3684 0
0 0 0 878 1393282 -2806 0
69 1 S102 882 1394164 -1924 0
69 1 S102 898 1395062 -1026 0
69 1 S102 890 1395952 -136 0
69 2 S102 885 1396837 749 0
69 2 S102 902 1397739 1651 0
69 2 S102 910 1398649 2561 0
69 2 S102 912 1399561 3473 0
69 2 S102 903 1400464 4376 0
69 2 S102 911 1401375 5287 0
69 2 S102 919 1402294 6206 0
0 0 0 906 1403200 -10080 0
0 0 0 891 1404091 -9189 0
0 0 0 880 1404971 -8309 0
0 0 0 875 1405846 -7434 0
0 0 0 863 1406709 -6571 0
0 0 0 838 1407547 -5733 0
0 0 0 860 1408407 -4873 0
0 0 0 877 1409284 -3996 0
0 0 0 858 1410142 -3138 0
0 0 0 843 1410985 -2295 0
70 1 S112 903 1411888 -1392 0
70 1 S112 925 1412813 -467 0
70 2 S112 912 1413725 445 0
70 2 S112 915 1414640 1360 0
70 2 S112 929 1415569 2289 0
70 2 S112 944 1416513 3233 0
70 2 S112 941 1417454 4174 0
70 2 S112 934 1418388 5108 0
70 2 S112 930 1419318 6038 0
70 2 S112 933 1420251 6971 0
0 0 0 926 1421177 -12362 0
0 0 0 882 1422059 -11480 0
0 0 0 872 1422931 -10608 0
0 0 0 878 1423809 -9730 0
0 0 0 884 1424693 -8846 0
0 0 0 874 1425567 -7972 0
0 0 0 863 1426430 -7109 0
0 0 0 882 1427312 -6227 0
0 0 0 923 1428235 -5304 0
0 0 0 922 1429157 -4382 0
0 0 0 949 1430106 -3433 0
0 0 0 964 1431070 -2469 0
71 1 S116 954 1432024 -1515 0
71 1 S116 908 1432932 -607 0
71 2 S116 899 1433831 292 0
71 2 S116 904 1434735 1196 0
71 2 S116 899 1435634 2095 0
71 2 S116 864 1436498 2959 0
71 2 S116 880 1437378 3839 0
71 2 S116 888 1438266 4727 0
71 2 S116 897 1439163 5624 0
71 2 S116 890 1440053 6514 0
0 0 0 879 1440932 -10047 0
0 0 0 892 1441824 -9155 0
0 0 0 898 1442722 -8257 0
0 0 0 901 1443623 -7356 0
0 0 0 867 1444490 -6489 0
0 0 0 899 1445389 -5590 0
0 0 0 933 1446322 -4657 0
0 0 0 915 1447237 -3742 0
0 0 0 893 1448130 -2849 0
72 1 S102 922 1449052 -1927 0
72 1 S102 947 1449999 -980 0
72 1 S102 932 1450931 -48 0
72 2 S102 900 1451831 852 0
72 2 S102 935 1452766 1787 0
72 2 S102 925 1453691 2712 0
72 2 S102 914 1454605 3626 0
72 2 S102 891 1455496 4517 0
72 2 S102 912 1456408 5429 0
72 2 S102 930 1457338 6359 0
0 0 0 938 1458276 -7590 0
0 0 0 903 1459179 -6687 0
0 0 0 896 1460075 -5791 0
0 0 0 915 1460990 -4876 0
0 0 0 898 1461888 -3978 0
0 0 0 883 1462771 -3095 0
0 0 0 924 1463695 -2171 0
73 1 S116 934 1464629 -1237 0
73 1 S116 942 1465571 -295 0
73 2 S116 931 1466502 636 0
73 2 S116 932 1467434 1568 0
73 2 S116 936 1468370 2504 0
73 2 S116 934 1469304 3438 0
73 2 S116 901 1470205 4339 0
73 2 S116 882 1471087 5221 0
73 2 S116 898 1471985 6119 0
0 0 0 918 1472903 -10735 0
0 0 0 947 1473850 -9788 0
0 0 0 916 1474766 -8872 0
0 0 0 813 1475579 -8059 0
0 0 0 774 1476353 -7285 0
0 0 0 761 1477114 -6524 0
0 0 0 751 1477865 -5773 1
0 0 0 760 1478625 -5013 0
0 0 0 779 1479404 -4234 0
0 0 0 758 1480162 -3476 1
0 0 0 870 1481032 -2606 0
74 1 S106 883 1481915 -1723 0
74 1 S106 858 1482773 -865 0
74 2 S106 892 1483665 27 0
74 2 S106 895 1484560 922 0
74 2 S106 873 1485433 1795 0
74 2 S106 852 1486285 2647 0
74 2 S106 857 1487142 3504 0
74 2 S106 889 1488031 4393 0
74 2 S106 889 1488920 5282 0
74 2 S106 885 1489805 6167 0
0 0 0 924 1490729 -7598 0
0 0 0 966 1491695 -6632 0
0 0 0 973 1492668 -5659 0
0 0 0 960 1493628 -4699 0
0 0 0 926 1494554 -3773 0
0 0 0 962 1495516 -2811 0
75 1 S112 970 1496486 -1841 0
75 1 S112 976 1497462 -865 0
75 2 S112 985 1498447 120 0
75 2 S112 1001 1499448 1121 0
75 2 S112 1021 1500469 2142 0
75 2 S112 979 1501448 3121 0
75 2 S112 958 1502406 4079 0
75 2 S112 949 1503355 5028 0
75 2 S112 941 1504296 5969 0
75 2 S112 947 1505243 6916 0
0 0 0 964 1506207 -7720 0
0 0 0 899 1507106 -6821 0
0 0 0 908 1508014 -5913 0
0 0 0 916 1508930 -4997 0
0 0 0 895 1509825 -4102 0
0 0 0 843 1510668 -3259 0
0 0 0 876 1511544 -2383 0
76 1 S116 902 1512446 -1481 0
76 1 S116 929 1513375 -552 0
76 2 S116 939 1514314 387 0
76 2 S116 975 1515289 1362 0
76 2 S116 1002 1516291 2364 0
76 2 S116 964 1517255 3328 0
76 2 S116 923 1518178 4251 0
76 2 S116 927 1519105 5178 0
76 2 S116 932 1520037 6110 0
76 2 S116 903 1520940 7013 0
0 0 0 885 1521825 -7221 0
0 0 0 869 1522694 -6352 0
0 0 0 879 1523573 -5473 0
0 0 0 884 1524457 -4589 0
0 0 0 869 1525326 -3720 0
0 0 0 913 1526239 -2807 0
77 1 S106 961 1527200 -1846 0
77 1 S106 940 1528140 -906 0
77 2 S106 921 1529061 15 0
77 2 S106 959 1530020 974 0
77 2 S106 968 1530988 1942 0
77 2 S106 936 1531924 2878 0
77 2 S106 918 1532842 3796 0
77 2 S106 937 1533779 4733 0
77 2 S106 960 1534739 5693 0
77 2 S106 940 1535679 6633 0
0 0 0 939 1536618 -11029 0
0 0 0 930 1537548 -10099 0
0 0 0 914 1538462 -9185 0
0 0 0 858 1539320 -8327 0
0 0 0 822 1540142 -7505 0
0 0 0 851 1540993 -6654 0
0 0 0 889 1541882 -5765 0
0 0 0 850 1542732 -4915 0
0 0 0 822 1543554 -4093 0
0 0 0 852 1544406 -3241 0
0 0 0 933 1545339 -2308 0
78 1 S112 982 1546321 -1326 0
78 1 S112 1028 1547349 -298 0
78 2 S112 1013 1548362 715 0
78 2 S112 1000 1549362 1715 0
78 2 S112 998 1550360 2713 0
78 2 S112 932 1551292 3645 0
78 2 S112 932 1552224 4577 0
78 2 S112 939 1553163 5516 0
78 2 S112 946 1554109 6462 0
0 0 0 937 1555046 -12363 0
0 0 0 936 1555982 -11427 0
0 0 0 946 1556928 -10481 0
0 0 0 957 1557885 -9524 0
0 0 0 943 1558828 -8581 0
0 0 0 911 1559739 -7670 0
0 0 0 951 1560690 -6719 0
0 0 0 973 1561663 -5746 0
0 0 0 974 1562637 -4772 0
0 0 0 995 1563632 -3777 0
0 0 0 1005 1564637 -2772 0
79 1 S102 964 1565601 -1808 0
79 1 S102 953 1566554 -855 0
79 2 S102 949 1567503 94 0
79 2 S102 969 1568472 1063 0
79 2 S102 926 1569398 1989 0
79 2 S102 909 1570307 2898 0
79 2 S102 907 1571214 3805 0
79 2 S102 924 1572138 4729 0
79 2 S102 910 1573048 5639 0
79 2 S102 884 1573932 6523 0
0 0 0 923 1574855 -9480 0
0 0 0 945 1575800 -8535 0
0 0 0 941 1576741 -7594 0
0 0 0 908 1577649 -6686 0
0 0 0 873 1578522 -5813 0
0 0 0 833 1579355 -4980 0
0 0 0 838 1580193 -4142 0
0 0 0 857 1581050 -3285 0
0 0 0 940 1581990 -2345 0
80 1 S116 983 1582973 -1362 0
80 1 S116 915 1583888 -447 0
80 2 S116 848 1584736 401 0
80 2 S116 891 1585627 1292 0
80 2 S116 898 1586525 2190 0
80 2 S116 946 1587471 3136 0
80 2 S116 976 1588447 4112 0
80 2 S116 937 1589384 5049 0
80 2 S116 916 1590300 5965 0
80 2 S116 893 1591193 6858 0
