T_0050
BeatCount Mean SD BeatCountNoOutliers MeanNoOutliers SDNoOutliers
1997 796,794692038057 47,537201041221 1945 800,902313624679 40,8934462993103

Trial TrialStatus Trialtype IBI AbsPosition RelPosition Outlier
0 0 0 786 914 -15607 0
0 0 0 741 1655 -14866 0
0 0 0 743 2398 -14123 0
0 0 0 739 3137 -13384 0
0 0 0 720 3857 -12664 0
0 0 0 684 4541 -11980 0
0 0 0 676 5217 -11304 0
0 0 0 686 5903 -10618 0
0 0 0 707 6610 -9911 0
0 0 0 742 7352 -9169 0
0 0 0 763 8115 -8406 0
0 0 0 779 8894 -7627 0
0 0 0 788 9682 -6839 0
0 0 0 776 10458 -6063 0
0 0 0 764 11222 -5299 0
0 0 0 764 11986 -4535 0
0 0 0 777 12763 -3758 0
0 0 0 819 13582 -2939 0
0 0 0 835 14417 -2104 0
1 1 S112 838 15255 -1266 0
1 1 S112 863 16118 -403 0
1 2 S112 868 16986 465 0
1 2 S112 856 17842 1321 0
1 2 S112 854 18696 2175 0
1 2 S112 854 19550 3029 0
1 2 S112 841 20391 3870 0
1 2 S112 839 21230 4709 0
1 2 S112 831 22061 5540 0
1 2 S112 830 22891 6370 0
0 0 0 805 23696 -13167 0
0 0 0 779 24475 -12388 0
0 0 0 790 25265 -11598 0
0 0 0 802 26067 -10796 0
0 0 0 806 26873 -9990 0
0 0 0 795 27668 -9195 0
0 0 0 791 28459 -8404 0
0 0 0 776 29235 -7628 0
0 0 0 764 29999 -6864 0
0 0 0 760 30759 -6104 0
0 0 0 780 31539 -5324 0
0 0 0 799 32338 -4525 0
0 0 0 795 33133 -3730 0
0 0 0 796 33929 -2934 0
0 0 0 806 34735 -2128 0
2 1 S102 802 35537 -1326 0
2 1 S102 801 36338 -525 0
2 2 S102 802 37140 277 0
2 2 S102 802 37942 1079 0
2 2 S102 810 38752 1889 0
2 2 S102 809 39561 2698 0
2 2 S102 800 40361 3498 0
2 2 S102 817 41178 4315 0
2 2 S102 831 42009 5146 0
2 2 S102 834 42843 5980 0
2 2 S102 842 43685 6822 0
0 0 0 846 44531 -10320 0
0 0 0 842 45373 -9478 0
0 0 0 839 46212 -8639 0
0 0 0 845 47057 -7794 0
0 0 0 853 47910 -6941 0
0 0 0 825 48735 -6116 0
0 0 0 795 49530 -5321 0
0 0 0 798 50328 -4523 0
0 0 0 815 51143 -3708 0
0 0 0 828 51971 -2880 0
0 0 0 826 52797 -2054 0
3 1 S116 850 53647 -1204 0
3 1 S116 857 54504 -347 0
3 2 S116 850 55354 503 0
3 2 S116 839 56193 1342 0
3 2 S116 848 57041 2190 0
3 2 S116 867 57908 3057 0
3 2 S116 859 58767 3916 0
3 2 S116 863 59630 4779 0
3 2 S116 884 60514 5663 0
3 2 S116 891 61405 6554 0
0 0 0 884 62289 -11710 0
0 0 0 891 63180 -10819 0
0 0 0 887 64067 -9932 0
0 0 0 883 64950 -9049 0
0 0 0 836 65786 -8213 0
0 0 0 819 66605 -7394 0
0 0 0 759 67364 -6635 0
0 0 0 763 68127 -5872 0
0 0 0 777 68904 -5095 0
0 0 0 812 69716 -4283 0
0 0 0 837 70553 -3446 0
0 0 0 840 71393 -2606 0
4 1 S106 850 72243 -1756 0
4 1 S106 842 73085 -914 0
4 1 S106 828 73913 -86 0
4 2 S106 818 74731 732 0
4 2 S106 844 75575 1576 0
4 2 S106 861 76436 2437 0
4 2 S106 865 77301 3302 0
4 2 S106 862 78163 4164 0
4 2 S106 883 79046 5047 0
4 2 S106 886 79932 5933 0
4 2 S106 873 80805 6806 0
0 0 0 871 81676 -8802 0
0 0 0 870 82546 -7932 0
0 0 0 864 83410 -7068 0
0 0 0 865 84275 -6203 0
0 0 0 860 85135 -5343 0
0 0 0 879 86014 -4464 0
0 0 0 875 86889 -3589 0
0 0 0 838 87727 -2751 0
5 1 S116 786 88513 -1965 0
5 1 S116 784 89297 -1181 0
5 1 S116 801 90098 -380 0
5 2 S116 830 90928 450 0
5 2 S116 858 91786 1308 0
5 2 S116 863 92649 2171 0
5 2 S116 844 93493 3015 0
5 2 S116 841 94334 3856 0
5 2 S116 856 95190 4712 0
5 2 S116 857 96047 5569 0
5 2 S116 871 96918 6440 0
0 0 0 896 97814 -10701 0
0 0 0 899 98713 -9802 0
0 0 0 879 99592 -8923 0
0 0 0 861 100453 -8062 0
0 0 0 871 101324 -7191 0
0 0 0 872 102196 -6319 0
0 0 0 845 103041 -5474 0
0 0 0 819 103860 -4655 0
0 0 0 756 104616 -3899 0
0 0 0 733 105349 -3166 0
0 0 0 743 106092 -2423 0
6 1 S106 740 106832 -1683 0
6 1 S106 771 107603 -912 0
6 1 S106 787 108390 -125 0
6 2 S106 799 109189 674 0
6 2 S106 802 109991 1476 0
6 2 S106 810 110801 2286 0
6 2 S106 822 111623 3108 0
6 2 S106 828 112451 3936 0
6 2 S106 827 113278 4763 0
6 2 S106 831 114109 5594 0
6 2 S106 846 114955 6440 0
0 0 0 845 115800 -12112 0
0 0 0 840 116640 -11272 0
0 0 0 855 117495 -10417 0
0 0 0 856 118351 -9561 0
0 0 0 857 119208 -8704 0
0 0 0 817 120025 -7887 0
0 0 0 818 120843 -7069 0
0 0 0 831 121674 -6238 0
0 0 0 849 122523 -5389 0
0 0 0 863 123386 -4526 0
0 0 0 879 124265 -3647 0
0 0 0 890 125155 -2757 0
7 1 S102 885 126040 -1872 0
7 1 S102 852 126892 -1020 0
7 1 S102 825 127717 -195 0
7 2 S102 817 128534 622 0
7 2 S102 829 129363 1451 0
7 2 S102 838 130201 2289 0
7 2 S102 842 131043 3131 0
7 2 S102 852 131895 3983 0
7 2 S102 865 132760 4848 0
7 2 S102 874 133634 5722 0
7 2 S102 868 134502 6590 0
0 0 0 853 135355 -9815 0
0 0 0 864 136219 -8951 0
0 0 0 861 137080 -8090 0
0 0 0 845 137925 -7245 0
0 0 0 816 138741 -6429 0
0 0 0 800 139541 -5629 0
0 0 0 795 140336 -4834 0
0 0 0 795 141131 -4039 0
0 0 0 787 141918 -3252 0
0 0 0 785 142703 -2467 0
8 1 S112 814 143517 -1653 0
8 1 S112 844 144361 -809 0
8 2 S112 842 145203 33 0
8 2 S112 835 146038 868 0
8 2 S112 867 146905 1735 0
8 2 S112 880 147785 2615 0
8 2 S112 870 148655 3485 0
8 2 S112 847 149502 4332 0
8 2 S112 843 150345 5175 0
8 2 S112 850 151195 6025 0
8 2 S112 843 152038 6868 0
0 0 0 829 152867 -8848 0
0 0 0 841 153708 -8007 0
0 0 0 845 154553 -7162 0
0 0 0 839 155392 -6323 0
0 0 0 839 156231 -5484 0
0 0 0 856 157087 -4628 0
0 0 0 846 157933 -3782 0
0 0 0 831 158764 -2951 0
0 0 0 812 159576 -2139 0
9 1 S116 816 160392 -1323 0
9 1 S116 818 161210 -505 0
9 2 S116 822 162032 317 0
9 2 S116 808 162840 1125 0
9 2 S116 833 163673 1958 0
9 2 S116 838 164511 2796 0
9 2 S116 843 165354 3639 0
9 2 S116 831 166185 4470 0
9 2 S116 848 167033 5318 0
9 2 S116 861 167894 6179 0
0 0 0 873 168767 -12494 0
0 0 0 882 169649 -11612 0
0 0 0 887 170536 -10725 0
0 0 0 877 171413 -9848 0
0 0 0 863 172276 -8985 0
0 0 0 840 173116 -8145 0
0 0 0 823 173939 -7322 0
0 0 0 838 174777 -6484 0
0 0 0 832 175609 -5652 0
0 0 0 825 176434 -4827 0
0 0 0 837 177271 -3990 0
0 0 0 839 178110 -3151 0
0 0 0 836 178946 -2315 0
10 1 S102 820 179766 -1495 0
10 1 S102 823 180589 -672 0
10 2 S102 828 181417 156 0
10 2 S102 834 182251 990 0
10 2 S102 827 183078 1817 0
10 2 S102 844 183922 2661 0
10 2 S102 856 184778 3517 0
10 2 S102 848 185626 4365 0
10 2 S102 826 186452 5191 0
10 2 S102 837 187289 6028 0
10 2 S102 840 188129 6868 0
0 0 0 836 188965 -12687 0
0 0 0 821 189786 -11866 0
0 0 0 837 190623 -11029 0
0 0 0 848 191471 -10181 0
0 0 0 853 192324 -9328 0
0 0 0 825 193149 -8503 0
0 0 0 793 193942 -7710 0
0 0 0 792 194734 -6918 0
0 0 0 809 195543 -6109 0
0 0 0 812 196355 -5297 0
0 0 0 780 197135 -4517 0
0 0 0 792 197927 -3725 0
0 0 0 805 198732 -2920 0
0 0 0 821 199553 -2099 0
11 1 S112 818 200371 -1281 0
11 1 S112 833 201204 -448 0
11 2 S112 827 202031 379 0
11 2 S112 831 202862 1210 0
11 2 S112 833 203695 2043 0
11 2 S112 818 204513 2861 0
11 2 S112 819 205332 3680 0
11 2 S112 836 206168 4516 0
11 2 S112 839 207007 5355 0
11 2 S112 860 207867 6215 0
0 0 0 867 208734 -9513 0
0 0 0 856 209590 -8657 0
0 0 0 858 210448 -7799 0
0 0 0 864 211312 -6935 0
0 0 0 864 212176 -6071 0
0 0 0 848 213024 -5223 0
0 0 0 836 213860 -4387 0
0 0 0 783 214643 -3604 0
0 0 0 726 215369 -2878 0
0 0 0 715 216084 -2163 0
12 1 S116 686 216770 -1477 0
12 1 S116 692 217462 -785 0
12 1 S116 708 218170 -77 0
12 2 S116 755 218925 678 0
12 2 S116 810 219735 1488 0
12 2 S116 829 220564 2317 0
12 2 S116 824 221388 3141 0
12 2 S116 815 222203 3956 0
12 2 S116 810 223013 4766 0
12 2 S116 807 223820 5573 0
12 2 S116 797 224617 6370 0
0 0 0 804 225421 -12853 0
0 0 0 822 226243 -12031 0
0 0 0 839 227082 -11192 0
0 0 0 843 227925 -10349 0
0 0 0 831 228756 -9518 0
0 0 0 833 229589 -8685 0
0 0 0 833 230422 -7852 0
0 0 0 829 231251 -7023 0
0 0 0 822 232073 -6201 0
0 0 0 837 232910 -5364 0
0 0 0 850 233760 -4514 0
0 0 0 864 234624 -3650 0
0 0 0 843 235467 -2807 0
13 1 S112 824 236291 -1983 0
13 1 S112 827 237118 -1156 0
13 1 S112 823 237941 -333 0
13 2 S112 808 238749 475 0
13 2 S112 822 239571 1297 0
13 2 S112 826 240397 2123 0
13 2 S112 834 241231 2957 0
13 2 S112 829 242060 3786 0
13 2 S112 824 242884 4610 0
13 2 S112 835 243719 5445 0
13 2 S112 841 244560 6286 0
0 0 0 831 245391 -11899 0
0 0 0 829 246220 -11070 0
0 0 0 834 247054 -10236 0
0 0 0 835 247889 -9401 0
0 0 0 825 248714 -8576 0
0 0 0 800 249514 -7776 0
0 0 0 797 250311 -6979 0
0 0 0 816 251127 -6163 0
0 0 0 810 251937 -5353 0
0 0 0 803 252740 -4550 0
0 0 0 819 253559 -3731 0
0 0 0 821 254380 -2910 0
0 0 0 816 255196 -2094 0
14 1 S106 823 256019 -1271 0
14 1 S106 827 256846 -444 0
14 2 S106 828 257674 384 0
14 2 S106 824 258498 1208 0
14 2 S106 822 259320 2030 0
14 2 S106 836 260156 2866 0
14 2 S106 843 260999 3709 0
14 2 S106 842 261841 4551 0
14 2 S106 847 262688 5398 0
14 2 S106 842 263530 6240 0
0 0 0 842 264372 -12082 0
0 0 0 840 265212 -11242 0
0 0 0 841 266053 -10401 0
0 0 0 867 266920 -9534 0
0 0 0 869 267789 -8665 0
0 0 0 836 268625 -7829 0
0 0 0 821 269446 -7008 0
0 0 0 815 270261 -6193 0
0 0 0 802 271063 -5391 0
0 0 0 792 271855 -4599 0
0 0 0 793 272648 -3806 0
0 0 0 808 273456 -2998 0
0 0 0 819 274275 -2179 0
15 1 S116 808 275083 -1371 0
15 1 S116 820 275903 -551 0
15 2 S116 829 276732 278 0
15 2 S116 841 277573 1119 0
15 2 S116 850 278423 1969 0
15 2 S116 842 279265 2811 0
15 2 S116 855 280120 3666 0
15 2 S116 850 280970 4516 0
15 2 S116 836 281806 5352 0
15 2 S116 836 282642 6188 0
0 0 0 854 283496 -11559 0
0 0 0 863 284359 -10696 0
0 0 0 861 285220 -9835 0
0 0 0 846 286066 -8989 0
0 0 0 852 286918 -8137 0
0 0 0 857 287775 -7280 0
0 0 0 863 288638 -6417 0
0 0 0 850 289488 -5567 0
0 0 0 826 290314 -4741 0
0 0 0 820 291134 -3921 0
0 0 0 823 291957 -3098 0
0 0 0 820 292777 -2278 0
16 1 S116 792 293569 -1486 0
16 1 S116 799 294368 -687 0
16 2 S116 800 295168 113 0
16 2 S116 812 295980 925 0
16 2 S116 818 296798 1743 0
16 2 S116 830 297628 2573 0
16 2 S116 848 298476 3421 0
16 2 S116 845 299321 4266 0
16 2 S116 837 300158 5103 0
16 2 S116 850 301008 5953 0
16 2 S116 859 301867 6812 0
0 0 0 852 302719 -9495 0
0 0 0 832 303551 -8663 0
0 0 0 824 304375 -7839 0
0 0 0 826 305201 -7013 0
0 0 0 811 306012 -6202 0
0 0 0 784 306796 -5418 0
0 0 0 755 307551 -4663 0
0 0 0 714 308265 -3949 0
0 0 0 713 308978 -3236 0
0 0 0 738 309716 -2498 0
17 1 S106 752 310468 -1746 0
17 1 S106 762 311230 -984 0
17 1 S106 741 311971 -243 0
17 2 S106 739 312710 496 0
17 2 S106 744 313454 1240 0
17 2 S106 762 314216 2002 0
17 2 S106 785 315001 2787 0
17 2 S106 792 315793 3579 0
17 2 S106 795 316588 4374 0
17 2 S106 816 317404 5190 0
17 2 S106 828 318232 6018 0
17 2 S106 827 319059 6845 0
0 0 0 818 319877 -11999 0
0 0 0 816 320693 -11183 0
0 0 0 818 321511 -10365 0
0 0 0 813 322324 -9552 0
0 0 0 785 323109 -8767 0
0 0 0 778 323887 -7989 0
0 0 0 766 324653 -7223 0
0 0 0 723 325376 -6500 0
0 0 0 700 326076 -5800 0
0 0 0 692 326768 -5108 0
0 0 0 701 327469 -4407 0
0 0 0 717 328186 -3690 0
0 0 0 742 328928 -2948 0
0 0 0 762 329690 -2186 0
18 1 S102 765 330455 -1421 0
18 1 S102 766 331221 -655 0
18 2 S102 766 331987 111 0
18 2 S102 770 332757 881 0
18 2 S102 764 333521 1645 0
18 2 S102 757 334278 2402 0
18 2 S102 749 335027 3151 0
18 2 S102 763 335790 3914 0
18 2 S102 793 336583 4707 0
18 2 S102 832 337415 5539 0
18 2 S102 833 338248 6372 0
0 0 0 826 339074 -8087 0
0 0 0 837 339911 -7250 0
0 0 0 835 340746 -6415 0
0 0 0 830 341576 -5585 0
0 0 0 817 342393 -4768 0
0 0 0 779 343172 -3989 0
0 0 0 765 343937 -3224 0
0 0 0 771 344708 -2453 0
19 1 S106 774 345482 -1679 0
19 1 S106 742 346224 -937 0
19 1 S106 697 346921 -240 0
19 2 S106 678 347599 438 0
19 2 S106 685 348284 1123 0
19 2 S106 701 348985 1824 0
19 2 S106 755 349740 2579 0
19 2 S106 809 350549 3388 0
19 2 S106 847 351396 4235 0
19 2 S106 846 352242 5081 0
19 2 S106 830 353072 5911 0
19 2 S106 821 353893 6732 0
0 0 0 808 354701 -11873 0
0 0 0 804 355505 -11069 0
0 0 0 806 356311 -10263 0
0 0 0 801 357112 -9462 0
0 0 0 793 357905 -8669 0
0 0 0 759 358664 -7910 0
0 0 0 763 359427 -7147 0
0 0 0 772 360199 -6375 0
0 0 0 791 360990 -5584 0
0 0 0 791 361781 -4793 0
0 0 0 784 362565 -4009 0
0 0 0 801 363366 -3208 0
0 0 0 820 364186 -2388 0
20 1 S112 838 365024 -1550 0
20 1 S112 839 365863 -711 0
20 2 S112 842 366705 131 0
20 2 S112 859 367564 990 0
20 2 S112 872 368436 1862 0
20 2 S112 858 369294 2720 0
20 2 S112 839 370133 3559 0
20 2 S112 849 370982 4408 0
20 2 S112 854 371836 5262 0
20 2 S112 857 372693 6119 0
20 2 S112 837 373530 6956 0
0 0 0 837 374367 -9366 0
0 0 0 837 375204 -8529 0
0 0 0 834 376038 -7695 0
0 0 0 831 376869 -6864 0
0 0 0 831 377700 -6033 0
0 0 0 831 378531 -5202 0
0 0 0 797 379328 -4405 0
0 0 0 796 380124 -3609 0
0 0 0 797 380921 -2812 0
0 0 0 795 381716 -2017 0
21 1 S106 792 382508 -1225 0
21 1 S106 820 383328 -405 0
21 2 S106 850 384178 445 0
21 2 S106 855 385033 1300 0
21 2 S106 829 385862 2129 0
21 2 S106 817 386679 2946 0
21 2 S106 818 387497 3764 0
21 2 S106 838 388335 4602 0
21 2 S106 850 389185 5452 0
21 2 S106 845 390030 6297 0
0 0 0 863 390893 -12817 0
0 0 0 873 391766 -11944 0
0 0 0 859 392625 -11085 0
0 0 0 830 393455 -10255 0
0 0 0 840 394295 -9415 0
0 0 0 839 395134 -8576 0
0 0 0 814 395948 -7762 0
0 0 0 788 396736 -6974 0
0 0 0 767 397503 -6207 0
0 0 0 729 398232 -5478 0
0 0 0 709 398941 -4769 0
0 0 0 714 399655 -4055 0
0 0 0 724 400379 -3331 0
0 0 0 742 401121 -2589 0
22 1 S116 766 401887 -1823 0
22 1 S116 770 402657 -1053 0
22 1 S116 767 403424 -286 0
22 2 S116 758 404182 472 0
22 2 S116 768 404950 1240 0
22 2 S116 792 405742 2032 0
22 2 S116 814 406556 2846 0
22 2 S116 810 407366 3656 0
22 2 S116 816 408182 4472 0
22 2 S116 828 409010 5300 0
22 2 S116 839 409849 6139 0
22 2 S116 838 410687 6977 0
0 0 0 844 411531 -10133 0
0 0 0 846 412377 -9287 0
0 0 0 846 413223 -8441 0
0 0 0 840 414063 -7601 0
0 0 0 838 414901 -6763 0
0 0 0 837 415738 -5926 0
0 0 0 829 416567 -5097 0
0 0 0 808 417375 -4289 0
0 0 0 807 418182 -3482 0
0 0 0 814 418996 -2668 0
23 1 S112 829 419825 -1839 0
23 1 S112 835 420660 -1004 0
23 1 S112 825 421485 -179 0
23 2 S112 836 422321 657 0
23 2 S112 848 423169 1505 0
23 2 S112 843 424012 2348 0
23 2 S112 821 424833 3169 0
23 2 S112 825 425658 3994 0
23 2 S112 833 426491 4827 0
23 2 S112 842 427333 5669 0
23 2 S112 832 428165 6501 0
0 0 0 835 429000 -9359 0
0 0 0 841 429841 -8518 0
0 0 0 823 430664 -7695 0
0 0 0 793 431457 -6902 0
0 0 0 787 432244 -6115 0
0 0 0 785 433029 -5330 0
0 0 0 782 433811 -4548 0
0 0 0 746 434557 -3802 0
0 0 0 769 435326 -3033 0
0 0 0 778 436104 -2255 0
24 1 S106 801 436905 -1454 0
24 1 S106 802 437707 -652 0
24 2 S106 813 438520 161 0
24 2 S106 818 439338 979 0
24 2 S106 831 440169 1810 0
24 2 S106 825 440994 2635 0
24 2 S106 823 441817 3458 0
24 2 S106 819 442636 4277 0
24 2 S106 818 443454 5095 0
24 2 S106 824 444278 5919 0
24 2 S106 830 445108 6749 0
0 0 0 813 445921 -8900 0
0 0 0 841 446762 -8059 0
0 0 0 841 447603 -7218 0
0 0 0 832 448435 -6386 0
0 0 0 835 449270 -5551 0
0 0 0 848 450118 -4703 0
0 0 0 855 450973 -3848 0
0 0 0 849 451822 -2999 0
0 0 0 837 452659 -2162 0
25 1 S102 839 453498 -1323 0
25 1 S102 836 454334 -487 0
25 2 S102 826 455160 339 0
25 2 S102 803 455963 1142 0
25 2 S102 802 456765 1944 0
25 2 S102 813 457578 2757 0
25 2 S102 815 458393 3572 0
25 2 S102 803 459196 4375 0
25 2 S102 799 459995 5174 0
25 2 S102 802 460797 5976 0
25 2 S102 807 461604 6783 0
0 0 0 787 462391 -7516 0
0 0 0 796 463187 -6720 0
0 0 0 806 463993 -5914 0
0 0 0 823 464816 -5091 0
0 0 0 793 465609 -4298 0
0 0 0 712 466321 -3586 0
0 0 0 681 467002 -2905 0
0 0 0 667 467669 -2238 1
26 1 S116 662 468331 -1576 1
26 1 S116 674 469005 -902 1
26 1 S116 683 469688 -219 0
26 2 S116 667 470355 448 1
26 2 S116 693 471048 1141 0
26 2 S116 715 471763 1856 0
26 2 S116 724 472487 2580 0
26 2 S116 722 473209 3302 0
26 2 S116 712 473921 4014 0
26 2 S116 709 474630 4723 0
26 2 S116 707 475337 5430 0
26 2 S116 708 476045 6138 0
26 2 S116 714 476759 6852 0
0 0 0 721 477480 -8641 0
0 0 0 727 478207 -7914 0
0 0 0 732 478939 -7182 0
0 0 0 746 479685 -6436 0
0 0 0 765 480450 -5671 0
0 0 0 799 481249 -4872 0
0 0 0 805 482054 -4067 0
0 0 0 808 482862 -3259 0
0 0 0 780 483642 -2479 0
27 1 S106 787 484429 -1692 0
27 1 S106 803 485232 -889 0
27 1 S106 809 486041 -80 0
27 2 S106 794 486835 714 0
27 2 S106 783 487618 1497 0
27 2 S106 787 488405 2284 0
27 2 S106 805 489210 3089 0
27 2 S106 812 490022 3901 0
27 2 S106 797 490819 4698 0
27 2 S106 793 491612 5491 0
27 2 S106 803 492415 6294 0
0 0 0 820 493235 -7608 0
0 0 0 814 494049 -6794 0
0 0 0 791 494840 -6003 0
0 0 0 794 495634 -5209 0
0 0 0 796 496430 -4413 0
0 0 0 786 497216 -3627 0
0 0 0 784 498000 -2843 0
0 0 0 790 498790 -2053 0
28 1 S102 793 499583 -1260 0
28 1 S102 791 500374 -469 0
28 2 S102 775 501149 306 0
28 2 S102 778 501927 1084 0
28 2 S102 783 502710 1867 0
28 2 S102 779 503489 2646 0
28 2 S102 782 504271 3428 0
28 2 S102 790 505061 4218 0
28 2 S102 788 505849 5006 0
28 2 S102 782 506631 5788 0
28 2 S102 781 507412 6569 0
0 0 0 797 508209 -12163 0
0 0 0 811 509020 -11352 0
0 0 0 811 509831 -10541 0
0 0 0 806 510637 -9735 0
0 0 0 814 511451 -8921 0
0 0 0 809 512260 -8112 0
0 0 0 794 513054 -7318 0
0 0 0 783 513837 -6535 0
0 0 0 783 514620 -5752 0
0 0 0 784 515404 -4968 0
0 0 0 772 516176 -4196 0
0 0 0 789 516965 -3407 0
0 0 0 810 517775 -2597 0
29 1 S112 824 518599 -1773 0
29 1 S112 815 519414 -958 0
29 1 S112 799 520213 -159 0
29 2 S112 796 521009 637 0
29 2 S112 798 521807 1435 0
29 2 S112 820 522627 2255 0
29 2 S112 828 523455 3083 0
29 2 S112 824 524279 3907 0
29 2 S112 832 525111 4739 0
29 2 S112 835 525946 5574 0
29 2 S112 828 526774 6402 0
0 0 0 830 527604 -8203 0
0 0 0 837 528441 -7366 0
0 0 0 847 529288 -6519 0
0 0 0 847 530135 -5672 0
0 0 0 864 530999 -4808 0
0 0 0 855 531854 -3953 0
0 0 0 842 532696 -3111 0
0 0 0 820 533516 -2291 0
30 1 S112 822 534338 -1469 0
30 1 S112 814 535152 -655 0
30 2 S112 808 535960 153 0
30 2 S112 801 536761 954 0
30 2 S112 804 537565 1758 0
30 2 S112 804 538369 2562 0
30 2 S112 806 539175 3368 0
30 2 S112 814 539989 4182 0
30 2 S112 835 540824 5017 0
30 2 S112 843 541667 5860 0
30 2 S112 824 542491 6684 0
0 0 0 828 543319 -10260 0
0 0 0 832 544151 -9428 0
0 0 0 834 544985 -8594 0
0 0 0 833 545818 -7761 0
0 0 0 821 546639 -6940 0
0 0 0 810 547449 -6130 0
0 0 0 818 548267 -5312 0
0 0 0 815 549082 -4497 0
0 0 0 796 549878 -3701 0
0 0 0 795 550673 -2906 0
0 0 0 795 551468 -2111 0
31 1 S106 811 552279 -1300 0
31 1 S106 801 553080 -499 0
31 2 S106 801 553881 302 0
31 2 S106 818 554699 1120 0
31 2 S106 822 555521 1942 0
31 2 S106 819 556340 2761 0
31 2 S106 808 557148 3569 0
31 2 S106 806 557954 4375 0
31 2 S106 807 558761 5182 0
31 2 S106 798 559559 5980 0
31 2 S106 796 560355 6776 0
0 0 0 806 561161 -10472 0
0 0 0 808 561969 -9664 0
0 0 0 800 562769 -8864 0
0 0 0 804 563573 -8060 0
0 0 0 827 564400 -7233 0
0 0 0 818 565218 -6415 0
0 0 0 796 566014 -5619 0
0 0 0 725 566739 -4894 0
0 0 0 711 567450 -4183 0
0 0 0 684 568134 -3499 0
0 0 0 664 568798 -2835 1
0 0 0 665 569463 -2170 1
32 1 S102 684 570147 -1486 0
32 1 S102 695 570842 -791 0
32 1 S102 714 571556 -77 0
32 2 S102 723 572279 646 0
32 2 S102 738 573017 1384 0
32 2 S102 741 573758 2125 0
32 2 S102 737 574495 2862 0
32 2 S102 740 575235 3602 0
32 2 S102 743 575978 4345 0
32 2 S102 752 576730 5097 0
32 2 S102 755 577485 5852 0
32 2 S102 741 578226 6593 0
0 0 0 751 578977 -10593 0
0 0 0 766 579743 -9827 0
0 0 0 784 580527 -9043 0
0 0 0 783 581310 -8260 0
0 0 0 767 582077 -7493 0
0 0 0 766 582843 -6727 0
0 0 0 773 583616 -5954 0
0 0 0 779 584395 -5175 0
0 0 0 782 585177 -4393 0
0 0 0 764 585941 -3629 0
0 0 0 779 586720 -2850 0
0 0 0 778 587498 -2072 0
33 1 S112 781 588279 -1291 0
33 1 S112 789 589068 -502 0
33 2 S112 790 589858 288 0
33 2 S112 803 590661 1091 0
33 2 S112 823 591484 1914 0
33 2 S112 824 592308 2738 0
33 2 S112 810 593118 3548 0
33 2 S112 809 593927 4357 0
33 2 S112 812 594739 5169 0
33 2 S112 811 595550 5980 0
33 2 S112 785 596335 6765 0
0 0 0 775 597110 -11144 0
0 0 0 775 597885 -10369 0
0 0 0 768 598653 -9601 0
0 0 0 755 599408 -8846 0
0 0 0 741 600149 -8105 0
0 0 0 748 600897 -7357 0
0 0 0 756 601653 -6601 0
0 0 0 755 602408 -5846 0
0 0 0 733 603141 -5113 0
0 0 0 743 603884 -4370 0
0 0 0 751 604635 -3619 0
0 0 0 776 605411 -2843 0
0 0 0 786 606197 -2057 0
34 1 S106 777 606974 -1280 0
34 1 S106 791 607765 -489 0
34 2 S106 807 608572 318 0
34 2 S106 820 609392 1138 0
34 2 S106 817 610209 1955 0
34 2 S106 814 611023 2769 0
34 2 S106 814 611837 3583 0
34 2 S106 811 612648 4394 0
34 2 S106 796 613444 5190 0
34 2 S106 777 614221 5967 0
34 2 S106 766 614987 6733 0
0 0 0 769 615756 -9441 0
0 0 0 782 616538 -8659 0
0 0 0 785 617323 -7874 0
0 0 0 788 618111 -7086 0
0 0 0 819 618930 -6267 0
0 0 0 835 619765 -5432 0
0 0 0 838 620603 -4594 0
0 0 0 832 621435 -3762 0
0 0 0 837 622272 -2925 0
0 0 0 836 623108 -2089 0
35 1 S102 815 623923 -1274 0
35 1 S102 795 624718 -479 0
35 2 S102 795 625513 316 0
35 2 S102 794 626307 1110 0
35 2 S102 801 627108 1911 0
35 2 S102 785 627893 2696 0
35 2 S102 796 628689 3492 0
35 2 S102 806 629495 4298 0
35 2 S102 820 630315 5118 0
35 2 S102 823 631138 5941 0
35 2 S102 840 631978 6781 0
0 0 0 857 632835 -7631 0
0 0 0 850 633685 -6781 0
0 0 0 840 634525 -5941 0
0 0 0 850 635375 -5091 0
0 0 0 835 636210 -4256 0
0 0 0 821 637031 -3435 0
0 0 0 800 637831 -2635 0
36 1 S106 795 638626 -1840 0
36 1 S106 800 639426 -1040 0
36 1 S106 799 640225 -241 0
36 2 S106 792 641017 551 0
36 2 S106 804 641821 1355 0
36 2 S106 821 642642 2176 0
36 2 S106 852 643494 3028 0
36 2 S106 856 644350 3884 0
36 2 S106 857 645207 4741 0
36 2 S106 855 646062 5596 0
36 2 S106 842 646904 6438 0
0 0 0 833 647737 -11330 0
0 0 0 833 648570 -10497 0
0 0 0 833 649403 -9664 0
0 0 0 831 650234 -8833 0
0 0 0 823 651057 -8010 0
0 0 0 842 651899 -7168 0
0 0 0 870 652769 -6298 0
0 0 0 862 653631 -5436 0
0 0 0 847 654478 -4589 0
0 0 0 836 655314 -3753 0
0 0 0 831 656145 -2922 0
0 0 0 827 656972 -2095 0
37 1 S116 806 657778 -1289 0
37 1 S116 793 658571 -496 0
37 2 S116 787 659358 291 0
37 2 S116 806 660164 1097 0
37 2 S116 820 660984 1917 0
37 2 S116 820 661804 2737 0
37 2 S116 821 662625 3558 0
37 2 S116 823 663448 4381 0
37 2 S116 848 664296 5229 0
37 2 S116 844 665140 6073 0
37 2 S116 840 665980 6913 0
0 0 0 848 666828 -10807 0
0 0 0 848 667676 -9959 0
0 0 0 834 668510 -9125 0
0 0 0 813 669323 -8312 0
0 0 0 785 670108 -7527 0
0 0 0 732 670840 -6795 0
0 0 0 709 671549 -6086 0
0 0 0 703 672252 -5383 0
0 0 0 708 672960 -4675 0
0 0 0 717 673677 -3958 0
0 0 0 742 674419 -3216 0
0 0 0 748 675167 -2468 0
38 1 S102 753 675920 -1715 0
38 1 S102 767 676687 -948 0
38 1 S102 788 677475 -160 0
38 2 S102 803 678278 643 0
38 2 S102 802 679080 1445 0
38 2 S102 799 679879 2244 0
38 2 S102 808 680687 3052 0
38 2 S102 826 681513 3878 0
38 2 S102 818 682331 4696 0
38 2 S102 805 683136 5501 0
38 2 S102 791 683927 6292 0
0 0 0 793 684720 -10223 0
0 0 0 799 685519 -9424 0
0 0 0 811 686330 -8613 0
0 0 0 811 687141 -7802 0
0 0 0 823 687964 -6979 0
0 0 0 817 688781 -6162 0
0 0 0 827 689608 -5335 0
0 0 0 822 690430 -4513 0
0 0 0 816 691246 -3697 0
0 0 0 818 692064 -2879 0
0 0 0 814 692878 -2065 0
39 1 S116 801 693679 -1264 0
39 1 S116 778 694457 -486 0
39 2 S116 774 695231 288 0
39 2 S116 778 696009 1066 0
39 2 S116 798 696807 1864 0
39 2 S116 809 697616 2673 0
39 2 S116 801 698417 3474 0
39 2 S116 810 699227 4284 0
39 2 S116 835 700062 5119 0
39 2 S116 839 700901 5958 0
39 2 S116 846 701747 6804 0
0 0 0 856 702603 -7078 0
0 0 0 864 703467 -6214 0
0 0 0 862 704329 -5352 0
0 0 0 849 705178 -4503 0
0 0 0 830 706008 -3673 0
0 0 0 828 706836 -2845 0
0 0 0 830 707666 -2015 0
40 1 S112 815 708481 -1200 0
40 1 S112 805 709286 -395 0
40 2 S112 802 710088 407 0
40 2 S112 811 710899 1218 0
40 2 S112 811 711710 2029 0
40 2 S112 800 712510 2829 0
40 2 S112 802 713312 3631 0
40 2 S112 813 714125 4444 0
40 2 S112 822 714947 5266 0
40 2 S112 819 715766 6085 0
40 2 S112 810 716576 6895 0
0 0 0 814 717390 -188894 0
0 0 0 817 718207 -188077 0
0 0 0 820 719027 -187257 0
0 0 0 821 719848 -186436 0
0 0 0 832 720680 -185604 0
0 0 0 844 721524 -184760 0
0 0 0 845 722369 -183915 0
0 0 0 811 723180 -183104 0
0 0 0 807 723987 -182297 0
0 0 0 805 724792 -181492 0
0 0 0 802 725594 -180690 0
0 0 0 777 726371 -179913 0
0 0 0 777 727148 -179136 0
0 0 0 777 727925 -178359 0
0 0 0 768 728693 -177591 0
0 0 0 713 729406 -176878 0
0 0 0 683 730089 -176195 0
0 0 0 661 730750 -175534 1
0 0 0 661 731411 -174873 1
0 0 0 667 732078 -174206 1
0 0 0 709 732787 -173497 0
0 0 0 747 733534 -172750 0
0 0 0 765 734299 -171985 0
0 0 0 764 735063 -171221 0
0 0 0 736 735799 -170485 0
0 0 0 713 736512 -169772 0
0 0 0 688 737200 -169084 0
0 0 0 683 737883 -168401 0
0 0 0 673 738556 -167728 1
0 0 0 671 739227 -167057 1
0 0 0 654 739881 -166403 1
0 0 0 633 740514 -165770 1
0 0 0 615 741129 -165155 1
0 0 0 606 741735 -164549 1
0 0 0 601 742336 -163948 1
0 0 0 607 742943 -163341 1
0 0 0 641 743584 -162700 1
0 0 0 736 744320 -161964 0
0 0 0 805 745125 -161159 0
0 0 0 832 745957 -160327 0
0 0 0 830 746787 -159497 0
0 0 0 843 747630 -158654 0
0 0 0 823 748453 -157831 0
0 0 0 801 749254 -157030 0
0 0 0 769 750023 -156261 0
0 0 0 728 750751 -155533 0
0 0 0 693 751444 -154840 0
0 0 0 688 752132 -154152 0
0 0 0 679 752811 -153473 0
0 0 0 693 753504 -152780 0
0 0 0 726 754230 -152054 0
0 0 0 742 754972 -151312 0
0 0 0 738 755710 -150574 0
0 0 0 739 756449 -149835 0
0 0 0 722 757171 -149113 0
0 0 0 708 757879 -148405 0
0 0 0 693 758572 -147712 0
0 0 0 710 759282 -147002 0
0 0 0 736 760018 -146266 0
0 0 0 794 760812 -145472 0
0 0 0 845 761657 -144627 0
0 0 0 866 762523 -143761 0
0 0 0 866 763389 -142895 0
0 0 0 847 764236 -142048 0
0 0 0 827 765063 -141221 0
0 0 0 809 765872 -140412 0
0 0 0 789 766661 -139623 0
0 0 0 769 767430 -138854 0
0 0 0 746 768176 -138108 0
0 0 0 719 768895 -137389 0
0 0 0 712 769607 -136677 0
0 0 0 661 770268 -136016 1
0 0 0 641 770909 -135375 1
0 0 0 627 771536 -134748 1
0 0 0 613 772149 -134135 1
0 0 0 602 772751 -133533 1
0 0 0 595 773346 -132938 1
0 0 0 594 773940 -132344 1
0 0 0 646 774586 -131698 1
0 0 0 748 775334 -130950 0
0 0 0 757 776091 -130193 0
0 0 0 746 776837 -129447 0
0 0 0 730 777567 -128717 0
0 0 0 693 778260 -128024 0
0 0 0 670 778930 -127354 1
0 0 0 673 779603 -126681 1
0 0 0 680 780283 -126001 0
0 0 0 690 780973 -125311 0
0 0 0 712 781685 -124599 0
0 0 0 747 782432 -123852 0
0 0 0 768 783200 -123084 0
0 0 0 782 783982 -122302 0
0 0 0 801 784783 -121501 0
0 0 0 794 785577 -120707 0
0 0 0 810 786387 -119897 0
0 0 0 827 787214 -119070 0
0 0 0 844 788058 -118226 0
0 0 0 832 788890 -117394 0
0 0 0 828 789718 -116566 0
0 0 0 846 790564 -115720 0
0 0 0 864 791428 -114856 0
0 0 0 856 792284 -114000 0
0 0 0 823 793107 -113177 0
0 0 0 822 793929 -112355 0
0 0 0 817 794746 -111538 0
0 0 0 808 795554 -110730 0
0 0 0 782 796336 -109948 0
0 0 0 784 797120 -109164 0
0 0 0 784 797904 -108380 0
0 0 0 789 798693 -107591 0
0 0 0 796 799489 -106795 0
0 0 0 775 800264 -106020 0
0 0 0 788 801052 -105232 0
0 0 0 797 801849 -104435 0
0 0 0 807 802656 -103628 0
0 0 0 798 803454 -102830 0
0 0 0 795 804249 -102035 0
0 0 0 796 805045 -101239 0
0 0 0 794 805839 -100445 0
0 0 0 791 806630 -99654 0
0 0 0 753 807383 -98901 0
0 0 0 770 808153 -98131 0
0 0 0 769 808922 -97362 0
0 0 0 772 809694 -96590 0
0 0 0 773 810467 -95817 0
0 0 0 786 811253 -95031 0
0 0 0 797 812050 -94234 0
0 0 0 819 812869 -93415 0
0 0 0 833 813702 -92582 0
0 0 0 821 814523 -91761 0
0 0 0 801 815324 -90960 0
0 0 0 770 816094 -90190 0
0 0 0 775 816869 -89415 0
0 0 0 757 817626 -88658 0
0 0 0 748 818374 -87910 0
0 0 0 767 819141 -87143 0
0 0 0 778 819919 -86365 0
0 0 0 804 820723 -85561 0
0 0 0 796 821519 -84765 0
0 0 0 747 822266 -84018 0
0 0 0 689 822955 -83329 0
0 0 0 671 823626 -82658 1
0 0 0 655 824281 -82003 1
0 0 0 661 824942 -81342 1
0 0 0 663 825605 -80679 1
0 0 0 698 826303 -79981 0
0 0 0 722 827025 -79259 0
0 0 0 681 827706 -78578 0
0 0 0 666 828372 -77912 1
0 0 0 646 829018 -77266 1
0 0 0 635 829653 -76631 1
0 0 0 623 830276 -76008 1
0 0 0 604 830880 -75404 1
0 0 0 610 831490 -74794 1
0 0 0 629 832119 -74165 1
0 0 0 651 832770 -73514 1
0 0 0 650 833420 -72864 1
0 0 0 646 834066 -72218 1
0 0 0 634 834700 -71584 1
0 0 0 624 835324 -70960 1
0 0 0 613 835937 -70347 1
0 0 0 612 836549 -69735 1
0 0 0 624 837173 -69111 1
0 0 0 644 837817 -68467 1
0 0 0 674 838491 -67793 1
0 0 0 704 839195 -67089 0
0 0 0 734 839929 -66355 0
0 0 0 765 840694 -65590 0
0 0 0 789 841483 -64801 0
0 0 0 793 842276 -64008 0
0 0 0 803 843079 -63205 0
0 0 0 819 843898 -62386 0
0 0 0 805 844703 -61581 0
0 0 0 805 845508 -60776 0
0 0 0 818 846326 -59958 0
0 0 0 845 847171 -59113 0
0 0 0 872 848043 -58241 0
0 0 0 871 848914 -57370 0
0 0 0 848 849762 -56522 0
0 0 0 827 850589 -55695 0
0 0 0 832 851421 -54863 0
0 0 0 847 852268 -54016 0
0 0 0 830 853098 -53186 0
0 0 0 818 853916 -52368 0
0 0 0 824 854740 -51544 0
0 0 0 833 855573 -50711 0
0 0 0 822 856395 -49889 0
0 0 0 812 857207 -49077 0
0 0 0 809 858016 -48268 0
0 0 0 823 858839 -47445 0
0 0 0 829 859668 -46616 0
0 0 0 816 860484 -45800 0
0 0 0 792 861276 -45008 0
0 0 0 783 862059 -44225 0
0 0 0 781 862840 -43444 0
0 0 0 776 863616 -42668 0
0 0 0 764 864380 -41904 0
0 0 0 776 865156 -41128 0
0 0 0 781 865937 -40347 0
0 0 0 775 866712 -39572 0
0 0 0 770 867482 -38802 0
0 0 0 769 868251 -38033 0
0 0 0 774 869025 -37259 0
0 0 0 772 869797 -36487 0
0 0 0 764 870561 -35723 0
0 0 0 763 871324 -34960 0
0 0 0 787 872111 -34173 0
0 0 0 810 872921 -33363 0
0 0 0 817 873738 -32546 0
0 0 0 808 874546 -31738 0
0 0 0 793 875339 -30945 0
0 0 0 774 876113 -30171 0
0 0 0 774 876887 -29397 0
0 0 0 785 877672 -28612 0
0 0 0 775 878447 -27837 0
0 0 0 780 879227 -27057 0
0 0 0 801 880028 -26256 0
0 0 0 821 880849 -25435 0
0 0 0 828 881677 -24607 0
0 0 0 801 882478 -23806 0
0 0 0 805 883283 -23001 0
0 0 0 811 884094 -22190 0
0 0 0 823 884917 -21367 0
0 0 0 812 885729 -20555 0
0 0 0 793 886522 -19762 0
0 0 0 787 887309 -18975 0
0 0 0 795 888104 -18180 0
0 0 0 794 888898 -17386 0
0 0 0 795 889693 -16591 0
0 0 0 789 890482 -15802 0
0 0 0 779 891261 -15023 0
0 0 0 771 892032 -14252 0
0 0 0 762 892794 -13490 0
0 0 0 758 893552 -12732 0
0 0 0 765 894317 -11967 0
0 0 0 771 895088 -11196 0
0 0 0 773 895861 -10423 0
0 0 0 764 896625 -9659 0
0 0 0 760 897385 -8899 0
0 0 0 765 898150 -8134 0
0 0 0 755 898905 -7379 0
0 0 0 743 899648 -6636 0
0 0 0 743 900391 -5893 0
0 0 0 752 901143 -5141 0
0 0 0 768 901911 -4373 0
0 0 0 753 902664 -3620 0
0 0 0 731 903395 -2889 0
0 0 0 736 904131 -2153 0
41 1 S102 747 904878 -1406 0
41 1 S102 765 905643 -641 0
41 2 S102 765 906408 124 0
41 2 S102 776 907184 900 0
41 2 S102 776 907960 1676 0
41 2 S102 776 908736 2452 0
41 2 S102 780 909516 3232 0
41 2 S102 766 910282 3998 0
41 2 S102 762 911044 4760 0
41 2 S102 778 911822 5538 0
41 2 S102 780 912602 6318 0
0 0 0 768 913370 -8813 0
0 0 0 777 914147 -8036 0
0 0 0 783 914930 -7253 0
0 0 0 782 915712 -6471 0
0 0 0 789 916501 -5682 0
0 0 0 805 917306 -4877 0
0 0 0 793 918099 -4084 0
0 0 0 778 918877 -3306 0
0 0 0 758 919635 -2548 0
42 1 S112 752 920387 -1796 0
42 1 S112 741 921128 -1055 0
42 1 S112 744 921872 -311 0
42 2 S112 745 922617 434 0
42 2 S112 758 923375 1192 0
42 2 S112 765 924140 1957 0
42 2 S112 796 924936 2753 0
42 2 S112 805 925741 3558 0
42 2 S112 789 926530 4347 0
42 2 S112 794 927324 5141 0
42 2 S112 803 928127 5944 0
42 2 S112 807 928934 6751 0
0 0 0 799 929733 -10238 0
0 0 0 802 930535 -9436 0
0 0 0 795 931330 -8641 0
0 0 0 778 932108 -7863 0
0 0 0 784 932892 -7079 0
0 0 0 769 933661 -6310 0
0 0 0 728 934389 -5582 0
0 0 0 708 935097 -4874 0
0 0 0 671 935768 -4203 1
0 0 0 658 936426 -3545 1
0 0 0 675 937101 -2870 0
0 0 0 696 937797 -2174 0
43 1 S116 740 938537 -1434 0
43 1 S116 757 939294 -677 0
43 2 S116 762 940056 85 0
43 2 S116 766 940822 851 0
43 2 S116 778 941600 1629 0
43 2 S116 784 942384 2413 0
43 2 S116 784 943168 3197 0
43 2 S116 779 943947 3976 0
43 2 S116 784 944731 4760 0
43 2 S116 791 945522 5551 0
43 2 S116 801 946323 6352 0
0 0 0 801 947124 -7470 0
0 0 0 818 947942 -6652 0
0 0 0 820 948762 -5832 0
0 0 0 807 949569 -5025 0
0 0 0 805 950374 -4220 0
0 0 0 812 951186 -3408 0
0 0 0 803 951989 -2605 0
44 1 S102 791 952780 -1814 0
44 1 S102 791 953571 -1023 0
44 1 S102 803 954374 -220 0
44 2 S102 809 955183 589 0
44 2 S102 819 956002 1408 0
44 2 S102 810 956812 2218 0
44 2 S102 808 957620 3026 0
44 2 S102 802 958422 3828 0
44 2 S102 796 959218 4624 0
44 2 S102 785 960003 5409 0
44 2 S102 795 960798 6204 0
44 2 S102 818 961616 7022 0
0 0 0 815 962431 -9172 0
0 0 0 815 963246 -8357 0
0 0 0 818 964064 -7539 0
0 0 0 809 964873 -6730 0
0 0 0 789 965662 -5941 0
0 0 0 757 966419 -5184 0
0 0 0 754 967173 -4430 0
0 0 0 747 967920 -3683 0
0 0 0 762 968682 -2921 0
0 0 0 791 969473 -2130 0
45 1 S116 795 970268 -1335 0
45 1 S116 823 971091 -512 0
45 2 S116 845 971936 333 0
45 2 S116 867 972803 1200 0
45 2 S116 856 973659 2056 0
45 2 S116 843 974502 2899 0
45 2 S116 833 975335 3732 0
45 2 S116 824 976159 4556 0
45 2 S116 824 976983 5380 0
45 2 S116 820 977803 6200 0
0 0 0 837 978640 -13056 0
0 0 0 858 979498 -12198 0
0 0 0 845 980343 -11353 0
0 0 0 818 981161 -10535 0
0 0 0 828 981989 -9707 0
0 0 0 845 982834 -8862 0
0 0 0 846 983680 -8016 0
0 0 0 835 984515 -7181 0
0 0 0 831 985346 -6350 0
0 0 0 847 986193 -5503 0
0 0 0 851 987044 -4652 0
0 0 0 842 987886 -3810 0
0 0 0 840 988726 -2970 0
0 0 0 841 989567 -2129 0
46 1 S102 820 990387 -1309 0
46 1 S102 822 991209 -487 0
46 2 S102 816 992025 329 0
46 2 S102 826 992851 1155 0
46 2 S102 828 993679 1983 0
46 2 S102 809 994488 2792 0
46 2 S102 801 995289 3593 0
46 2 S102 816 996105 4409 0
46 2 S102 815 996920 5224 0
46 2 S102 807 997727 6031 0
46 2 S102 819 998546 6850 0
0 0 0 835 999381 -9606 0
0 0 0 837 1000218 -8769 0
0 0 0 829 1001047 -7940 0
0 0 0 830 1001877 -7110 0
0 0 0 810 1002687 -6300 0
0 0 0 790 1003477 -5510 0
0 0 0 760 1004237 -4750 0
0 0 0 758 1004995 -3992 0
0 0 0 768 1005763 -3224 0
0 0 0 774 1006537 -2450 0
47 1 S112 767 1007304 -1683 0
47 1 S112 773 1008077 -910 0
47 1 S112 792 1008869 -118 0
47 2 S112 791 1009660 673 0
47 2 S112 802 1010462 1475 0
47 2 S112 813 1011275 2288 0
47 2 S112 824 1012099 3112 0
47 2 S112 837 1012936 3949 0
47 2 S112 835 1013771 4784 0
47 2 S112 831 1014602 5615 0
47 2 S112 845 1015447 6460 0
0 0 0 839 1016286 -12247 0
0 0 0 829 1017115 -11418 0
0 0 0 802 1017917 -10616 0
0 0 0 795 1018712 -9821 0
0 0 0 814 1019526 -9007 0
0 0 0 811 1020337 -8196 0
0 0 0 802 1021139 -7394 0
0 0 0 788 1021927 -6606 0
0 0 0 783 1022710 -5823 0
0 0 0 783 1023493 -5040 0
0 0 0 775 1024268 -4265 0
0 0 0 763 1025031 -3502 0
0 0 0 769 1025800 -2733 0
48 1 S116 781 1026581 -1952 0
48 1 S116 800 1027381 -1152 0
48 1 S116 798 1028179 -354 0
48 2 S116 799 1028978 445 0
48 2 S116 796 1029774 1241 0
48 2 S116 798 1030572 2039 0
48 2 S116 792 1031364 2831 0
48 2 S116 781 1032145 3612 0
48 2 S116 787 1032932 4399 0
48 2 S116 797 1033729 5196 0
48 2 S116 795 1034524 5991 0
48 2 S116 795 1035319 6786 0
0 0 0 803 1036122 -9006 0
0 0 0 820 1036942 -8186 0
0 0 0 821 1037763 -7365 0
0 0 0 814 1038577 -6551 0
0 0 0 820 1039397 -5731 0
0 0 0 829 1040226 -4902 0
0 0 0 822 1041048 -4080 0
0 0 0 803 1041851 -3277 0
0 0 0 797 1042648 -2480 0
49 1 S112 793 1043441 -1687 0
49 1 S112 801 1044242 -886 0
49 1 S112 798 1045040 -88 0
49 2 S112 814 1045854 726 0
49 2 S112 831 1046685 1557 0
49 2 S112 846 1047531 2403 0
49 2 S112 843 1048374 3246 0
49 2 S112 828 1049202 4074 0
49 2 S112 818 1050020 4892 0
49 2 S112 819 1050839 5711 0
49 2 S112 808 1051647 6519 0
0 0 0 801 1052448 -12292 0
0 0 0 813 1053261 -11479 0
0 0 0 826 1054087 -10653 0
0 0 0 834 1054921 -9819 0
0 0 0 815 1055736 -9004 0
0 0 0 812 1056548 -8192 0
0 0 0 800 1057348 -7392 0
0 0 0 778 1058126 -6614 0
0 0 0 759 1058885 -5855 0
0 0 0 767 1059652 -5088 0
0 0 0 783 1060435 -4305 0
0 0 0 798 1061233 -3507 0
0 0 0 810 1062043 -2697 0
50 1 S106 809 1062852 -1888 0
50 1 S106 804 1063656 -1084 0
50 1 S106 790 1064446 -294 0
50 2 S106 775 1065221 481 0
50 2 S106 764 1065985 1245 0
50 2 S106 762 1066747 2007 0
50 2 S106 768 1067515 2775 0
50 2 S106 765 1068280 3540 0
50 2 S106 784 1069064 4324 0
50 2 S106 806 1069870 5130 0
50 2 S106 829 1070699 5959 0
50 2 S106 825 1071524 6784 0
0 0 0 837 1072361 -8228 0
0 0 0 833 1073194 -7395 0
0 0 0 820 1074014 -6575 0
0 0 0 796 1074810 -5779 0
0 0 0 805 1075615 -4974 0
0 0 0 785 1076400 -4189 0
0 0 0 767 1077167 -3422 0
0 0 0 735 1077902 -2687 0
51 1 S112 712 1078614 -1975 0
51 1 S112 681 1079295 -1294 0
51 1 S112 677 1079972 -617 0
51 2 S112 684 1080656 67 0
51 2 S112 679 1081335 746 0
51 2 S112 702 1082037 1448 0
51 2 S112 723 1082760 2171 0
51 2 S112 758 1083518 2929 0
51 2 S112 775 1084293 3704 0
51 2 S112 789 1085082 4493 0
51 2 S112 790 1085872 5283 0
51 2 S112 787 1086659 6070 0
51 2 S112 780 1087439 6850 0
0 0 0 767 1088206 -6608 0
0 0 0 778 1088984 -5830 0
0 0 0 786 1089770 -5044 0
0 0 0 787 1090557 -4257 0
0 0 0 730 1091287 -3527 0
0 0 0 706 1091993 -2821 0
0 0 0 678 1092671 -2143 0
52 1 S116 686 1093357 -1457 0
52 1 S116 696 1094053 -761 0
52 1 S116 702 1094755 -59 0
52 2 S116 711 1095466 652 0
52 2 S116 740 1096206 1392 0
52 2 S116 765 1096971 2157 0
52 2 S116 796 1097767 2953 0
52 2 S116 812 1098579 3765 0
52 2 S116 837 1099416 4602 0
52 2 S116 843 1100259 5445 0
52 2 S116 856 1101115 6301 0
0 0 0 846 1101961 -9630 0
0 0 0 835 1102796 -8795 0
0 0 0 825 1103621 -7970 0
0 0 0 832 1104453 -7138 0
0 0 0 838 1105291 -6300 0
0 0 0 843 1106134 -5457 0
0 0 0 835 1106969 -4622 0
0 0 0 838 1107807 -3784 0
0 0 0 842 1108649 -2942 0
0 0 0 827 1109476 -2115 0
53 1 S106 817 1110293 -1298 0
53 1 S106 811 1111104 -487 0
53 2 S106 804 1111908 317 0
53 2 S106 796 1112704 1113 0
53 2 S106 792 1113496 1905 0
53 2 S106 811 1114307 2716 0
53 2 S106 819 1115126 3535 0
53 2 S106 816 1115942 4351 0
53 2 S106 810 1116752 5161 0
53 2 S106 823 1117575 5984 0
53 2 S106 823 1118398 6807 0
0 0 0 813 1119211 -8975 0
0 0 0 830 1120041 -8145 0
0 0 0 829 1120870 -7316 0
0 0 0 827 1121697 -6489 0
0 0 0 811 1122508 -5678 0
0 0 0 840 1123348 -4838 0
0 0 0 846 1124194 -3992 0
0 0 0 846 1125040 -3146 0
0 0 0 806 1125846 -2340 0
54 1 S102 791 1126637 -1549 0
54 1 S102 791 1127428 -758 0
54 2 S102 797 1128225 39 0
54 2 S102 781 1129006 820 0
54 2 S102 788 1129794 1608 0
54 2 S102 802 1130596 2410 0
54 2 S102 803 1131399 3213 0
54 2 S102 798 1132197 4011 0
54 2 S102 802 1132999 4813 0
54 2 S102 819 1133818 5632 0
54 2 S102 822 1134640 6454 0
0 0 0 819 1135459 -11311 0
0 0 0 808 1136267 -10503 0
0 0 0 814 1137081 -9689 0
0 0 0 810 1137891 -8879 0
0 0 0 789 1138680 -8090 0
0 0 0 754 1139434 -7336 0
0 0 0 704 1140138 -6632 0
0 0 0 691 1140829 -5941 0
0 0 0 702 1141531 -5239 0
0 0 0 731 1142262 -4508 0
0 0 0 816 1143078 -3692 0
0 0 0 848 1143926 -2844 0
55 1 S106 862 1144788 -1982 0
55 1 S106 845 1145633 -1137 0
55 1 S106 818 1146451 -319 0
55 2 S106 795 1147246 476 0
55 2 S106 767 1148013 1243 0
55 2 S106 757 1148770 2000 0
55 2 S106 736 1149506 2736 0
55 2 S106 723 1150229 3459 0
55 2 S106 722 1150951 4181 0
55 2 S106 730 1151681 4911 0
55 2 S106 745 1152426 5656 0
55 2 S106 752 1153178 6408 0
0 0 0 767 1153945 -7199 0
0 0 0 792 1154737 -6407 0
0 0 0 809 1155546 -5598 0
0 0 0 814 1156360 -4784 0
0 0 0 783 1157143 -4001 0
0 0 0 755 1157898 -3246 0
0 0 0 719 1158617 -2527 0
56 1 S116 717 1159334 -1810 0
56 1 S116 706 1160040 -1104 0
56 1 S116 684 1160724 -420 0
56 2 S116 688 1161412 268 0
56 2 S116 689 1162101 957 0
56 2 S116 720 1162821 1677 0
56 2 S116 743 1163564 2420 0
56 2 S116 751 1164315 3171 0
56 2 S116 784 1165099 3955 0
56 2 S116 787 1165886 4742 0
56 2 S116 798 1166684 5540 0
56 2 S116 791 1167475 6331 0
0 0 0 796 1168271 -8390 0
0 0 0 804 1169075 -7586 0
0 0 0 807 1169882 -6779 0
0 0 0 804 1170686 -5975 0
0 0 0 796 1171482 -5179 0
0 0 0 790 1172272 -4389 0
0 0 0 779 1173051 -3610 0
0 0 0 778 1173829 -2832 0
0 0 0 773 1174602 -2059 0
57 1 S106 789 1175391 -1270 0
57 1 S106 806 1176197 -464 0
57 2 S106 830 1177027 366 0
57 2 S106 820 1177847 1186 0
57 2 S106 823 1178670 2009 0
57 2 S106 837 1179507 2846 0
57 2 S106 826 1180333 3672 0
57 2 S106 817 1181150 4489 0
57 2 S106 803 1181953 5292 0
57 2 S106 810 1182763 6102 0
57 2 S106 814 1183577 6916 0
0 0 0 832 1184409 -8930 0
0 0 0 840 1185249 -8090 0
0 0 0 836 1186085 -7254 0
0 0 0 813 1186898 -6441 0
0 0 0 785 1187683 -5656 0
0 0 0 777 1188460 -4879 0
0 0 0 785 1189245 -4094 0
0 0 0 809 1190054 -3285 0
0 0 0 837 1190891 -2448 0
58 1 S102 816 1191707 -1632 0
58 1 S102 822 1192529 -810 0
58 2 S102 832 1193361 22 0
58 2 S102 829 1194190 851 0
58 2 S102 818 1195008 1669 0
58 2 S102 790 1195798 2459 0
58 2 S102 787 1196585 3246 0
58 2 S102 799 1197384 4045 0
58 2 S102 808 1198192 4853 0
58 2 S102 810 1199002 5663 0
58 2 S102 820 1199822 6483 0
0 0 0 840 1200662 -8775 0
0 0 0 846 1201508 -7929 0
0 0 0 835 1202343 -7094 0
0 0 0 820 1203163 -6274 0
0 0 0 837 1204000 -5437 0
0 0 0 853 1204853 -4584 0
0 0 0 834 1205687 -3750 0
0 0 0 806 1206493 -2944 0
0 0 0 792 1207285 -2152 0
59 1 S112 799 1208084 -1353 0
59 1 S112 794 1208878 -559 0
59 2 S112 784 1209662 225 0
59 2 S112 793 1210455 1018 0
59 2 S112 818 1211273 1836 0
59 2 S112 830 1212103 2666 0
59 2 S112 835 1212938 3501 0
59 2 S112 832 1213770 4333 0
59 2 S112 842 1214612 5175 0
59 2 S112 839 1215451 6014 0
59 2 S112 840 1216291 6854 0
0 0 0 833 1217124 -9637 0
0 0 0 833 1217957 -8804 0
0 0 0 836 1218793 -7968 0
0 0 0 830 1219623 -7138 0
0 0 0 804 1220427 -6334 0
0 0 0 801 1221228 -5533 0
0 0 0 801 1222029 -4732 0
0 0 0 805 1222834 -3927 0
0 0 0 781 1223615 -3146 0
0 0 0 740 1224355 -2406 0
60 1 S102 744 1225099 -1662 0
60 1 S102 750 1225849 -912 0
60 1 S102 781 1226630 -131 0
60 2 S102 822 1227452 691 0
60 2 S102 828 1228280 1519 0
60 2 S102 816 1229096 2335 0
60 2 S102 821 1229917 3156 0
60 2 S102 834 1230751 3990 0
60 2 S102 819 1231570 4809 0
60 2 S102 800 1232370 5609 0
60 2 S102 794 1233164 6403 0
0 0 0 787 1233951 -12240 0
0 0 0 803 1234754 -11437 0
0 0 0 808 1235562 -10629 0
0 0 0 808 1236370 -9821 0
0 0 0 831 1237201 -8990 0
0 0 0 821 1238022 -8169 0
0 0 0 812 1238834 -7357 0
0 0 0 804 1239638 -6553 0
0 0 0 765 1240403 -5788 0
0 0 0 736 1241139 -5052 0
0 0 0 699 1241838 -4353 0
0 0 0 699 1242537 -3654 0
0 0 0 680 1243217 -2974 0
0 0 0 690 1243907 -2284 0
61 1 S106 690 1244597 -1594 0
61 1 S106 718 1245315 -876 0
61 1 S106 744 1246059 -132 0
61 2 S106 741 1246800 609 0
61 2 S106 756 1247556 1365 0
61 2 S106 768 1248324 2133 0
61 2 S106 798 1249122 2931 0
61 2 S106 794 1249916 3725 0
61 2 S106 791 1250707 4516 0
61 2 S106 786 1251493 5302 0
61 2 S106 776 1252269 6078 0
61 2 S106 777 1253046 6855 0
0 0 0 772 1253818 -7128 0
0 0 0 766 1254584 -6362 0
0 0 0 766 1255350 -5596 0
0 0 0 771 1256121 -4825 0
0 0 0 772 1256893 -4053 0
0 0 0 755 1257648 -3298 0
0 0 0 772 1258420 -2526 0
62 1 S112 781 1259201 -1745 0
62 1 S112 785 1259986 -960 0
62 1 S112 780 1260766 -180 0
62 2 S112 779 1261545 599 0
62 2 S112 797 1262342 1396 0
62 2 S112 814 1263156 2210 0
62 2 S112 808 1263964 3018 0
62 2 S112 803 1264767 3821 0
62 2 S112 815 1265582 4636 0
62 2 S112 832 1266414 5468 0
62 2 S112 840 1267254 6308 0
0 0 0 820 1268074 -11738 0
0 0 0 833 1268907 -10905 0
0 0 0 833 1269740 -10072 0
0 0 0 816 1270556 -9256 0
0 0 0 804 1271360 -8452 0
0 0 0 802 1272162 -7650 0
0 0 0 798 1272960 -6852 0
0 0 0 771 1273731 -6081 0
0 0 0 777 1274508 -5304 0
0 0 0 780 1275288 -4524 0
0 0 0 790 1276078 -3734 0
0 0 0 796 1276874 -2938 0
0 0 0 805 1277679 -2133 0
63 1 S102 824 1278503 -1309 0
63 1 S102 838 1279341 -471 0
63 2 S102 832 1280173 361 0
63 2 S102 832 1281005 1193 0
63 2 S102 822 1281827 2015 0
63 2 S102 827 1282654 2842 0
63 2 S102 827 1283481 3669 0
63 2 S102 816 1284297 4485 0
63 2 S102 817 1285114 5302 0
63 2 S102 830 1285944 6132 0
63 2 S102 818 1286762 6950 0
0 0 0 816 1287578 -9061 0
0 0 0 826 1288404 -8235 0
0 0 0 841 1289245 -7394 0
0 0 0 858 1290103 -6536 0
0 0 0 844 1290947 -5692 0
0 0 0 836 1291783 -4856 0
0 0 0 836 1292619 -4020 0
0 0 0 832 1293451 -3188 0
0 0 0 803 1294254 -2385 0
64 1 S112 788 1295042 -1597 0
64 1 S112 786 1295828 -811 0
64 1 S112 793 1296621 -18 0
64 2 S112 792 1297413 774 0
64 2 S112 790 1298203 1564 0
64 2 S112 798 1299001 2362 0
64 2 S112 818 1299819 3180 0
64 2 S112 817 1300636 3997 0
64 2 S112 809 1301445 4806 0
64 2 S112 809 1302254 5615 0
64 2 S112 812 1303066 6427 0
0 0 0 808 1303874 -8100 0
0 0 0 808 1304682 -7292 0
0 0 0 798 1305480 -6494 0
0 0 0 818 1306298 -5676 0
0 0 0 829 1307127 -4847 0
0 0 0 815 1307942 -4032 0
0 0 0 782 1308724 -3250 0
0 0 0 778 1309502 -2472 0
65 1 S106 776 1310278 -1696 0
65 1 S106 779 1311057 -917 0
65 1 S106 779 1311836 -138 0
65 2 S106 784 1312620 646 0
65 2 S106 798 1313418 1444 0
65 2 S106 828 1314246 2272 0
65 2 S106 816 1315062 3088 0
65 2 S106 792 1315854 3880 0
65 2 S106 794 1316648 4674 0
65 2 S106 803 1317451 5477 0
65 2 S106 798 1318249 6275 0
0 0 0 812 1319061 -8497 0
0 0 0 815 1319876 -7682 0
0 0 0 816 1320692 -6866 0
0 0 0 810 1321502 -6056 0
0 0 0 807 1322309 -5249 0
0 0 0 770 1323079 -4479 0
0 0 0 712 1323791 -3767 0
0 0 0 682 1324473 -3085 0
0 0 0 676 1325149 -2409 0
66 1 S116 669 1325818 -1740 1
66 1 S116 690 1326508 -1050 0
66 1 S116 717 1327225 -333 0
66 2 S116 703 1327928 370 0
66 2 S116 730 1328658 1100 0
66 2 S116 753 1329411 1853 0
66 2 S116 776 1330187 2629 0
66 2 S116 780 1330967 3409 0
66 2 S116 765 1331732 4174 0
66 2 S116 759 1332491 4933 0
66 2 S116 750 1333241 5683 0
66 2 S116 746 1333987 6429 0
0 0 0 741 1334728 -12094 0
0 0 0 746 1335474 -11348 0
0 0 0 740 1336214 -10608 0
0 0 0 739 1336953 -9869 0
0 0 0 735 1337688 -9134 0
0 0 0 734 1338422 -8400 0
0 0 0 752 1339174 -7648 0
0 0 0 763 1339937 -6885 0
0 0 0 767 1340704 -6118 0
0 0 0 767 1341471 -5351 0
0 0 0 782 1342253 -4569 0
0 0 0 795 1343048 -3774 0
0 0 0 808 1343856 -2966 0
0 0 0 796 1344652 -2170 0
67 1 S102 791 1345443 -1379 0
67 1 S102 789 1346232 -590 0
67 2 S102 794 1347026 204 0
67 2 S102 790 1347816 994 0
67 2 S102 776 1348592 1770 0
67 2 S102 777 1349369 2547 0
67 2 S102 785 1350154 3332 0
67 2 S102 791 1350945 4123 0
67 2 S102 791 1351736 4914 0
67 2 S102 787 1352523 5701 0
67 2 S102 802 1353325 6503 0
0 0 0 808 1354133 -8604 0
0 0 0 822 1354955 -7782 0
0 0 0 820 1355775 -6962 0
0 0 0 836 1356611 -6126 0
0 0 0 852 1357463 -5274 0
0 0 0 835 1358298 -4439 0
0 0 0 762 1359060 -3677 0
0 0 0 739 1359799 -2938 0
0 0 0 710 1360509 -2228 0
68 1 S106 693 1361202 -1535 0
68 1 S106 727 1361929 -808 0
68 1 S106 733 1362662 -75 0
68 2 S106 743 1363405 668 0
68 2 S106 760 1364165 1428 0
68 2 S106 769 1364934 2197 0
68 2 S106 783 1365717 2980 0
68 2 S106 781 1366498 3761 0
68 2 S106 785 1367283 4546 0
68 2 S106 795 1368078 5341 0
68 2 S106 805 1368883 6146 0
68 2 S106 800 1369683 6946 0
0 0 0 795 1370478 -12054 0
0 0 0 806 1371284 -11248 0
0 0 0 826 1372110 -10422 0
0 0 0 830 1372940 -9592 0
0 0 0 821 1373761 -8771 0
0 0 0 800 1374561 -7971 0
0 0 0 791 1375352 -7180 0
0 0 0 800 1376152 -6380 0
0 0 0 789 1376941 -5591 0
0 0 0 775 1377716 -4816 0
0 0 0 778 1378494 -4038 0
0 0 0 787 1379281 -3251 0
0 0 0 800 1380081 -2451 0
69 1 S102 782 1380863 -1669 0
69 1 S102 789 1381652 -880 0
69 1 S102 793 1382445 -87 0
69 2 S102 785 1383230 698 0
69 2 S102 759 1383989 1457 0
69 2 S102 766 1384755 2223 0
69 2 S102 799 1385554 3022 0
69 2 S102 832 1386386 3854 0
69 2 S102 825 1387211 4679 0
69 2 S102 815 1388026 5494 0
69 2 S102 816 1388842 6310 0
0 0 0 818 1389660 -11489 0
0 0 0 793 1390453 -10696 0
0 0 0 775 1391228 -9921 0
0 0 0 773 1392001 -9148 0
0 0 0 782 1392783 -8366 0
0 0 0 799 1393582 -7567 0
0 0 0 799 1394381 -6768 0
0 0 0 811 1395192 -5957 0
0 0 0 800 1395992 -5157 0
0 0 0 783 1396775 -4374 0
0 0 0 780 1397555 -3594 0
0 0 0 776 1398331 -2818 0
0 0 0 788 1399119 -2030 0
70 1 S112 780 1399899 -1250 0
70 1 S112 779 1400678 -471 0
70 2 S112 785 1401463 314 0
70 2 S112 797 1402260 1111 0
70 2 S112 820 1403080 1931 0
70 2 S112 819 1403899 2750 0
70 2 S112 832 1404731 3582 0
70 2 S112 859 1405590 4441 0
70 2 S112 872 1406462 5313 0
70 2 S112 863 1407325 6176 0
70 2 S112 845 1408170 7021 0
0 0 0 830 1409000 -10618 0
0 0 0 818 1409818 -9800 0
0 0 0 792 1410610 -9008 0
0 0 0 788 1411398 -8220 0
0 0 0 782 1412180 -7438 0
0 0 0 790 1412970 -6648 0
0 0 0 767 1413737 -5881 0
0 0 0 763 1414500 -5118 0
0 0 0 770 1415270 -4348 0
0 0 0 797 1416067 -3551 0
0 0 0 814 1416881 -2737 0
71 1 S116 801 1417682 -1936 0
71 1 S116 818 1418500 -1118 0
71 1 S116 812 1419312 -306 0
71 2 S116 801 1420113 495 0
71 2 S116 788 1420901 1283 0
71 2 S116 790 1421691 2073 0
71 2 S116 795 1422486 2868 0
71 2 S116 807 1423293 3675 0
71 2 S116 824 1424117 4499 0
71 2 S116 859 1424976 5358 0
71 2 S116 864 1425840 6222 0
0 0 0 849 1426689 -10336 0
0 0 0 830 1427519 -9506 0
0 0 0 813 1428332 -8693 0
0 0 0 782 1429114 -7911 0
0 0 0 768 1429882 -7143 0
0 0 0 758 1430640 -6385 0
0 0 0 717 1431357 -5668 0
0 0 0 705 1432062 -4963 0
0 0 0 690 1432752 -4273 0
0 0 0 700 1433452 -3573 0
0 0 0 704 1434156 -2869 0
0 0 0 723 1434879 -2146 0
72 1 S102 738 1435617 -1408 0
72 1 S102 747 1436364 -661 0
72 2 S102 748 1437112 87 0
72 2 S102 748 1437860 835 0
72 2 S102 757 1438617 1592 0
72 2 S102 765 1439382 2357 0
72 2 S102 768 1440150 3125 0
72 2 S102 780 1440930 3905 0
72 2 S102 805 1441735 4710 0
72 2 S102 831 1442566 5541 0
72 2 S102 843 1443409 6384 0
0 0 0 833 1444242 -9129 0
0 0 0 839 1445081 -8290 0
0 0 0 833 1445914 -7457 0
0 0 0 830 1446744 -6627 0
0 0 0 818 1447562 -5809 0
0 0 0 824 1448386 -4985 0
0 0 0 824 1449210 -4161 0
0 0 0 822 1450032 -3339 0
0 0 0 789 1450821 -2550 0
73 1 S116 792 1451613 -1758 0
73 1 S116 782 1452395 -976 0
73 1 S116 801 1453196 -175 0
73 2 S116 795 1453991 620 0
73 2 S116 813 1454804 1433 0
73 2 S116 840 1455644 2273 0
73 2 S116 867 1456511 3140 0
73 2 S116 871 1457382 4011 0
73 2 S116 872 1458254 4883 0
73 2 S116 887 1459141 5770 0
73 2 S116 874 1460015 6644 0
0 0 0 858 1460873 -10618 0
0 0 0 838 1461711 -9780 0
0 0 0 830 1462541 -8950 0
0 0 0 823 1463364 -8127 0
0 0 0 823 1464187 -7304 0
0 0 0 822 1465009 -6482 0
0 0 0 816 1465825 -5666 0
0 0 0 798 1466623 -4868 0
0 0 0 778 1467401 -4090 0
0 0 0 787 1468188 -3303 0
0 0 0 810 1468998 -2493 0
74 1 S106 818 1469816 -1675 0
74 1 S106 809 1470625 -866 0
74 1 S106 815 1471440 -51 0
74 2 S106 815 1472255 764 0
74 2 S106 819 1473074 1583 0
74 2 S106 811 1473885 2394 0
74 2 S106 801 1474686 3195 0
74 2 S106 822 1475508 4017 0
74 2 S106 831 1476339 4848 0
74 2 S106 842 1477181 5690 0
74 2 S106 821 1478002 6511 0
0 0 0 825 1478827 -8198 0
0 0 0 831 1479658 -7367 0
0 0 0 820 1480478 -6547 0
0 0 0 808 1481286 -5739 0
0 0 0 795 1482081 -4944 0
0 0 0 780 1482861 -4164 0
0 0 0 785 1483646 -3379 0
0 0 0 790 1484436 -2589 0
75 1 S112 788 1485224 -1801 0
75 1 S112 807 1486031 -994 0
75 1 S112 821 1486852 -173 0
75 2 S112 821 1487673 648 0
75 2 S112 822 1488495 1470 0
75 2 S112 835 1489330 2305 0
75 2 S112 832 1490162 3137 0
75 2 S112 825 1490987 3962 0
75 2 S112 823 1491810 4785 0
75 2 S112 826 1492636 5611 0
75 2 S112 829 1493465 6440 0
0 0 0 824 1494289 -7906 0
0 0 0 807 1495096 -7099 0
0 0 0 801 1495897 -6298 0
0 0 0 808 1496705 -5490 0
0 0 0 827 1497532 -4663 0
0 0 0 816 1498348 -3847 0
0 0 0 804 1499152 -3043 0
0 0 0 801 1499953 -2242 0
76 1 S116 803 1500756 -1439 0
76 1 S116 789 1501545 -650 0
76 2 S116 794 1502339 144 0
76 2 S116 787 1503126 931 0
76 2 S116 803 1503929 1734 0
76 2 S116 815 1504744 2549 0
76 2 S116 818 1505562 3367 0
76 2 S116 828 1506390 4195 0
76 2 S116 842 1507232 5037 0
76 2 S116 834 1508066 5871 0
76 2 S116 845 1508911 6716 0
0 0 0 861 1509772 -8238 0
0 0 0 856 1510628 -7382 0
0 0 0 829 1511457 -6553 0
0 0 0 828 1512285 -5725 0
0 0 0 835 1513120 -4890 0
0 0 0 815 1513935 -4075 0
0 0 0 784 1514719 -3291 0
0 0 0 773 1515492 -2518 0
77 1 S106 783 1516275 -1735 0
77 1 S106 787 1517062 -948 0
77 1 S106 794 1517856 -154 0
77 2 S106 809 1518665 655 0
77 2 S106 820 1519485 1475 0
77 2 S106 829 1520314 2304 0
77 2 S106 830 1521144 3134 0
77 2 S106 820 1521964 3954 0
77 2 S106 822 1522786 4776 0
77 2 S106 819 1523605 5595 0
77 2 S106 817 1524422 6412 0
0 0 0 827 1525249 -10318 0
0 0 0 839 1526088 -9479 0
0 0 0 843 1526931 -8636 0
0 0 0 822 1527753 -7814 0
0 0 0 817 1528570 -6997 0
0 0 0 807 1529377 -6190 0
0 0 0 788 1530165 -5402 0
0 0 0 768 1530933 -4634 0
0 0 0 783 1531716 -3851 0
0 0 0 795 1532511 -3056 0
0 0 0 841 1533352 -2215 0
78 1 S112 830 1534182 -1385 0
78 1 S112 810 1534992 -575 0
78 2 S112 806 1535798 231 0
78 2 S112 831 1536629 1062 0
78 2 S112 846 1537475 1908 0
78 2 S112 832 1538307 2740 0
78 2 S112 807 1539114 3547 0
78 2 S112 808 1539922 4355 0
78 2 S112 819 1540741 5174 0
78 2 S112 819 1541560 5993 0
78 2 S112 805 1542365 6798 0
0 0 0 821 1543186 -12109 0
0 0 0 822 1544008 -11287 0
0 0 0 827 1544835 -10460 0
0 0 0 821 1545656 -9639 0
0 0 0 818 1546474 -8821 0
0 0 0 811 1547285 -8010 0
0 0 0 801 1548086 -7209 0
0 0 0 756 1548842 -6453 0
0 0 0 733 1549575 -5720 0
0 0 0 700 1550275 -5020 0
0 0 0 688 1550963 -4332 0
0 0 0 700 1551663 -3632 0
0 0 0 703 1552366 -2929 0
0 0 0 712 1553078 -2217 0
79 1 S102 729 1553807 -1488 0
79 1 S102 749 1554556 -739 0
79 2 S102 759 1555315 20 0
79 2 S102 750 1556065 770 0
79 2 S102 756 1556821 1526 0
79 2 S102 756 1557577 2282 0
79 2 S102 776 1558353 3058 0
79 2 S102 786 1559139 3844 0
79 2 S102 787 1559926 4631 0
79 2 S102 802 1560728 5433 0
79 2 S102 815 1561543 6248 0
0 0 0 820 1562363 -9826 0
0 0 0 812 1563175 -9014 0
0 0 0 807 1563982 -8207 0
0 0 0 812 1564794 -7395 0
0 0 0 808 1565602 -6587 0
0 0 0 795 1566397 -5792 0
0 0 0 781 1567178 -5011 0
0 0 0 785 1567963 -4226 0
0 0 0 792 1568755 -3434 0
0 0 0 794 1569549 -2640 0
80 1 S116 781 1570330 -1859 0
80 1 S116 768 1571098 -1091 0
80 1 S116 772 1571870 -319 0
80 2 S116 792 1572662 473 0
80 2 S116 824 1573486 1297 0
80 2 S116 839 1574325 2136 0
80 2 S116 853 1575178 2989 0
80 2 S116 861 1576039 3850 0
80 2 S116 846 1576885 4696 0
80 2 S116 829 1577714 5525 0
80 2 S116 826 1578540 6351 0
