T_0090
BeatCount Mean SD BeatCountNoOutliers MeanNoOutliers SDNoOutliers
2201 669,769195820082 104,948564786143 2149 658,522568636575 76,9781641759327

Trial TrialStatus Trialtype IBI AbsPosition RelPosition Outlier
0 0 0 594 949 -15521 0
0 0 0 596 1545 -14925 0
0 0 0 613 2158 -14312 0
0 0 0 630 2788 -13682 0
0 0 0 621 3409 -13061 0
0 0 0 524 3933 -12537 0
0 0 0 468 4401 -12069 0
0 0 0 566 4967 -11503 0
0 0 0 577 5544 -10926 0
0 0 0 609 6153 -10317 0
0 0 0 664 6817 -9653 0
0 0 0 708 7525 -8945 0
0 0 0 727 8252 -8218 0
0 0 0 703 8955 -7515 0
0 0 0 707 9662 -6808 0
0 0 0 697 10359 -6111 0
0 0 0 681 11040 -5430 0
0 0 0 649 11689 -4781 0
0 0 0 614 12303 -4167 0
0 0 0 615 12918 -3552 0
0 0 0 601 13519 -2951 0
0 0 0 592 14111 -2359 0
1 1 S112 587 14698 -1772 0
1 1 S112 573 15271 -1199 0
1 1 S112 565 15836 -634 0
1 1 S112 566 16402 -68 0
1 2 S112 589 16991 521 0
1 2 S112 611 17602 1132 0
1 2 S112 641 18243 1773 0
1 2 S112 651 18894 2424 0
1 2 S112 623 19517 3047 0
1 2 S112 627 20144 3674 0
1 2 S112 655 20799 4329 0
1 2 S112 646 21445 4975 0
1 2 S112 631 22076 5606 0
1 2 S112 589 22665 6195 0
1 2 S112 573 23238 6768 0
0 0 0 596 23834 -10574 0
0 0 0 608 24442 -9966 0
0 0 0 617 25059 -9349 0
0 0 0 616 25675 -8733 0
0 0 0 572 26247 -8161 0
0 0 0 554 26801 -7607 0
0 0 0 547 27348 -7060 0
0 0 0 533 27881 -6527 0
0 0 0 537 28418 -5990 0
0 0 0 575 28993 -5415 0
0 0 0 612 29605 -4803 0
0 0 0 612 30217 -4191 0
0 0 0 593 30810 -3598 0
0 0 0 580 31390 -3018 0
0 0 0 604 31994 -2414 0
2 1 S102 639 32633 -1775 0
2 1 S102 667 33300 -1108 0
2 1 S102 686 33986 -422 0
2 2 S102 671 34657 249 0
2 2 S102 620 35277 869 0
2 2 S102 643 35920 1512 0
2 2 S102 641 36561 2153 0
2 2 S102 651 37212 2804 0
2 2 S102 656 37868 3460 0
2 2 S102 608 38476 4068 0
2 2 S102 593 39069 4661 0
2 2 S102 615 39684 5276 0
2 2 S102 625 40309 5901 0
2 2 S102 655 40964 6556 0
0 0 0 674 41638 -8453 0
0 0 0 635 42273 -7818 0
0 0 0 610 42883 -7208 0
0 0 0 640 43523 -6568 0
0 0 0 660 44183 -5908 0
0 0 0 692 44875 -5216 0
0 0 0 699 45574 -4517 0
0 0 0 641 46215 -3876 0
0 0 0 636 46851 -3240 0
0 0 0 663 47514 -2577 0
3 1 S116 676 48190 -1901 0
3 1 S116 690 48880 -1211 0
3 1 S116 681 49561 -530 0
3 2 S116 660 50221 130 0
3 2 S116 618 50839 748 0
3 2 S116 636 51475 1384 0
3 2 S116 636 52111 2020 0
3 2 S116 641 52752 2661 0
3 2 S116 669 53421 3330 0
3 2 S116 690 54111 4020 0
3 2 S116 683 54794 4703 0
3 2 S116 657 55451 5360 0
3 2 S116 673 56124 6033 0
3 2 S116 518 56642 6551 0
0 0 0 604 57246 -10949 0
0 0 0 660 57906 -10289 0
0 0 0 596 58502 -9693 0
0 0 0 587 59089 -9106 0
0 0 0 1055 60144 -8051 1
0 0 0 571 60715 -7480 0
0 0 0 549 61264 -6931 0
0 0 0 529 61793 -6402 0
0 0 0 525 62318 -5877 0
0 0 0 540 62858 -5337 0
0 0 0 597 63455 -4740 0
0 0 0 706 64161 -4034 0
0 0 0 770 64931 -3264 0
0 0 0 473 65404 -2791 0
0 0 0 572 65976 -2219 0
4 1 S106 777 66753 -1442 0
4 1 S106 848 67601 -594 0
4 2 S106 818 68419 224 0
4 2 S106 789 69208 1013 0
4 2 S106 775 69983 1788 0
4 2 S106 450 70433 2238 0
4 2 S106 471 70904 2709 0
4 2 S106 826 71730 3535 0
4 2 S106 669 72399 4204 0
4 2 S106 660 73059 4864 0
4 2 S106 407 73466 5271 0
4 2 S106 774 74240 6045 0
4 2 S106 672 74912 6717 0
0 0 0 639 75551 -6918 0
0 0 0 651 76202 -6267 0
0 0 0 429 76631 -5838 0
0 0 0 847 77478 -4991 0
0 0 0 740 78218 -4251 0
0 0 0 699 78917 -3552 0
0 0 0 647 79564 -2905 0
0 0 0 631 80195 -2274 0
5 1 S116 666 80861 -1608 0
5 1 S116 690 81551 -918 0
5 1 S116 723 82274 -195 0
5 2 S116 1195 83469 1000 1
5 2 S116 708 84177 1708 0
5 2 S116 694 84871 2402 0
5 2 S116 685 85556 3087 0
5 2 S116 409 85965 3496 0
5 2 S116 796 86761 4292 0
5 2 S116 654 87415 4946 0
5 2 S116 667 88082 5613 0
5 2 S116 675 88757 6288 0
5 2 S116 499 89256 6787 0
0 0 0 652 89908 -9106 0
0 0 0 702 90610 -8404 0
0 0 0 429 91039 -7975 0
0 0 0 766 91805 -7209 0
0 0 0 457 92262 -6752 0
0 0 0 760 93022 -5992 0
0 0 0 668 93690 -5324 0
0 0 0 639 94329 -4685 0
0 0 0 626 94955 -4059 0
0 0 0 649 95604 -3410 0
0 0 0 675 96279 -2735 0
0 0 0 728 97007 -2007 0
6 1 S106 770 97777 -1237 0
6 1 S106 738 98515 -499 0
6 2 S106 726 99241 227 0
6 2 S106 738 99979 965 0
6 2 S106 734 100713 1699 0
6 2 S106 730 101443 2429 0
6 2 S106 718 102161 3147 0
6 2 S106 681 102842 3828 0
6 2 S106 626 103468 4454 0
6 2 S106 634 104102 5088 0
6 2 S106 634 104736 5722 0
6 2 S106 656 105392 6378 0
0 0 0 679 106071 -10665 0
0 0 0 715 106786 -9950 0
0 0 0 683 107469 -9267 0
0 0 0 688 108157 -8579 0
0 0 0 658 108815 -7921 0
0 0 0 623 109438 -7298 0
0 0 0 599 110037 -6699 0
0 0 0 563 110600 -6136 0
0 0 0 570 111170 -5566 0
0 0 0 593 111763 -4973 0
0 0 0 620 112383 -4353 0
0 0 0 684 113067 -3669 0
0 0 0 732 113799 -2937 0
0 0 0 690 114489 -2247 0
7 1 S102 689 115178 -1558 0
7 1 S102 690 115868 -868 0
7 1 S102 695 116563 -173 0
7 2 S102 700 117263 527 0
7 2 S102 697 117960 1224 0
7 2 S102 657 118617 1881 0
7 2 S102 619 119236 2500 0
7 2 S102 635 119871 3135 0
7 2 S102 642 120513 3777 0
7 2 S102 654 121167 4431 0
7 2 S102 675 121842 5106 0
7 2 S102 654 122496 5760 0
7 2 S102 636 123132 6396 0
0 0 0 672 123804 -9792 0
0 0 0 672 124476 -9120 0
0 0 0 682 125158 -8438 0
0 0 0 681 125839 -7757 0
0 0 0 621 126460 -7136 0
0 0 0 615 127075 -6521 0
0 0 0 603 127678 -5918 0
0 0 0 615 128293 -5303 0
0 0 0 663 128956 -4640 0
0 0 0 649 129605 -3991 0
0 0 0 628 130233 -3363 0
0 0 0 659 130892 -2704 0
8 1 S112 714 131606 -1990 0
8 1 S112 745 132351 -1245 0
8 1 S112 765 133116 -480 0
8 2 S112 765 133881 285 0
8 2 S112 736 134617 1021 0
8 2 S112 720 135337 1741 0
8 2 S112 699 136036 2440 0
8 2 S112 674 136710 3114 0
8 2 S112 659 137369 3773 0
8 2 S112 1090 138459 4863 1
8 2 S112 1113 139572 5976 1
0 0 0 1071 140643 -7642 1
0 0 0 560 141203 -7082 0
0 0 0 559 141762 -6523 0
0 0 0 567 142329 -5956 0
0 0 0 610 142939 -5346 0
0 0 0 694 143633 -4652 0
0 0 0 729 144362 -3923 0
0 0 0 682 145044 -3241 0
0 0 0 671 145715 -2570 0
9 1 S116 759 146474 -1811 0
9 1 S116 829 147303 -982 0
9 2 S116 1034 148337 52 1
9 2 S116 776 149113 828 0
9 2 S116 785 149898 1613 0
9 2 S116 799 150697 2412 0
9 2 S116 1223 151920 3635 1
9 2 S116 748 152668 4383 0
9 2 S116 696 153364 5079 0
9 2 S116 659 154023 5738 0
9 2 S116 1154 155177 6892 1
0 0 0 699 155876 -10811 0
0 0 0 652 156528 -10159 0
0 0 0 455 156983 -9704 0
0 0 0 776 157759 -8928 0
0 0 0 728 158487 -8200 0
0 0 0 465 158952 -7735 0
0 0 0 747 159699 -6988 0
0 0 0 681 160380 -6307 0
0 0 0 721 161101 -5586 0
0 0 0 758 161859 -4828 0
0 0 0 1199 163058 -3629 1
0 0 0 737 163795 -2892 0
10 1 S102 1203 164998 -1689 1
10 1 S102 687 165685 -1002 0
10 1 S102 667 166352 -335 0
10 2 S102 647 166999 312 0
10 2 S102 647 167646 959 0
10 2 S102 1147 168793 2106 1
10 2 S102 686 169479 2792 0
10 2 S102 706 170185 3498 0
10 2 S102 700 170885 4198 0
10 2 S102 701 171586 4899 0
10 2 S102 736 172322 5635 0
10 2 S102 444 172766 6079 0
10 2 S102 894 173660 6973 0
0 0 0 779 174439 -10501 0
0 0 0 706 175145 -9795 0
0 0 0 731 175876 -9064 0
0 0 0 727 176603 -8337 0
0 0 0 716 177319 -7621 0
0 0 0 720 178039 -6901 0
0 0 0 671 178710 -6230 0
0 0 0 642 179352 -5588 0
0 0 0 674 180026 -4914 0
0 0 0 694 180720 -4220 0
0 0 0 721 181441 -3499 0
0 0 0 714 182155 -2785 0
0 0 0 718 182873 -2067 0
11 1 S112 719 183592 -1348 0
11 1 S112 710 184302 -638 0
11 2 S112 655 184957 17 0
11 2 S112 612 185569 629 0
11 2 S112 607 186176 1236 0
11 2 S112 605 186781 1841 0
11 2 S112 619 187400 2460 0
11 2 S112 649 188049 3109 0
11 2 S112 691 188740 3800 0
11 2 S112 724 189464 4524 0
11 2 S112 717 190181 5241 0
11 2 S112 708 190889 5949 0
11 2 S112 706 191595 6655 0
0 0 0 694 192289 -7190 0
0 0 0 671 192960 -6519 0
0 0 0 607 193567 -5912 0
0 0 0 586 194153 -5326 0
0 0 0 585 194738 -4741 0
0 0 0 567 195305 -4174 0
0 0 0 566 195871 -3608 0
0 0 0 560 196431 -3048 0
0 0 0 593 197024 -2455 0
12 1 S116 639 197663 -1816 0
12 1 S116 631 198294 -1185 0
12 1 S116 617 198911 -568 0
12 2 S116 624 199535 56 0
12 2 S116 655 200190 711 0
12 2 S116 707 200897 1418 0
12 2 S116 750 201647 2168 0
12 2 S116 765 202412 2933 0
12 2 S116 756 203168 3689 0
12 2 S116 727 203895 4416 0
12 2 S116 695 204590 5111 0
12 2 S116 669 205259 5780 0
12 2 S116 664 205923 6444 0
0 0 0 684 206607 -10644 0
0 0 0 694 207301 -9950 0
0 0 0 653 207954 -9297 0
0 0 0 627 208581 -8670 0
0 0 0 644 209225 -8026 0
0 0 0 657 209882 -7369 0
0 0 0 669 210551 -6700 0
0 0 0 658 211209 -6042 0
0 0 0 699 211908 -5343 0
0 0 0 710 212618 -4633 0
0 0 0 722 213340 -3911 0
0 0 0 714 214054 -3197 0
0 0 0 671 214725 -2526 0
13 1 S112 653 215378 -1873 0
13 1 S112 661 216039 -1212 0
13 1 S112 656 216695 -556 0
13 2 S112 664 217359 108 0
13 2 S112 652 218011 760 0
13 2 S112 658 218669 1418 0
13 2 S112 660 219329 2078 0
13 2 S112 662 219991 2740 0
13 2 S112 665 220656 3405 0
13 2 S112 639 221295 4044 0
13 2 S112 611 221906 4655 0
13 2 S112 626 222532 5281 0
13 2 S112 625 223157 5906 0
13 2 S112 631 223788 6537 0
0 0 0 628 224416 -11021 0
0 0 0 600 225016 -10421 0
0 0 0 575 225591 -9846 0
0 0 0 583 226174 -9263 0
0 0 0 583 226757 -8680 0
0 0 0 579 227336 -8101 0
0 0 0 590 227926 -7511 0
0 0 0 563 228489 -6948 0
0 0 0 582 229071 -6366 0
0 0 0 567 229638 -5799 0
0 0 0 547 230185 -5252 0
0 0 0 543 230728 -4709 0
0 0 0 548 231276 -4161 0
0 0 0 568 231844 -3593 0
0 0 0 589 232433 -3004 0
0 0 0 640 233073 -2364 0
14 1 S106 665 233738 -1699 0
14 1 S106 635 234373 -1064 0
14 1 S106 603 234976 -461 0
14 2 S106 600 235576 139 0
14 2 S106 611 236187 750 0
14 2 S106 623 236810 1373 0
14 2 S106 638 237448 2011 0
14 2 S106 653 238101 2664 0
14 2 S106 633 238734 3297 0
14 2 S106 615 239349 3912 0
14 2 S106 621 239970 4533 0
14 2 S106 646 240616 5179 0
14 2 S106 667 241283 5846 0
14 2 S106 702 241985 6548 0
0 0 0 726 242711 -11178 0
0 0 0 715 243426 -10463 0
0 0 0 671 244097 -9792 0
0 0 0 675 244772 -9117 0
0 0 0 654 245426 -8463 0
0 0 0 648 246074 -7815 0
0 0 0 632 246706 -7183 0
0 0 0 586 247292 -6597 0
0 0 0 580 247872 -6017 0
0 0 0 601 248473 -5416 0
0 0 0 616 249089 -4800 0
0 0 0 664 249753 -4136 0
0 0 0 709 250462 -3427 0
0 0 0 723 251185 -2704 0
0 0 0 696 251881 -2008 0
15 1 S116 664 252545 -1344 0
15 1 S116 674 253219 -670 0
15 2 S116 676 253895 6 0
15 2 S116 701 254596 707 0
15 2 S116 715 255311 1422 0
15 2 S116 720 256031 2142 0
15 2 S116 711 256742 2853 0
15 2 S116 684 257426 3537 0
15 2 S116 647 258073 4184 0
15 2 S116 648 258721 4832 0
15 2 S116 663 259384 5495 0
15 2 S116 1154 260538 6649 1
0 0 0 671 261209 -9839 0
0 0 0 671 261880 -9168 0
0 0 0 674 262554 -8494 0
0 0 0 694 263248 -7800 0
0 0 0 695 263943 -7105 0
0 0 0 672 264615 -6433 0
0 0 0 659 265274 -5774 0
0 0 0 660 265934 -5114 0
0 0 0 681 266615 -4433 0
0 0 0 429 267044 -4004 0
0 0 0 836 267880 -3168 0
0 0 0 748 268628 -2420 0
16 1 S116 681 269309 -1739 0
16 1 S116 702 270011 -1037 0
16 2 S116 1193 271204 156 1
16 2 S116 707 271911 863 0
16 2 S116 695 272606 1558 0
16 2 S116 682 273288 2240 0
16 2 S116 685 273973 2925 0
16 2 S116 712 274685 3637 0
16 2 S116 757 275442 4394 0
16 2 S116 705 276147 5099 0
16 2 S116 802 276949 5901 0
16 2 S116 785 277734 6686 0
0 0 0 793 278527 -8154 0
0 0 0 793 279320 -7361 0
0 0 0 746 280066 -6615 0
0 0 0 737 280803 -5878 0
0 0 0 726 281529 -5152 0
0 0 0 718 282247 -4434 0
0 0 0 715 282962 -3719 0
0 0 0 695 283657 -3024 0
0 0 0 697 284354 -2327 0
17 1 S106 705 285059 -1622 0
17 1 S106 1177 286236 -445 1
17 2 S106 687 286923 242 0
17 2 S106 649 287572 891 0
17 2 S106 633 288205 1524 0
17 2 S106 479 288684 2003 0
17 2 S106 818 289502 2821 0
17 2 S106 765 290267 3586 0
17 2 S106 436 290703 4022 0
17 2 S106 875 291578 4897 0
17 2 S106 758 292336 5655 0
17 2 S106 774 293110 6429 0
0 0 0 801 293911 -10476 0
0 0 0 832 294743 -9644 0
0 0 0 812 295555 -8832 0
0 0 0 570 296125 -8262 0
0 0 0 848 296973 -7414 0
0 0 0 710 297683 -6704 0
0 0 0 442 298125 -6262 0
0 0 0 842 298967 -5420 0
0 0 0 690 299657 -4730 0
0 0 0 680 300337 -4050 0
0 0 0 432 300769 -3618 0
0 0 0 806 301575 -2812 0
0 0 0 711 302286 -2101 0
18 1 S102 702 302988 -1399 0
18 1 S102 693 303681 -706 0
18 2 S102 709 304390 3 0
18 2 S102 738 305128 741 0
18 2 S102 754 305882 1495 0
18 2 S102 752 306634 2247 0
18 2 S102 770 307404 3017 0
18 2 S102 773 308177 3790 0
18 2 S102 768 308945 4558 0
18 2 S102 745 309690 5303 0
18 2 S102 708 310398 6011 0
18 2 S102 704 311102 6715 0
0 0 0 679 311781 -6300 0
0 0 0 691 312472 -5609 0
0 0 0 527 312999 -5082 0
0 0 0 566 313565 -4516 0
0 0 0 618 314183 -3898 0
0 0 0 615 314798 -3283 0
0 0 0 633 315431 -2650 0
19 1 S106 672 316103 -1978 0
19 1 S106 684 316787 -1294 0
19 1 S106 683 317470 -611 0
19 2 S106 640 318110 29 0
19 2 S106 598 318708 627 0
19 2 S106 614 319322 1241 0
19 2 S106 645 319967 1886 0
19 2 S106 714 320681 2600 0
19 2 S106 778 321459 3378 0
19 2 S106 760 322219 4138 0
19 2 S106 753 322972 4891 0
19 2 S106 727 323699 5618 0
19 2 S106 729 324428 6347 0
0 0 0 715 325143 -10411 0
0 0 0 709 325852 -9702 0
0 0 0 696 326548 -9006 0
0 0 0 668 327216 -8338 0
0 0 0 637 327853 -7701 0
0 0 0 640 328493 -7061 0
0 0 0 656 329149 -6405 0
0 0 0 673 329822 -5732 0
0 0 0 686 330508 -5046 0
0 0 0 673 331181 -4373 0
0 0 0 691 331872 -3682 0
0 0 0 707 332579 -2975 0
0 0 0 724 333303 -2251 0
20 1 S112 738 334041 -1513 0
20 1 S112 718 334759 -795 0
20 1 S112 723 335482 -72 0
20 2 S112 719 336201 647 0
20 2 S112 715 336916 1362 0
20 2 S112 704 337620 2066 0
20 2 S112 686 338306 2752 0
20 2 S112 687 338993 3439 0
20 2 S112 688 339681 4127 0
20 2 S112 653 340334 4780 0
20 2 S112 639 340973 5419 0
20 2 S112 639 341612 6058 0
20 2 S112 610 342222 6668 0
0 0 0 590 342812 -8691 0
0 0 0 606 343418 -8085 0
0 0 0 613 344031 -7472 0
0 0 0 636 344667 -6836 0
0 0 0 640 345307 -6196 0
0 0 0 616 345923 -5580 0
0 0 0 590 346513 -4990 0
0 0 0 604 347117 -4386 0
0 0 0 633 347750 -3753 0
0 0 0 671 348421 -3082 0
0 0 0 710 349131 -2372 0
21 1 S106 712 349843 -1660 0
21 1 S106 745 350588 -915 0
21 1 S106 750 351338 -165 0
21 2 S106 740 352078 575 0
21 2 S106 704 352782 1279 0
21 2 S106 658 353440 1937 0
21 2 S106 633 354073 2570 0
21 2 S106 635 354708 3205 0
21 2 S106 639 355347 3844 0
21 2 S106 636 355983 4480 0
21 2 S106 651 356634 5131 0
21 2 S106 688 357322 5819 0
21 2 S106 727 358049 6546 0
0 0 0 751 358800 -10442 0
0 0 0 739 359539 -9703 0
0 0 0 683 360222 -9020 0
0 0 0 653 360875 -8367 0
0 0 0 657 361532 -7710 0
0 0 0 688 362220 -7022 0
0 0 0 706 362926 -6316 0
0 0 0 703 363629 -5613 0
0 0 0 668 364297 -4945 0
0 0 0 675 364972 -4270 0
0 0 0 677 365649 -3593 0
0 0 0 679 366328 -2914 0
0 0 0 675 367003 -2239 0
22 1 S116 658 367661 -1581 0
22 1 S116 631 368292 -950 0
22 1 S116 630 368922 -320 0
22 2 S116 645 369567 325 0
22 2 S116 690 370257 1015 0
22 2 S116 703 370960 1718 0
22 2 S116 701 371661 2419 0
22 2 S116 712 372373 3131 0
22 2 S116 733 373106 3864 0
22 2 S116 735 373841 4599 0
22 2 S116 724 374565 5323 0
22 2 S116 739 375304 6062 0
22 2 S116 741 376045 6803 0
0 0 0 726 376771 -8369 0
0 0 0 688 377459 -7681 0
0 0 0 677 378136 -7004 0
0 0 0 635 378771 -6369 0
0 0 0 607 379378 -5762 0
0 0 0 588 379966 -5174 0
0 0 0 589 380555 -4585 0
0 0 0 574 381129 -4011 0
0 0 0 565 381694 -3446 0
0 0 0 572 382266 -2874 0
0 0 0 594 382860 -2280 0
23 1 S112 634 383494 -1646 0
23 1 S112 687 384181 -959 0
23 1 S112 691 384872 -268 0
23 2 S112 731 385603 463 0
23 2 S112 755 386358 1218 0
23 2 S112 730 387088 1948 0
23 2 S112 697 387785 2645 0
23 2 S112 641 388426 3286 0
23 2 S112 608 389034 3894 0
23 2 S112 618 389652 4512 0
23 2 S112 629 390281 5141 0
23 2 S112 642 390923 5783 0
23 2 S112 621 391544 6404 0
23 2 S112 588 392132 6992 0
0 0 0 603 392735 -8586 0
0 0 0 600 393335 -7986 0
0 0 0 596 393931 -7390 0
0 0 0 569 394500 -6821 0
0 0 0 563 395063 -6258 0
0 0 0 549 395612 -5709 0
0 0 0 543 396155 -5166 0
0 0 0 533 396688 -4633 0
0 0 0 548 397236 -4085 0
0 0 0 567 397803 -3518 0
0 0 0 582 398385 -2936 0
0 0 0 563 398948 -2373 0
24 1 S106 560 399508 -1813 0
24 1 S106 562 400070 -1251 0
24 1 S106 570 400640 -681 0
24 1 S106 585 401225 -96 0
24 2 S106 586 401811 490 0
24 2 S106 594 402405 1084 0
24 2 S106 626 403031 1710 0
24 2 S106 637 403668 2347 0
24 2 S106 644 404312 2991 0
24 2 S106 604 404916 3595 0
24 2 S106 586 405502 4181 0
24 2 S106 585 406087 4766 0
24 2 S106 599 406686 5365 0
24 2 S106 628 407314 5993 0
24 2 S106 640 407954 6633 0
0 0 0 650 408604 -8052 0
0 0 0 624 409228 -7428 0
0 0 0 603 409831 -6825 0
0 0 0 611 410442 -6214 0
0 0 0 623 411065 -5591 0
0 0 0 653 411718 -4938 0
0 0 0 672 412390 -4266 0
0 0 0 630 413020 -3636 0
0 0 0 612 413632 -3024 0
0 0 0 634 414266 -2390 0
25 1 S102 681 414947 -1709 0
25 1 S102 703 415650 -1006 0
25 1 S102 724 416374 -282 0
25 2 S102 730 417104 448 0
25 2 S102 691 417795 1139 0
25 2 S102 668 418463 1807 0
25 2 S102 664 419127 2471 0
25 2 S102 662 419789 3133 0
25 2 S102 678 420467 3811 0
25 2 S102 655 421122 4466 0
25 2 S102 645 421767 5111 0
25 2 S102 663 422430 5774 0
25 2 S102 675 423105 6449 0
0 0 0 698 423803 -6745 0
0 0 0 687 424490 -6058 0
0 0 0 666 425156 -5392 0
0 0 0 667 425823 -4725 0
0 0 0 657 426480 -4068 0
0 0 0 661 427141 -3407 0
0 0 0 637 427778 -2770 0
0 0 0 609 428387 -2161 0
26 1 S116 617 429004 -1544 0
26 1 S116 633 429637 -911 0
26 1 S116 670 430307 -241 0
26 2 S116 696 431003 455 0
26 2 S116 698 431701 1153 0
26 2 S116 675 432376 1828 0
26 2 S116 681 433057 2509 0
26 2 S116 685 433742 3194 0
26 2 S116 697 434439 3891 0
26 2 S116 670 435109 4561 0
26 2 S116 671 435780 5232 0
26 2 S116 1116 436896 6348 1
0 0 0 1069 437965 -6542 1
0 0 0 571 438536 -5971 0
0 0 0 566 439102 -5405 0
0 0 0 576 439678 -4829 0
0 0 0 592 440270 -4237 0
0 0 0 636 440906 -3601 0
0 0 0 630 441536 -2971 0
0 0 0 647 442183 -2324 0
27 1 S106 717 442900 -1607 0
27 1 S106 781 443681 -826 0
27 1 S106 777 444458 -49 0
27 2 S106 770 445228 721 0
27 2 S106 801 446029 1522 0
27 2 S106 437 446466 1959 0
27 2 S106 694 447160 2653 0
27 2 S106 820 447980 3473 0
27 2 S106 782 448762 4255 0
27 2 S106 771 449533 5026 0
27 2 S106 781 450314 5807 0
27 2 S106 766 451080 6573 0
0 0 0 745 451825 -6641 0
0 0 0 705 452530 -5936 0
0 0 0 429 452959 -5507 0
0 0 0 813 453772 -4694 0
0 0 0 681 454453 -4013 0
0 0 0 643 455096 -3370 0
0 0 0 610 455706 -2760 0
0 0 0 435 456141 -2325 0
28 1 S102 767 456908 -1558 0
28 1 S102 673 457581 -885 0
28 1 S102 709 458290 -176 0
28 2 S102 738 459028 562 0
28 2 S102 724 459752 1286 0
28 2 S102 728 460480 2014 0
28 2 S102 756 461236 2770 0
28 2 S102 779 462015 3549 0
28 2 S102 771 462786 4320 0
28 2 S102 431 463217 4751 0
28 2 S102 843 464060 5594 0
28 2 S102 771 464831 6365 0
0 0 0 733 465564 -11802 0
0 0 0 726 466290 -11076 0
0 0 0 721 467011 -10355 0
0 0 0 698 467709 -9657 0
0 0 0 647 468356 -9010 0
0 0 0 631 468987 -8379 0
0 0 0 623 469610 -7756 0
0 0 0 620 470230 -7136 0
0 0 0 607 470837 -6529 0
0 0 0 612 471449 -5917 0
0 0 0 594 472043 -5323 0
0 0 0 607 472650 -4716 0
0 0 0 622 473272 -4094 0
0 0 0 649 473921 -3445 0
0 0 0 669 474590 -2776 0
0 0 0 672 475262 -2104 0
29 1 S112 690 475952 -1414 0
29 1 S112 688 476640 -726 0
29 1 S112 682 477322 -44 0
29 2 S112 679 478001 635 0
29 2 S112 663 478664 1298 0
29 2 S112 639 479303 1937 0
29 2 S112 628 479931 2565 0
29 2 S112 626 480557 3191 0
29 2 S112 633 481190 3824 0
29 2 S112 598 481788 4422 0
29 2 S112 592 482380 5014 0
29 2 S112 602 482982 5616 0
29 2 S112 613 483595 6229 0
29 2 S112 634 484229 6863 0
0 0 0 640 484869 -7152 0
0 0 0 606 485475 -6546 0
0 0 0 585 486060 -5961 0
0 0 0 593 486653 -5368 0
0 0 0 600 487253 -4768 0
0 0 0 600 487853 -4168 0
0 0 0 607 488460 -3561 0
0 0 0 597 489057 -2964 0
0 0 0 619 489676 -2345 0
30 1 S112 578 490254 -1767 0
30 1 S112 570 490824 -1197 0
30 1 S112 589 491413 -608 0
30 2 S112 615 492028 7 0
30 2 S112 652 492680 659 0
30 2 S112 680 493360 1339 0
30 2 S112 683 494043 2022 0
30 2 S112 702 494745 2724 0
30 2 S112 709 495454 3433 0
30 2 S112 693 496147 4126 0
30 2 S112 669 496816 4795 0
30 2 S112 605 497421 5400 0
30 2 S112 580 498001 5980 0
30 2 S112 578 498579 6558 0
0 0 0 576 499155 -8881 0
0 0 0 571 499726 -8310 0
0 0 0 574 500300 -7736 0
0 0 0 562 500862 -7174 0
0 0 0 550 501412 -6624 0
0 0 0 537 501949 -6087 0
0 0 0 536 502485 -5551 0
0 0 0 546 503031 -5005 0
0 0 0 570 503601 -4435 0
0 0 0 626 504227 -3809 0
0 0 0 681 504908 -3128 0
0 0 0 703 505611 -2425 0
31 1 S106 707 506318 -1718 0
31 1 S106 683 507001 -1035 0
31 1 S106 699 507700 -336 0
31 2 S106 698 508398 362 0
31 2 S106 691 509089 1053 0
31 2 S106 675 509764 1728 0
31 2 S106 637 510401 2365 0
31 2 S106 648 511049 3013 0
31 2 S106 640 511689 3653 0
31 2 S106 641 512330 4294 0
31 2 S106 640 512970 4934 0
31 2 S106 588 513558 5522 0
31 2 S106 596 514154 6118 0
31 2 S106 601 514755 6719 0
0 0 0 625 515380 -8787 0
0 0 0 666 516046 -8121 0
0 0 0 691 516737 -7430 0
0 0 0 693 517430 -6737 0
0 0 0 633 518063 -6104 0
0 0 0 615 518678 -5489 0
0 0 0 626 519304 -4863 0
0 0 0 642 519946 -4221 0
0 0 0 677 520623 -3544 0
0 0 0 667 521290 -2877 0
0 0 0 679 521969 -2198 0
32 1 S102 704 522673 -1494 0
32 1 S102 715 523388 -779 0
32 1 S102 721 524109 -58 0
32 2 S102 695 524804 637 0
32 2 S102 666 525470 1303 0
32 2 S102 659 526129 1962 0
32 2 S102 659 526788 2621 0
32 2 S102 671 527459 3292 0
32 2 S102 691 528150 3983 0
32 2 S102 690 528840 4673 0
32 2 S102 678 529518 5351 0
32 2 S102 641 530159 5992 0
32 2 S102 574 530733 6566 0
0 0 0 562 531295 -10594 0
0 0 0 553 531848 -10041 0
0 0 0 555 532403 -9486 0
0 0 0 575 532978 -8911 0
0 0 0 603 533581 -8308 0
0 0 0 651 534232 -7657 0
0 0 0 679 534911 -6978 0
0 0 0 692 535603 -6286 0
0 0 0 653 536256 -5633 0
0 0 0 649 536905 -4984 0
0 0 0 669 537574 -4315 0
0 0 0 698 538272 -3617 0
0 0 0 705 538977 -2912 0
0 0 0 678 539655 -2234 0
33 1 S112 681 540336 -1553 0
33 1 S112 678 541014 -875 0
33 1 S112 686 541700 -189 0
33 2 S112 683 542383 494 0
33 2 S112 687 543070 1181 0
33 2 S112 688 543758 1869 0
33 2 S112 675 544433 2544 0
33 2 S112 666 545099 3210 0
33 2 S112 656 545755 3866 0
33 2 S112 495 546250 4361 0
33 2 S112 604 546854 4965 0
33 2 S112 677 547531 5642 0
33 2 S112 666 548197 6308 0
33 2 S112 669 548866 6977 0
0 0 0 643 549509 -10218 0
0 0 0 603 550112 -9615 0
0 0 0 603 550715 -9012 0
0 0 0 615 551330 -8397 0
0 0 0 606 551936 -7791 0
0 0 0 616 552552 -7175 0
0 0 0 577 553129 -6598 0
0 0 0 557 553686 -6041 0
0 0 0 557 554243 -5484 0
0 0 0 577 554820 -4907 0
0 0 0 609 555429 -4298 0
0 0 0 666 556095 -3632 0
0 0 0 709 556804 -2923 0
0 0 0 715 557519 -2208 0
34 1 S106 685 558204 -1523 0
34 1 S106 674 558878 -849 0
34 1 S106 667 559545 -182 0
34 2 S106 663 560208 481 0
34 2 S106 663 560871 1144 0
34 2 S106 660 561531 1804 0
34 2 S106 653 562184 2457 0
34 2 S106 635 562819 3092 0
34 2 S106 601 563420 3693 0
34 2 S106 609 564029 4302 0
34 2 S106 621 564650 4923 0
34 2 S106 1110 565760 6033 1
34 2 S106 661 566421 6694 0
0 0 0 634 567055 -9217 0
0 0 0 416 567471 -8801 0
0 0 0 760 568231 -8041 0
0 0 0 1140 569371 -6901 1
0 0 0 1060 570431 -5841 1
0 0 0 568 570999 -5273 0
0 0 0 549 571548 -4724 0
0 0 0 535 572083 -4189 0
0 0 0 545 572628 -3644 0
0 0 0 590 573218 -3054 0
0 0 0 715 573933 -2339 0
35 1 S102 813 574746 -1526 0
35 1 S102 845 575591 -681 0
35 2 S102 811 576402 130 0
35 2 S102 791 577193 921 0
35 2 S102 1009 578202 1930 1
35 2 S102 792 578994 2722 0
35 2 S102 803 579797 3525 0
35 2 S102 773 580570 4298 0
35 2 S102 749 581319 5047 0
35 2 S102 731 582050 5778 0
35 2 S102 436 582486 6214 0
35 2 S102 731 583217 6945 0
0 0 0 684 583901 -6927 0
0 0 0 480 584381 -6447 0
0 0 0 567 584948 -5880 0
0 0 0 1056 586004 -4824 1
0 0 0 572 586576 -4252 0
0 0 0 553 587129 -3699 0
0 0 0 551 587680 -3148 0
0 0 0 552 588232 -2596 0
36 1 S106 624 588856 -1972 0
36 1 S106 738 589594 -1234 0
36 1 S106 788 590382 -446 0
36 2 S106 772 591154 326 0
36 2 S106 759 591913 1085 0
36 2 S106 772 592685 1857 0
36 2 S106 789 593474 2646 0
36 2 S106 813 594287 3459 0
36 2 S106 821 595108 4280 0
36 2 S106 831 595939 5111 0
36 2 S106 816 596755 5927 0
36 2 S106 809 597564 6736 0
0 0 0 1209 598773 -7423 1
0 0 0 757 599530 -6666 0
0 0 0 693 600223 -5973 0
0 0 0 665 600888 -5308 0
0 0 0 623 601511 -4685 0
0 0 0 615 602126 -4070 0
0 0 0 637 602763 -3433 0
0 0 0 676 603439 -2757 0
0 0 0 742 604181 -2015 0
37 1 S116 787 604968 -1228 0
37 1 S116 784 605752 -444 0
37 2 S116 790 606542 346 0
37 2 S116 801 607343 1147 0
37 2 S116 798 608141 1945 0
37 2 S116 786 608927 2731 0
37 2 S116 1210 610137 3941 1
37 2 S116 741 610878 4682 0
37 2 S116 429 611307 5111 0
37 2 S116 761 612068 5872 0
37 2 S116 724 612792 6596 0
0 0 0 1160 613952 -10879 1
0 0 0 623 614575 -10256 0
0 0 0 632 615207 -9624 0
0 0 0 644 615851 -8980 0
0 0 0 672 616523 -8308 0
0 0 0 682 617205 -7626 0
0 0 0 685 617890 -6941 0
0 0 0 610 618500 -6331 0
0 0 0 635 619135 -5696 0
0 0 0 708 619843 -4988 0
0 0 0 792 620635 -4196 0
0 0 0 825 621460 -3371 0
0 0 0 817 622277 -2554 0
0 0 0 454 622731 -2100 0
38 1 S102 751 623482 -1349 0
38 1 S102 824 624306 -525 0
38 2 S102 823 625129 298 0
38 2 S102 787 625916 1085 0
38 2 S102 793 626709 1878 0
38 2 S102 770 627479 2648 0
38 2 S102 751 628230 3399 0
38 2 S102 730 628960 4129 0
38 2 S102 666 629626 4795 0
38 2 S102 618 630244 5413 0
38 2 S102 615 630859 6028 0
38 2 S102 619 631478 6647 0
0 0 0 630 632108 -8903 0
0 0 0 668 632776 -8235 0
0 0 0 708 633484 -7527 0
0 0 0 737 634221 -6790 0
0 0 0 730 634951 -6060 0
0 0 0 673 635624 -5387 0
0 0 0 640 636264 -4747 0
0 0 0 638 636902 -4109 0
0 0 0 645 637547 -3464 0
0 0 0 667 638214 -2797 0
0 0 0 701 638915 -2096 0
39 1 S116 731 639646 -1365 0
39 1 S116 727 640373 -638 0
39 2 S116 681 641054 43 0
39 2 S116 701 641755 744 0
39 2 S116 698 642453 1442 0
39 2 S116 698 643151 2140 0
39 2 S116 692 643843 2832 0
39 2 S116 676 644519 3508 0
39 2 S116 679 645198 4187 0
39 2 S116 699 645897 4886 0
39 2 S116 701 646598 5587 0
39 2 S116 694 647292 6281 0
39 2 S116 660 647952 6941 0
0 0 0 633 648585 -6219 0
0 0 0 623 649208 -5596 0
0 0 0 621 649829 -4975 0
0 0 0 622 650451 -4353 0
0 0 0 649 651100 -3704 0
0 0 0 656 651756 -3048 0
0 0 0 632 652388 -2416 0
40 1 S112 611 652999 -1805 0
40 1 S112 623 653622 -1182 0
40 1 S112 645 654267 -537 0
40 2 S112 697 654964 160 0
40 2 S112 746 655710 906 0
40 2 S112 754 656464 1660 0
40 2 S112 733 657197 2393 0
40 2 S112 744 657941 3137 0
40 2 S112 736 658677 3873 0
40 2 S112 723 659400 4596 0
40 2 S112 712 660112 5308 0
40 2 S112 691 660803 5999 0
40 2 S112 677 661480 6676 0
0 0 0 644 662124 -187029 0
0 0 0 645 662769 -186384 0
0 0 0 638 663407 -185746 0
0 0 0 640 664047 -185106 0
0 0 0 613 664660 -184493 0
0 0 0 582 665242 -183911 0
0 0 0 577 665819 -183334 0
0 0 0 601 666420 -182733 0
0 0 0 637 667057 -182096 0
0 0 0 681 667738 -181415 0
0 0 0 718 668456 -180697 0
0 0 0 677 669133 -180020 0
0 0 0 639 669772 -179381 0
0 0 0 588 670360 -178793 0
0 0 0 589 670949 -178204 0
0 0 0 588 671537 -177616 0
0 0 0 604 672141 -177012 0
0 0 0 634 672775 -176378 0
0 0 0 626 673401 -175752 0
0 0 0 583 673984 -175169 0
0 0 0 555 674539 -174614 0
0 0 0 546 675085 -174068 0
0 0 0 531 675616 -173537 0
0 0 0 542 676158 -172995 0
0 0 0 520 676678 -172475 0
0 0 0 522 677200 -171953 0
0 0 0 530 677730 -171423 0
0 0 0 540 678270 -170883 0
0 0 0 557 678827 -170326 0
0 0 0 594 679421 -169732 0
0 0 0 620 680041 -169112 0
0 0 0 637 680678 -168475 0
0 0 0 644 681322 -167831 0
0 0 0 651 681973 -167180 0
0 0 0 636 682609 -166544 0
0 0 0 634 683243 -165910 0
0 0 0 620 683863 -165290 0
0 0 0 615 684478 -164675 0
0 0 0 594 685072 -164081 0
0 0 0 575 685647 -163506 0
0 0 0 574 686221 -162932 0
0 0 0 545 686766 -162387 0
0 0 0 553 687319 -161834 0
0 0 0 541 687860 -161293 0
0 0 0 554 688414 -160739 0
0 0 0 600 689014 -160139 0
0 0 0 694 689708 -159445 0
0 0 0 756 690464 -158689 0
0 0 0 782 691246 -157907 0
0 0 0 765 692011 -157142 0
0 0 0 742 692753 -156400 0
0 0 0 732 693485 -155668 0
0 0 0 709 694194 -154959 0
0 0 0 668 694862 -154291 0
0 0 0 630 695492 -153661 0
0 0 0 610 696102 -153051 0
0 0 0 622 696724 -152429 0
0 0 0 650 697374 -151779 0
0 0 0 703 698077 -151076 0
0 0 0 741 698818 -150335 0
0 0 0 757 699575 -149578 0
0 0 0 788 700363 -148790 0
0 0 0 779 701142 -148011 0
0 0 0 782 701924 -147229 0
0 0 0 762 702686 -146467 0
0 0 0 740 703426 -145727 0
0 0 0 717 704143 -145010 0
0 0 0 670 704813 -144340 0
0 0 0 659 705472 -143681 0
0 0 0 662 706134 -143019 0
0 0 0 709 706843 -142310 0
0 0 0 762 707605 -141548 0
0 0 0 800 708405 -140748 0
0 0 0 797 709202 -139951 0
0 0 0 790 709992 -139161 0
0 0 0 804 710796 -138357 0
0 0 0 802 711598 -137555 0
0 0 0 789 712387 -136766 0
0 0 0 773 713160 -135993 0
0 0 0 725 713885 -135268 0
0 0 0 663 714548 -134605 0
0 0 0 612 715160 -133993 0
0 0 0 565 715725 -133428 0
0 0 0 565 716290 -132863 0
0 0 0 568 716858 -132295 0
0 0 0 601 717459 -131694 0
0 0 0 668 718127 -131026 0
0 0 0 733 718860 -130293 0
0 0 0 708 719568 -129585 0
0 0 0 782 720350 -128803 0
0 0 0 786 721136 -128017 0
0 0 0 827 721963 -127190 0
0 0 0 825 722788 -126365 0
0 0 0 764 723552 -125601 0
0 0 0 751 724303 -124850 0
0 0 0 746 725049 -124104 0
0 0 0 1169 726218 -122935 1
0 0 0 684 726902 -122251 0
0 0 0 627 727529 -121624 0
0 0 0 616 728145 -121008 0
0 0 0 1158 729303 -119850 1
0 0 0 1154 730457 -118696 1
0 0 0 645 731102 -118051 0
0 0 0 637 731739 -117414 0
0 0 0 658 732397 -116756 0
0 0 0 686 733083 -116070 0
0 0 0 689 733772 -115381 0
0 0 0 663 734435 -114718 0
0 0 0 650 735085 -114068 0
0 0 0 666 735751 -113402 0
0 0 0 653 736404 -112749 0
0 0 0 726 737130 -112023 0
0 0 0 773 737903 -111250 0
0 0 0 751 738654 -110499 0
0 0 0 696 739350 -109803 0
0 0 0 694 740044 -109109 0
0 0 0 688 740732 -108421 0
0 0 0 697 741429 -107724 0
0 0 0 686 742115 -107038 0
0 0 0 680 742795 -106358 0
0 0 0 669 743464 -105689 0
0 0 0 644 744108 -105045 0
0 0 0 641 744749 -104404 0
0 0 0 637 745386 -103767 0
0 0 0 652 746038 -103115 0
0 0 0 668 746706 -102447 0
0 0 0 655 747361 -101792 0
0 0 0 625 747986 -101167 0
0 0 0 597 748583 -100570 0
0 0 0 583 749166 -99987 0
0 0 0 577 749743 -99410 0
0 0 0 602 750345 -98808 0
0 0 0 651 750996 -98157 0
0 0 0 715 751711 -97442 0
0 0 0 753 752464 -96689 0
0 0 0 765 753229 -95924 0
0 0 0 763 753992 -95161 0
0 0 0 751 754743 -94410 0
0 0 0 755 755498 -93655 0
0 0 0 734 756232 -92921 0
0 0 0 716 756948 -92205 0
0 0 0 685 757633 -91520 0
0 0 0 687 758320 -90833 0
0 0 0 714 759034 -90119 0
0 0 0 718 759752 -89401 0
0 0 0 754 760506 -88647 0
0 0 0 698 761204 -87949 0
0 0 0 670 761874 -87279 0
0 0 0 670 762544 -86609 0
0 0 0 653 763197 -85956 0
0 0 0 644 763841 -85312 0
0 0 0 646 764487 -84666 0
0 0 0 645 765132 -84021 0
0 0 0 650 765782 -83371 0
0 0 0 646 766428 -82725 0
0 0 0 616 767044 -82109 0
0 0 0 602 767646 -81507 0
0 0 0 596 768242 -80911 0
0 0 0 624 768866 -80287 0
0 0 0 678 769544 -79609 0
0 0 0 747 770291 -78862 0
0 0 0 758 771049 -78104 0
0 0 0 747 771796 -77357 0
0 0 0 733 772529 -76624 0
0 0 0 679 773208 -75945 0
0 0 0 625 773833 -75320 0
0 0 0 626 774459 -74694 0
0 0 0 660 775119 -74034 0
0 0 0 677 775796 -73357 0
0 0 0 698 776494 -72659 0
0 0 0 672 777166 -71987 0
0 0 0 678 777844 -71309 0
0 0 0 691 778535 -70618 0
0 0 0 706 779241 -69912 0
0 0 0 732 779973 -69180 0
0 0 0 751 780724 -68429 0
0 0 0 750 781474 -67679 0
0 0 0 729 782203 -66950 0
0 0 0 671 782874 -66279 0
0 0 0 635 783509 -65644 0
0 0 0 628 784137 -65016 0
0 0 0 636 784773 -64380 0
0 0 0 667 785440 -63713 0
0 0 0 694 786134 -63019 0
0 0 0 429 786563 -62590 0
0 0 0 871 787434 -61719 0
0 0 0 799 788233 -60920 0
0 0 0 791 789024 -60129 0
0 0 0 778 789802 -59351 0
0 0 0 769 790571 -58582 0
0 0 0 733 791304 -57849 0
0 0 0 692 791996 -57157 0
0 0 0 669 792665 -56488 0
0 0 0 673 793338 -55815 0
0 0 0 708 794046 -55107 0
0 0 0 1140 795186 -53967 1
0 0 0 690 795876 -53277 0
0 0 0 683 796559 -52594 0
0 0 0 669 797228 -51925 0
0 0 0 693 797921 -51232 0
0 0 0 1151 799072 -50081 1
0 0 0 739 799811 -49342 0
0 0 0 759 800570 -48583 0
0 0 0 798 801368 -47785 0
0 0 0 1217 802585 -46568 1
0 0 0 806 803391 -45762 0
0 0 0 796 804187 -44966 0
0 0 0 759 804946 -44207 0
0 0 0 728 805674 -43479 0
0 0 0 708 806382 -42771 0
0 0 0 687 807069 -42084 0
0 0 0 633 807702 -41451 0
0 0 0 621 808323 -40830 0
0 0 0 628 808951 -40202 0
0 0 0 652 809603 -39550 0
0 0 0 712 810315 -38838 0
0 0 0 756 811071 -38082 0
0 0 0 771 811842 -37311 0
0 0 0 1183 813025 -36128 1
0 0 0 693 813718 -35435 0
0 0 0 1096 814814 -34339 1
0 0 0 613 815427 -33726 0
0 0 0 574 816001 -33152 0
0 0 0 587 816588 -32565 0
0 0 0 628 817216 -31937 0
0 0 0 645 817861 -31292 0
0 0 0 663 818524 -30629 0
0 0 0 637 819161 -29992 0
0 0 0 689 819850 -29303 0
0 0 0 742 820592 -28561 0
0 0 0 789 821381 -27772 0
0 0 0 801 822182 -26971 0
0 0 0 806 822988 -26165 0
0 0 0 786 823774 -25379 0
0 0 0 768 824542 -24611 0
0 0 0 699 825241 -23912 0
0 0 0 669 825910 -23243 0
0 0 0 656 826566 -22587 0
0 0 0 661 827227 -21926 0
0 0 0 429 827656 -21497 0
0 0 0 814 828470 -20683 0
0 0 0 726 829196 -19957 0
0 0 0 1185 830381 -18772 1
0 0 0 704 831085 -18068 0
0 0 0 683 831768 -17385 0
0 0 0 653 832421 -16732 0
0 0 0 665 833086 -16067 0
0 0 0 1235 834321 -14832 1
0 0 0 781 835102 -14051 0
0 0 0 813 835915 -13238 0
0 0 0 827 836742 -12411 0
0 0 0 819 837561 -11592 0
0 0 0 831 838392 -10761 0
0 0 0 849 839241 -9912 0
0 0 0 834 840075 -9078 0
0 0 0 829 840904 -8249 0
0 0 0 828 841732 -7421 0
0 0 0 823 842555 -6598 0
0 0 0 781 843336 -5817 0
0 0 0 789 844125 -5028 0
0 0 0 777 844902 -4251 0
0 0 0 721 845623 -3530 0
0 0 0 1064 846687 -2466 1
41 1 S102 584 847271 -1882 0
41 1 S102 559 847830 -1323 0
41 1 S102 557 848387 -766 0
41 1 S102 575 848962 -191 0
41 2 S102 654 849616 463 0
41 2 S102 779 850395 1242 0
41 2 S102 1018 851413 2260 1
41 2 S102 743 852156 3003 0
41 2 S102 776 852932 3779 0
41 2 S102 840 853772 4619 0
41 2 S102 1053 854825 5672 1
41 2 S102 819 855644 6491 0
0 0 0 789 856433 -6198 0
0 0 0 794 857227 -5404 0
0 0 0 795 858022 -4609 0
0 0 0 779 858801 -3830 0
0 0 0 746 859547 -3084 0
0 0 0 688 860235 -2396 0
42 1 S112 658 860893 -1738 0
42 1 S112 687 861580 -1051 0
42 1 S112 700 862280 -351 0
42 2 S112 745 863025 394 0
42 2 S112 780 863805 1174 0
42 2 S112 768 864573 1942 0
42 2 S112 752 865325 2694 0
42 2 S112 757 866082 3451 0
42 2 S112 749 866831 4200 0
42 2 S112 734 867565 4934 0
42 2 S112 676 868241 5610 0
42 2 S112 637 868878 6247 0
42 2 S112 640 869518 6887 0
0 0 0 645 870163 -8483 0
0 0 0 648 870811 -7835 0
0 0 0 658 871469 -7177 0
0 0 0 616 872085 -6561 0
0 0 0 634 872719 -5927 0
0 0 0 626 873345 -5301 0
0 0 0 616 873961 -4685 0
0 0 0 604 874565 -4081 0
0 0 0 562 875127 -3519 0
0 0 0 561 875688 -2958 0
0 0 0 562 876250 -2396 0
43 1 S116 562 876812 -1834 0
43 1 S116 578 877390 -1256 0
43 1 S116 602 877992 -654 0
43 1 S116 630 878622 -24 0
43 2 S116 636 879258 612 0
43 2 S116 632 879890 1244 0
43 2 S116 634 880524 1878 0
43 2 S116 639 881163 2517 0
43 2 S116 654 881817 3171 0
43 2 S116 663 882480 3834 0
43 2 S116 648 883128 4482 0
43 2 S116 649 883777 5131 0
43 2 S116 662 884439 5793 0
43 2 S116 680 885119 6473 0
0 0 0 692 885811 -7109 0
0 0 0 654 886465 -6455 0
0 0 0 624 887089 -5831 0
0 0 0 624 887713 -5207 0
0 0 0 633 888346 -4574 0
0 0 0 649 888995 -3925 0
0 0 0 680 889675 -3245 0
0 0 0 657 890332 -2588 0
44 1 S102 621 890953 -1967 0
44 1 S102 602 891555 -1365 0
44 1 S102 609 892164 -756 0
44 1 S102 643 892807 -113 0
44 2 S102 682 893489 569 0
44 2 S102 716 894205 1285 0
44 2 S102 714 894919 1999 0
44 2 S102 740 895659 2739 0
44 2 S102 744 896403 3483 0
44 2 S102 741 897144 4224 0
44 2 S102 696 897840 4920 0
44 2 S102 659 898499 5579 0
44 2 S102 661 899160 6240 0
44 2 S102 657 899817 6897 0
0 0 0 692 900509 -8541 0
0 0 0 733 901242 -7808 0
0 0 0 691 901933 -7117 0
0 0 0 670 902603 -6447 0
0 0 0 679 903282 -5768 0
0 0 0 702 903984 -5066 0
0 0 0 705 904689 -4361 0
0 0 0 735 905424 -3626 0
0 0 0 785 906209 -2841 0
0 0 0 800 907009 -2041 0
45 1 S116 788 907797 -1253 0
45 1 S116 756 908553 -497 0
45 2 S116 750 909303 253 0
45 2 S116 739 910042 992 0
45 2 S116 724 910766 1716 0
45 2 S116 689 911455 2405 0
45 2 S116 678 912133 3083 0
45 2 S116 703 912836 3786 0
45 2 S116 1161 913997 4947 1
45 2 S116 645 914642 5592 0
45 2 S116 610 915252 6202 0
45 2 S116 622 915874 6824 0
0 0 0 641 916515 -10921 0
0 0 0 682 917197 -10239 0
0 0 0 718 917915 -9521 0
0 0 0 712 918627 -8809 0
0 0 0 685 919312 -8124 0
0 0 0 714 920026 -7410 0
0 0 0 741 920767 -6669 0
0 0 0 778 921545 -5891 0
0 0 0 765 922310 -5126 0
0 0 0 710 923020 -4416 0
0 0 0 695 923715 -3721 0
0 0 0 702 924417 -3019 0
0 0 0 714 925131 -2305 0
46 1 S102 737 925868 -1568 0
46 1 S102 725 926593 -843 0
46 1 S102 747 927340 -96 0
46 2 S102 755 928095 659 0
46 2 S102 753 928848 1412 0
46 2 S102 712 929560 2124 0
46 2 S102 694 930254 2818 0
46 2 S102 700 930954 3518 0
46 2 S102 694 931648 4212 0
46 2 S102 696 932344 4908 0
46 2 S102 686 933030 5594 0
46 2 S102 643 933673 6237 0
46 2 S102 614 934287 6851 0
0 0 0 608 934895 -8456 0
0 0 0 622 935517 -7834 0
0 0 0 641 936158 -7193 0
0 0 0 665 936823 -6528 0
0 0 0 656 937479 -5872 0
0 0 0 653 938132 -5219 0
0 0 0 612 938744 -4607 0
0 0 0 585 939329 -4022 0
0 0 0 556 939885 -3466 0
0 0 0 551 940436 -2915 0
0 0 0 540 940976 -2375 0
47 1 S112 547 941523 -1828 0
47 1 S112 557 942080 -1271 0
47 1 S112 586 942666 -685 0
47 1 S112 643 943309 -42 0
47 2 S112 677 943986 635 0
47 2 S112 673 944659 1308 0
47 2 S112 669 945328 1977 0
47 2 S112 668 945996 2645 0
47 2 S112 668 946664 3313 0
47 2 S112 644 947308 3957 0
47 2 S112 648 947956 4605 0
47 2 S112 660 948616 5265 0
47 2 S112 658 949274 5923 0
47 2 S112 680 949954 6603 0
0 0 0 693 950647 -10592 0
0 0 0 666 951313 -9926 0
0 0 0 653 951966 -9273 0
0 0 0 642 952608 -8631 0
0 0 0 636 953244 -7995 0
0 0 0 660 953904 -7335 0
0 0 0 650 954554 -6685 0
0 0 0 612 955166 -6073 0
0 0 0 610 955776 -5463 0
0 0 0 638 956414 -4825 0
0 0 0 674 957088 -4151 0
0 0 0 726 957814 -3425 0
0 0 0 754 958568 -2671 0
48 1 S116 743 959311 -1928 0
48 1 S116 752 960063 -1176 0
48 1 S116 750 960813 -426 0
48 2 S116 726 961539 300 0
48 2 S116 738 962277 1038 0
48 2 S116 736 963013 1774 0
48 2 S116 738 963751 2512 0
48 2 S116 723 964474 3235 0
48 2 S116 727 965201 3962 0
48 2 S116 719 965920 4681 0
48 2 S116 692 966612 5373 0
48 2 S116 699 967311 6072 0
48 2 S116 698 968009 6770 0
0 0 0 706 968715 -7345 0
0 0 0 689 969404 -6656 0
0 0 0 647 970051 -6009 0
0 0 0 624 970675 -5385 0
0 0 0 634 971309 -4751 0
0 0 0 628 971937 -4123 0
0 0 0 620 972557 -3503 0
0 0 0 607 973164 -2896 0
0 0 0 627 973791 -2269 0
49 1 S112 607 974398 -1662 0
49 1 S112 585 974983 -1077 0
49 1 S112 584 975567 -493 0
49 2 S112 592 976159 99 0
49 2 S112 620 976779 719 0
49 2 S112 674 977453 1393 0
49 2 S112 699 978152 2092 0
49 2 S112 690 978842 2782 0
49 2 S112 706 979548 3488 0
49 2 S112 723 980271 4211 0
49 2 S112 713 980984 4924 0
49 2 S112 685 981669 5609 0
49 2 S112 627 982296 6236 0
49 2 S112 609 982905 6845 0
0 0 0 609 983514 -10550 0
0 0 0 619 984133 -9931 0
0 0 0 628 984761 -9303 0
0 0 0 647 985408 -8656 0
0 0 0 620 986028 -8036 0
0 0 0 590 986618 -7446 0
0 0 0 585 987203 -6861 0
0 0 0 600 987803 -6261 0
0 0 0 633 988436 -5628 0
0 0 0 669 989105 -4959 0
0 0 0 706 989811 -4253 0
0 0 0 704 990515 -3549 0
0 0 0 658 991173 -2891 0
0 0 0 642 991815 -2249 0
50 1 S106 650 992465 -1599 0
50 1 S106 661 993126 -938 0
50 1 S106 684 993810 -254 0
50 2 S106 701 994511 447 0
50 2 S106 689 995200 1136 0
50 2 S106 703 995903 1839 0
50 2 S106 707 996610 2546 0
50 2 S106 694 997304 3240 0
50 2 S106 691 997995 3931 0
50 2 S106 699 998694 4630 0
50 2 S106 695 999389 5325 0
50 2 S106 666 1000055 5991 0
50 2 S106 639 1000694 6630 0
0 0 0 640 1001334 -6507 0
0 0 0 647 1001981 -5860 0
0 0 0 648 1002629 -5212 0
0 0 0 663 1003292 -4549 0
0 0 0 640 1003932 -3909 0
0 0 0 611 1004543 -3298 0
0 0 0 600 1005143 -2698 0
0 0 0 618 1005761 -2080 0
51 1 S112 650 1006411 -1430 0
51 1 S112 670 1007081 -760 0
51 1 S112 712 1007793 -48 0
51 2 S112 750 1008543 702 0
51 2 S112 753 1009296 1455 0
51 2 S112 752 1010048 2207 0
51 2 S112 739 1010787 2946 0
51 2 S112 717 1011504 3663 0
51 2 S112 694 1012198 4357 0
51 2 S112 665 1012863 5022 0
51 2 S112 653 1013516 5675 0
51 2 S112 680 1014196 6355 0
0 0 0 718 1014914 -7400 0
0 0 0 754 1015668 -6646 0
0 0 0 748 1016416 -5898 0
0 0 0 686 1017102 -5212 0
0 0 0 661 1017763 -4551 0
0 0 0 651 1018414 -3900 0
0 0 0 671 1019085 -3229 0
0 0 0 673 1019758 -2556 0
52 1 S116 655 1020413 -1901 0
52 1 S116 619 1021032 -1282 0
52 1 S116 585 1021617 -697 0
52 1 S116 576 1022193 -121 0
52 2 S116 576 1022769 455 0
52 2 S116 606 1023375 1061 0
52 2 S116 653 1024028 1714 0
52 2 S116 701 1024729 2415 0
52 2 S116 728 1025457 3143 0
52 2 S116 733 1026190 3876 0
52 2 S116 728 1026918 4604 0
52 2 S116 742 1027660 5346 0
52 2 S116 755 1028415 6101 0
52 2 S116 735 1029150 6836 0
0 0 0 735 1029885 -8112 0
0 0 0 722 1030607 -7390 0
0 0 0 689 1031296 -6701 0
0 0 0 637 1031933 -6064 0
0 0 0 578 1032511 -5486 0
0 0 0 558 1033069 -4928 0
0 0 0 548 1033617 -4380 0
0 0 0 552 1034169 -3828 0
0 0 0 543 1034712 -3285 0
0 0 0 559 1035271 -2726 0
0 0 0 576 1035847 -2150 0
53 1 S106 583 1036430 -1567 0
53 1 S106 627 1037057 -940 0
53 1 S106 673 1037730 -267 0
53 2 S106 711 1038441 444 0
53 2 S106 680 1039121 1124 0
53 2 S106 633 1039754 1757 0
53 2 S106 626 1040380 2383 0
53 2 S106 637 1041017 3020 0
53 2 S106 647 1041664 3667 0
53 2 S106 664 1042328 4331 0
53 2 S106 686 1043014 5017 0
53 2 S106 688 1043702 5705 0
53 2 S106 661 1044363 6366 0
0 0 0 672 1045035 -6457 0
0 0 0 691 1045726 -5766 0
0 0 0 703 1046429 -5063 0
0 0 0 707 1047136 -4356 0
0 0 0 1121 1048257 -3235 1
0 0 0 1124 1049381 -2111 1
54 1 S102 594 1049975 -1517 0
54 1 S102 588 1050563 -929 0
54 1 S102 606 1051169 -323 0
54 2 S102 698 1051867 375 0
54 2 S102 739 1052606 1114 0
54 2 S102 770 1053376 1884 0
54 2 S102 839 1054215 2723 0
54 2 S102 508 1054723 3231 0
54 2 S102 582 1055305 3813 0
54 2 S102 935 1056240 4748 0
54 2 S102 976 1057216 5724 1
54 2 S102 991 1058207 6715 1
0 0 0 823 1059030 -9753 0
0 0 0 1237 1060267 -8516 1
0 0 0 731 1060998 -7785 0
0 0 0 682 1061680 -7103 0
0 0 0 651 1062331 -6452 0
0 0 0 631 1062962 -5821 0
0 0 0 601 1063563 -5220 0
0 0 0 446 1064009 -4774 0
0 0 0 800 1064809 -3974 0
0 0 0 722 1065531 -3252 0
0 0 0 756 1066287 -2496 0
55 1 S106 773 1067060 -1723 0
55 1 S106 437 1067497 -1286 0
55 1 S106 841 1068338 -445 0
55 2 S106 785 1069123 340 0
55 2 S106 766 1069889 1106 0
55 2 S106 778 1070667 1884 0
55 2 S106 784 1071451 2668 0
55 2 S106 771 1072222 3439 0
55 2 S106 736 1072958 4175 0
55 2 S106 688 1073646 4863 0
55 2 S106 665 1074311 5528 0
55 2 S106 662 1074973 6190 0
55 2 S106 676 1075649 6866 0
0 0 0 684 1076333 -6542 0
0 0 0 687 1077020 -5855 0
0 0 0 713 1077733 -5142 0
0 0 0 677 1078410 -4465 0
0 0 0 635 1079045 -3830 0
0 0 0 608 1079653 -3222 0
0 0 0 565 1080218 -2657 0
0 0 0 553 1080771 -2104 0
56 1 S116 555 1081326 -1549 0
56 1 S116 574 1081900 -975 0
56 1 S116 615 1082515 -360 0
56 2 S116 658 1083173 298 0
56 2 S116 693 1083866 991 0
56 2 S116 714 1084580 1705 0
56 2 S116 693 1085273 2398 0
56 2 S116 639 1085912 3037 0
56 2 S116 626 1086538 3663 0
56 2 S116 629 1087167 4292 0
56 2 S116 650 1087817 4942 0
56 2 S116 667 1088484 5609 0
56 2 S116 687 1089171 6296 0
56 2 S116 666 1089837 6962 0
0 0 0 635 1090472 -5815 0
0 0 0 628 1091100 -5187 0
0 0 0 626 1091726 -4561 0
0 0 0 627 1092353 -3934 0
0 0 0 616 1092969 -3318 0
0 0 0 598 1093567 -2720 0
0 0 0 581 1094148 -2139 0
57 1 S106 589 1094737 -1550 0
57 1 S106 610 1095347 -940 0
57 1 S106 637 1095984 -303 0
57 2 S106 673 1096657 370 0
57 2 S106 696 1097353 1066 0
57 2 S106 737 1098090 1803 0
57 2 S106 755 1098845 2558 0
57 2 S106 736 1099581 3294 0
57 2 S106 734 1100315 4028 0
57 2 S106 714 1101029 4742 0
57 2 S106 690 1101719 5432 0
57 2 S106 659 1102378 6091 0
57 2 S106 655 1103033 6746 0
0 0 0 647 1103680 -8439 0
0 0 0 649 1104329 -7790 0
0 0 0 677 1105006 -7113 0
0 0 0 666 1105672 -6447 0
0 0 0 653 1106325 -5794 0
0 0 0 631 1106956 -5163 0
0 0 0 614 1107570 -4549 0
0 0 0 617 1108187 -3932 0
0 0 0 637 1108824 -3295 0
0 0 0 659 1109483 -2636 0
58 1 S102 688 1110171 -1948 0
58 1 S102 687 1110858 -1261 0
58 1 S102 652 1111510 -609 0
58 2 S102 647 1112157 38 0
58 2 S102 656 1112813 694 0
58 2 S102 671 1113484 1365 0
58 2 S102 678 1114162 2043 0
58 2 S102 672 1114834 2715 0
58 2 S102 696 1115530 3411 0
58 2 S102 720 1116250 4131 0
58 2 S102 714 1116964 4845 0
58 2 S102 678 1117642 5523 0
58 2 S102 622 1118264 6145 0
58 2 S102 594 1118858 6739 0
0 0 0 603 1119461 -7363 0
0 0 0 617 1120078 -6746 0
0 0 0 666 1120744 -6080 0
0 0 0 708 1121452 -5372 0
0 0 0 696 1122148 -4676 0
0 0 0 650 1122798 -4026 0
0 0 0 632 1123430 -3394 0
0 0 0 610 1124040 -2784 0
0 0 0 625 1124665 -2159 0
59 1 S112 654 1125319 -1505 0
59 1 S112 682 1126001 -823 0
59 1 S112 665 1126666 -158 0
59 2 S112 641 1127307 483 0
59 2 S112 664 1127971 1147 0
59 2 S112 668 1128639 1815 0
59 2 S112 671 1129310 2486 0
59 2 S112 677 1129987 3163 0
59 2 S112 712 1130699 3875 0
59 2 S112 706 1131405 4581 0
59 2 S112 724 1132129 5305 0
59 2 S112 728 1132857 6033 0
59 2 S112 725 1133582 6758 0
0 0 0 702 1134284 -8140 0
0 0 0 647 1134931 -7493 0
0 0 0 622 1135553 -6871 0
0 0 0 614 1136167 -6257 0
0 0 0 601 1136768 -5656 0
0 0 0 602 1137370 -5054 0
0 0 0 581 1137951 -4473 0
0 0 0 571 1138522 -3902 0
0 0 0 576 1139098 -3326 0
0 0 0 601 1139699 -2725 0
0 0 0 626 1140325 -2099 0
60 1 S102 674 1140999 -1425 0
60 1 S102 680 1141679 -745 0
60 1 S102 700 1142379 -45 0
60 2 S102 723 1143102 678 0
60 2 S102 728 1143830 1406 0
60 2 S102 725 1144555 2131 0
60 2 S102 695 1145250 2826 0
60 2 S102 659 1145909 3485 0
60 2 S102 654 1146563 4139 0
60 2 S102 655 1147218 4794 0
60 2 S102 670 1147888 5464 0
60 2 S102 657 1148545 6121 0
60 2 S102 667 1149212 6788 0
0 0 0 674 1149886 -10874 0
0 0 0 684 1150570 -10190 0
0 0 0 673 1151243 -9517 0
0 0 0 640 1151883 -8877 0
0 0 0 621 1152504 -8256 0
0 0 0 622 1153126 -7634 0
0 0 0 637 1153763 -6997 0
0 0 0 662 1154425 -6335 0
0 0 0 661 1155086 -5674 0
0 0 0 697 1155783 -4977 0
0 0 0 715 1156498 -4262 0
0 0 0 715 1157213 -3547 0
0 0 0 687 1157900 -2860 0
0 0 0 642 1158542 -2218 0
61 1 S106 640 1159182 -1578 0
61 1 S106 641 1159823 -937 0
61 1 S106 661 1160484 -276 0
61 2 S106 697 1161181 421 0
61 2 S106 717 1161898 1138 0
61 2 S106 711 1162609 1849 0
61 2 S106 683 1163292 2532 0
61 2 S106 700 1163992 3232 0
61 2 S106 705 1164697 3937 0
61 2 S106 719 1165416 4656 0
61 2 S106 704 1166120 5360 0
61 2 S106 659 1166779 6019 0
61 2 S106 658 1167437 6677 0
0 0 0 655 1168092 -5865 0
0 0 0 675 1168767 -5190 0
0 0 0 675 1169442 -4515 0
0 0 0 642 1170084 -3873 0
0 0 0 605 1170689 -3268 0
0 0 0 563 1171252 -2705 0
0 0 0 562 1171814 -2143 0
62 1 S112 591 1172405 -1552 0
62 1 S112 635 1173040 -917 0
62 1 S112 690 1173730 -227 0
62 2 S112 695 1174425 468 0
62 2 S112 729 1175154 1197 0
62 2 S112 731 1175885 1928 0
62 2 S112 731 1176616 2659 0
62 2 S112 714 1177330 3373 0
62 2 S112 730 1178060 4103 0
62 2 S112 713 1178773 4816 0
62 2 S112 697 1179470 5513 0
62 2 S112 653 1180123 6166 0
62 2 S112 621 1180744 6787 0
0 0 0 617 1181361 -10832 0
0 0 0 620 1181981 -10212 0
0 0 0 616 1182597 -9596 0
0 0 0 620 1183217 -8976 0
0 0 0 602 1183819 -8374 0
0 0 0 582 1184401 -7792 0
0 0 0 592 1184993 -7200 0
0 0 0 617 1185610 -6583 0
0 0 0 660 1186270 -5923 0
0 0 0 704 1186974 -5219 0
0 0 0 683 1187657 -4536 0
0 0 0 648 1188305 -3888 0
0 0 0 665 1188970 -3223 0
0 0 0 664 1189634 -2559 0
63 1 S102 677 1190311 -1882 0
63 1 S102 676 1190987 -1206 0
63 1 S102 700 1191687 -506 0
63 2 S102 704 1192391 198 0
63 2 S102 708 1193099 906 0
63 2 S102 672 1193771 1578 0
63 2 S102 668 1194439 2246 0
63 2 S102 673 1195112 2919 0
63 2 S102 672 1195784 3591 0
63 2 S102 677 1196461 4268 0
63 2 S102 664 1197125 4932 0
63 2 S102 669 1197794 5601 0
63 2 S102 664 1198458 6265 0
63 2 S102 668 1199126 6933 0
0 0 0 686 1199812 -9606 0
0 0 0 673 1200485 -8933 0
0 0 0 643 1201128 -8290 0
0 0 0 661 1201789 -7629 0
0 0 0 667 1202456 -6962 0
0 0 0 674 1203130 -6288 0
0 0 0 660 1203790 -5628 0
0 0 0 626 1204416 -5002 0
0 0 0 577 1204993 -4425 0
0 0 0 570 1205563 -3855 0
0 0 0 572 1206135 -3283 0
0 0 0 587 1206722 -2696 0
0 0 0 620 1207342 -2076 0
64 1 S112 663 1208005 -1413 0
64 1 S112 696 1208701 -717 0
64 1 S112 673 1209374 -44 0
64 2 S112 643 1210017 599 0
64 2 S112 641 1210658 1240 0
64 2 S112 632 1211290 1872 0
64 2 S112 636 1211926 2508 0
64 2 S112 644 1212570 3152 0
64 2 S112 652 1213222 3804 0
64 2 S112 675 1213897 4479 0
64 2 S112 721 1214618 5200 0
64 2 S112 737 1215355 5937 0
64 2 S112 739 1216094 6676 0
0 0 0 707 1216801 -6576 0
0 0 0 668 1217469 -5908 0
0 0 0 673 1218142 -5235 0
0 0 0 675 1218817 -4560 0
0 0 0 669 1219486 -3891 0
0 0 0 651 1220137 -3240 0
0 0 0 637 1220774 -2603 0
0 0 0 579 1221353 -2024 0
65 1 S106 569 1221922 -1455 0
65 1 S106 565 1222487 -890 0
65 1 S106 582 1223069 -308 0
65 2 S106 618 1223687 310 0
65 2 S106 668 1224355 978 0
65 2 S106 718 1225073 1696 0
65 2 S106 729 1225802 2425 0
65 2 S106 741 1226543 3166 0
65 2 S106 748 1227291 3914 0
65 2 S106 734 1228025 4648 0
65 2 S106 729 1228754 5377 0
65 2 S106 723 1229477 6100 0
65 2 S106 711 1230188 6811 0
0 0 0 682 1230870 -6317 0
0 0 0 688 1231558 -5629 0
0 0 0 699 1232257 -4930 0
0 0 0 705 1232962 -4225 0
0 0 0 690 1233652 -3535 0
0 0 0 647 1234299 -2888 0
0 0 0 633 1234932 -2255 0
66 1 S116 649 1235581 -1606 0
66 1 S116 681 1236262 -925 0
66 1 S116 726 1236988 -199 0
66 2 S116 724 1237712 525 0
66 2 S116 758 1238470 1283 0
66 2 S116 757 1239227 2040 0
66 2 S116 747 1239974 2787 0
66 2 S116 736 1240710 3523 0
66 2 S116 1208 1241918 4731 1
66 2 S116 702 1242620 5433 0
66 2 S116 429 1243049 5862 0
66 2 S116 714 1243763 6576 0
0 0 0 668 1244431 -11008 0
0 0 0 654 1245085 -10354 0
0 0 0 447 1245532 -9907 0
0 0 0 735 1246267 -9172 0
0 0 0 580 1246847 -8592 0
0 0 0 573 1247420 -8019 0
0 0 0 604 1248024 -7415 0
0 0 0 659 1248683 -6756 0
0 0 0 723 1249406 -6033 0
0 0 0 763 1250169 -5270 0
0 0 0 747 1250916 -4523 0
0 0 0 780 1251696 -3743 0
0 0 0 1232 1252928 -2511 1
67 1 S102 738 1253666 -1773 0
67 1 S102 699 1254365 -1074 0
67 1 S102 692 1255057 -382 0
67 2 S102 1161 1256218 779 1
67 2 S102 680 1256898 1459 0
67 2 S102 674 1257572 2133 0
67 2 S102 690 1258262 2823 0
67 2 S102 680 1258942 3503 0
67 2 S102 712 1259654 4215 0
67 2 S102 782 1260436 4997 0
67 2 S102 512 1260948 5509 0
67 2 S102 962 1261910 6471 1
0 0 0 839 1262749 -7312 0
0 0 0 780 1263529 -6532 0
0 0 0 781 1264310 -5751 0
0 0 0 769 1265079 -4982 0
0 0 0 724 1265803 -4258 0
0 0 0 668 1266471 -3590 0
0 0 0 669 1267140 -2921 0
68 1 S106 1119 1268259 -1802 1
68 1 S106 615 1268874 -1187 0
68 1 S106 593 1269467 -594 0
68 1 S106 592 1270059 -2 0
68 2 S106 622 1270681 620 0
68 2 S106 689 1271370 1309 0
68 2 S106 791 1272161 2100 0
68 2 S106 812 1272973 2912 0
68 2 S106 785 1273758 3697 0
68 2 S106 765 1274523 4462 0
68 2 S106 789 1275312 5251 0
68 2 S106 819 1276131 6070 0
68 2 S106 823 1276954 6893 0
0 0 0 819 1277773 -9646 0
0 0 0 832 1278605 -8814 0
0 0 0 807 1279412 -8007 0
0 0 0 482 1279894 -7525 0
0 0 0 762 1280656 -6763 0
0 0 0 698 1281354 -6065 0
0 0 0 687 1282041 -5378 0
0 0 0 691 1282732 -4687 0
0 0 0 1178 1283910 -3509 1
0 0 0 695 1284605 -2814 0
0 0 0 671 1285276 -2143 0
69 1 S102 679 1285955 -1464 0
69 1 S102 1184 1287139 -280 1
69 2 S102 703 1287842 423 0
69 2 S102 713 1288555 1136 0
69 2 S102 705 1289260 1841 0
69 2 S102 732 1289992 2573 0
69 2 S102 1264 1291256 3837 1
69 2 S102 751 1292007 4588 0
69 2 S102 723 1292730 5311 0
69 2 S102 765 1293495 6076 0
69 2 S102 452 1293947 6528 0
0 0 0 902 1294849 -8369 0
0 0 0 795 1295644 -7574 0
0 0 0 725 1296369 -6849 0
0 0 0 739 1297108 -6110 0
0 0 0 725 1297833 -5385 0
0 0 0 700 1298533 -4685 0
0 0 0 668 1299201 -4017 0
0 0 0 606 1299807 -3411 0
0 0 0 588 1300395 -2823 0
0 0 0 591 1300986 -2232 0
70 1 S112 605 1301591 -1627 0
70 1 S112 630 1302221 -997 0
70 1 S112 668 1302889 -329 0
70 2 S112 667 1303556 338 0
70 2 S112 711 1304267 1049 0
70 2 S112 706 1304973 1755 0
70 2 S112 705 1305678 2460 0
70 2 S112 682 1306360 3142 0
70 2 S112 696 1307056 3838 0
70 2 S112 690 1307746 4528 0
70 2 S112 655 1308401 5183 0
70 2 S112 661 1309062 5844 0
70 2 S112 634 1309696 6478 0
0 0 0 619 1310315 -10692 0
0 0 0 603 1310918 -10089 0
0 0 0 587 1311505 -9502 0
0 0 0 597 1312102 -8905 0
0 0 0 593 1312695 -8312 0
0 0 0 589 1313284 -7723 0
0 0 0 576 1313860 -7147 0
0 0 0 560 1314420 -6587 0
0 0 0 541 1314961 -6046 0
0 0 0 543 1315504 -5503 0
0 0 0 555 1316059 -4948 0
0 0 0 569 1316628 -4379 0
0 0 0 600 1317228 -3779 0
0 0 0 674 1317902 -3105 0
0 0 0 712 1318614 -2393 0
71 1 S116 741 1319355 -1652 0
71 1 S116 728 1320083 -924 0
71 1 S116 671 1320754 -253 0
71 2 S116 645 1321399 392 0
71 2 S116 667 1322066 1059 0
71 2 S116 627 1322693 1686 0
71 2 S116 608 1323301 2294 0
71 2 S116 587 1323888 2881 0
71 2 S116 616 1324504 3497 0
71 2 S116 656 1325160 4153 0
71 2 S116 686 1325846 4839 0
71 2 S116 694 1326540 5533 0
71 2 S116 680 1327220 6213 0
71 2 S116 691 1327911 6904 0
0 0 0 698 1328609 -8545 0
0 0 0 688 1329297 -7857 0
0 0 0 625 1329922 -7232 0
0 0 0 580 1330502 -6652 0
0 0 0 560 1331062 -6092 0
0 0 0 575 1331637 -5517 0
0 0 0 577 1332214 -4940 0
0 0 0 592 1332806 -4348 0
0 0 0 615 1333421 -3733 0
0 0 0 561 1333982 -3172 0
0 0 0 578 1334560 -2594 0
0 0 0 574 1335134 -2020 0
72 1 S102 586 1335720 -1434 0
72 1 S102 599 1336319 -835 0
72 1 S102 581 1336900 -254 0
72 2 S102 577 1337477 323 0
72 2 S102 597 1338074 920 0
72 2 S102 591 1338665 1511 0
72 2 S102 588 1339253 2099 0
72 2 S102 579 1339832 2678 0
72 2 S102 559 1340391 3237 0
72 2 S102 545 1340936 3782 0
72 2 S102 546 1341482 4328 0
72 2 S102 544 1342026 4872 0
72 2 S102 555 1342581 5427 0
72 2 S102 574 1343155 6001 0
72 2 S102 588 1343743 6589 0
0 0 0 588 1344331 -6401 0
0 0 0 604 1344935 -5797 0
0 0 0 610 1345545 -5187 0
0 0 0 596 1346141 -4591 0
0 0 0 580 1346721 -4011 0
0 0 0 562 1347283 -3449 0
0 0 0 542 1347825 -2907 0
0 0 0 532 1348357 -2375 0
73 1 S116 526 1348883 -1849 0
73 1 S116 526 1349409 -1323 0
73 1 S116 531 1349940 -792 0
73 1 S116 554 1350494 -238 0
73 2 S116 578 1351072 340 0
73 2 S116 637 1351709 977 0
73 2 S116 652 1352361 1629 0
73 2 S116 664 1353025 2293 0
73 2 S116 648 1353673 2941 0
73 2 S116 657 1354330 3598 0
73 2 S116 664 1354994 4262 0
73 2 S116 654 1355648 4916 0
73 2 S116 608 1356256 5524 0
73 2 S116 577 1356833 6101 0
73 2 S116 565 1357398 6666 0
0 0 0 541 1357939 -8426 0
0 0 0 529 1358468 -7897 0
0 0 0 522 1358990 -7375 0
0 0 0 527 1359517 -6848 0
0 0 0 536 1360053 -6312 0
0 0 0 541 1360594 -5771 0
0 0 0 553 1361147 -5218 0
0 0 0 562 1361709 -4656 0
0 0 0 544 1362253 -4112 0
0 0 0 541 1362794 -3571 0
0 0 0 528 1363322 -3043 0
0 0 0 527 1363849 -2516 0
0 0 0 511 1364360 -2005 0
74 1 S106 505 1364865 -1500 0
74 1 S106 504 1365369 -996 0
74 1 S106 507 1365876 -489 0
74 2 S106 516 1366392 27 0
74 2 S106 529 1366921 556 0
74 2 S106 558 1367479 1114 0
74 2 S106 591 1368070 1705 0
74 2 S106 629 1368699 2334 0
74 2 S106 641 1369340 2975 0
74 2 S106 644 1369984 3619 0
74 2 S106 634 1370618 4253 0
74 2 S106 597 1371215 4850 0
74 2 S106 569 1371784 5419 0
74 2 S106 547 1372331 5966 0
74 2 S106 546 1372877 6512 0
0 0 0 536 1373413 -6679 0
0 0 0 542 1373955 -6137 0
0 0 0 555 1374510 -5582 0
0 0 0 567 1375077 -5015 0
0 0 0 559 1375636 -4456 0
0 0 0 544 1376180 -3912 0
0 0 0 516 1376696 -3396 0
0 0 0 510 1377206 -2886 0
0 0 0 513 1377719 -2373 0
75 1 S112 522 1378241 -1851 0
75 1 S112 544 1378785 -1307 0
75 1 S112 597 1379382 -710 0
75 1 S112 656 1380038 -54 0
75 2 S112 682 1380720 628 0
75 2 S112 703 1381423 1331 0
75 2 S112 694 1382117 2025 0
75 2 S112 656 1382773 2681 0
75 2 S112 610 1383383 3291 0
75 2 S112 559 1383942 3850 0
75 2 S112 540 1384482 4390 0
75 2 S112 534 1385016 4924 0
75 2 S112 527 1385543 5451 0
75 2 S112 522 1386065 5973 0
75 2 S112 511 1386576 6484 0
75 2 S112 522 1387098 7006 0
0 0 0 518 1387616 -5988 0
0 0 0 519 1388135 -5469 0
0 0 0 503 1388638 -4966 0
0 0 0 493 1389131 -4473 0
0 0 0 494 1389625 -3979 0
0 0 0 485 1390110 -3494 0
0 0 0 480 1390590 -3014 0
0 0 0 478 1391068 -2536 0
0 0 0 479 1391547 -2057 0
76 1 S116 475 1392022 -1582 0
76 1 S116 478 1392500 -1104 0
76 1 S116 483 1392983 -621 0
76 1 S116 495 1393478 -126 0
76 2 S116 511 1393989 385 0
76 2 S116 543 1394532 928 0
76 2 S116 555 1395087 1483 0
76 2 S116 565 1395652 2048 0
76 2 S116 570 1396222 2618 0
76 2 S116 580 1396802 3198 0
76 2 S116 577 1397379 3775 0
76 2 S116 581 1397960 4356 0
76 2 S116 555 1398515 4911 0
76 2 S116 534 1399049 5445 0
76 2 S116 524 1399573 5969 0
76 2 S116 521 1400094 6490 0
76 2 S116 516 1400610 7006 0
0 0 0 517 1401127 -6204 0
0 0 0 515 1401642 -5689 0
0 0 0 503 1402145 -5186 0
0 0 0 499 1402644 -4687 0
0 0 0 503 1403147 -4184 0
0 0 0 500 1403647 -3684 0
0 0 0 499 1404146 -3185 0
0 0 0 519 1404665 -2666 0
0 0 0 550 1405215 -2116 0
77 1 S106 576 1405791 -1540 0
77 1 S106 564 1406355 -976 0
77 1 S106 564 1406919 -412 0
77 2 S106 597 1407516 185 0
77 2 S106 648 1408164 833 0
77 2 S106 676 1408840 1509 0
77 2 S106 684 1409524 2193 0
77 2 S106 645 1410169 2838 0
77 2 S106 623 1410792 3461 0
77 2 S106 617 1411409 4078 0
77 2 S106 611 1412020 4689 0
77 2 S106 615 1412635 5304 0
77 2 S106 621 1413256 5925 0
77 2 S106 595 1413851 6520 0
0 0 0 586 1414437 -9207 0
0 0 0 605 1415042 -8602 0
0 0 0 610 1415652 -7992 0
0 0 0 634 1416286 -7358 0
0 0 0 452 1416738 -6906 0
0 0 0 572 1417310 -6334 0
0 0 0 566 1417876 -5768 0
0 0 0 540 1418416 -5228 0
0 0 0 531 1418947 -4697 0
0 0 0 534 1419481 -4163 0
0 0 0 561 1420042 -3602 0
0 0 0 606 1420648 -2996 0
0 0 0 401 1421049 -2595 0
78 1 S112 689 1421738 -1906 0
78 1 S112 687 1422425 -1219 0
78 1 S112 680 1423105 -539 0
78 2 S112 678 1423783 139 0
78 2 S112 692 1424475 831 0
78 2 S112 698 1425173 1529 0
78 2 S112 703 1425876 2232 0
78 2 S112 685 1426561 2917 0
78 2 S112 626 1427187 3543 0
78 2 S112 638 1427825 4181 0
78 2 S112 637 1428462 4818 0
78 2 S112 652 1429114 5470 0
78 2 S112 455 1429569 5925 0
78 2 S112 618 1430187 6543 0
0 0 0 602 1430789 -11389 0
0 0 0 599 1431388 -10790 0
0 0 0 582 1431970 -10208 0
0 0 0 583 1432553 -9625 0
0 0 0 577 1433130 -9048 0
0 0 0 572 1433702 -8476 0
0 0 0 562 1434264 -7914 0
0 0 0 600 1434864 -7314 0
0 0 0 644 1435508 -6670 0
0 0 0 654 1436162 -6016 0
0 0 0 689 1436851 -5327 0
0 0 0 727 1437578 -4600 0
0 0 0 726 1438304 -3874 0
0 0 0 725 1439029 -3149 0
0 0 0 705 1439734 -2444 0
79 1 S102 717 1440451 -1727 0
79 1 S102 708 1441159 -1019 0
79 1 S102 694 1441853 -325 0
79 2 S102 465 1442318 140 0
79 2 S102 640 1442958 780 0
79 2 S102 652 1443610 1432 0
79 2 S102 640 1444250 2072 0
79 2 S102 634 1444884 2706 0
79 2 S102 480 1445364 3186 0
79 2 S102 599 1445963 3785 0
79 2 S102 650 1446613 4435 0
79 2 S102 629 1447242 5064 0
79 2 S102 1109 1448351 6173 1
79 2 S102 605 1448956 6778 0
0 0 0 619 1449575 -8137 0
0 0 0 651 1450226 -7486 0
0 0 0 651 1450877 -6835 0
0 0 0 642 1451519 -6193 0
0 0 0 643 1452162 -5550 0
0 0 0 605 1452767 -4945 0
0 0 0 591 1453358 -4354 0
0 0 0 599 1453957 -3755 0
0 0 0 624 1454581 -3131 0
0 0 0 680 1455261 -2451 0
80 1 S116 725 1455986 -1726 0
80 1 S116 735 1456721 -991 0
80 1 S116 729 1457450 -262 0
80 2 S116 755 1458205 493 0
80 2 S116 759 1458964 1252 0
80 2 S116 754 1459718 2006 0
80 2 S116 734 1460452 2740 0
80 2 S116 699 1461151 3439 0
80 2 S116 684 1461835 4123 0
80 2 S116 654 1462489 4777 0
80 2 S116 628 1463117 5405 0
80 2 S116 586 1463703 5991 0
80 2 S116 580 1464283 6571 0
