T_0151
BeatCount Mean SD BeatCountNoOutliers MeanNoOutliers SDNoOutliers
2144 742,68703358209 71,9396782864752 2112 739,146306818182 66,284971816874

Trial TrialStatus Trialtype IBI AbsPosition RelPosition Outlier
0 0 0 717 994 -14821 0
0 0 0 719 1713 -14102 0
0 0 0 776 2489 -13326 0
0 0 0 885 3374 -12441 0
0 0 0 833 4207 -11608 0
0 0 0 815 5022 -10793 0
0 0 0 759 5781 -10034 0
0 0 0 722 6503 -9312 0
0 0 0 722 7225 -8590 0
0 0 0 760 7985 -7830 0
0 0 0 744 8729 -7086 0
0 0 0 781 9510 -6305 0
0 0 0 774 10284 -5531 0
0 0 0 753 11037 -4778 0
0 0 0 710 11747 -4068 0
0 0 0 695 12442 -3373 0
0 0 0 690 13132 -2683 0
1 1 S112 700 13832 -1983 0
1 1 S112 738 14570 -1245 0
1 1 S112 770 15340 -475 0
1 2 S112 784 16124 309 0
1 2 S112 767 16891 1076 0
1 2 S112 713 17604 1789 0
1 2 S112 700 18304 2489 0
1 2 S112 746 19050 3235 0
1 2 S112 771 19821 4006 0
1 2 S112 750 20571 4756 0
1 2 S112 703 21274 5459 0
1 2 S112 727 22001 6186 0
1 2 S112 667 22668 6853 0
0 0 0 667 23335 -12441 0
0 0 0 821 24156 -11620 0
0 0 0 803 24959 -10817 0
0 0 0 826 25785 -9991 0
0 0 0 796 26581 -9195 0
0 0 0 739 27320 -8456 0
0 0 0 693 28013 -7763 0
0 0 0 670 28683 -7093 0
0 0 0 685 29368 -6408 0
0 0 0 666 30034 -5742 0
0 0 0 701 30735 -5041 0
0 0 0 715 31450 -4326 0
0 0 0 706 32156 -3620 0
0 0 0 703 32859 -2917 0
0 0 0 720 33579 -2197 0
2 1 S102 735 34314 -1462 0
2 1 S102 764 35078 -698 0
2 2 S102 790 35868 92 0
2 2 S102 799 36667 891 0
2 2 S102 799 37466 1690 0
2 2 S102 814 38280 2504 0
2 2 S102 802 39082 3306 0
2 2 S102 806 39888 4112 0
2 2 S102 792 40680 4904 0
2 2 S102 758 41438 5662 0
2 2 S102 728 42166 6390 0
0 0 0 721 42887 -10180 0
0 0 0 728 43615 -9452 0
0 0 0 703 44318 -8749 0
0 0 0 691 45009 -8058 0
0 0 0 690 45699 -7368 0
0 0 0 701 46400 -6667 0
0 0 0 756 47156 -5911 0
0 0 0 861 48017 -5050 0
0 0 0 846 48863 -4204 0
0 0 0 829 49692 -3375 0
0 0 0 816 50508 -2559 0
3 1 S116 785 51293 -1774 0
3 1 S116 726 52019 -1048 0
3 1 S116 719 52738 -329 0
3 2 S116 691 53429 362 0
3 2 S116 696 54125 1058 0
3 2 S116 718 54843 1776 0
3 2 S116 748 55591 2524 0
3 2 S116 759 56350 3283 0
3 2 S116 793 57143 4076 0
3 2 S116 780 57923 4856 0
3 2 S116 772 58695 5628 0
3 2 S116 742 59437 6370 0
0 0 0 768 60205 -12424 0
0 0 0 729 60934 -11695 0
0 0 0 686 61620 -11009 0
0 0 0 646 62266 -10363 0
0 0 0 629 62895 -9734 0
0 0 0 640 63535 -9094 0
0 0 0 693 64228 -8401 0
0 0 0 772 65000 -7629 0
0 0 0 886 65886 -6743 0
0 0 0 821 66707 -5922 0
0 0 0 816 67523 -5106 0
0 0 0 785 68308 -4321 0
0 0 0 695 69003 -3626 0
0 0 0 703 69706 -2923 0
0 0 0 690 70396 -2233 0
4 1 S106 707 71103 -1526 0
4 1 S106 759 71862 -767 0
4 2 S106 774 72636 7 0
4 2 S106 794 73430 801 0
4 2 S106 785 74215 1586 0
4 2 S106 737 74952 2323 0
4 2 S106 733 75685 3056 0
4 2 S106 699 76384 3755 0
4 2 S106 687 77071 4442 0
4 2 S106 695 77766 5137 0
4 2 S106 693 78459 5830 0
4 2 S106 681 79140 6511 0
0 0 0 688 79828 -8186 0
0 0 0 708 80536 -7478 0
0 0 0 695 81231 -6783 0
0 0 0 704 81935 -6079 0
0 0 0 697 82632 -5382 0
0 0 0 688 83320 -4694 0
0 0 0 656 83976 -4038 0
0 0 0 637 84613 -3401 0
0 0 0 631 85244 -2770 0
0 0 0 640 85884 -2130 0
5 1 S116 661 86545 -1469 0
5 1 S116 684 87229 -785 0
5 1 S116 668 87897 -117 0
5 2 S116 648 88545 531 0
5 2 S116 647 89192 1178 0
5 2 S116 668 89860 1846 0
5 2 S116 779 90639 2625 0
5 2 S116 917 91556 3542 0
5 2 S116 906 92462 4448 0
5 2 S116 836 93298 5284 0
5 2 S116 824 94122 6108 0
5 2 S116 752 94874 6860 0
0 0 0 698 95572 -10794 0
0 0 0 683 96255 -10111 0
0 0 0 657 96912 -9454 0
0 0 0 643 97555 -8811 0
0 0 0 658 98213 -8153 0
0 0 0 718 98931 -7435 0
0 0 0 998 99929 -6437 1
0 0 0 861 100790 -5576 0
0 0 0 895 101685 -4681 0
0 0 0 914 102599 -3767 0
0 0 0 917 103516 -2850 0
6 1 S106 880 104396 -1970 0
6 1 S106 793 105189 -1177 0
6 1 S106 711 105900 -466 0
6 2 S106 690 106590 224 0
6 2 S106 679 107269 903 0
6 2 S106 701 107970 1604 0
6 2 S106 716 108686 2320 0
6 2 S106 718 109404 3038 0
6 2 S106 716 110120 3754 0
6 2 S106 733 110853 4487 0
6 2 S106 728 111581 5215 0
6 2 S106 748 112329 5963 0
6 2 S106 727 113056 6690 0
0 0 0 715 113771 -11826 0
0 0 0 705 114476 -11121 0
0 0 0 675 115151 -10446 0
0 0 0 658 115809 -9788 0
0 0 0 653 116462 -9135 0
0 0 0 661 117123 -8474 0
0 0 0 657 117780 -7817 0
0 0 0 672 118452 -7145 0
0 0 0 646 119098 -6499 0
0 0 0 676 119774 -5823 0
0 0 0 899 120673 -4924 0
0 0 0 897 121570 -4027 0
0 0 0 806 122376 -3221 0
0 0 0 755 123131 -2466 0
7 1 S102 717 123848 -1749 0
7 1 S102 686 124534 -1063 0
7 1 S102 673 125207 -390 0
7 2 S102 664 125871 274 0
7 2 S102 663 126534 937 0
7 2 S102 667 127201 1604 0
7 2 S102 692 127893 2296 0
7 2 S102 733 128626 3029 0
7 2 S102 791 129417 3820 0
7 2 S102 778 130195 4598 0
7 2 S102 771 130966 5369 0
7 2 S102 741 131707 6110 0
7 2 S102 754 132461 6864 0
0 0 0 716 133177 -10706 0
0 0 0 664 133841 -10042 0
0 0 0 634 134475 -9408 0
0 0 0 635 135110 -8773 0
0 0 0 680 135790 -8093 0
0 0 0 729 136519 -7364 0
0 0 0 760 137279 -6604 0
0 0 0 858 138137 -5746 0
0 0 0 800 138937 -4946 0
0 0 0 757 139694 -4189 0
0 0 0 691 140385 -3498 0
0 0 0 671 141056 -2827 0
0 0 0 667 141723 -2160 0
8 1 S112 696 142419 -1464 0
8 1 S112 729 143148 -735 0
8 2 S112 769 143917 34 0
8 2 S112 758 144675 792 0
8 2 S112 775 145450 1567 0
8 2 S112 800 146250 2367 0
8 2 S112 717 146967 3084 0
8 2 S112 726 147693 3810 0
8 2 S112 708 148401 4518 0
8 2 S112 694 149095 5212 0
8 2 S112 677 149772 5889 0
8 2 S112 684 150456 6573 0
0 0 0 678 151134 -8234 0
0 0 0 713 151847 -7521 0
0 0 0 689 152536 -6832 0
0 0 0 670 153206 -6162 0
0 0 0 659 153865 -5503 0
0 0 0 697 154562 -4806 0
0 0 0 756 155318 -4050 0
0 0 0 834 156152 -3216 0
0 0 0 841 156993 -2375 0
9 1 S116 842 157835 -1533 0
9 1 S116 777 158612 -756 0
9 1 S116 742 159354 -14 0
9 2 S116 706 160060 692 0
9 2 S116 691 160751 1383 0
9 2 S116 683 161434 2066 0
9 2 S116 683 162117 2749 0
9 2 S116 683 162800 3432 0
9 2 S116 723 163523 4155 0
9 2 S116 750 164273 4905 0
9 2 S116 738 165011 5643 0
9 2 S116 745 165756 6388 0
0 0 0 765 166521 -13304 0
0 0 0 723 167244 -12581 0
0 0 0 669 167913 -11912 0
0 0 0 646 168559 -11266 0
0 0 0 656 169215 -10610 0
0 0 0 703 169918 -9907 0
0 0 0 806 170724 -9101 0
0 0 0 772 171496 -8329 0
0 0 0 762 172258 -7567 0
0 0 0 770 173028 -6797 0
0 0 0 774 173802 -6023 0
0 0 0 717 174519 -5306 0
0 0 0 724 175243 -4582 0
0 0 0 718 175961 -3864 0
0 0 0 687 176648 -3177 0
0 0 0 673 177321 -2504 0
10 1 S102 670 177991 -1834 0
10 1 S102 666 178657 -1168 0
10 1 S102 655 179312 -513 0
10 2 S102 687 179999 174 0
10 2 S102 716 180715 890 0
10 2 S102 733 181448 1623 0
10 2 S102 794 182242 2417 0
10 2 S102 839 183081 3256 0
10 2 S102 736 183817 3992 0
10 2 S102 686 184503 4678 0
10 2 S102 665 185168 5343 0
10 2 S102 669 185837 6012 0
10 2 S102 691 186528 6703 0
0 0 0 751 187279 -12838 0
0 0 0 745 188024 -12093 0
0 0 0 695 188719 -11398 0
0 0 0 666 189385 -10732 0
0 0 0 665 190050 -10067 0
0 0 0 700 190750 -9367 0
0 0 0 725 191475 -8642 0
0 0 0 714 192189 -7928 0
0 0 0 709 192898 -7219 0
0 0 0 661 193559 -6558 0
0 0 0 649 194208 -5909 0
0 0 0 647 194855 -5262 0
0 0 0 642 195497 -4620 0
0 0 0 647 196144 -3973 0
0 0 0 666 196810 -3307 0
0 0 0 664 197474 -2643 0
11 1 S112 695 198169 -1948 0
11 1 S112 711 198880 -1237 0
11 1 S112 700 199580 -537 0
11 2 S112 724 200304 187 0
11 2 S112 741 201045 928 0
11 2 S112 756 201801 1684 0
11 2 S112 742 202543 2426 0
11 2 S112 695 203238 3121 0
11 2 S112 753 203991 3874 0
11 2 S112 765 204756 4639 0
11 2 S112 830 205586 5469 0
11 2 S112 709 206295 6178 0
11 2 S112 691 206986 6869 0
0 0 0 681 207667 -7404 0
0 0 0 755 208422 -6649 0
0 0 0 832 209254 -5817 0
0 0 0 872 210126 -4945 0
0 0 0 828 210954 -4117 0
0 0 0 793 211747 -3324 0
0 0 0 726 212473 -2598 0
12 1 S116 717 213190 -1881 0
12 1 S116 757 213947 -1124 0
12 1 S116 764 214711 -360 0
12 2 S116 774 215485 414 0
12 2 S116 757 216242 1171 0
12 2 S116 763 217005 1934 0
12 2 S116 792 217797 2726 0
12 2 S116 765 218562 3491 0
12 2 S116 748 219310 4239 0
12 2 S116 746 220056 4985 0
12 2 S116 734 220790 5719 0
12 2 S116 733 221523 6452 0
0 0 0 738 222261 -12571 0
0 0 0 766 223027 -11805 0
0 0 0 710 223737 -11095 0
0 0 0 704 224441 -10391 0
0 0 0 714 225155 -9677 0
0 0 0 744 225899 -8933 0
0 0 0 777 226676 -8156 0
0 0 0 789 227465 -7367 0
0 0 0 761 228226 -6606 0
0 0 0 748 228974 -5858 0
0 0 0 742 229716 -5116 0
0 0 0 693 230409 -4423 0
0 0 0 702 231111 -3721 0
0 0 0 696 231807 -3025 0
0 0 0 701 232508 -2324 0
13 1 S112 695 233203 -1629 0
13 1 S112 723 233926 -906 0
13 1 S112 727 234653 -179 0
13 2 S112 707 235360 528 0
13 2 S112 674 236034 1202 0
13 2 S112 701 236735 1903 0
13 2 S112 762 237497 2665 0
13 2 S112 915 238412 3580 0
13 2 S112 865 239277 4445 0
13 2 S112 787 240064 5232 0
13 2 S112 773 240837 6005 0
13 2 S112 748 241585 6753 0
0 0 0 688 242273 -12221 0
0 0 0 669 242942 -11552 0
0 0 0 648 243590 -10904 0
0 0 0 644 244234 -10260 0
0 0 0 688 244922 -9572 0
0 0 0 912 245834 -8660 0
0 0 0 856 246690 -7804 0
0 0 0 871 247561 -6933 0
0 0 0 890 248451 -6043 0
0 0 0 864 249315 -5179 0
0 0 0 860 250175 -4319 0
0 0 0 842 251017 -3477 0
0 0 0 808 251825 -2669 0
14 1 S106 735 252560 -1934 0
14 1 S106 717 253277 -1217 0
14 1 S106 692 253969 -525 0
14 2 S106 692 254661 167 0
14 2 S106 693 255354 860 0
14 2 S106 730 256084 1590 0
14 2 S106 812 256896 2402 0
14 2 S106 955 257851 3357 1
14 2 S106 868 258719 4225 0
14 2 S106 862 259581 5087 0
14 2 S106 846 260427 5933 0
14 2 S106 846 261273 6779 0
0 0 0 826 262099 -12505 0
0 0 0 805 262904 -11700 0
0 0 0 722 263626 -10978 0
0 0 0 684 264310 -10294 0
0 0 0 697 265007 -9597 0
0 0 0 689 265696 -8908 0
0 0 0 732 266428 -8176 0
0 0 0 763 267191 -7413 0
0 0 0 734 267925 -6679 0
0 0 0 769 268694 -5910 0
0 0 0 853 269547 -5057 0
0 0 0 789 270336 -4268 0
0 0 0 696 271032 -3572 0
0 0 0 674 271706 -2898 0
0 0 0 677 272383 -2221 0
15 1 S116 689 273072 -1532 0
15 1 S116 712 273784 -820 0
15 1 S116 761 274545 -59 0
15 2 S116 822 275367 763 0
15 2 S116 736 276103 1499 0
15 2 S116 702 276805 2201 0
15 2 S116 732 277537 2933 0
15 2 S116 745 278282 3678 0
15 2 S116 748 279030 4426 0
15 2 S116 717 279747 5143 0
15 2 S116 734 280481 5877 0
15 2 S116 720 281201 6597 0
0 0 0 703 281904 -11301 0
0 0 0 708 282612 -10593 0
0 0 0 695 283307 -9898 0
0 0 0 651 283958 -9247 0
0 0 0 639 284597 -8608 0
0 0 0 667 285264 -7941 0
0 0 0 846 286110 -7095 0
0 0 0 983 287093 -6112 1
0 0 0 905 287998 -5207 0
0 0 0 838 288836 -4369 0
0 0 0 822 289658 -3547 0
0 0 0 859 290517 -2688 0
16 1 S116 857 291374 -1831 0
16 1 S116 815 292189 -1016 0
16 1 S116 697 292886 -319 0
16 2 S116 678 293564 359 0
16 2 S116 703 294267 1062 0
16 2 S116 737 295004 1799 0
16 2 S116 850 295854 2649 0
16 2 S116 803 296657 3452 0
16 2 S116 814 297471 4266 0
16 2 S116 791 298262 5057 0
16 2 S116 748 299010 5805 0
16 2 S116 755 299765 6560 0
0 0 0 718 300483 -9997 0
0 0 0 692 301175 -9305 0
0 0 0 671 301846 -8634 0
0 0 0 645 302491 -7989 0
0 0 0 642 303133 -7347 0
0 0 0 700 303833 -6647 0
0 0 0 716 304549 -5931 0
0 0 0 719 305268 -5212 0
0 0 0 819 306087 -4393 0
0 0 0 916 307003 -3477 0
0 0 0 850 307853 -2627 0
17 1 S106 812 308665 -1815 0
17 1 S106 758 309423 -1057 0
17 1 S106 690 310113 -367 0
17 2 S106 658 310771 291 0
17 2 S106 667 311438 958 0
17 2 S106 702 312140 1660 0
17 2 S106 838 312978 2498 0
17 2 S106 897 313875 3395 0
17 2 S106 807 314682 4202 0
17 2 S106 805 315487 5007 0
17 2 S106 698 316185 5705 0
17 2 S106 685 316870 6390 0
0 0 0 725 317595 -12895 0
0 0 0 818 318413 -12077 0
0 0 0 845 319258 -11232 0
0 0 0 736 319994 -10496 0
0 0 0 732 320726 -9764 0
0 0 0 788 321514 -8976 0
0 0 0 821 322335 -8155 0
0 0 0 792 323127 -7363 0
0 0 0 801 323928 -6562 0
0 0 0 768 324696 -5794 0
0 0 0 749 325445 -5045 0
0 0 0 714 326159 -4331 0
0 0 0 702 326861 -3629 0
0 0 0 715 327576 -2914 0
0 0 0 679 328255 -2235 0
18 1 S102 678 328933 -1557 0
18 1 S102 738 329671 -819 0
18 2 S102 852 330523 33 0
18 2 S102 934 331457 967 1
18 2 S102 842 332299 1809 0
18 2 S102 835 333134 2644 0
18 2 S102 802 333936 3446 0
18 2 S102 753 334689 4199 0
18 2 S102 705 335394 4904 0
18 2 S102 726 336120 5630 0
18 2 S102 714 336834 6344 0
0 0 0 693 337527 -8861 0
0 0 0 693 338220 -8168 0
0 0 0 722 338942 -7446 0
0 0 0 815 339757 -6631 0
0 0 0 818 340575 -5813 0
0 0 0 731 341306 -5082 0
0 0 0 779 342085 -4303 0
0 0 0 824 342909 -3479 0
0 0 0 867 343776 -2612 0
19 1 S106 761 344537 -1851 0
19 1 S106 699 345236 -1152 0
19 1 S106 699 345935 -453 0
19 2 S106 723 346658 270 0
19 2 S106 771 347429 1041 0
19 2 S106 758 348187 1799 0
19 2 S106 701 348888 2500 0
19 2 S106 684 349572 3184 0
19 2 S106 721 350293 3905 0
19 2 S106 786 351079 4691 0
19 2 S106 836 351915 5527 0
19 2 S106 816 352731 6343 0
0 0 0 794 353525 -13487 0
0 0 0 783 354308 -12704 0
0 0 0 724 355032 -11980 0
0 0 0 696 355728 -11284 0
0 0 0 678 356406 -10606 0
0 0 0 703 357109 -9903 0
0 0 0 772 357881 -9131 0
0 0 0 815 358696 -8316 0
0 0 0 816 359512 -7500 0
0 0 0 739 360251 -6761 0
0 0 0 789 361040 -5972 0
0 0 0 779 361819 -5193 0
0 0 0 769 362588 -4424 0
0 0 0 718 363306 -3706 0
0 0 0 679 363985 -3027 0
0 0 0 665 364650 -2362 0
20 1 S112 684 365334 -1678 0
20 1 S112 690 366024 -988 0
20 1 S112 719 366743 -269 0
20 2 S112 730 367473 461 0
20 2 S112 768 368241 1229 0
20 2 S112 725 368966 1954 0
20 2 S112 744 369710 2698 0
20 2 S112 724 370434 3422 0
20 2 S112 679 371113 4101 0
20 2 S112 659 371772 4760 0
20 2 S112 661 372433 5421 0
20 2 S112 676 373109 6097 0
20 2 S112 717 373826 6814 0
0 0 0 753 374579 -10271 0
0 0 0 750 375329 -9521 0
0 0 0 674 376003 -8847 0
0 0 0 671 376674 -8176 0
0 0 0 706 377380 -7470 0
0 0 0 714 378094 -6756 0
0 0 0 713 378807 -6043 0
0 0 0 657 379464 -5386 0
0 0 0 649 380113 -4737 0
0 0 0 637 380750 -4100 0
0 0 0 623 381373 -3477 0
0 0 0 608 381981 -2869 0
0 0 0 606 382587 -2263 0
21 1 S106 604 383191 -1659 0
21 1 S106 598 383789 -1061 0
21 1 S106 639 384428 -422 0
21 2 S106 827 385255 405 0
21 2 S106 880 386135 1285 0
21 2 S106 825 386960 2110 0
21 2 S106 847 387807 2957 0
21 2 S106 847 388654 3804 0
21 2 S106 824 389478 4628 0
21 2 S106 829 390307 5457 0
21 2 S106 780 391087 6237 0
21 2 S106 735 391822 6972 0
0 0 0 708 392530 -12181 0
0 0 0 745 393275 -11436 0
0 0 0 789 394064 -10647 0
0 0 0 713 394777 -9934 0
0 0 0 744 395521 -9190 0
0 0 0 742 396263 -8448 0
0 0 0 912 397175 -7536 0
0 0 0 925 398100 -6611 0
0 0 0 852 398952 -5759 0
0 0 0 793 399745 -4966 0
0 0 0 718 400463 -4248 0
0 0 0 743 401206 -3505 0
0 0 0 745 401951 -2760 0
0 0 0 757 402708 -2003 0
22 1 S116 773 403481 -1230 0
22 1 S116 691 404172 -539 0
22 2 S116 679 404851 140 0
22 2 S116 708 405559 848 0
22 2 S116 748 406307 1596 0
22 2 S116 793 407100 2389 0
22 2 S116 914 408014 3303 0
22 2 S116 846 408860 4149 0
22 2 S116 815 409675 4964 0
22 2 S116 785 410460 5749 0
22 2 S116 784 411244 6533 0
0 0 0 775 412019 -9403 0
0 0 0 715 412734 -8688 0
0 0 0 679 413413 -8009 0
0 0 0 667 414080 -7342 0
0 0 0 677 414757 -6665 0
0 0 0 761 415518 -5904 0
0 0 0 1071 416589 -4833 1
0 0 0 912 417501 -3921 0
0 0 0 859 418360 -3062 0
0 0 0 846 419206 -2216 0
23 1 S112 820 420026 -1396 0
23 1 S112 716 420742 -680 0
23 1 S112 662 421404 -18 0
23 2 S112 677 422081 659 0
23 2 S112 766 422847 1425 0
23 2 S112 867 423714 2292 0
23 2 S112 853 424567 3145 0
23 2 S112 823 425390 3968 0
23 2 S112 782 426172 4750 0
23 2 S112 791 426963 5541 0
23 2 S112 730 427693 6271 0
23 2 S112 758 428451 7029 0
0 0 0 681 429132 -10361 0
0 0 0 666 429798 -9695 0
0 0 0 662 430460 -9033 0
0 0 0 680 431140 -8353 0
0 0 0 770 431910 -7583 0
0 0 0 941 432851 -6642 1
0 0 0 944 433795 -5698 1
0 0 0 899 434694 -4799 0
0 0 0 850 435544 -3949 0
0 0 0 852 436396 -3097 0
0 0 0 857 437253 -2240 0
24 1 S106 859 438112 -1381 0
24 1 S106 838 438950 -543 0
24 2 S106 780 439730 237 0
24 2 S106 717 440447 954 0
24 2 S106 707 441154 1661 0
24 2 S106 747 441901 2408 0
24 2 S106 766 442667 3174 0
24 2 S106 770 443437 3944 0
24 2 S106 705 444142 4649 0
24 2 S106 728 444870 5377 0
24 2 S106 755 445625 6132 0
24 2 S106 768 446393 6900 0
0 0 0 783 447176 -9542 0
0 0 0 761 447937 -8781 0
0 0 0 724 448661 -8057 0
0 0 0 739 449400 -7318 0
0 0 0 701 450101 -6617 0
0 0 0 665 450766 -5952 0
0 0 0 660 451426 -5292 0
0 0 0 678 452104 -4614 0
0 0 0 701 452805 -3913 0
0 0 0 775 453580 -3138 0
0 0 0 759 454339 -2379 0
25 1 S102 756 455095 -1623 0
25 1 S102 777 455872 -846 0
25 1 S102 837 456709 -9 0
25 2 S102 833 457542 824 0
25 2 S102 820 458362 1644 0
25 2 S102 708 459070 2352 0
25 2 S102 747 459817 3099 0
25 2 S102 735 460552 3834 0
25 2 S102 763 461315 4597 0
25 2 S102 736 462051 5333 0
25 2 S102 728 462779 6061 0
25 2 S102 778 463557 6839 0
0 0 0 817 464374 -7347 0
0 0 0 815 465189 -6532 0
0 0 0 714 465903 -5818 0
0 0 0 716 466619 -5102 0
0 0 0 706 467325 -4396 0
0 0 0 699 468024 -3697 0
0 0 0 670 468694 -3027 0
0 0 0 680 469374 -2347 0
26 1 S116 699 470073 -1648 0
26 1 S116 695 470768 -953 0
26 1 S116 688 471456 -265 0
26 2 S116 696 472152 431 0
26 2 S116 675 472827 1106 0
26 2 S116 700 473527 1806 0
26 2 S116 672 474199 2478 0
26 2 S116 664 474863 3142 0
26 2 S116 694 475557 3836 0
26 2 S116 816 476373 4652 0
26 2 S116 897 477270 5549 0
26 2 S116 863 478133 6412 0
0 0 0 862 478995 -8492 0
0 0 0 856 479851 -7636 0
0 0 0 810 480661 -6826 0
0 0 0 755 481416 -6071 0
0 0 0 692 482108 -5379 0
0 0 0 690 482798 -4689 0
0 0 0 727 483525 -3962 0
0 0 0 743 484268 -3219 0
0 0 0 779 485047 -2440 0
27 1 S106 816 485863 -1624 0
27 1 S106 840 486703 -784 0
27 2 S106 799 487502 15 0
27 2 S106 744 488246 759 0
27 2 S106 738 488984 1497 0
27 2 S106 709 489693 2206 0
27 2 S106 689 490382 2895 0
27 2 S106 726 491108 3621 0
27 2 S106 758 491866 4379 0
27 2 S106 739 492605 5118 0
27 2 S106 750 493355 5868 0
27 2 S106 762 494117 6630 0
0 0 0 815 494932 -9167 0
0 0 0 764 495696 -8403 0
0 0 0 710 496406 -7693 0
0 0 0 711 497117 -6982 0
0 0 0 681 497798 -6301 0
0 0 0 668 498466 -5633 0
0 0 0 651 499117 -4982 0
0 0 0 749 499866 -4233 0
0 0 0 928 500794 -3305 0
0 0 0 847 501641 -2458 0
28 1 S102 858 502499 -1600 0
28 1 S102 872 503371 -728 0
28 2 S102 837 504208 109 0
28 2 S102 782 504990 891 0
28 2 S102 728 505718 1619 0
28 2 S102 726 506444 2345 0
28 2 S102 723 507167 3068 0
28 2 S102 711 507878 3779 0
28 2 S102 709 508587 4488 0
28 2 S102 701 509288 5189 0
28 2 S102 684 509972 5873 0
28 2 S102 688 510660 6561 0
0 0 0 691 511351 -12145 0
0 0 0 668 512019 -11477 0
0 0 0 645 512664 -10832 0
0 0 0 661 513325 -10171 0
0 0 0 657 513982 -9514 0
0 0 0 692 514674 -8822 0
0 0 0 774 515448 -8048 0
0 0 0 907 516355 -7141 0
0 0 0 872 517227 -6269 0
0 0 0 823 518050 -5446 0
0 0 0 784 518834 -4662 0
0 0 0 788 519622 -3874 0
0 0 0 772 520394 -3102 0
0 0 0 781 521175 -2321 0
29 1 S112 707 521882 -1614 0
29 1 S112 760 522642 -854 0
29 1 S112 726 523368 -128 0
29 2 S112 730 524098 602 0
29 2 S112 724 524822 1326 0
29 2 S112 714 525536 2040 0
29 2 S112 671 526207 2711 0
29 2 S112 659 526866 3370 0
29 2 S112 681 527547 4051 0
29 2 S112 748 528295 4799 0
29 2 S112 798 529093 5597 0
29 2 S112 824 529917 6421 0
0 0 0 754 530671 -9436 0
0 0 0 751 531422 -8685 0
0 0 0 673 532095 -8012 0
0 0 0 656 532751 -7356 0
0 0 0 643 533394 -6713 0
0 0 0 655 534049 -6058 0
0 0 0 860 534909 -5198 0
0 0 0 900 535809 -4298 0
0 0 0 876 536685 -3422 0
0 0 0 841 537526 -2581 0
30 1 S112 850 538376 -1731 0
30 1 S112 877 539253 -854 0
30 2 S112 893 540146 39 0
30 2 S112 850 540996 889 0
30 2 S112 796 541792 1685 0
30 2 S112 803 542595 2488 0
30 2 S112 750 543345 3238 0
30 2 S112 777 544122 4015 0
30 2 S112 720 544842 4735 0
30 2 S112 703 545545 5438 0
30 2 S112 707 546252 6145 0
30 2 S112 707 546959 6852 0
0 0 0 699 547658 -9226 0
0 0 0 686 548344 -8540 0
0 0 0 662 549006 -7878 0
0 0 0 655 549661 -7223 0
0 0 0 671 550332 -6552 0
0 0 0 667 550999 -5885 0
0 0 0 674 551673 -5211 0
0 0 0 663 552336 -4548 0
0 0 0 661 552997 -3887 0
0 0 0 685 553682 -3202 0
0 0 0 677 554359 -2525 0
31 1 S106 662 555021 -1863 0
31 1 S106 679 555700 -1184 0
31 1 S106 815 556515 -369 0
31 2 S106 911 557426 542 0
31 2 S106 857 558283 1399 0
31 2 S106 866 559149 2265 0
31 2 S106 837 559986 3102 0
31 2 S106 805 560791 3907 0
31 2 S106 725 561516 4632 0
31 2 S106 689 562205 5321 0
31 2 S106 665 562870 5986 0
31 2 S106 700 563570 6686 0
0 0 0 724 564294 -9252 0
0 0 0 708 565002 -8544 0
0 0 0 720 565722 -7824 0
0 0 0 860 566582 -6964 0
0 0 0 962 567544 -6002 1
0 0 0 888 568432 -5114 0
0 0 0 804 569236 -4310 0
0 0 0 784 570020 -3526 0
0 0 0 756 570776 -2770 0
0 0 0 723 571499 -2047 0
32 1 S102 753 572252 -1294 0
32 1 S102 741 572993 -553 0
32 2 S102 738 573731 185 0
32 2 S102 698 574429 883 0
32 2 S102 676 575105 1559 0
32 2 S102 688 575793 2247 0
32 2 S102 732 576525 2979 0
32 2 S102 801 577326 3780 0
32 2 S102 899 578225 4679 0
32 2 S102 790 579015 5469 0
32 2 S102 780 579795 6249 0
32 2 S102 761 580556 7010 0
0 0 0 804 581360 -12809 0
0 0 0 769 582129 -12040 0
0 0 0 788 582917 -11252 0
0 0 0 722 583639 -10530 0
0 0 0 700 584339 -9830 0
0 0 0 694 585033 -9136 0
0 0 0 691 585724 -8445 0
0 0 0 694 586418 -7751 0
0 0 0 703 587121 -7048 0
0 0 0 717 587838 -6331 0
0 0 0 848 588686 -5483 0
0 0 0 894 589580 -4589 0
0 0 0 831 590411 -3758 0
0 0 0 830 591241 -2928 0
0 0 0 800 592041 -2128 0
33 1 S112 775 592816 -1353 0
33 1 S112 718 593534 -635 0
33 2 S112 675 594209 40 0
33 2 S112 677 594886 717 0
33 2 S112 672 595558 1389 0
33 2 S112 695 596253 2084 0
33 2 S112 711 596964 2795 0
33 2 S112 730 597694 3525 0
33 2 S112 723 598417 4248 0
33 2 S112 701 599118 4949 0
33 2 S112 722 599840 5671 0
33 2 S112 765 600605 6436 0
0 0 0 792 601397 -12517 0
0 0 0 770 602167 -11747 0
0 0 0 708 602875 -11039 0
0 0 0 676 603551 -10363 0
0 0 0 665 604216 -9698 0
0 0 0 658 604874 -9040 0
0 0 0 667 605541 -8373 0
0 0 0 900 606441 -7473 0
0 0 0 788 607229 -6685 0
0 0 0 754 607983 -5931 0
0 0 0 737 608720 -5194 0
0 0 0 671 609391 -4523 0
0 0 0 658 610049 -3865 0
0 0 0 663 610712 -3202 0
0 0 0 676 611388 -2526 0
34 1 S106 679 612067 -1847 0
34 1 S106 692 612759 -1155 0
34 1 S106 711 613470 -444 0
34 2 S106 710 614180 266 0
34 2 S106 715 614895 981 0
34 2 S106 714 615609 1695 0
34 2 S106 729 616338 2424 0
34 2 S106 767 617105 3191 0
34 2 S106 757 617862 3948 0
34 2 S106 793 618655 4741 0
34 2 S106 797 619452 5538 0
34 2 S106 780 620232 6318 0
34 2 S106 688 620920 7006 0
0 0 0 711 621631 -10735 0
0 0 0 719 622350 -10016 0
0 0 0 698 623048 -9318 0
0 0 0 718 623766 -8600 0
0 0 0 807 624573 -7793 0
0 0 0 948 625521 -6845 1
0 0 0 895 626416 -5950 0
0 0 0 889 627305 -5061 0
0 0 0 823 628128 -4238 0
0 0 0 810 628938 -3428 0
0 0 0 751 629689 -2677 0
35 1 S102 714 630403 -1963 0
35 1 S102 726 631129 -1237 0
35 1 S102 705 631834 -532 0
35 2 S102 705 632539 173 0
35 2 S102 719 633258 892 0
35 2 S102 716 633974 1608 0
35 2 S102 719 634693 2327 0
35 2 S102 741 635434 3068 0
35 2 S102 752 636186 3820 0
35 2 S102 762 636948 4582 0
35 2 S102 728 637676 5310 0
35 2 S102 696 638372 6006 0
35 2 S102 685 639057 6691 0
0 0 0 675 639732 -8483 0
0 0 0 677 640409 -7806 0
0 0 0 654 641063 -7152 0
0 0 0 651 641714 -6501 0
0 0 0 736 642450 -5765 0
0 0 0 911 643361 -4854 0
0 0 0 809 644170 -4045 0
0 0 0 793 644963 -3252 0
0 0 0 787 645750 -2465 0
36 1 S106 834 646584 -1631 0
36 1 S106 846 647430 -785 0
36 2 S106 852 648282 67 0
36 2 S106 796 649078 863 0
36 2 S106 759 649837 1622 0
36 2 S106 700 650537 2322 0
36 2 S106 721 651258 3043 0
36 2 S106 745 652003 3788 0
36 2 S106 713 652716 4501 0
36 2 S106 728 653444 5229 0
36 2 S106 690 654134 5919 0
36 2 S106 710 654844 6629 0
0 0 0 687 655531 -11301 0
0 0 0 669 656200 -10632 0
0 0 0 685 656885 -9947 0
0 0 0 666 657551 -9281 0
0 0 0 648 658199 -8633 0
0 0 0 649 658848 -7984 0
0 0 0 713 659561 -7271 0
0 0 0 877 660438 -6394 0
0 0 0 802 661240 -5592 0
0 0 0 728 661968 -4864 0
0 0 0 692 662660 -4172 0
0 0 0 653 663313 -3519 0
0 0 0 650 663963 -2869 0
0 0 0 644 664607 -2225 0
37 1 S116 639 665246 -1586 0
37 1 S116 639 665885 -947 0
37 1 S116 634 666519 -313 0
37 2 S116 624 667143 311 0
37 2 S116 630 667773 941 0
37 2 S116 691 668464 1632 0
37 2 S116 898 669362 2530 0
37 2 S116 836 670198 3366 0
37 2 S116 838 671036 4204 0
37 2 S116 836 671872 5040 0
37 2 S116 868 672740 5908 0
37 2 S116 876 673616 6784 0
0 0 0 868 674484 -11994 0
0 0 0 855 675339 -11139 0
0 0 0 833 676172 -10306 0
0 0 0 756 676928 -9550 0
0 0 0 675 677603 -8875 0
0 0 0 671 678274 -8204 0
0 0 0 697 678971 -7507 0
0 0 0 847 679818 -6660 0
0 0 0 817 680635 -5843 0
0 0 0 735 681370 -5108 0
0 0 0 742 682112 -4366 0
0 0 0 776 682888 -3590 0
0 0 0 750 683638 -2840 0
0 0 0 787 684425 -2053 0
38 1 S102 761 685186 -1292 0
38 1 S102 759 685945 -533 0
38 2 S102 760 686705 227 0
38 2 S102 720 687425 947 0
38 2 S102 756 688181 1703 0
38 2 S102 720 688901 2423 0
38 2 S102 710 689611 3133 0
38 2 S102 708 690319 3841 0
38 2 S102 708 691027 4549 0
38 2 S102 691 691718 5240 0
38 2 S102 686 692404 5926 0
38 2 S102 692 693096 6618 0
0 0 0 680 693776 -8833 0
0 0 0 667 694443 -8166 0
0 0 0 695 695138 -7471 0
0 0 0 929 696067 -6542 1
0 0 0 870 696937 -5672 0
0 0 0 822 697759 -4850 0
0 0 0 777 698536 -4073 0
0 0 0 794 699330 -3279 0
0 0 0 784 700114 -2495 0
39 1 S116 776 700890 -1719 0
39 1 S116 702 701592 -1017 0
39 1 S116 681 702273 -336 0
39 2 S116 713 702986 377 0
39 2 S116 741 703727 1118 0
39 2 S116 752 704479 1870 0
39 2 S116 729 705208 2599 0
39 2 S116 753 705961 3352 0
39 2 S116 757 706718 4109 0
39 2 S116 680 707398 4789 0
39 2 S116 662 708060 5451 0
39 2 S116 666 708726 6117 0
39 2 S116 689 709415 6806 0
0 0 0 750 710165 -7779 0
0 0 0 788 710953 -6991 0
0 0 0 728 711681 -6263 0
0 0 0 712 712393 -5551 0
0 0 0 740 713133 -4811 0
0 0 0 740 713873 -4071 0
0 0 0 743 714616 -3328 0
0 0 0 698 715314 -2630 0
40 1 S112 692 716006 -1938 0
40 1 S112 686 716692 -1252 0
40 1 S112 661 717353 -591 0
40 2 S112 651 718004 60 0
40 2 S112 636 718640 696 0
40 2 S112 645 719285 1341 0
40 2 S112 635 719920 1976 0
40 2 S112 628 720548 2604 0
40 2 S112 658 721206 3262 0
40 2 S112 816 722022 4078 0
40 2 S112 941 722963 5019 1
40 2 S112 855 723818 5874 0
40 2 S112 834 724652 6708 0
0 0 0 816 725468 -189095 0
0 0 0 761 726229 -188334 0
0 0 0 657 726886 -187677 0
0 0 0 647 727533 -187030 0
0 0 0 658 728191 -186372 0
0 0 0 666 728857 -185706 0
0 0 0 708 729565 -184998 0
0 0 0 705 730270 -184293 0
0 0 0 783 731053 -183510 0
0 0 0 797 731850 -182713 0
0 0 0 790 732640 -181923 0
0 0 0 736 733376 -181187 0
0 0 0 719 734095 -180468 0
0 0 0 788 734883 -179680 0
0 0 0 692 735575 -178988 0
0 0 0 647 736222 -178341 0
0 0 0 633 736855 -177708 0
0 0 0 717 737572 -176991 0
0 0 0 674 738246 -176317 0
0 0 0 670 738916 -175647 0
0 0 0 638 739554 -175009 0
0 0 0 645 740199 -174364 0
0 0 0 653 740852 -173711 0
0 0 0 656 741508 -173055 0
0 0 0 638 742146 -172417 0
0 0 0 655 742801 -171762 0
0 0 0 646 743447 -171116 0
0 0 0 639 744086 -170477 0
0 0 0 650 744736 -169827 0
0 0 0 652 745388 -169175 0
0 0 0 670 746058 -168505 0
0 0 0 692 746750 -167813 0
0 0 0 738 747488 -167075 0
0 0 0 726 748214 -166349 0
0 0 0 774 748988 -165575 0
0 0 0 811 749799 -164764 0
0 0 0 789 750588 -163975 0
0 0 0 768 751356 -163207 0
0 0 0 717 752073 -162490 0
0 0 0 737 752810 -161753 0
0 0 0 696 753506 -161057 0
0 0 0 682 754188 -160375 0
0 0 0 729 754917 -159646 0
0 0 0 697 755614 -158949 0
0 0 0 675 756289 -158274 0
0 0 0 668 756957 -157606 0
0 0 0 699 757656 -156907 0
0 0 0 809 758465 -156098 0
0 0 0 931 759396 -155167 1
0 0 0 831 760227 -154336 0
0 0 0 817 761044 -153519 0
0 0 0 808 761852 -152711 0
0 0 0 783 762635 -151928 0
0 0 0 718 763353 -151210 0
0 0 0 685 764038 -150525 0
0 0 0 683 764721 -149842 0
0 0 0 679 765400 -149163 0
0 0 0 686 766086 -148477 0
0 0 0 689 766775 -147788 0
0 0 0 705 767480 -147083 0
0 0 0 729 768209 -146354 0
0 0 0 763 768972 -145591 0
0 0 0 699 769671 -144892 0
0 0 0 670 770341 -144222 0
0 0 0 689 771030 -143533 0
0 0 0 741 771771 -142792 0
0 0 0 801 772572 -141991 0
0 0 0 776 773348 -141215 0
0 0 0 794 774142 -140421 0
0 0 0 698 774840 -139723 0
0 0 0 676 775516 -139047 0
0 0 0 690 776206 -138357 0
0 0 0 733 776939 -137624 0
0 0 0 772 777711 -136852 0
0 0 0 776 778487 -136076 0
0 0 0 788 779275 -135288 0
0 0 0 764 780039 -134524 0
0 0 0 782 780821 -133742 0
0 0 0 744 781565 -132998 0
0 0 0 719 782284 -132279 0
0 0 0 715 782999 -131564 0
0 0 0 690 783689 -130874 0
0 0 0 687 784376 -130187 0
0 0 0 682 785058 -129505 0
0 0 0 698 785756 -128807 0
0 0 0 719 786475 -128088 0
0 0 0 701 787176 -127387 0
0 0 0 672 787848 -126715 0
0 0 0 684 788532 -126031 0
0 0 0 757 789289 -125274 0
0 0 0 888 790177 -124386 0
0 0 0 820 790997 -123566 0
0 0 0 811 791808 -122755 0
0 0 0 773 792581 -121982 0
0 0 0 711 793292 -121271 0
0 0 0 747 794039 -120524 0
0 0 0 656 794695 -119868 0
0 0 0 654 795349 -119214 0
0 0 0 655 796004 -118559 0
0 0 0 695 796699 -117864 0
0 0 0 863 797562 -117001 0
0 0 0 894 798456 -116107 0
0 0 0 824 799280 -115283 0
0 0 0 784 800064 -114499 0
0 0 0 771 800835 -113728 0
0 0 0 743 801578 -112985 0
0 0 0 694 802272 -112291 0
0 0 0 675 802947 -111616 0
0 0 0 713 803660 -110903 0
0 0 0 814 804474 -110089 0
0 0 0 708 805182 -109381 0
0 0 0 682 805864 -108699 0
0 0 0 699 806563 -108000 0
0 0 0 778 807341 -107222 0
0 0 0 898 808239 -106324 0
0 0 0 827 809066 -105497 0
0 0 0 796 809862 -104701 0
0 0 0 746 810608 -103955 0
0 0 0 676 811284 -103279 0
0 0 0 661 811945 -102618 0
0 0 0 650 812595 -101968 0
0 0 0 643 813238 -101325 0
0 0 0 668 813906 -100657 0
0 0 0 670 814576 -99987 0
0 0 0 660 815236 -99327 0
0 0 0 689 815925 -98638 0
0 0 0 796 816721 -97842 0
0 0 0 877 817598 -96965 0
0 0 0 845 818443 -96120 0
0 0 0 880 819323 -95240 0
0 0 0 889 820212 -94351 0
0 0 0 890 821102 -93461 0
0 0 0 870 821972 -92591 0
0 0 0 866 822838 -91725 0
0 0 0 859 823697 -90866 0
0 0 0 836 824533 -90030 0
0 0 0 822 825355 -89208 0
0 0 0 799 826154 -88409 0
0 0 0 765 826919 -87644 0
0 0 0 768 827687 -86876 0
0 0 0 771 828458 -86105 0
0 0 0 768 829226 -85337 0
0 0 0 815 830041 -84522 0
0 0 0 806 830847 -83716 0
0 0 0 801 831648 -82915 0
0 0 0 776 832424 -82139 0
0 0 0 775 833199 -81364 0
0 0 0 695 833894 -80669 0
0 0 0 703 834597 -79966 0
0 0 0 755 835352 -79211 0
0 0 0 810 836162 -78401 0
0 0 0 829 836991 -77572 0
0 0 0 784 837775 -76788 0
0 0 0 771 838546 -76017 0
0 0 0 743 839289 -75274 0
0 0 0 721 840010 -74553 0
0 0 0 700 840710 -73853 0
0 0 0 693 841403 -73160 0
0 0 0 658 842061 -72502 0
0 0 0 642 842703 -71860 0
0 0 0 651 843354 -71209 0
0 0 0 735 844089 -70474 0
0 0 0 1054 845143 -69420 1
0 0 0 888 846031 -68532 0
0 0 0 818 846849 -67714 0
0 0 0 798 847647 -66916 0
0 0 0 776 848423 -66140 0
0 0 0 751 849174 -65389 0
0 0 0 790 849964 -64599 0
0 0 0 748 850712 -63851 0
0 0 0 730 851442 -63121 0
0 0 0 720 852162 -62401 0
0 0 0 701 852863 -61700 0
0 0 0 683 853546 -61017 0
0 0 0 669 854215 -60348 0
0 0 0 672 854887 -59676 0
0 0 0 666 855553 -59010 0
0 0 0 644 856197 -58366 0
0 0 0 644 856841 -57722 0
0 0 0 683 857524 -57039 0
0 0 0 759 858283 -56280 0
0 0 0 975 859258 -55305 1
0 0 0 869 860127 -54436 0
0 0 0 841 860968 -53595 0
0 0 0 838 861806 -52757 0
0 0 0 840 862646 -51917 0
0 0 0 840 863486 -51077 0
0 0 0 830 864316 -50247 0
0 0 0 795 865111 -49452 0
0 0 0 793 865904 -48659 0
0 0 0 771 866675 -47888 0
0 0 0 769 867444 -47119 0
0 0 0 770 868214 -46349 0
0 0 0 793 869007 -45556 0
0 0 0 869 869876 -44687 0
0 0 0 902 870778 -43785 0
0 0 0 827 871605 -42958 0
0 0 0 698 872303 -42260 0
0 0 0 712 873015 -41548 0
0 0 0 748 873763 -40800 0
0 0 0 749 874512 -40051 0
0 0 0 759 875271 -39292 0
0 0 0 746 876017 -38546 0
0 0 0 711 876728 -37835 0
0 0 0 699 877427 -37136 0
0 0 0 687 878114 -36449 0
0 0 0 685 878799 -35764 0
0 0 0 699 879498 -35065 0
0 0 0 720 880218 -34345 0
0 0 0 680 880898 -33665 0
0 0 0 684 881582 -32981 0
0 0 0 723 882305 -32258 0
0 0 0 805 883110 -31453 0
0 0 0 856 883966 -30597 0
0 0 0 824 884790 -29773 0
0 0 0 745 885535 -29028 0
0 0 0 738 886273 -28290 0
0 0 0 700 886973 -27590 0
0 0 0 660 887633 -26930 0
0 0 0 646 888279 -26284 0
0 0 0 690 888969 -25594 0
0 0 0 823 889792 -24771 0
0 0 0 928 890720 -23843 0
0 0 0 889 891609 -22954 0
0 0 0 811 892420 -22143 0
0 0 0 751 893171 -21392 0
0 0 0 748 893919 -20644 0
0 0 0 753 894672 -19891 0
0 0 0 766 895438 -19125 0
0 0 0 738 896176 -18387 0
0 0 0 711 896887 -17676 0
0 0 0 729 897616 -16947 0
0 0 0 779 898395 -16168 0
0 0 0 713 899108 -15455 0
0 0 0 693 899801 -14762 0
0 0 0 789 900590 -13973 0
0 0 0 826 901416 -13147 0
0 0 0 857 902273 -12290 0
0 0 0 819 903092 -11471 0
0 0 0 713 903805 -10758 0
0 0 0 673 904478 -10085 0
0 0 0 660 905138 -9425 0
0 0 0 696 905834 -8729 0
0 0 0 764 906598 -7965 0
0 0 0 754 907352 -7211 0
0 0 0 709 908061 -6502 0
0 0 0 705 908766 -5797 0
0 0 0 761 909527 -5036 0
0 0 0 838 910365 -4198 0
0 0 0 817 911182 -3381 0
0 0 0 748 911930 -2633 0
41 1 S102 675 912605 -1958 0
41 1 S102 674 913279 -1284 0
41 1 S102 709 913988 -575 0
41 2 S102 741 914729 166 0
41 2 S102 871 915600 1037 0
41 2 S102 815 916415 1852 0
41 2 S102 680 917095 2532 0
41 2 S102 657 917752 3189 0
41 2 S102 649 918401 3838 0
41 2 S102 633 919034 4471 0
41 2 S102 624 919658 5095 0
41 2 S102 649 920307 5744 0
41 2 S102 707 921014 6451 0
0 0 0 715 921729 -7274 0
0 0 0 678 922407 -6596 0
0 0 0 645 923052 -5951 0
0 0 0 641 923693 -5310 0
0 0 0 677 924370 -4633 0
0 0 0 772 925142 -3861 0
0 0 0 862 926004 -2999 0
0 0 0 807 926811 -2192 0
42 1 S112 744 927555 -1448 0
42 1 S112 715 928270 -733 0
42 1 S112 702 928972 -31 0
42 2 S112 693 929665 662 0
42 2 S112 677 930342 1339 0
42 2 S112 682 931024 2021 0
42 2 S112 720 931744 2741 0
42 2 S112 766 932510 3507 0
42 2 S112 802 933312 4309 0
42 2 S112 824 934136 5133 0
42 2 S112 805 934941 5938 0
42 2 S112 790 935731 6728 0
0 0 0 692 936423 -9872 0
0 0 0 713 937136 -9159 0
0 0 0 764 937900 -8395 0
0 0 0 822 938722 -7573 0
0 0 0 816 939538 -6757 0
0 0 0 735 940273 -6022 0
0 0 0 688 940961 -5334 0
0 0 0 704 941665 -4630 0
0 0 0 750 942415 -3880 0
0 0 0 751 943166 -3129 0
0 0 0 737 943903 -2392 0
43 1 S116 752 944655 -1640 0
43 1 S116 700 945355 -940 0
43 1 S116 707 946062 -233 0
43 2 S116 695 946757 462 0
43 2 S116 680 947437 1142 0
43 2 S116 703 948140 1845 0
43 2 S116 667 948807 2512 0
43 2 S116 660 949467 3172 0
43 2 S116 693 950160 3865 0
43 2 S116 810 950970 4675 0
43 2 S116 929 951899 5604 1
43 2 S116 827 952726 6431 0
0 0 0 810 953536 -9370 0
0 0 0 839 954375 -8531 0
0 0 0 844 955219 -7687 0
0 0 0 775 955994 -6912 0
0 0 0 708 956702 -6204 0
0 0 0 688 957390 -5516 0
0 0 0 703 958093 -4813 0
0 0 0 737 958830 -4076 0
0 0 0 709 959539 -3367 0
0 0 0 663 960202 -2704 0
0 0 0 655 960857 -2049 0
44 1 S102 679 961536 -1370 0
44 1 S102 730 962266 -640 0
44 2 S102 814 963080 174 0
44 2 S102 808 963888 982 0
44 2 S102 758 964646 1740 0
44 2 S102 717 965363 2457 0
44 2 S102 692 966055 3149 0
44 2 S102 704 966759 3853 0
44 2 S102 680 967439 4533 0
44 2 S102 685 968124 5218 0
44 2 S102 700 968824 5918 0
44 2 S102 758 969582 6676 0
0 0 0 801 970383 -9930 0
0 0 0 836 971219 -9094 0
0 0 0 839 972058 -8255 0
0 0 0 742 972800 -7513 0
0 0 0 698 973498 -6815 0
0 0 0 723 974221 -6092 0
0 0 0 730 974951 -5362 0
0 0 0 721 975672 -4641 0
0 0 0 705 976377 -3936 0
0 0 0 717 977094 -3219 0
0 0 0 693 977787 -2526 0
45 1 S116 683 978470 -1843 0
45 1 S116 652 979122 -1191 0
45 1 S116 669 979791 -522 0
45 2 S116 647 980438 125 0
45 2 S116 637 981075 762 0
45 2 S116 626 981701 1388 0
45 2 S116 622 982323 2010 0
45 2 S116 625 982948 2635 0
45 2 S116 617 983565 3252 0
45 2 S116 607 984172 3859 0
45 2 S116 626 984798 4485 0
45 2 S116 666 985464 5151 0
45 2 S116 645 986109 5796 0
45 2 S116 639 986748 6435 0
0 0 0 645 987393 -12151 0
0 0 0 673 988066 -11478 0
0 0 0 711 988777 -10767 0
0 0 0 732 989509 -10035 0
0 0 0 754 990263 -9281 0
0 0 0 700 990963 -8581 0
0 0 0 671 991634 -7910 0
0 0 0 654 992288 -7256 0
0 0 0 632 992920 -6624 0
0 0 0 623 993543 -6001 0
0 0 0 630 994173 -5371 0
0 0 0 644 994817 -4727 0
0 0 0 681 995498 -4046 0
0 0 0 725 996223 -3321 0
0 0 0 761 996984 -2560 0
46 1 S102 791 997775 -1769 0
46 1 S102 767 998542 -1002 0
46 1 S102 770 999312 -232 0
46 2 S102 778 1000090 546 0
46 2 S102 770 1000860 1316 0
46 2 S102 767 1001627 2083 0
46 2 S102 790 1002417 2873 0
46 2 S102 749 1003166 3622 0
46 2 S102 701 1003867 4323 0
46 2 S102 688 1004555 5011 0
46 2 S102 705 1005260 5716 0
46 2 S102 822 1006082 6538 0
0 0 0 919 1007001 -11161 0
0 0 0 859 1007860 -10302 0
0 0 0 745 1008605 -9557 0
0 0 0 708 1009313 -8849 0
0 0 0 757 1010070 -8092 0
0 0 0 760 1010830 -7332 0
0 0 0 718 1011548 -6614 0
0 0 0 688 1012236 -5926 0
0 0 0 669 1012905 -5257 0
0 0 0 647 1013552 -4610 0
0 0 0 637 1014189 -3973 0
0 0 0 632 1014821 -3341 0
0 0 0 631 1015452 -2710 0
0 0 0 648 1016100 -2062 0
47 1 S112 656 1016756 -1406 0
47 1 S112 670 1017426 -736 0
47 1 S112 708 1018134 -28 0
47 2 S112 840 1018974 812 0
47 2 S112 1063 1020037 1875 1
47 2 S112 887 1020924 2762 0
47 2 S112 831 1021755 3593 0
47 2 S112 774 1022529 4367 0
47 2 S112 737 1023266 5104 0
47 2 S112 764 1024030 5868 0
47 2 S112 764 1024794 6632 0
0 0 0 784 1025578 -12146 0
0 0 0 754 1026332 -11392 0
0 0 0 761 1027093 -10631 0
0 0 0 723 1027816 -9908 0
0 0 0 682 1028498 -9226 0
0 0 0 664 1029162 -8562 0
0 0 0 675 1029837 -7887 0
0 0 0 703 1030540 -7184 0
0 0 0 1045 1031585 -6139 1
0 0 0 879 1032464 -5260 0
0 0 0 849 1033313 -4411 0
0 0 0 833 1034146 -3578 0
0 0 0 779 1034925 -2799 0
0 0 0 701 1035626 -2098 0
48 1 S116 688 1036314 -1410 0
48 1 S116 672 1036986 -738 0
48 1 S116 645 1037631 -93 0
48 2 S116 653 1038284 560 0
48 2 S116 701 1038985 1261 0
48 2 S116 774 1039759 2035 0
48 2 S116 935 1040694 2970 1
48 2 S116 851 1041545 3821 0
48 2 S116 802 1042347 4623 0
48 2 S116 742 1043089 5365 0
48 2 S116 685 1043774 6050 0
48 2 S116 670 1044444 6720 0
0 0 0 684 1045128 -7865 0
0 0 0 719 1045847 -7146 0
0 0 0 731 1046578 -6415 0
0 0 0 692 1047270 -5723 0
0 0 0 711 1047981 -5012 0
0 0 0 715 1048696 -4297 0
0 0 0 768 1049464 -3529 0
0 0 0 782 1050246 -2747 0
0 0 0 706 1050952 -2041 0
49 1 S112 689 1051641 -1352 0
49 1 S112 696 1052337 -656 0
49 2 S112 712 1053049 56 0
49 2 S112 738 1053787 794 0
49 2 S112 742 1054529 1536 0
49 2 S112 736 1055265 2272 0
49 2 S112 739 1056004 3011 0
49 2 S112 745 1056749 3756 0
49 2 S112 696 1057445 4452 0
49 2 S112 672 1058117 5124 0
49 2 S112 672 1058789 5796 0
49 2 S112 694 1059483 6490 0
0 0 0 760 1060243 -12263 0
0 0 0 800 1061043 -11463 0
0 0 0 777 1061820 -10686 0
0 0 0 812 1062632 -9874 0
0 0 0 739 1063371 -9135 0
0 0 0 719 1064090 -8416 0
0 0 0 673 1064763 -7743 0
0 0 0 662 1065425 -7081 0
0 0 0 692 1066117 -6389 0
0 0 0 729 1066846 -5660 0
0 0 0 736 1067582 -4924 0
0 0 0 724 1068306 -4200 0
0 0 0 719 1069025 -3481 0
0 0 0 714 1069739 -2767 0
0 0 0 709 1070448 -2058 0
50 1 S106 690 1071138 -1368 0
50 1 S106 701 1071839 -667 0
50 2 S106 709 1072548 42 0
50 2 S106 709 1073257 751 0
50 2 S106 734 1073991 1485 0
50 2 S106 686 1074677 2171 0
50 2 S106 670 1075347 2841 0
50 2 S106 667 1076014 3508 0
50 2 S106 697 1076711 4205 0
50 2 S106 740 1077451 4945 0
50 2 S106 741 1078192 5686 0
50 2 S106 727 1078919 6413 0
0 0 0 715 1079634 -8091 0
0 0 0 677 1080311 -7414 0
0 0 0 653 1080964 -6761 0
0 0 0 640 1081604 -6121 0
0 0 0 673 1082277 -5448 0
0 0 0 741 1083018 -4707 0
0 0 0 753 1083771 -3954 0
0 0 0 766 1084537 -3188 0
0 0 0 800 1085337 -2388 0
51 1 S112 701 1086038 -1687 0
51 1 S112 683 1086721 -1004 0
51 1 S112 679 1087400 -325 0
51 2 S112 720 1088120 395 0
51 2 S112 780 1088900 1175 0
51 2 S112 754 1089654 1929 0
51 2 S112 686 1090340 2615 0
51 2 S112 680 1091020 3295 0
51 2 S112 717 1091737 4012 0
51 2 S112 747 1092484 4759 0
51 2 S112 746 1093230 5505 0
51 2 S112 719 1093949 6224 0
51 2 S112 730 1094679 6954 0
0 0 0 706 1095385 -7973 0
0 0 0 663 1096048 -7310 0
0 0 0 655 1096703 -6655 0
0 0 0 667 1097370 -5988 0
0 0 0 673 1098043 -5315 0
0 0 0 684 1098727 -4631 0
0 0 0 652 1099379 -3979 0
0 0 0 641 1100020 -3338 0
0 0 0 624 1100644 -2714 0
0 0 0 612 1101256 -2102 0
52 1 S116 603 1101859 -1499 0
52 1 S116 602 1102461 -897 0
52 1 S116 582 1103043 -315 0
52 2 S116 584 1103627 269 0
52 2 S116 591 1104218 860 0
52 2 S116 584 1104802 1444 0
52 2 S116 900 1105702 2344 0
52 2 S116 837 1106539 3181 0
52 2 S116 879 1107418 4060 0
52 2 S116 871 1108289 4931 0
52 2 S116 844 1109133 5775 0
52 2 S116 759 1109892 6534 0
0 0 0 751 1110643 -9857 0
0 0 0 675 1111318 -9182 0
0 0 0 660 1111978 -8522 0
0 0 0 650 1112628 -7872 0
0 0 0 669 1113297 -7203 0
0 0 0 862 1114159 -6341 0
0 0 0 947 1115106 -5394 1
0 0 0 876 1115982 -4518 0
0 0 0 864 1116846 -3654 0
0 0 0 858 1117704 -2796 0
53 1 S106 844 1118548 -1952 0
53 1 S106 825 1119373 -1127 0
53 1 S106 810 1120183 -317 0
53 2 S106 748 1120931 431 0
53 2 S106 757 1121688 1188 0
53 2 S106 761 1122449 1949 0
53 2 S106 777 1123226 2726 0
53 2 S106 779 1124005 3505 0
53 2 S106 782 1124787 4287 0
53 2 S106 803 1125590 5090 0
53 2 S106 839 1126429 5929 0
53 2 S106 855 1127284 6784 0
0 0 0 827 1128111 -6498 0
0 0 0 799 1128910 -5699 0
0 0 0 758 1129668 -4941 0
0 0 0 727 1130395 -4214 0
0 0 0 715 1131110 -3499 0
0 0 0 711 1131821 -2788 0
0 0 0 721 1132542 -2067 0
54 1 S102 733 1133275 -1334 0
54 1 S102 746 1134021 -588 0
54 2 S102 751 1134772 163 0
54 2 S102 765 1135537 928 0
54 2 S102 752 1136289 1680 0
54 2 S102 707 1136996 2387 0
54 2 S102 699 1137695 3086 0
54 2 S102 744 1138439 3830 0
54 2 S102 804 1139243 4634 0
54 2 S102 770 1140013 5404 0
54 2 S102 774 1140787 6178 0
0 0 0 857 1141644 -13439 0
0 0 0 830 1142474 -12609 0
0 0 0 765 1143239 -11844 0
0 0 0 703 1143942 -11141 0
0 0 0 731 1144673 -10410 0
0 0 0 783 1145456 -9627 0
0 0 0 756 1146212 -8871 0
0 0 0 700 1146912 -8171 0
0 0 0 689 1147601 -7482 0
0 0 0 712 1148313 -6770 0
0 0 0 710 1149023 -6060 0
0 0 0 696 1149719 -5364 0
0 0 0 679 1150398 -4685 0
0 0 0 653 1151051 -4032 0
0 0 0 665 1151716 -3367 0
0 0 0 733 1152449 -2634 0
55 1 S106 758 1153207 -1876 0
55 1 S106 747 1153954 -1129 0
55 1 S106 778 1154732 -351 0
55 2 S106 806 1155538 455 0
55 2 S106 814 1156352 1269 0
55 2 S106 757 1157109 2026 0
55 2 S106 698 1157807 2724 0
55 2 S106 707 1158514 3431 0
55 2 S106 727 1159241 4158 0
55 2 S106 729 1159970 4887 0
55 2 S106 702 1160672 5589 0
55 2 S106 693 1161365 6282 0
0 0 0 764 1162129 -7261 0
0 0 0 846 1162975 -6415 0
0 0 0 817 1163792 -5598 0
0 0 0 714 1164506 -4884 0
0 0 0 703 1165209 -4181 0
0 0 0 723 1165932 -3458 0
0 0 0 735 1166667 -2723 0
56 1 S116 756 1167423 -1967 0
56 1 S116 762 1168185 -1205 0
56 1 S116 716 1168901 -489 0
56 2 S116 711 1169612 222 0
56 2 S116 748 1170360 970 0
56 2 S116 797 1171157 1767 0
56 2 S116 782 1171939 2549 0
56 2 S116 699 1172638 3248 0
56 2 S116 715 1173353 3963 0
56 2 S116 735 1174088 4698 0
56 2 S116 747 1174835 5445 0
56 2 S116 765 1175600 6210 0
56 2 S116 738 1176338 6948 0
0 0 0 757 1177095 -7912 0
0 0 0 710 1177805 -7202 0
0 0 0 672 1178477 -6530 0
0 0 0 655 1179132 -5875 0
0 0 0 669 1179801 -5206 0
0 0 0 678 1180479 -4528 0
0 0 0 727 1181206 -3801 0
0 0 0 881 1182087 -2920 0
0 0 0 829 1182916 -2091 0
57 1 S106 817 1183733 -1274 0
57 1 S106 754 1184487 -520 0
57 2 S106 730 1185217 210 0
57 2 S106 700 1185917 910 0
57 2 S106 702 1186619 1612 0
57 2 S106 683 1187302 2295 0
57 2 S106 647 1187949 2942 0
57 2 S106 632 1188581 3574 0
57 2 S106 654 1189235 4228 0
57 2 S106 635 1189870 4863 0
57 2 S106 622 1190492 5485 0
57 2 S106 634 1191126 6119 0
57 2 S106 716 1191842 6835 0
0 0 0 740 1192582 -7975 0
0 0 0 835 1193417 -7140 0
0 0 0 713 1194130 -6427 0
0 0 0 679 1194809 -5748 0
0 0 0 677 1195486 -5071 0
0 0 0 697 1196183 -4374 0
0 0 0 734 1196917 -3640 0
0 0 0 710 1197627 -2930 0
0 0 0 705 1198332 -2225 0
58 1 S102 723 1199055 -1502 0
58 1 S102 675 1199730 -827 0
58 1 S102 665 1200395 -162 0
58 2 S102 665 1201060 503 0
58 2 S102 709 1201769 1212 0
58 2 S102 730 1202499 1942 0
58 2 S102 840 1203339 2782 0
58 2 S102 784 1204123 3566 0
58 2 S102 714 1204837 4280 0
58 2 S102 714 1205551 4994 0
58 2 S102 770 1206321 5764 0
58 2 S102 774 1207095 6538 0
0 0 0 736 1207831 -7514 0
0 0 0 751 1208582 -6763 0
0 0 0 725 1209307 -6038 0
0 0 0 670 1209977 -5368 0
0 0 0 672 1210649 -4696 0
0 0 0 694 1211343 -4002 0
0 0 0 754 1212097 -3248 0
0 0 0 771 1212868 -2477 0
59 1 S112 789 1213657 -1688 0
59 1 S112 700 1214357 -988 0
59 1 S112 677 1215034 -311 0
59 2 S112 693 1215727 382 0
59 2 S112 718 1216445 1100 0
59 2 S112 753 1217198 1853 0
59 2 S112 719 1217917 2572 0
59 2 S112 699 1218616 3271 0
59 2 S112 692 1219308 3963 0
59 2 S112 758 1220066 4721 0
59 2 S112 875 1220941 5596 0
59 2 S112 901 1221842 6497 0
0 0 0 788 1222630 -9393 0
0 0 0 779 1223409 -8614 0
0 0 0 726 1224135 -7888 0
0 0 0 674 1224809 -7214 0
0 0 0 652 1225461 -6562 0
0 0 0 652 1226113 -5910 0
0 0 0 688 1226801 -5222 0
0 0 0 780 1227581 -4442 0
0 0 0 905 1228486 -3537 0
0 0 0 865 1229351 -2672 0
60 1 S102 888 1230239 -1784 0
60 1 S102 778 1231017 -1006 0
60 1 S102 714 1231731 -292 0
60 2 S102 719 1232450 427 0
60 2 S102 738 1233188 1165 0
60 2 S102 742 1233930 1907 0
60 2 S102 710 1234640 2617 0
60 2 S102 708 1235348 3325 0
60 2 S102 712 1236060 4037 0
60 2 S102 700 1236760 4737 0
60 2 S102 699 1237459 5436 0
60 2 S102 709 1238168 6145 0
60 2 S102 691 1238859 6836 0
0 0 0 690 1239549 -13098 0
0 0 0 693 1240242 -12405 0
0 0 0 697 1240939 -11708 0
0 0 0 650 1241589 -11058 0
0 0 0 644 1242233 -10414 0
0 0 0 665 1242898 -9749 0
0 0 0 694 1243592 -9055 0
0 0 0 747 1244339 -8308 0
0 0 0 756 1245095 -7552 0
0 0 0 725 1245820 -6827 0
0 0 0 667 1246487 -6160 0
0 0 0 672 1247159 -5488 0
0 0 0 666 1247825 -4822 0
0 0 0 672 1248497 -4150 0
0 0 0 672 1249169 -3478 0
0 0 0 663 1249832 -2815 0
0 0 0 670 1250502 -2145 0
61 1 S106 655 1251157 -1490 0
61 1 S106 634 1251791 -856 0
61 1 S106 628 1252419 -228 0
61 2 S106 648 1253067 420 0
61 2 S106 710 1253777 1130 0
61 2 S106 946 1254723 2076 1
61 2 S106 849 1255572 2925 0
61 2 S106 760 1256332 3685 0
61 2 S106 747 1257079 4432 0
61 2 S106 794 1257873 5226 0
61 2 S106 777 1258650 6003 0
61 2 S106 803 1259453 6806 0
0 0 0 707 1260160 -7954 0
0 0 0 691 1260851 -7263 0
0 0 0 734 1261585 -6529 0
0 0 0 772 1262357 -5757 0
0 0 0 736 1263093 -5021 0
0 0 0 679 1263772 -4342 0
0 0 0 665 1264437 -3677 0
0 0 0 670 1265107 -3007 0
0 0 0 695 1265802 -2312 0
62 1 S112 790 1266592 -1522 0
62 1 S112 894 1267486 -628 0
62 2 S112 818 1268304 190 0
62 2 S112 825 1269129 1015 0
62 2 S112 743 1269872 1758 0
62 2 S112 691 1270563 2449 0
62 2 S112 709 1271272 3158 0
62 2 S112 767 1272039 3925 0
62 2 S112 749 1272788 4674 0
62 2 S112 747 1273535 5421 0
62 2 S112 763 1274298 6184 0
62 2 S112 730 1275028 6914 0
0 0 0 678 1275706 -10926 0
0 0 0 682 1276388 -10244 0
0 0 0 723 1277111 -9521 0
0 0 0 737 1277848 -8784 0
0 0 0 719 1278567 -8065 0
0 0 0 695 1279262 -7370 0
0 0 0 674 1279936 -6696 0
0 0 0 694 1280630 -6002 0
0 0 0 724 1281354 -5278 0
0 0 0 858 1282212 -4420 0
0 0 0 802 1283014 -3618 0
0 0 0 734 1283748 -2884 0
0 0 0 722 1284470 -2162 0
63 1 S102 780 1285250 -1382 0
63 1 S102 809 1286059 -573 0
63 2 S102 796 1286855 223 0
63 2 S102 747 1287602 970 0
63 2 S102 689 1288291 1659 0
63 2 S102 715 1289006 2374 0
63 2 S102 746 1289752 3120 0
63 2 S102 782 1290534 3902 0
63 2 S102 775 1291309 4677 0
63 2 S102 745 1292054 5422 0
63 2 S102 780 1292834 6202 0
63 2 S102 794 1293628 6996 0
0 0 0 851 1294479 -10008 0
0 0 0 825 1295304 -9183 0
0 0 0 810 1296114 -8373 0
0 0 0 762 1296876 -7611 0
0 0 0 701 1297577 -6910 0
0 0 0 729 1298306 -6181 0
0 0 0 772 1299078 -5409 0
0 0 0 712 1299790 -4697 0
0 0 0 690 1300480 -4007 0
0 0 0 666 1301146 -3341 0
0 0 0 819 1301965 -2522 0
64 1 S112 859 1302824 -1663 0
64 1 S112 723 1303547 -940 0
64 1 S112 711 1304258 -229 0
64 2 S112 731 1304989 502 0
64 2 S112 785 1305774 1287 0
64 2 S112 783 1306557 2070 0
64 2 S112 746 1307303 2816 0
64 2 S112 716 1308019 3532 0
64 2 S112 757 1308776 4289 0
64 2 S112 797 1309573 5086 0
64 2 S112 836 1310409 5922 0
64 2 S112 810 1311219 6732 0
0 0 0 792 1312011 -7977 0
0 0 0 749 1312760 -7228 0
0 0 0 751 1313511 -6477 0
0 0 0 725 1314236 -5752 0
0 0 0 677 1314913 -5075 0
0 0 0 654 1315567 -4421 0
0 0 0 676 1316243 -3745 0
0 0 0 976 1317219 -2769 1
65 1 S106 908 1318127 -1861 0
65 1 S106 952 1319079 -909 1
65 2 S106 956 1320035 47 1
65 2 S106 919 1320954 966 0
65 2 S106 923 1321877 1889 0
65 2 S106 851 1322728 2740 0
65 2 S106 766 1323494 3506 0
65 2 S106 718 1324212 4224 0
65 2 S106 716 1324928 4940 0
65 2 S106 734 1325662 5674 0
65 2 S106 729 1326391 6403 0
0 0 0 811 1327202 -7955 0
0 0 0 1032 1328234 -6923 1
0 0 0 904 1329138 -6019 0
0 0 0 887 1330025 -5132 0
0 0 0 884 1330909 -4248 0
0 0 0 870 1331779 -3378 0
0 0 0 865 1332644 -2513 0
66 1 S116 840 1333484 -1673 0
66 1 S116 812 1334296 -861 0
66 1 S116 735 1335031 -126 0
66 2 S116 718 1335749 592 0
66 2 S116 711 1336460 1303 0
66 2 S116 776 1337236 2079 0
66 2 S116 786 1338022 2865 0
66 2 S116 769 1338791 3634 0
66 2 S116 787 1339578 4421 0
66 2 S116 770 1340348 5191 0
66 2 S116 741 1341089 5932 0
66 2 S116 733 1341822 6665 0
0 0 0 689 1342511 -11695 0
0 0 0 672 1343183 -11023 0
0 0 0 657 1343840 -10366 0
0 0 0 662 1344502 -9704 0
0 0 0 724 1345226 -8980 0
0 0 0 977 1346203 -8003 1
0 0 0 867 1347070 -7136 0
0 0 0 878 1347948 -6258 0
0 0 0 847 1348795 -5411 0
0 0 0 843 1349638 -4568 0
0 0 0 782 1350420 -3786 0
0 0 0 716 1351136 -3070 0
0 0 0 695 1351831 -2375 0
67 1 S102 675 1352506 -1700 0
67 1 S102 693 1353199 -1007 0
67 1 S102 663 1353862 -344 0
67 2 S102 673 1354535 329 0
67 2 S102 728 1355263 1057 0
67 2 S102 1084 1356347 2141 1
67 2 S102 927 1357274 3068 0
67 2 S102 923 1358197 3991 0
67 2 S102 858 1359055 4849 0
67 2 S102 813 1359868 5662 0
67 2 S102 810 1360678 6472 0
0 0 0 743 1361421 -8750 0
0 0 0 787 1362208 -7963 0
0 0 0 783 1362991 -7180 0
0 0 0 729 1363720 -6451 0
0 0 0 704 1364424 -5747 0
0 0 0 708 1365132 -5039 0
0 0 0 739 1365871 -4300 0
0 0 0 750 1366621 -3550 0
0 0 0 801 1367422 -2749 0
0 0 0 739 1368161 -2010 0
68 1 S106 710 1368871 -1300 0
68 1 S106 686 1369557 -614 0
68 2 S106 709 1370266 95 0
68 2 S106 757 1371023 852 0
68 2 S106 790 1371813 1642 0
68 2 S106 735 1372548 2377 0
68 2 S106 715 1373263 3092 0
68 2 S106 713 1373976 3805 0
68 2 S106 693 1374669 4498 0
68 2 S106 681 1375350 5179 0
68 2 S106 678 1376028 5857 0
68 2 S106 689 1376717 6546 0
0 0 0 698 1377415 -13396 0
0 0 0 730 1378145 -12666 0
0 0 0 741 1378886 -11925 0
0 0 0 728 1379614 -11197 0
0 0 0 726 1380340 -10471 0
0 0 0 727 1381067 -9744 0
0 0 0 709 1381776 -9035 0
0 0 0 743 1382519 -8292 0
0 0 0 728 1383247 -7564 0
0 0 0 682 1383929 -6882 0
0 0 0 662 1384591 -6220 0
0 0 0 693 1385284 -5527 0
0 0 0 693 1385977 -4834 0
0 0 0 685 1386662 -4149 0
0 0 0 678 1387340 -3471 0
0 0 0 741 1388081 -2730 0
69 1 S102 774 1388855 -1956 0
69 1 S102 808 1389663 -1148 0
69 1 S102 748 1390411 -400 0
69 2 S102 694 1391105 294 0
69 2 S102 757 1391862 1051 0
69 2 S102 789 1392651 1840 0
69 2 S102 830 1393481 2670 0
69 2 S102 794 1394275 3464 0
69 2 S102 701 1394976 4165 0
69 2 S102 686 1395662 4851 0
69 2 S102 705 1396367 5556 0
69 2 S102 737 1397104 6293 0
0 0 0 753 1397857 -10477 0
0 0 0 796 1398653 -9681 0
0 0 0 777 1399430 -8904 0
0 0 0 698 1400128 -8206 0
0 0 0 730 1400858 -7476 0
0 0 0 739 1401597 -6737 0
0 0 0 774 1402371 -5963 0
0 0 0 740 1403111 -5223 0
0 0 0 741 1403852 -4482 0
0 0 0 755 1404607 -3727 0
0 0 0 705 1405312 -3022 0
0 0 0 670 1405982 -2352 0
70 1 S112 665 1406647 -1687 0
70 1 S112 697 1407344 -990 0
70 1 S112 758 1408102 -232 0
70 2 S112 938 1409040 706 1
70 2 S112 963 1410003 1669 1
70 2 S112 810 1410813 2479 0
70 2 S112 795 1411608 3274 0
70 2 S112 819 1412427 4093 0
70 2 S112 838 1413265 4931 0
70 2 S112 846 1414111 5777 0
70 2 S112 748 1414859 6525 0
0 0 0 708 1415567 -11634 0
0 0 0 712 1416279 -10922 0
0 0 0 757 1417036 -10165 0
0 0 0 810 1417846 -9355 0
0 0 0 770 1418616 -8585 0
0 0 0 746 1419362 -7839 0
0 0 0 726 1420088 -7113 0
0 0 0 775 1420863 -6338 0
0 0 0 818 1421681 -5520 0
0 0 0 830 1422511 -4690 0
0 0 0 805 1423316 -3885 0
0 0 0 765 1424081 -3120 0
0 0 0 721 1424802 -2399 0
71 1 S116 712 1425514 -1687 0
71 1 S116 695 1426209 -992 0
71 1 S116 664 1426873 -328 0
71 2 S116 649 1427522 321 0
71 2 S116 690 1428212 1011 0
71 2 S116 1022 1429234 2033 1
71 2 S116 880 1430114 2913 0
71 2 S116 884 1430998 3797 0
71 2 S116 856 1431854 4653 0
71 2 S116 867 1432721 5520 0
71 2 S116 835 1433556 6355 0
0 0 0 766 1434322 -9341 0
0 0 0 675 1434997 -8666 0
0 0 0 681 1435678 -7985 0
0 0 0 711 1436389 -7274 0
0 0 0 747 1437136 -6527 0
0 0 0 746 1437882 -5781 0
0 0 0 741 1438623 -5040 0
0 0 0 773 1439396 -4267 0
0 0 0 815 1440211 -3452 0
0 0 0 831 1441042 -2621 0
72 1 S102 803 1441845 -1818 0
72 1 S102 759 1442604 -1059 0
72 1 S102 741 1443345 -318 0
72 2 S102 728 1444073 410 0
72 2 S102 797 1444870 1207 0
72 2 S102 750 1445620 1957 0
72 2 S102 771 1446391 2728 0
72 2 S102 771 1447162 3499 0
72 2 S102 708 1447870 4207 0
72 2 S102 687 1448557 4894 0
72 2 S102 697 1449254 5591 0
72 2 S102 768 1450022 6359 0
0 0 0 783 1450805 -7596 0
0 0 0 875 1451680 -6721 0
0 0 0 812 1452492 -5909 0
0 0 0 720 1453212 -5189 0
0 0 0 700 1453912 -4489 0
0 0 0 726 1454638 -3763 0
0 0 0 746 1455384 -3017 0
0 0 0 751 1456135 -2266 0
73 1 S116 714 1456849 -1552 0
73 1 S116 736 1457585 -816 0
73 1 S116 703 1458288 -113 0
73 2 S116 686 1458974 573 0
73 2 S116 692 1459666 1265 0
73 2 S116 684 1460350 1949 0
73 2 S116 664 1461014 2613 0
73 2 S116 663 1461677 3276 0
73 2 S116 728 1462405 4004 0
73 2 S116 788 1463193 4792 0
73 2 S116 938 1464131 5730 1
73 2 S116 849 1464980 6579 0
0 0 0 756 1465736 -9774 0
0 0 0 736 1466472 -9038 0
0 0 0 753 1467225 -8285 0
0 0 0 765 1467990 -7520 0
0 0 0 717 1468707 -6803 0
0 0 0 667 1469374 -6136 0
0 0 0 651 1470025 -5485 0
0 0 0 644 1470669 -4841 0
0 0 0 675 1471344 -4166 0
0 0 0 1022 1472366 -3144 1
0 0 0 878 1473244 -2266 0
74 1 S106 869 1474113 -1397 0
74 1 S106 867 1474980 -530 0
74 2 S106 846 1475826 316 0
74 2 S106 834 1476660 1150 0
74 2 S106 804 1477464 1954 0
74 2 S106 717 1478181 2671 0
74 2 S106 681 1478862 3352 0
74 2 S106 662 1479524 4014 0
74 2 S106 660 1480184 4674 0
74 2 S106 656 1480840 5330 0
74 2 S106 707 1481547 6037 0
74 2 S106 873 1482420 6910 0
0 0 0 832 1483252 -7809 0
0 0 0 867 1484119 -6942 0
0 0 0 844 1484963 -6098 0
0 0 0 835 1485798 -5263 0
0 0 0 809 1486607 -4454 0
0 0 0 723 1487330 -3731 0
0 0 0 663 1487993 -3068 0
0 0 0 666 1488659 -2402 0
75 1 S112 669 1489328 -1733 0
75 1 S112 673 1490001 -1060 0
75 1 S112 728 1490729 -332 0
75 2 S112 736 1491465 404 0
75 2 S112 764 1492229 1168 0
75 2 S112 679 1492908 1847 0
75 2 S112 665 1493573 2512 0
75 2 S112 661 1494234 3173 0
75 2 S112 662 1494896 3835 0
75 2 S112 669 1495565 4504 0
75 2 S112 689 1496254 5193 0
75 2 S112 701 1496955 5894 0
75 2 S112 733 1497688 6627 0
0 0 0 721 1498409 -7158 0
0 0 0 733 1499142 -6425 0
0 0 0 717 1499859 -5708 0
0 0 0 672 1500531 -5036 0
0 0 0 665 1501196 -4371 0
0 0 0 654 1501850 -3717 0
0 0 0 639 1502489 -3078 0
0 0 0 640 1503129 -2438 0
76 1 S116 668 1503797 -1770 0
76 1 S116 669 1504466 -1101 0
76 1 S116 658 1505124 -443 0
76 2 S116 661 1505785 218 0
76 2 S116 665 1506450 883 0
76 2 S116 663 1507113 1546 0
76 2 S116 690 1507803 2236 0
76 2 S116 720 1508523 2956 0
76 2 S116 692 1509215 3648 0
76 2 S116 652 1509867 4300 0
76 2 S116 657 1510524 4957 0
76 2 S116 741 1511265 5698 0
76 2 S116 854 1512119 6552 0
0 0 0 892 1513011 -6879 0
0 0 0 843 1513854 -6036 0
0 0 0 769 1514623 -5267 0
0 0 0 696 1515319 -4571 0
0 0 0 690 1516009 -3881 0
0 0 0 699 1516708 -3182 0
0 0 0 769 1517477 -2413 0
77 1 S106 775 1518252 -1638 0
77 1 S106 764 1519016 -874 0
77 1 S106 762 1519778 -112 0
77 2 S106 701 1520479 589 0
77 2 S106 691 1521170 1280 0
77 2 S106 721 1521891 2001 0
77 2 S106 779 1522670 2780 0
77 2 S106 835 1523505 3615 0
77 2 S106 808 1524313 4423 0
77 2 S106 812 1525125 5235 0
77 2 S106 767 1525892 6002 0
77 2 S106 711 1526603 6713 0
0 0 0 703 1527306 -10141 0
0 0 0 746 1528052 -9395 0
0 0 0 734 1528786 -8661 0
0 0 0 732 1529518 -7929 0
0 0 0 709 1530227 -7220 0
0 0 0 711 1530938 -6509 0
0 0 0 666 1531604 -5843 0
0 0 0 648 1532252 -5195 0
0 0 0 651 1532903 -4544 0
0 0 0 706 1533609 -3838 0
0 0 0 779 1534388 -3059 0
0 0 0 953 1535341 -2106 1
78 1 S112 842 1536183 -1264 0
78 1 S112 791 1536974 -473 0
78 2 S112 780 1537754 307 0
78 2 S112 811 1538565 1118 0
78 2 S112 835 1539400 1953 0
78 2 S112 826 1540226 2779 0
78 2 S112 771 1540997 3550 0
78 2 S112 694 1541691 4244 0
78 2 S112 717 1542408 4961 0
78 2 S112 746 1543154 5707 0
78 2 S112 781 1543935 6488 0
0 0 0 767 1544702 -12506 0
0 0 0 749 1545451 -11757 0
0 0 0 733 1546184 -11024 0
0 0 0 735 1546919 -10289 0
0 0 0 880 1547799 -9409 0
0 0 0 843 1548642 -8566 0
0 0 0 836 1549478 -7730 0
0 0 0 829 1550307 -6901 0
0 0 0 745 1551052 -6156 0
0 0 0 704 1551756 -5452 0
0 0 0 677 1552433 -4775 0
0 0 0 658 1553091 -4117 0
0 0 0 650 1553741 -3467 0
0 0 0 660 1554401 -2807 0
0 0 0 669 1555070 -2138 0
79 1 S102 662 1555732 -1476 0
79 1 S102 715 1556447 -761 0
79 2 S102 799 1557246 38 0
79 2 S102 797 1558043 835 0
79 2 S102 754 1558797 1589 0
79 2 S102 763 1559560 2352 0
79 2 S102 801 1560361 3153 0
79 2 S102 708 1561069 3861 0
79 2 S102 701 1561770 4562 0
79 2 S102 689 1562459 5251 0
79 2 S102 721 1563180 5972 0
79 2 S102 742 1563922 6714 0
0 0 0 766 1564688 -11155 0
0 0 0 781 1565469 -10374 0
0 0 0 745 1566214 -9629 0
0 0 0 690 1566904 -8939 0
0 0 0 696 1567600 -8243 0
0 0 0 746 1568346 -7497 0
0 0 0 728 1569074 -6769 0
0 0 0 710 1569784 -6059 0
0 0 0 698 1570482 -5361 0
0 0 0 658 1571140 -4703 0
0 0 0 649 1571789 -4054 0
0 0 0 664 1572453 -3390 0
0 0 0 683 1573136 -2707 0
0 0 0 686 1573822 -2021 0
80 1 S116 713 1574535 -1308 0
80 1 S116 693 1575228 -615 0
80 2 S116 680 1575908 65 0
80 2 S116 701 1576609 766 0
80 2 S116 723 1577332 1489 0
80 2 S116 735 1578067 2224 0
80 2 S116 707 1578774 2931 0
80 2 S116 701 1579475 3632 0
80 2 S116 761 1580236 4393 0
80 2 S116 882 1581118 5275 0
80 2 S116 871 1581989 6146 0
80 2 S116 865 1582854 7011 0
