T_0174
BeatCount Mean SD BeatCountNoOutliers MeanNoOutliers SDNoOutliers
1943 787,674729799279 65,4024081307902 1917 785,23369848722 61,1387330470718

Trial TrialStatus Trialtype IBI AbsPosition RelPosition Outlier
0 0 0 770 1001 -15308 0
0 0 0 763 1764 -14545 0
0 0 0 768 2532 -13777 0
0 0 0 781 3313 -12996 0
0 0 0 799 4112 -12197 0
0 0 0 793 4905 -11404 0
0 0 0 765 5670 -10639 0
0 0 0 720 6390 -9919 0
0 0 0 723 7113 -9196 0
0 0 0 712 7825 -8484 0
0 0 0 713 8538 -7771 0
0 0 0 736 9274 -7035 0
0 0 0 773 10047 -6262 0
0 0 0 833 10880 -5429 0
0 0 0 863 11743 -4566 0
0 0 0 857 12600 -3709 0
0 0 0 835 13435 -2874 0
0 0 0 793 14228 -2081 0
1 1 S112 764 14992 -1317 0
1 1 S112 748 15740 -569 0
1 2 S112 738 16478 169 0
1 2 S112 733 17211 902 0
1 2 S112 742 17953 1644 0
1 2 S112 752 18705 2396 0
1 2 S112 752 19457 3148 0
1 2 S112 739 20196 3887 0
1 2 S112 725 20921 4612 0
1 2 S112 710 21631 5322 0
1 2 S112 715 22346 6037 0
1 2 S112 746 23092 6783 0
0 0 0 902 23994 -12027 0
0 0 0 1051 25045 -10976 1
0 0 0 1076 26121 -9900 1
0 0 0 1056 27177 -8844 1
0 0 0 1006 28183 -7838 1
0 0 0 945 29128 -6893 0
0 0 0 899 30027 -5994 0
0 0 0 841 30868 -5153 0
0 0 0 818 31686 -4335 0
0 0 0 811 32497 -3524 0
0 0 0 798 33295 -2726 0
2 1 S102 780 34075 -1946 0
2 1 S102 779 34854 -1167 0
2 1 S102 779 35633 -388 0
2 2 S102 801 36434 413 0
2 2 S102 862 37296 1275 0
2 2 S102 893 38189 2168 0
2 2 S102 892 39081 3060 0
2 2 S102 883 39964 3943 0
2 2 S102 863 40827 4806 0
2 2 S102 820 41647 5626 0
2 2 S102 781 42428 6407 0
0 0 0 767 43195 -8509 0
0 0 0 782 43977 -7727 0
0 0 0 829 44806 -6898 0
0 0 0 879 45685 -6019 0
0 0 0 875 46560 -5144 0
0 0 0 850 47410 -4294 0
0 0 0 828 48238 -3466 0
0 0 0 807 49045 -2659 0
3 1 S116 793 49838 -1866 0
3 1 S116 779 50617 -1087 0
3 1 S116 753 51370 -334 0
3 2 S116 750 52120 416 0
3 2 S116 761 52881 1177 0
3 2 S116 789 53670 1966 0
3 2 S116 804 54474 2770 0
3 2 S116 814 55288 3584 0
3 2 S116 813 56101 4397 0
3 2 S116 781 56882 5178 0
3 2 S116 776 57658 5954 0
3 2 S116 772 58430 6726 0
0 0 0 781 59211 -12205 0
0 0 0 811 60022 -11394 0
0 0 0 837 60859 -10557 0
0 0 0 828 61687 -9729 0
0 0 0 822 62509 -8907 0
0 0 0 798 63307 -8109 0
0 0 0 777 64084 -7332 0
0 0 0 759 64843 -6573 0
0 0 0 753 65596 -5820 0
0 0 0 762 66358 -5058 0
0 0 0 793 67151 -4265 0
0 0 0 850 68001 -3415 0
0 0 0 883 68884 -2532 0
4 1 S106 867 69751 -1665 0
4 1 S106 826 70577 -839 0
4 1 S106 810 71387 -29 0
4 2 S106 791 72178 762 0
4 2 S106 792 72970 1554 0
4 2 S106 799 73769 2353 0
4 2 S106 791 74560 3144 0
4 2 S106 784 75344 3928 0
4 2 S106 762 76106 4690 0
4 2 S106 754 76860 5444 0
4 2 S106 742 77602 6186 0
4 2 S106 749 78351 6935 0
0 0 0 791 79142 -6780 0
0 0 0 858 80000 -5922 0
0 0 0 879 80879 -5043 0
0 0 0 869 81748 -4174 0
0 0 0 840 82588 -3334 0
0 0 0 799 83387 -2535 0
5 1 S116 781 84168 -1754 0
5 1 S116 780 84948 -974 0
5 1 S116 786 85734 -188 0
5 2 S116 815 86549 627 0
5 2 S116 843 87392 1470 0
5 2 S116 850 88242 2320 0
5 2 S116 832 89074 3152 0
5 2 S116 805 89879 3957 0
5 2 S116 765 90644 4722 0
5 2 S116 755 91399 5477 0
5 2 S116 757 92156 6234 0
5 2 S116 783 92939 7017 0
0 0 0 826 93765 -10277 0
0 0 0 856 94621 -9421 0
0 0 0 850 95471 -8571 0
0 0 0 835 96306 -7736 0
0 0 0 811 97117 -6925 0
0 0 0 786 97903 -6139 0
0 0 0 785 98688 -5354 0
0 0 0 782 99470 -4572 0
0 0 0 775 100245 -3797 0
0 0 0 749 100994 -3048 0
0 0 0 723 101717 -2325 0
6 1 S106 714 102431 -1611 0
6 1 S106 696 103127 -915 0
6 1 S106 694 103821 -221 0
6 2 S106 698 104519 477 0
6 2 S106 719 105238 1196 0
6 2 S106 767 106005 1963 0
6 2 S106 856 106861 2819 0
6 2 S106 873 107734 3692 0
6 2 S106 870 108604 4562 0
6 2 S106 850 109454 5412 0
6 2 S106 817 110271 6229 0
0 0 0 805 111076 -11086 0
0 0 0 803 111879 -10283 0
0 0 0 814 112693 -9469 0
0 0 0 827 113520 -8642 0
0 0 0 825 114345 -7817 0
0 0 0 810 115155 -7007 0
0 0 0 782 115937 -6225 0
0 0 0 767 116704 -5458 0
0 0 0 756 117460 -4702 0
0 0 0 755 118215 -3947 0
0 0 0 773 118988 -3174 0
0 0 0 807 119795 -2367 0
7 1 S102 841 120636 -1526 0
7 1 S102 858 121494 -668 0
7 2 S102 855 122349 187 0
7 2 S102 838 123187 1025 0
7 2 S102 802 123989 1827 0
7 2 S102 772 124761 2599 0
7 2 S102 762 125523 3361 0
7 2 S102 765 126288 4126 0
7 2 S102 789 127077 4915 0
7 2 S102 834 127911 5749 0
7 2 S102 873 128784 6622 0
0 0 0 883 129667 -9422 0
0 0 0 873 130540 -8549 0
0 0 0 848 131388 -7701 0
0 0 0 819 132207 -6882 0
0 0 0 797 133004 -6085 0
0 0 0 788 133792 -5297 0
0 0 0 793 134585 -4504 0
0 0 0 791 135376 -3713 0
0 0 0 773 136149 -2940 0
0 0 0 748 136897 -2192 0
8 1 S112 741 137638 -1451 0
8 1 S112 733 138371 -718 0
8 2 S112 741 139112 23 0
8 2 S112 772 139884 795 0
8 2 S112 853 140737 1648 0
8 2 S112 927 141664 2575 0
8 2 S112 938 142602 3513 0
8 2 S112 934 143536 4447 0
8 2 S112 924 144460 5371 0
8 2 S112 869 145329 6240 0
0 0 0 812 146141 -9543 0
0 0 0 762 146903 -8781 0
0 0 0 748 147651 -8033 0
0 0 0 755 148406 -7278 0
0 0 0 773 149179 -6505 0
0 0 0 802 149981 -5703 0
0 0 0 837 150818 -4866 0
0 0 0 821 151639 -4045 0
0 0 0 785 152424 -3260 0
0 0 0 766 153190 -2494 0
9 1 S116 753 153943 -1741 0
9 1 S116 738 154681 -1003 0
9 1 S116 735 155416 -268 0
9 2 S116 728 156144 460 0
9 2 S116 723 156867 1183 0
9 2 S116 726 157593 1909 0
9 2 S116 741 158334 2650 0
9 2 S116 764 159098 3414 0
9 2 S116 807 159905 4221 0
9 2 S116 823 160728 5044 0
9 2 S116 836 161564 5880 0
9 2 S116 834 162398 6714 0
0 0 0 820 163218 -13073 0
0 0 0 787 164005 -12286 0
0 0 0 755 164760 -11531 0
0 0 0 726 165486 -10805 0
0 0 0 713 166199 -10092 0
0 0 0 714 166913 -9378 0
0 0 0 738 167651 -8640 0
0 0 0 779 168430 -7861 0
0 0 0 796 169226 -7065 0
0 0 0 793 170019 -6272 0
0 0 0 802 170821 -5470 0
0 0 0 827 171648 -4643 0
0 0 0 852 172500 -3791 0
0 0 0 864 173364 -2927 0
0 0 0 859 174223 -2068 0
10 1 S102 834 175057 -1234 0
10 1 S102 792 175849 -442 0
10 2 S102 766 176615 324 0
10 2 S102 750 177365 1074 0
10 2 S102 755 178120 1829 0
10 2 S102 767 178887 2596 0
10 2 S102 774 179661 3370 0
10 2 S102 778 180439 4148 0
10 2 S102 779 181218 4927 0
10 2 S102 754 181972 5681 0
10 2 S102 730 182702 6411 0
0 0 0 719 183421 -11371 0
0 0 0 717 184138 -10654 0
0 0 0 733 184871 -9921 0
0 0 0 769 185640 -9152 0
0 0 0 791 186431 -8361 0
0 0 0 802 187233 -7559 0
0 0 0 795 188028 -6764 0
0 0 0 788 188816 -5976 0
0 0 0 780 189596 -5196 0
0 0 0 781 190377 -4415 0
0 0 0 778 191155 -3637 0
0 0 0 778 191933 -2859 0
0 0 0 774 192707 -2085 0
11 1 S112 760 193467 -1325 0
11 1 S112 739 194206 -586 0
11 2 S112 725 194931 139 0
11 2 S112 715 195646 854 0
11 2 S112 721 196367 1575 0
11 2 S112 745 197112 2320 0
11 2 S112 807 197919 3127 0
11 2 S112 879 198798 4006 0
11 2 S112 893 199691 4899 0
11 2 S112 877 200568 5776 0
11 2 S112 861 201429 6637 0
0 0 0 825 202254 -8951 0
0 0 0 779 203033 -8172 0
0 0 0 756 203789 -7416 0
0 0 0 750 204539 -6666 0
0 0 0 765 205304 -5901 0
0 0 0 776 206080 -5125 0
0 0 0 776 206856 -4349 0
0 0 0 748 207604 -3601 0
0 0 0 741 208345 -2860 0
0 0 0 733 209078 -2127 0
12 1 S116 753 209831 -1374 0
12 1 S116 739 210570 -635 0
12 2 S116 722 211292 87 0
12 2 S116 696 211988 783 0
12 2 S116 676 212664 1459 0
12 2 S116 678 213342 2137 0
12 2 S116 670 214012 2807 0
12 2 S116 679 214691 3486 0
12 2 S116 703 215394 4189 0
12 2 S116 737 216131 4926 0
12 2 S116 779 216910 5705 0
12 2 S116 808 217718 6513 0
0 0 0 822 218540 -11697 0
0 0 0 801 219341 -10896 0
0 0 0 766 220107 -10130 0
0 0 0 738 220845 -9392 0
0 0 0 730 221575 -8662 0
0 0 0 728 222303 -7934 0
0 0 0 736 223039 -7198 0
0 0 0 747 223786 -6451 0
0 0 0 749 224535 -5702 0
0 0 0 752 225287 -4950 0
0 0 0 753 226040 -4197 0
0 0 0 772 226812 -3425 0
0 0 0 825 227637 -2600 0
13 1 S112 879 228516 -1721 0
13 1 S112 906 229422 -815 0
13 2 S112 880 230302 65 0
13 2 S112 850 231152 915 0
13 2 S112 803 231955 1718 0
13 2 S112 778 232733 2496 0
13 2 S112 765 233498 3261 0
13 2 S112 761 234259 4022 0
13 2 S112 774 235033 4796 0
13 2 S112 808 235841 5604 0
13 2 S112 849 236690 6453 0
0 0 0 871 237561 -10398 0
0 0 0 881 238442 -9517 0
0 0 0 846 239288 -8671 0
0 0 0 796 240084 -7875 0
0 0 0 778 240862 -7097 0
0 0 0 764 241626 -6333 0
0 0 0 745 242371 -5588 0
0 0 0 737 243108 -4851 0
0 0 0 720 243828 -4131 0
0 0 0 699 244527 -3432 0
0 0 0 695 245222 -2737 0
0 0 0 684 245906 -2053 0
14 1 S106 690 246596 -1363 0
14 1 S106 707 247303 -656 0
14 2 S106 738 248041 82 0
14 2 S106 811 248852 893 0
14 2 S106 885 249737 1778 0
14 2 S106 909 250646 2687 0
14 2 S106 884 251530 3571 0
14 2 S106 860 252390 4431 0
14 2 S106 808 253198 5239 0
14 2 S106 791 253989 6030 0
14 2 S106 786 254775 6816 0
0 0 0 808 255583 -12718 0
0 0 0 853 256436 -11865 0
0 0 0 884 257320 -10981 0
0 0 0 907 258227 -10074 0
0 0 0 880 259107 -9194 0
0 0 0 835 259942 -8359 0
0 0 0 784 260726 -7575 0
0 0 0 769 261495 -6806 0
0 0 0 759 262254 -6047 0
0 0 0 772 263026 -5275 0
0 0 0 775 263801 -4500 0
0 0 0 775 264576 -3725 0
0 0 0 779 265355 -2946 0
0 0 0 787 266142 -2159 0
15 1 S116 809 266951 -1350 0
15 1 S116 830 267781 -520 0
15 2 S116 857 268638 337 0
15 2 S116 847 269485 1184 0
15 2 S116 827 270312 2011 0
15 2 S116 800 271112 2811 0
15 2 S116 780 271892 3591 0
15 2 S116 773 272665 4364 0
15 2 S116 781 273446 5145 0
15 2 S116 801 274247 5946 0
15 2 S116 831 275078 6777 0
0 0 0 845 275923 -10034 0
0 0 0 824 276747 -9210 0
0 0 0 788 277535 -8422 0
0 0 0 767 278302 -7655 0
0 0 0 769 279071 -6886 0
0 0 0 766 279837 -6120 0
0 0 0 783 280620 -5337 0
0 0 0 793 281413 -4544 0
0 0 0 777 282190 -3767 0
0 0 0 784 282974 -2983 0
0 0 0 816 283790 -2167 0
16 1 S116 858 284648 -1309 0
16 1 S116 890 285538 -419 0
16 2 S116 875 286413 456 0
16 2 S116 840 287253 1296 0
16 2 S116 807 288060 2103 0
16 2 S116 787 288847 2890 0
16 2 S116 772 289619 3662 0
16 2 S116 764 290383 4426 0
16 2 S116 769 291152 5195 0
16 2 S116 785 291937 5980 0
16 2 S116 802 292739 6782 0
0 0 0 817 293556 -9112 0
0 0 0 831 294387 -8281 0
0 0 0 802 295189 -7479 0
0 0 0 770 295959 -6709 0
0 0 0 753 296712 -5956 0
0 0 0 749 297461 -5207 0
0 0 0 760 298221 -4447 0
0 0 0 782 299003 -3665 0
0 0 0 783 299786 -2882 0
0 0 0 776 300562 -2106 0
17 1 S106 768 301330 -1338 0
17 1 S106 769 302099 -569 0
17 2 S106 774 302873 205 0
17 2 S106 787 303660 992 0
17 2 S106 802 304462 1794 0
17 2 S106 811 305273 2605 0
17 2 S106 810 306083 3415 0
17 2 S106 801 306884 4216 0
17 2 S106 768 307652 4984 0
17 2 S106 756 308408 5740 0
17 2 S106 756 309164 6496 0
0 0 0 769 309933 -10689 0
0 0 0 800 310733 -9889 0
0 0 0 840 311573 -9049 0
0 0 0 836 312409 -8213 0
0 0 0 811 313220 -7402 0
0 0 0 788 314008 -6614 0
0 0 0 782 314790 -5832 0
0 0 0 769 315559 -5063 0
0 0 0 779 316338 -4284 0
0 0 0 777 317115 -3507 0
0 0 0 768 317883 -2739 0
18 1 S102 768 318651 -1971 0
18 1 S102 764 319415 -1207 0
18 1 S102 768 320183 -439 0
18 2 S102 776 320959 337 0
18 2 S102 793 321752 1130 0
18 2 S102 811 322563 1941 0
18 2 S102 824 323387 2765 0
18 2 S102 820 324207 3585 0
18 2 S102 795 325002 4380 0
18 2 S102 775 325777 5155 0
18 2 S102 754 326531 5909 0
18 2 S102 745 327276 6654 0
0 0 0 747 328023 -6459 0
0 0 0 766 328789 -5693 0
0 0 0 788 329577 -4905 0
0 0 0 777 330354 -4128 0
0 0 0 768 331122 -3360 0
0 0 0 747 331869 -2613 0
19 1 S106 729 332598 -1884 0
19 1 S106 711 333309 -1173 0
19 1 S106 684 333993 -489 0
19 2 S106 680 334673 191 0
19 2 S106 686 335359 877 0
19 2 S106 712 336071 1589 0
19 2 S106 765 336836 2354 0
19 2 S106 853 337689 3207 0
19 2 S106 922 338611 4129 0
19 2 S106 912 339523 5041 0
19 2 S106 867 340390 5908 0
19 2 S106 820 341210 6728 0
0 0 0 797 342007 -11440 0
0 0 0 787 342794 -10653 0
0 0 0 790 343584 -9863 0
0 0 0 796 344380 -9067 0
0 0 0 776 345156 -8291 0
0 0 0 751 345907 -7540 0
0 0 0 730 346637 -6810 0
0 0 0 720 347357 -6090 0
0 0 0 726 348083 -5364 0
0 0 0 747 348830 -4617 0
0 0 0 800 349630 -3817 0
0 0 0 825 350455 -2992 0
0 0 0 808 351263 -2184 0
20 1 S112 784 352047 -1400 0
20 1 S112 762 352809 -638 0
20 2 S112 754 353563 116 0
20 2 S112 758 354321 874 0
20 2 S112 786 355107 1660 0
20 2 S112 827 355934 2487 0
20 2 S112 864 356798 3351 0
20 2 S112 895 357693 4246 0
20 2 S112 892 358585 5138 0
20 2 S112 874 359459 6012 0
20 2 S112 819 360278 6831 0
0 0 0 789 361067 -10285 0
0 0 0 782 361849 -9503 0
0 0 0 791 362640 -8712 0
0 0 0 795 363435 -7917 0
0 0 0 801 364236 -7116 0
0 0 0 789 365025 -6327 0
0 0 0 759 365784 -5568 0
0 0 0 742 366526 -4826 0
0 0 0 728 367254 -4098 0
0 0 0 730 367984 -3368 0
0 0 0 745 368729 -2623 0
21 1 S106 778 369507 -1845 0
21 1 S106 787 370294 -1058 0
21 1 S106 778 371072 -280 0
21 2 S106 776 371848 496 0
21 2 S106 779 372627 1275 0
21 2 S106 787 373414 2062 0
21 2 S106 792 374206 2854 0
21 2 S106 812 375018 3666 0
21 2 S106 803 375821 4469 0
21 2 S106 775 376596 5244 0
21 2 S106 752 377348 5996 0
21 2 S106 738 378086 6734 0
0 0 0 728 378814 -10376 0
0 0 0 753 379567 -9623 0
0 0 0 803 380370 -8820 0
0 0 0 855 381225 -7965 0
0 0 0 852 382077 -7113 0
0 0 0 852 382929 -6261 0
0 0 0 845 383774 -5416 0
0 0 0 847 384621 -4569 0
0 0 0 841 385462 -3728 0
0 0 0 828 386290 -2900 0
0 0 0 797 387087 -2103 0
22 1 S116 760 387847 -1343 0
22 1 S116 752 388599 -591 0
22 2 S116 746 389345 155 0
22 2 S116 744 390089 899 0
22 2 S116 763 390852 1662 0
22 2 S116 776 391628 2438 0
22 2 S116 789 392417 3227 0
22 2 S116 800 393217 4027 0
22 2 S116 813 394030 4840 0
22 2 S116 804 394834 5644 0
22 2 S116 785 395619 6429 0
0 0 0 757 396376 -9674 0
0 0 0 748 397124 -8926 0
0 0 0 746 397870 -8180 0
0 0 0 763 398633 -7417 0
0 0 0 803 399436 -6614 0
0 0 0 845 400281 -5769 0
0 0 0 839 401120 -4930 0
0 0 0 824 401944 -4106 0
0 0 0 826 402770 -3280 0
0 0 0 828 403598 -2452 0
23 1 S112 833 404431 -1619 0
23 1 S112 819 405250 -800 0
23 1 S112 791 406041 -9 0
23 2 S112 764 406805 755 0
23 2 S112 760 407565 1515 0
23 2 S112 759 408324 2274 0
23 2 S112 758 409082 3032 0
23 2 S112 771 409853 3803 0
23 2 S112 793 410646 4596 0
23 2 S112 830 411476 5426 0
23 2 S112 865 412341 6291 0
0 0 0 870 413211 -10844 0
0 0 0 854 414065 -9990 0
0 0 0 829 414894 -9161 0
0 0 0 775 415669 -8386 0
0 0 0 740 416409 -7646 0
0 0 0 732 417141 -6914 0
0 0 0 724 417865 -6190 0
0 0 0 738 418603 -5452 0
0 0 0 770 419373 -4682 0
0 0 0 805 420178 -3877 0
0 0 0 817 420995 -3060 0
0 0 0 791 421786 -2269 0
24 1 S106 764 422550 -1505 0
24 1 S106 750 423300 -755 0
24 1 S106 744 424044 -11 0
24 2 S106 749 424793 738 0
24 2 S106 783 425576 1521 0
24 2 S106 816 426392 2337 0
24 2 S106 838 427230 3175 0
24 2 S106 831 428061 4006 0
24 2 S106 809 428870 4815 0
24 2 S106 801 429671 5616 0
24 2 S106 807 430478 6423 0
0 0 0 808 431286 -9049 0
0 0 0 816 432102 -8233 0
0 0 0 817 432919 -7416 0
0 0 0 801 433720 -6615 0
0 0 0 758 434478 -5857 0
0 0 0 724 435202 -5133 0
0 0 0 677 435879 -4456 0
0 0 0 695 436574 -3761 0
0 0 0 677 437251 -3084 0
0 0 0 697 437948 -2387 0
25 1 S102 785 438733 -1602 0
25 1 S102 879 439612 -723 0
25 2 S102 898 440510 175 0
25 2 S102 835 441345 1010 0
25 2 S102 803 442148 1813 0
25 2 S102 810 442958 2623 0
25 2 S102 800 443758 3423 0
25 2 S102 785 444543 4208 0
25 2 S102 761 445304 4969 0
25 2 S102 748 446052 5717 0
25 2 S102 737 446789 6454 0
0 0 0 728 447517 -6893 0
0 0 0 720 448237 -6173 0
0 0 0 709 448946 -5464 0
0 0 0 700 449646 -4764 0
0 0 0 698 450344 -4066 0
0 0 0 707 451051 -3359 0
0 0 0 737 451788 -2622 0
26 1 S116 808 452596 -1814 0
26 1 S116 894 453490 -920 0
26 2 S116 936 454426 16 0
26 2 S116 930 455356 946 0
26 2 S116 914 456270 1860 0
26 2 S116 876 457146 2736 0
26 2 S116 837 457983 3573 0
26 2 S116 798 458781 4371 0
26 2 S116 753 459534 5124 0
26 2 S116 734 460268 5858 0
26 2 S116 724 460992 6582 0
0 0 0 729 461721 -8073 0
0 0 0 762 462483 -7311 0
0 0 0 833 463316 -6478 0
0 0 0 884 464200 -5594 0
0 0 0 906 465106 -4688 0
0 0 0 874 465980 -3814 0
0 0 0 849 466829 -2965 0
0 0 0 809 467638 -2156 0
27 1 S106 768 468406 -1388 0
27 1 S106 738 469144 -650 0
27 2 S106 718 469862 68 0
27 2 S106 716 470578 784 0
27 2 S106 742 471320 1526 0
27 2 S106 794 472114 2320 0
27 2 S106 884 472998 3204 0
27 2 S106 926 473924 4130 0
27 2 S106 916 474840 5046 0
27 2 S106 896 475736 5942 0
27 2 S106 871 476607 6813 0
0 0 0 824 477431 -6107 0
0 0 0 772 478203 -5335 0
0 0 0 745 478948 -4590 0
0 0 0 728 479676 -3862 0
0 0 0 717 480393 -3145 0
0 0 0 727 481120 -2418 0
28 1 S102 736 481856 -1682 0
28 1 S102 737 482593 -945 0
28 1 S102 742 483335 -203 0
28 2 S102 752 484087 549 0
28 2 S102 780 484867 1329 0
28 2 S102 840 485707 2169 0
28 2 S102 896 486603 3065 0
28 2 S102 897 487500 3962 0
28 2 S102 872 488372 4834 0
28 2 S102 846 489218 5680 0
28 2 S102 812 490030 6492 0
0 0 0 781 490811 -10383 0
0 0 0 744 491555 -9639 0
0 0 0 721 492276 -8918 0
0 0 0 701 492977 -8217 0
0 0 0 685 493662 -7532 0
0 0 0 693 494355 -6839 0
0 0 0 708 495063 -6131 0
0 0 0 712 495775 -5419 0
0 0 0 720 496495 -4699 0
0 0 0 738 497233 -3961 0
0 0 0 779 498012 -3182 0
0 0 0 852 498864 -2330 0
29 1 S112 893 499757 -1437 0
29 1 S112 894 500651 -543 0
29 2 S112 870 501521 327 0
29 2 S112 820 502341 1147 0
29 2 S112 806 503147 1953 0
29 2 S112 788 503935 2741 0
29 2 S112 774 504709 3515 0
29 2 S112 764 505473 4279 0
29 2 S112 763 506236 5042 0
29 2 S112 765 507001 5807 0
29 2 S112 772 507773 6579 0
0 0 0 759 508532 -8196 0
0 0 0 744 509276 -7452 0
0 0 0 735 510011 -6717 0
0 0 0 731 510742 -5986 0
0 0 0 740 511482 -5246 0
0 0 0 765 512247 -4481 0
0 0 0 783 513030 -3698 0
0 0 0 776 513806 -2922 0
0 0 0 774 514580 -2148 0
30 1 S112 772 515352 -1376 0
30 1 S112 791 516143 -585 0
30 2 S112 800 516943 215 0
30 2 S112 814 517757 1029 0
30 2 S112 818 518575 1847 0
30 2 S112 798 519373 2645 0
30 2 S112 767 520140 3412 0
30 2 S112 734 520874 4146 0
30 2 S112 724 521598 4870 0
30 2 S112 725 522323 5595 0
30 2 S112 738 523061 6333 0
0 0 0 767 523828 -10755 0
0 0 0 830 524658 -9925 0
0 0 0 875 525533 -9050 0
0 0 0 872 526405 -8178 0
0 0 0 834 527239 -7344 0
0 0 0 801 528040 -6543 0
0 0 0 773 528813 -5770 0
0 0 0 750 529563 -5020 0
0 0 0 723 530286 -4297 0
0 0 0 708 530994 -3589 0
0 0 0 694 531688 -2895 0
0 0 0 688 532376 -2207 0
31 1 S106 682 533058 -1525 0
31 1 S106 695 533753 -830 0
31 1 S106 728 534481 -102 0
31 2 S106 789 535270 687 0
31 2 S106 864 536134 1551 0
31 2 S106 882 537016 2433 0
31 2 S106 882 537898 3315 0
31 2 S106 839 538737 4154 0
31 2 S106 800 539537 4954 0
31 2 S106 800 540337 5754 0
31 2 S106 789 541126 6543 0
0 0 0 785 541911 -9250 0
0 0 0 786 542697 -8464 0
0 0 0 786 543483 -7678 0
0 0 0 773 544256 -6905 0
0 0 0 752 545008 -6153 0
0 0 0 726 545734 -5427 0
0 0 0 725 546459 -4702 0
0 0 0 723 547182 -3979 0
0 0 0 764 547946 -3215 0
0 0 0 859 548805 -2356 0
32 1 S102 932 549737 -1424 0
32 1 S102 931 550668 -493 0
32 2 S102 900 551568 407 0
32 2 S102 872 552440 1279 0
32 2 S102 851 553291 2130 0
32 2 S102 827 554118 2957 0
32 2 S102 798 554916 3755 0
32 2 S102 775 555691 4530 0
32 2 S102 735 556426 5265 0
32 2 S102 722 557148 5987 0
32 2 S102 704 557852 6691 0
0 0 0 704 558556 -10361 0
0 0 0 735 559291 -9626 0
0 0 0 788 560079 -8838 0
0 0 0 799 560878 -8039 0
0 0 0 780 561658 -7259 0
0 0 0 769 562427 -6490 0
0 0 0 770 563197 -5720 0
0 0 0 787 563984 -4933 0
0 0 0 805 564789 -4128 0
0 0 0 833 565622 -3295 0
0 0 0 832 566454 -2463 0
33 1 S112 806 567260 -1657 0
33 1 S112 796 568056 -861 0
33 1 S112 766 568822 -95 0
33 2 S112 763 569585 668 0
33 2 S112 778 570363 1446 0
33 2 S112 778 571141 2224 0
33 2 S112 781 571922 3005 0
33 2 S112 760 572682 3765 0
33 2 S112 752 573434 4517 0
33 2 S112 747 574181 5264 0
33 2 S112 755 574936 6019 0
33 2 S112 785 575721 6804 0
0 0 0 847 576568 -11878 0
0 0 0 890 577458 -10988 0
0 0 0 889 578347 -10099 0
0 0 0 845 579192 -9254 0
0 0 0 803 579995 -8451 0
0 0 0 774 580769 -7677 0
0 0 0 764 581533 -6913 0
0 0 0 769 582302 -6144 0
0 0 0 795 583097 -5349 0
0 0 0 804 583901 -4545 0
0 0 0 784 584685 -3761 0
0 0 0 768 585453 -2993 0
0 0 0 754 586207 -2239 0
34 1 S106 758 586965 -1481 0
34 1 S106 775 587740 -706 0
34 2 S106 796 588536 90 0
34 2 S106 822 589358 912 0
34 2 S106 828 590186 1740 0
34 2 S106 820 591006 2560 0
34 2 S106 796 591802 3356 0
34 2 S106 778 592580 4134 0
34 2 S106 765 593345 4899 0
34 2 S106 765 594110 5664 0
34 2 S106 777 594887 6441 0
0 0 0 787 595674 -8936 0
0 0 0 794 596468 -8142 0
0 0 0 772 597240 -7370 0
0 0 0 759 597999 -6611 0
0 0 0 744 598743 -5867 0
0 0 0 732 599475 -5135 0
0 0 0 737 600212 -4398 0
0 0 0 741 600953 -3657 0
0 0 0 734 601687 -2923 0
0 0 0 717 602404 -2206 0
35 1 S102 714 603118 -1492 0
35 1 S102 711 603829 -781 0
35 1 S102 712 604541 -69 0
35 2 S102 715 605256 646 0
35 2 S102 727 605983 1373 0
35 2 S102 737 606720 2110 0
35 2 S102 755 607475 2865 0
35 2 S102 772 608247 3637 0
35 2 S102 776 609023 4413 0
35 2 S102 774 609797 5187 0
35 2 S102 761 610558 5948 0
35 2 S102 739 611297 6687 0
0 0 0 719 612016 -5940 0
0 0 0 705 612721 -5235 0
0 0 0 709 613430 -4526 0
0 0 0 718 614148 -3808 0
0 0 0 755 614903 -3053 0
0 0 0 798 615701 -2255 0
36 1 S106 796 616497 -1459 0
36 1 S106 792 617289 -667 0
36 2 S106 800 618089 133 0
36 2 S106 819 618908 952 0
36 2 S106 847 619755 1799 0
36 2 S106 845 620600 2644 0
36 2 S106 801 621401 3445 0
36 2 S106 765 622166 4210 0
36 2 S106 739 622905 4949 0
36 2 S106 732 623637 5681 0
36 2 S106 745 624382 6426 0
0 0 0 761 625143 -8661 0
0 0 0 792 625935 -7869 0
0 0 0 812 626747 -7057 0
0 0 0 778 627525 -6279 0
0 0 0 742 628267 -5537 0
0 0 0 718 628985 -4819 0
0 0 0 707 629692 -4112 0
0 0 0 718 630410 -3394 0
0 0 0 755 631165 -2639 0
37 1 S116 828 631993 -1811 0
37 1 S116 880 632873 -931 0
37 1 S116 865 633738 -66 0
37 2 S116 835 634573 769 0
37 2 S116 837 635410 1606 0
37 2 S116 825 636235 2431 0
37 2 S116 819 637054 3250 0
37 2 S116 815 637869 4065 0
37 2 S116 816 638685 4881 0
37 2 S116 795 639480 5676 0
37 2 S116 772 640252 6448 0
0 0 0 753 641005 -11798 0
0 0 0 750 641755 -11048 0
0 0 0 757 642512 -10291 0
0 0 0 775 643287 -9516 0
0 0 0 780 644067 -8736 0
0 0 0 768 644835 -7968 0
0 0 0 745 645580 -7223 0
0 0 0 739 646319 -6484 0
0 0 0 735 647054 -5749 0
0 0 0 742 647796 -5007 0
0 0 0 769 648565 -4238 0
0 0 0 812 649377 -3426 0
0 0 0 828 650205 -2598 0
38 1 S102 814 651019 -1784 0
38 1 S102 802 651821 -982 0
38 1 S102 794 652615 -188 0
38 2 S102 801 653416 613 0
38 2 S102 823 654239 1436 0
38 2 S102 833 655072 2269 0
38 2 S102 836 655908 3105 0
38 2 S102 806 656714 3911 0
38 2 S102 783 657497 4694 0
38 2 S102 758 658255 5452 0
38 2 S102 752 659007 6204 0
38 2 S102 762 659769 6966 0
0 0 0 793 660562 -9052 0
0 0 0 804 661366 -8248 0
0 0 0 801 662167 -7447 0
0 0 0 781 662948 -6666 0
0 0 0 749 663697 -5917 0
0 0 0 732 664429 -5185 0
0 0 0 712 665141 -4473 0
0 0 0 699 665840 -3774 0
0 0 0 710 666550 -3064 0
0 0 0 761 667311 -2303 0
39 1 S116 863 668174 -1440 0
39 1 S116 901 669075 -539 0
39 2 S116 881 669956 342 0
39 2 S116 837 670793 1179 0
39 2 S116 828 671621 2007 0
39 2 S116 834 672455 2841 0
39 2 S116 819 673274 3660 0
39 2 S116 810 674084 4470 0
39 2 S116 804 674888 5274 0
39 2 S116 766 675654 6040 0
39 2 S116 724 676378 6764 0
0 0 0 699 677077 -6877 0
0 0 0 688 677765 -6189 0
0 0 0 674 678439 -5515 0
0 0 0 661 679100 -4854 0
0 0 0 652 679752 -4202 0
0 0 0 652 680404 -3550 0
0 0 0 691 681095 -2859 0
0 0 0 814 681909 -2045 0
40 1 S112 972 682881 -1073 1
40 1 S112 945 683826 -128 0
40 2 S112 886 684712 758 0
40 2 S112 891 685603 1649 0
40 2 S112 891 686494 2540 0
40 2 S112 901 687395 3441 0
40 2 S112 902 688297 4343 0
40 2 S112 881 689178 5224 0
40 2 S112 858 690036 6082 0
40 2 S112 794 690830 6876 0
0 0 0 744 691574 -187375 0
0 0 0 716 692290 -186659 0
0 0 0 703 692993 -185956 0
0 0 0 714 693707 -185242 0
0 0 0 756 694463 -184486 0
0 0 0 827 695290 -183659 0
0 0 0 849 696139 -182810 0
0 0 0 793 696932 -182017 0
0 0 0 777 697709 -181240 0
0 0 0 774 698483 -180466 0
0 0 0 815 699298 -179651 0
0 0 0 854 700152 -178797 0
0 0 0 875 701027 -177922 0
0 0 0 854 701881 -177068 0
0 0 0 805 702686 -176263 0
0 0 0 796 703482 -175467 0
0 0 0 778 704260 -174689 0
0 0 0 766 705026 -173923 0
0 0 0 744 705770 -173179 0
0 0 0 722 706492 -172457 0
0 0 0 709 707201 -171748 0
0 0 0 696 707897 -171052 0
0 0 0 696 708593 -170356 0
0 0 0 708 709301 -169648 0
0 0 0 741 710042 -168907 0
0 0 0 797 710839 -168110 0
0 0 0 839 711678 -167271 0
0 0 0 867 712545 -166404 0
0 0 0 843 713388 -165561 0
0 0 0 811 714199 -164750 0
0 0 0 777 714976 -163973 0
0 0 0 742 715718 -163231 0
0 0 0 724 716442 -162507 0
0 0 0 704 717146 -161803 0
0 0 0 700 717846 -161103 0
0 0 0 698 718544 -160405 0
0 0 0 711 719255 -159694 0
0 0 0 769 720024 -158925 0
0 0 0 859 720883 -158066 0
0 0 0 936 721819 -157130 0
0 0 0 951 722770 -156179 0
0 0 0 931 723701 -155248 0
0 0 0 847 724548 -154401 0
0 0 0 785 725333 -153616 0
0 0 0 708 726041 -152908 0
0 0 0 707 726748 -152201 0
0 0 0 674 727422 -151527 0
0 0 0 653 728075 -150874 0
0 0 0 648 728723 -150226 0
0 0 0 649 729372 -149577 0
0 0 0 687 730059 -148890 0
0 0 0 768 730827 -148122 0
0 0 0 836 731663 -147286 0
0 0 0 855 732518 -146431 0
0 0 0 869 733387 -145562 0
0 0 0 879 734266 -144683 0
0 0 0 872 735138 -143811 0
0 0 0 848 735986 -142963 0
0 0 0 793 736779 -142170 0
0 0 0 744 737523 -141426 0
0 0 0 724 738247 -140702 0
0 0 0 724 738971 -139978 0
0 0 0 754 739725 -139224 0
0 0 0 822 740547 -138402 0
0 0 0 935 741482 -137467 0
0 0 0 1031 742513 -136436 1
0 0 0 1046 743559 -135390 1
0 0 0 1008 744567 -134382 1
0 0 0 980 745547 -133402 1
0 0 0 946 746493 -132456 0
0 0 0 903 747396 -131553 0
0 0 0 871 748267 -130682 0
0 0 0 822 749089 -129860 0
0 0 0 776 749865 -129084 0
0 0 0 743 750608 -128341 0
0 0 0 731 751339 -127610 0
0 0 0 700 752039 -126910 0
0 0 0 697 752736 -126213 0
0 0 0 704 753440 -125509 0
0 0 0 733 754173 -124776 0
0 0 0 789 754962 -123987 0
0 0 0 882 755844 -123105 0
0 0 0 917 756761 -122188 0
0 0 0 937 757698 -121251 0
0 0 0 926 758624 -120325 0
0 0 0 873 759497 -119452 0
0 0 0 817 760314 -118635 0
0 0 0 786 761100 -117849 0
0 0 0 776 761876 -117073 0
0 0 0 781 762657 -116292 0
0 0 0 815 763472 -115477 0
0 0 0 828 764300 -114649 0
0 0 0 860 765160 -113789 0
0 0 0 848 766008 -112941 0
0 0 0 810 766818 -112131 0
0 0 0 754 767572 -111377 0
0 0 0 719 768291 -110658 0
0 0 0 692 768983 -109966 0
0 0 0 671 769654 -109295 0
0 0 0 654 770308 -108641 0
0 0 0 642 770950 -107999 0
0 0 0 634 771584 -107365 0
0 0 0 642 772226 -106723 0
0 0 0 691 772917 -106032 0
0 0 0 759 773676 -105273 0
0 0 0 811 774487 -104462 0
0 0 0 849 775336 -103613 0
0 0 0 854 776190 -102759 0
0 0 0 848 777038 -101911 0
0 0 0 823 777861 -101088 0
0 0 0 784 778645 -100304 0
0 0 0 771 779416 -99533 0
0 0 0 779 780195 -98754 0
0 0 0 811 781006 -97943 0
0 0 0 857 781863 -97086 0
0 0 0 910 782773 -96176 0
0 0 0 930 783703 -95246 0
0 0 0 922 784625 -94324 0
0 0 0 879 785504 -93445 0
0 0 0 826 786330 -92619 0
0 0 0 769 787099 -91850 0
0 0 0 736 787835 -91114 0
0 0 0 715 788550 -90399 0
0 0 0 695 789245 -89704 0
0 0 0 698 789943 -89006 0
0 0 0 694 790637 -88312 0
0 0 0 714 791351 -87598 0
0 0 0 763 792114 -86835 0
0 0 0 815 792929 -86020 0
0 0 0 824 793753 -85196 0
0 0 0 828 794581 -84368 0
0 0 0 827 795408 -83541 0
0 0 0 835 796243 -82706 0
0 0 0 849 797092 -81857 0
0 0 0 842 797934 -81015 0
0 0 0 841 798775 -80174 0
0 0 0 825 799600 -79349 0
0 0 0 808 800408 -78541 0
0 0 0 766 801174 -77775 0
0 0 0 734 801908 -77041 0
0 0 0 721 802629 -76320 0
0 0 0 709 803338 -75611 0
0 0 0 703 804041 -74908 0
0 0 0 712 804753 -74196 0
0 0 0 704 805457 -73492 0
0 0 0 718 806175 -72774 0
0 0 0 730 806905 -72044 0
0 0 0 754 807659 -71290 0
0 0 0 768 808427 -70522 0
0 0 0 771 809198 -69751 0
0 0 0 772 809970 -68979 0
0 0 0 752 810722 -68227 0
0 0 0 723 811445 -67504 0
0 0 0 697 812142 -66807 0
0 0 0 674 812816 -66133 0
0 0 0 652 813468 -65481 0
0 0 0 636 814104 -64845 0
0 0 0 620 814724 -64225 0
0 0 0 611 815335 -63614 1
0 0 0 607 815942 -63007 1
0 0 0 633 816575 -62374 0
0 0 0 692 817267 -61682 0
0 0 0 751 818018 -60931 0
0 0 0 775 818793 -60156 0
0 0 0 787 819580 -59369 0
0 0 0 792 820372 -58577 0
0 0 0 789 821161 -57788 0
0 0 0 758 821919 -57030 0
0 0 0 718 822637 -56312 0
0 0 0 690 823327 -55622 0
0 0 0 663 823990 -54959 0
0 0 0 652 824642 -54307 0
0 0 0 645 825287 -53662 0
0 0 0 637 825924 -53025 0
0 0 0 628 826552 -52397 0
0 0 0 635 827187 -51762 0
0 0 0 657 827844 -51105 0
0 0 0 740 828584 -50365 0
0 0 0 955 829539 -49410 0
0 0 0 968 830507 -48442 1
0 0 0 970 831477 -47472 1
0 0 0 903 832380 -46569 0
0 0 0 829 833209 -45740 0
0 0 0 776 833985 -44964 0
0 0 0 745 834730 -44219 0
0 0 0 716 835446 -43503 0
0 0 0 740 836186 -42763 0
0 0 0 806 836992 -41957 0
0 0 0 845 837837 -41112 0
0 0 0 895 838732 -40217 0
0 0 0 869 839601 -39348 0
0 0 0 827 840428 -38521 0
0 0 0 769 841197 -37752 0
0 0 0 744 841941 -37008 0
0 0 0 727 842668 -36281 0
0 0 0 727 843395 -35554 0
0 0 0 736 844131 -34818 0
0 0 0 763 844894 -34055 0
0 0 0 794 845688 -33261 0
0 0 0 804 846492 -32457 0
0 0 0 807 847299 -31650 0
0 0 0 783 848082 -30867 0
0 0 0 757 848839 -30110 0
0 0 0 746 849585 -29364 0
0 0 0 734 850319 -28630 0
0 0 0 721 851040 -27909 0
0 0 0 705 851745 -27204 0
0 0 0 689 852434 -26515 0
0 0 0 671 853105 -25844 0
0 0 0 656 853761 -25188 0
0 0 0 645 854406 -24543 0
0 0 0 648 855054 -23895 0
0 0 0 657 855711 -23238 0
0 0 0 671 856382 -22567 0
0 0 0 678 857060 -21889 0
0 0 0 673 857733 -21216 0
0 0 0 676 858409 -20540 0
0 0 0 681 859090 -19859 0
0 0 0 714 859804 -19145 0
0 0 0 818 860622 -18327 0
0 0 0 945 861567 -17382 0
0 0 0 1014 862581 -16368 1
0 0 0 992 863573 -15376 1
0 0 0 965 864538 -14411 1
0 0 0 907 865445 -13504 0
0 0 0 833 866278 -12671 0
0 0 0 765 867043 -11906 0
0 0 0 723 867766 -11183 0
0 0 0 708 868474 -10475 0
0 0 0 700 869174 -9775 0
0 0 0 687 869861 -9088 0
0 0 0 665 870526 -8423 0
0 0 0 658 871184 -7765 0
0 0 0 654 871838 -7111 0
0 0 0 648 872486 -6463 0
0 0 0 637 873123 -5826 0
0 0 0 633 873756 -5193 0
0 0 0 656 874412 -4537 0
0 0 0 700 875112 -3837 0
0 0 0 726 875838 -3111 0
0 0 0 735 876573 -2376 0
41 1 S102 738 877311 -1638 0
41 1 S102 732 878043 -906 0
41 1 S102 714 878757 -192 0
41 2 S102 697 879454 505 0
41 2 S102 691 880145 1196 0
41 2 S102 687 880832 1883 0
41 2 S102 681 881513 2564 0
41 2 S102 669 882182 3233 0
41 2 S102 655 882837 3888 0
41 2 S102 645 883482 4533 0
41 2 S102 644 884126 5177 0
41 2 S102 651 884777 5828 0
41 2 S102 666 885443 6494 0
0 0 0 676 886119 -7320 0
0 0 0 688 886807 -6632 0
0 0 0 708 887515 -5924 0
0 0 0 743 888258 -5181 0
0 0 0 807 889065 -4374 0
0 0 0 870 889935 -3504 0
0 0 0 881 890816 -2623 0
42 1 S112 853 891669 -1770 0
42 1 S112 813 892482 -957 0
42 1 S112 784 893266 -173 0
42 2 S112 757 894023 584 0
42 2 S112 739 894762 1323 0
42 2 S112 721 895483 2044 0
42 2 S112 705 896188 2749 0
42 2 S112 684 896872 3433 0
42 2 S112 677 897549 4110 0
42 2 S112 680 898229 4790 0
42 2 S112 694 898923 5484 0
42 2 S112 742 899665 6226 0
0 0 0 854 900519 -10062 0
0 0 0 954 901473 -9108 0
0 0 0 955 902428 -8153 0
0 0 0 936 903364 -7217 0
0 0 0 864 904228 -6353 0
0 0 0 818 905046 -5535 0
0 0 0 765 905811 -4770 0
0 0 0 734 906545 -4036 0
0 0 0 705 907250 -3331 0
0 0 0 688 907938 -2643 0
43 1 S116 704 908642 -1939 0
43 1 S116 741 909383 -1198 0
43 1 S116 824 910207 -374 0
43 2 S116 863 911070 489 0
43 2 S116 898 911968 1387 0
43 2 S116 885 912853 2272 0
43 2 S116 849 913702 3121 0
43 2 S116 795 914497 3916 0
43 2 S116 765 915262 4681 0
43 2 S116 745 916007 5426 0
43 2 S116 748 916755 6174 0
43 2 S116 769 917524 6943 0
0 0 0 821 918345 -7057 0
0 0 0 864 919209 -6193 0
0 0 0 904 920113 -5289 0
0 0 0 897 921010 -4392 0
0 0 0 872 921882 -3520 0
0 0 0 817 922699 -2703 0
44 1 S102 781 923480 -1922 0
44 1 S102 763 924243 -1159 0
44 1 S102 750 924993 -409 0
44 2 S102 741 925734 332 0
44 2 S102 727 926461 1059 0
44 2 S102 701 927162 1760 0
44 2 S102 691 927853 2451 0
44 2 S102 689 928542 3140 0
44 2 S102 684 929226 3824 0
44 2 S102 674 929900 4498 0
44 2 S102 672 930572 5170 0
44 2 S102 676 931248 5846 0
44 2 S102 700 931948 6546 0
0 0 0 764 932712 -8920 0
0 0 0 886 933598 -8034 0
0 0 0 929 934527 -7105 0
0 0 0 907 935434 -6198 0
0 0 0 887 936321 -5311 0
0 0 0 844 937165 -4467 0
0 0 0 791 937956 -3676 0
0 0 0 770 938726 -2906 0
0 0 0 755 939481 -2151 0
45 1 S116 759 940240 -1392 0
45 1 S116 759 940999 -633 0
45 2 S116 758 941757 125 0
45 2 S116 741 942498 866 0
45 2 S116 732 943230 1598 0
45 2 S116 723 943953 2321 0
45 2 S116 726 944679 3047 0
45 2 S116 762 945441 3809 0
45 2 S116 839 946280 4648 0
45 2 S116 893 947173 5541 0
45 2 S116 901 948074 6442 0
0 0 0 909 948983 -12145 0
0 0 0 881 949864 -11264 0
0 0 0 842 950706 -10422 0
0 0 0 780 951486 -9642 0
0 0 0 760 952246 -8882 0
0 0 0 746 952992 -8136 0
0 0 0 740 953732 -7396 0
0 0 0 738 954470 -6658 0
0 0 0 726 955196 -5932 0
0 0 0 726 955922 -5206 0
0 0 0 729 956651 -4477 0
0 0 0 744 957395 -3733 0
0 0 0 790 958185 -2943 0
0 0 0 836 959021 -2107 0
46 1 S102 855 959876 -1252 0
46 1 S102 847 960723 -405 0
46 2 S102 818 961541 413 0
46 2 S102 770 962311 1183 0
46 2 S102 745 963056 1928 0
46 2 S102 727 963783 2655 0
46 2 S102 724 964507 3379 0
46 2 S102 735 965242 4114 0
46 2 S102 763 966005 4877 0
46 2 S102 817 966822 5694 0
46 2 S102 849 967671 6543 0
0 0 0 853 968524 -8818 0
0 0 0 829 969353 -7989 0
0 0 0 772 970125 -7217 0
0 0 0 734 970859 -6483 0
0 0 0 702 971561 -5781 0
0 0 0 684 972245 -5097 0
0 0 0 681 972926 -4416 0
0 0 0 666 973592 -3750 0
0 0 0 675 974267 -3075 0
0 0 0 699 974966 -2376 0
47 1 S112 735 975701 -1641 0
47 1 S112 803 976504 -838 0
47 2 S112 906 977410 68 0
47 2 S112 933 978343 1001 0
47 2 S112 938 979281 1939 0
47 2 S112 913 980194 2852 0
47 2 S112 897 981091 3749 0
47 2 S112 892 981983 4641 0
47 2 S112 883 982866 5524 0
47 2 S112 864 983730 6388 0
0 0 0 836 984566 -12919 0
0 0 0 816 985382 -12103 0
0 0 0 784 986166 -11319 0
0 0 0 766 986932 -10553 0
0 0 0 751 987683 -9802 0
0 0 0 732 988415 -9070 0
0 0 0 728 989143 -8342 0
0 0 0 732 989875 -7610 0
0 0 0 774 990649 -6836 0
0 0 0 843 991492 -5993 0
0 0 0 875 992367 -5118 0
0 0 0 867 993234 -4251 0
0 0 0 863 994097 -3388 0
0 0 0 878 994975 -2510 0
48 1 S116 903 995878 -1607 0
48 1 S116 922 996800 -685 0
48 2 S116 907 997707 222 0
48 2 S116 869 998576 1091 0
48 2 S116 825 999401 1916 0
48 2 S116 804 1000205 2720 0
48 2 S116 788 1000993 3508 0
48 2 S116 779 1001772 4287 0
48 2 S116 791 1002563 5078 0
48 2 S116 808 1003371 5886 0
48 2 S116 799 1004170 6685 0
0 0 0 776 1004946 -7973 0
0 0 0 769 1005715 -7204 0
0 0 0 766 1006481 -6438 0
0 0 0 769 1007250 -5669 0
0 0 0 820 1008070 -4849 0
0 0 0 843 1008913 -4006 0
0 0 0 846 1009759 -3160 0
0 0 0 820 1010579 -2340 0
49 1 S112 787 1011366 -1553 0
49 1 S112 777 1012143 -776 0
49 1 S112 768 1012911 -8 0
49 2 S112 777 1013688 769 0
49 2 S112 832 1014520 1601 0
49 2 S112 841 1015361 2442 0
49 2 S112 834 1016195 3276 0
49 2 S112 804 1016999 4080 0
49 2 S112 770 1017769 4850 0
49 2 S112 751 1018520 5601 0
49 2 S112 744 1019264 6345 0
0 0 0 749 1020013 -12800 0
0 0 0 781 1020794 -12019 0
0 0 0 844 1021638 -11175 0
0 0 0 889 1022527 -10286 0
0 0 0 889 1023416 -9397 0
0 0 0 889 1024305 -8508 0
0 0 0 848 1025153 -7660 0
0 0 0 796 1025949 -6864 0
0 0 0 754 1026703 -6110 0
0 0 0 737 1027440 -5373 0
0 0 0 739 1028179 -4634 0
0 0 0 760 1028939 -3874 0
0 0 0 787 1029726 -3087 0
0 0 0 808 1030534 -2279 0
50 1 S106 799 1031333 -1480 0
50 1 S106 790 1032123 -690 0
50 2 S106 793 1032916 103 0
50 2 S106 801 1033717 904 0
50 2 S106 814 1034531 1718 0
50 2 S106 812 1035343 2530 0
50 2 S106 804 1036147 3334 0
50 2 S106 785 1036932 4119 0
50 2 S106 762 1037694 4881 0
50 2 S106 744 1038438 5625 0
50 2 S106 735 1039173 6360 0
0 0 0 744 1039917 -6723 0
0 0 0 790 1040707 -5933 0
0 0 0 877 1041584 -5056 0
0 0 0 897 1042481 -4159 0
0 0 0 863 1043344 -3296 0
0 0 0 829 1044173 -2467 0
51 1 S112 825 1044998 -1642 0
51 1 S112 818 1045816 -824 0
51 1 S112 810 1046626 -14 0
51 2 S112 803 1047429 789 0
51 2 S112 802 1048231 1591 0
51 2 S112 791 1049022 2382 0
51 2 S112 767 1049789 3149 0
51 2 S112 739 1050528 3888 0
51 2 S112 723 1051251 4611 0
51 2 S112 711 1051962 5322 0
51 2 S112 718 1052680 6040 0
51 2 S112 783 1053463 6823 0
0 0 0 899 1054362 -7928 0
0 0 0 922 1055284 -7006 0
0 0 0 919 1056203 -6087 0
0 0 0 902 1057105 -5185 0
0 0 0 845 1057950 -4340 0
0 0 0 811 1058761 -3529 0
0 0 0 787 1059548 -2742 0
52 1 S116 768 1060316 -1974 0
52 1 S116 743 1061059 -1231 0
52 1 S116 733 1061792 -498 0
52 2 S116 729 1062521 231 0
52 2 S116 747 1063268 978 0
52 2 S116 814 1064082 1792 0
52 2 S116 894 1064976 2686 0
52 2 S116 906 1065882 3592 0
52 2 S116 865 1066747 4457 0
52 2 S116 815 1067562 5272 0
52 2 S116 778 1068340 6050 0
52 2 S116 771 1069111 6821 0
0 0 0 785 1069896 -8773 0
0 0 0 821 1070717 -7952 0
0 0 0 840 1071557 -7112 0
0 0 0 822 1072379 -6290 0
0 0 0 790 1073169 -5500 0
0 0 0 765 1073934 -4735 0
0 0 0 753 1074687 -3982 0
0 0 0 748 1075435 -3234 0
0 0 0 754 1076189 -2480 0
53 1 S106 768 1076957 -1712 0
53 1 S106 762 1077719 -950 0
53 1 S106 756 1078475 -194 0
53 2 S106 756 1079231 562 0
53 2 S106 770 1080001 1332 0
53 2 S106 791 1080792 2123 0
53 2 S106 817 1081609 2940 0
53 2 S106 829 1082438 3769 0
53 2 S106 814 1083252 4583 0
53 2 S106 769 1084021 5352 0
53 2 S106 736 1084757 6088 0
53 2 S106 718 1085475 6806 0
0 0 0 718 1086193 -6800 0
0 0 0 740 1086933 -6060 0
0 0 0 793 1087726 -5267 0
0 0 0 850 1088576 -4417 0
0 0 0 844 1089420 -3573 0
0 0 0 823 1090243 -2750 0
54 1 S102 824 1091067 -1926 0
54 1 S102 833 1091900 -1093 0
54 1 S102 846 1092746 -247 0
54 2 S102 831 1093577 584 0
54 2 S102 805 1094382 1389 0
54 2 S102 778 1095160 2167 0
54 2 S102 754 1095914 2921 0
54 2 S102 740 1096654 3661 0
54 2 S102 749 1097403 4410 0
54 2 S102 770 1098173 5180 0
54 2 S102 810 1098983 5990 0
54 2 S102 818 1099801 6808 0
0 0 0 810 1100611 -10983 0
0 0 0 792 1101403 -10191 0
0 0 0 767 1102170 -9424 0
0 0 0 755 1102925 -8669 0
0 0 0 738 1103663 -7931 0
0 0 0 736 1104399 -7195 0
0 0 0 750 1105149 -6445 0
0 0 0 764 1105913 -5681 0
0 0 0 768 1106681 -4913 0
0 0 0 782 1107463 -4131 0
0 0 0 806 1108269 -3325 0
0 0 0 845 1109114 -2480 0
55 1 S106 861 1109975 -1619 0
55 1 S106 852 1110827 -767 0
55 2 S106 816 1111643 49 0
55 2 S106 796 1112439 845 0
55 2 S106 776 1113215 1621 0
55 2 S106 773 1113988 2394 0
55 2 S106 786 1114774 3180 0
55 2 S106 804 1115578 3984 0
55 2 S106 803 1116381 4787 0
55 2 S106 779 1117160 5566 0
55 2 S106 759 1117919 6325 0
0 0 0 746 1118665 -8148 0
0 0 0 754 1119419 -7394 0
0 0 0 783 1120202 -6611 0
0 0 0 836 1121038 -5775 0
0 0 0 857 1121895 -4918 0
0 0 0 838 1122733 -4080 0
0 0 0 793 1123526 -3287 0
0 0 0 760 1124286 -2527 0
56 1 S116 721 1125007 -1806 0
56 1 S116 702 1125709 -1104 0
56 1 S116 683 1126392 -421 0
56 2 S116 674 1127066 253 0
56 2 S116 672 1127738 925 0
56 2 S116 688 1128426 1613 0
56 2 S116 738 1129164 2351 0
56 2 S116 902 1130066 3253 0
56 2 S116 1003 1131069 4256 1
56 2 S116 963 1132032 5219 1
56 2 S116 893 1132925 6112 0
56 2 S116 851 1133776 6963 0
0 0 0 841 1134617 -6171 0
0 0 0 822 1135439 -5349 0
0 0 0 802 1136241 -4547 0
0 0 0 770 1137011 -3777 0
0 0 0 745 1137756 -3032 0
0 0 0 731 1138487 -2301 0
57 1 S106 727 1139214 -1574 0
57 1 S106 742 1139956 -832 0
57 1 S106 769 1140725 -63 0
57 2 S106 809 1141534 746 0
57 2 S106 827 1142361 1573 0
57 2 S106 798 1143159 2371 0
57 2 S106 779 1143938 3150 0
57 2 S106 775 1144713 3925 0
57 2 S106 785 1145498 4710 0
57 2 S106 803 1146301 5513 0
57 2 S106 828 1147129 6341 0
0 0 0 833 1147962 -8725 0
0 0 0 802 1148764 -7923 0
0 0 0 778 1149542 -7145 0
0 0 0 758 1150300 -6387 0
0 0 0 742 1151042 -5645 0
0 0 0 733 1151775 -4912 0
0 0 0 718 1152493 -4194 0
0 0 0 721 1153214 -3473 0
0 0 0 716 1153930 -2757 0
0 0 0 711 1154641 -2046 0
58 1 S102 716 1155357 -1330 0
58 1 S102 727 1156084 -603 0
58 2 S102 750 1156834 147 0
58 2 S102 796 1157630 943 0
58 2 S102 856 1158486 1799 0
58 2 S102 884 1159370 2683 0
58 2 S102 880 1160250 3563 0
58 2 S102 847 1161097 4410 0
58 2 S102 794 1161891 5204 0
58 2 S102 763 1162654 5967 0
58 2 S102 738 1163392 6705 0
0 0 0 729 1164121 -8083 0
0 0 0 721 1164842 -7362 0
0 0 0 721 1165563 -6641 0
0 0 0 710 1166273 -5931 0
0 0 0 706 1166979 -5225 0
0 0 0 701 1167680 -4524 0
0 0 0 698 1168378 -3826 0
0 0 0 715 1169093 -3111 0
0 0 0 759 1169852 -2352 0
59 1 S112 808 1170660 -1544 0
59 1 S112 808 1171468 -736 0
59 2 S112 798 1172266 62 0
59 2 S112 796 1173062 858 0
59 2 S112 810 1173872 1668 0
59 2 S112 832 1174704 2500 0
59 2 S112 847 1175551 3347 0
59 2 S112 857 1176408 4204 0
59 2 S112 851 1177259 5055 0
59 2 S112 827 1178086 5882 0
59 2 S112 773 1178859 6655 0
0 0 0 743 1179602 -9711 0
0 0 0 725 1180327 -8986 0
0 0 0 712 1181039 -8274 0
0 0 0 718 1181757 -7556 0
0 0 0 734 1182491 -6822 0
0 0 0 736 1183227 -6086 0
0 0 0 717 1183944 -5369 0
0 0 0 714 1184658 -4655 0
0 0 0 712 1185370 -3943 0
0 0 0 710 1186080 -3233 0
0 0 0 726 1186806 -2507 0
60 1 S102 746 1187552 -1761 0
60 1 S102 761 1188313 -1000 0
60 1 S102 763 1189076 -237 0
60 2 S102 765 1189841 528 0
60 2 S102 776 1190617 1304 0
60 2 S102 795 1191412 2099 0
60 2 S102 806 1192218 2905 0
60 2 S102 820 1193038 3725 0
60 2 S102 818 1193856 4543 0
60 2 S102 797 1194653 5340 0
60 2 S102 763 1195416 6103 0
60 2 S102 747 1196163 6850 0
0 0 0 737 1196900 -9920 0
0 0 0 743 1197643 -9177 0
0 0 0 750 1198393 -8427 0
0 0 0 756 1199149 -7671 0
0 0 0 763 1199912 -6908 0
0 0 0 753 1200665 -6155 0
0 0 0 752 1201417 -5403 0
0 0 0 756 1202173 -4647 0
0 0 0 762 1202935 -3885 0
0 0 0 769 1203704 -3116 0
0 0 0 769 1204473 -2347 0
61 1 S106 771 1205244 -1576 0
61 1 S106 765 1206009 -811 0
61 1 S106 759 1206768 -52 0
61 2 S106 743 1207511 691 0
61 2 S106 726 1208237 1417 0
61 2 S106 710 1208947 2127 0
61 2 S106 706 1209653 2833 0
61 2 S106 716 1210369 3549 0
61 2 S106 744 1211113 4293 0
61 2 S106 786 1211899 5079 0
61 2 S106 816 1212715 5895 0
61 2 S106 824 1213539 6719 0
0 0 0 788 1214327 -7049 0
0 0 0 764 1215091 -6285 0
0 0 0 744 1215835 -5541 0
0 0 0 733 1216568 -4808 0
0 0 0 708 1217276 -4100 0
0 0 0 684 1217960 -3416 0
0 0 0 677 1218637 -2739 0
0 0 0 672 1219309 -2067 0
62 1 S112 692 1220001 -1375 0
62 1 S112 739 1220740 -636 0
62 2 S112 858 1221598 222 0
62 2 S112 914 1222512 1136 0
62 2 S112 911 1223423 2047 0
62 2 S112 880 1224303 2927 0
62 2 S112 884 1225187 3811 0
62 2 S112 890 1226077 4701 0
62 2 S112 885 1226962 5586 0
62 2 S112 850 1227812 6436 0
0 0 0 797 1228609 -11053 0
0 0 0 763 1229372 -10290 0
0 0 0 739 1230111 -9551 0
0 0 0 737 1230848 -8814 0
0 0 0 718 1231566 -8096 0
0 0 0 709 1232275 -7387 0
0 0 0 699 1232974 -6688 0
0 0 0 699 1233673 -5989 0
0 0 0 706 1234379 -5283 0
0 0 0 730 1235109 -4553 0
0 0 0 787 1235896 -3766 0
0 0 0 824 1236720 -2942 0
0 0 0 834 1237554 -2108 0
63 1 S102 839 1238393 -1269 0
63 1 S102 837 1239230 -432 0
63 2 S102 808 1240038 376 0
63 2 S102 787 1240825 1163 0
63 2 S102 761 1241586 1924 0
63 2 S102 741 1242327 2665 0
63 2 S102 726 1243053 3391 0
63 2 S102 708 1243761 4099 0
63 2 S102 681 1244442 4780 0
63 2 S102 658 1245100 5438 0
63 2 S102 652 1245752 6090 0
63 2 S102 658 1246410 6748 0
0 0 0 694 1247104 -9501 0
0 0 0 849 1247953 -8652 0
0 0 0 986 1248939 -7666 1
0 0 0 981 1249920 -6685 1
0 0 0 933 1250853 -5752 0
0 0 0 903 1251756 -4849 0
0 0 0 874 1252630 -3975 0
0 0 0 837 1253467 -3138 0
0 0 0 847 1254314 -2291 0
64 1 S112 842 1255156 -1449 0
64 1 S112 833 1255989 -616 0
64 2 S112 798 1256787 182 0
64 2 S112 783 1257570 965 0
64 2 S112 786 1258356 1751 0
64 2 S112 807 1259163 2558 0
64 2 S112 852 1260015 3410 0
64 2 S112 884 1260899 4294 0
64 2 S112 880 1261779 5174 0
64 2 S112 857 1262636 6031 0
64 2 S112 816 1263452 6847 0
0 0 0 800 1264252 -7688 0
0 0 0 804 1265056 -6884 0
0 0 0 827 1265883 -6057 0
0 0 0 887 1266770 -5170 0
0 0 0 877 1267647 -4293 0
0 0 0 849 1268496 -3444 0
0 0 0 834 1269330 -2610 0
65 1 S106 813 1270143 -1797 0
65 1 S106 790 1270933 -1007 0
65 1 S106 752 1271685 -255 0
65 2 S106 714 1272399 459 0
65 2 S106 719 1273118 1178 0
65 2 S106 712 1273830 1890 0
65 2 S106 751 1274581 2641 0
65 2 S106 807 1275388 3448 0
65 2 S106 855 1276243 4303 0
65 2 S106 864 1277107 5167 0
65 2 S106 844 1277951 6011 0
65 2 S106 826 1278777 6837 0
0 0 0 796 1279573 -7205 0
0 0 0 766 1280339 -6439 0
0 0 0 752 1281091 -5687 0
0 0 0 741 1281832 -4946 0
0 0 0 727 1282559 -4219 0
0 0 0 720 1283279 -3499 0
0 0 0 722 1284001 -2777 0
0 0 0 726 1284727 -2051 0
66 1 S116 733 1285460 -1318 0
66 1 S116 733 1286193 -585 0
66 2 S116 730 1286923 145 0
66 2 S116 718 1287641 863 0
66 2 S116 724 1288365 1587 0
66 2 S116 725 1289090 2312 0
66 2 S116 730 1289820 3042 0
66 2 S116 777 1290597 3819 0
66 2 S116 869 1291466 4688 0
66 2 S116 983 1292449 5671 1
66 2 S116 989 1293438 6660 1
0 0 0 979 1294417 -10481 1
0 0 0 954 1295371 -9527 0
0 0 0 921 1296292 -8606 0
0 0 0 849 1297141 -7757 0
0 0 0 775 1297916 -6982 0
0 0 0 738 1298654 -6244 0
0 0 0 715 1299369 -5529 0
0 0 0 700 1300069 -4829 0
0 0 0 700 1300769 -4129 0
0 0 0 703 1301472 -3426 0
0 0 0 710 1302182 -2716 0
67 1 S102 731 1302913 -1985 0
67 1 S102 754 1303667 -1231 0
67 1 S102 768 1304435 -463 0
67 2 S102 761 1305196 298 0
67 2 S102 754 1305950 1052 0
67 2 S102 744 1306694 1796 0
67 2 S102 737 1307431 2533 0
67 2 S102 736 1308167 3269 0
67 2 S102 749 1308916 4018 0
67 2 S102 777 1309693 4795 0
67 2 S102 801 1310494 5596 0
67 2 S102 811 1311305 6407 0
0 0 0 805 1312110 -7029 0
0 0 0 777 1312887 -6252 0
0 0 0 765 1313652 -5487 0
0 0 0 743 1314395 -4744 0
0 0 0 722 1315117 -4022 0
0 0 0 710 1315827 -3312 0
0 0 0 696 1316523 -2616 0
68 1 S106 692 1317215 -1924 0
68 1 S106 678 1317893 -1246 0
68 1 S106 700 1318593 -546 0
68 2 S106 742 1319335 196 0
68 2 S106 785 1320120 981 0
68 2 S106 889 1321009 1870 0
68 2 S106 952 1321961 2822 0
68 2 S106 980 1322941 3802 1
68 2 S106 967 1323908 4769 1
68 2 S106 923 1324831 5692 0
68 2 S106 853 1325684 6545 0
0 0 0 807 1326491 -9939 0
0 0 0 773 1327264 -9166 0
0 0 0 753 1328017 -8413 0
0 0 0 739 1328756 -7674 0
0 0 0 736 1329492 -6938 0
0 0 0 723 1330215 -6215 0
0 0 0 725 1330940 -5490 0
0 0 0 731 1331671 -4759 0
0 0 0 762 1332433 -3997 0
0 0 0 827 1333260 -3170 0
0 0 0 913 1334173 -2257 0
69 1 S102 949 1335122 -1308 0
69 1 S102 937 1336059 -371 0
69 2 S102 909 1336968 538 0
69 2 S102 875 1337843 1413 0
69 2 S102 831 1338674 2244 0
69 2 S102 798 1339472 3042 0
69 2 S102 777 1340249 3819 0
69 2 S102 765 1341014 4584 0
69 2 S102 787 1341801 5371 0
69 2 S102 813 1342614 6184 0
69 2 S102 841 1343455 7025 0
0 0 0 857 1344312 -8862 0
0 0 0 836 1345148 -8026 0
0 0 0 797 1345945 -7229 0
0 0 0 775 1346720 -6454 0
0 0 0 763 1347483 -5691 0
0 0 0 764 1348247 -4927 0
0 0 0 785 1349032 -4142 0
0 0 0 783 1349815 -3359 0
0 0 0 782 1350597 -2577 0
70 1 S112 787 1351384 -1790 0
70 1 S112 801 1352185 -989 0
70 1 S112 839 1353024 -150 0
70 2 S112 865 1353889 715 0
70 2 S112 868 1354757 1583 0
70 2 S112 850 1355607 2433 0
70 2 S112 847 1356454 3280 0
70 2 S112 848 1357302 4128 0
70 2 S112 871 1358173 4999 0
70 2 S112 872 1359045 5871 0
70 2 S112 856 1359901 6727 0
0 0 0 817 1360718 -11289 0
0 0 0 792 1361510 -10497 0
0 0 0 787 1362297 -9710 0
0 0 0 784 1363081 -8926 0
0 0 0 787 1363868 -8139 0
0 0 0 776 1364644 -7363 0
0 0 0 771 1365415 -6592 0
0 0 0 779 1366194 -5813 0
0 0 0 797 1366991 -5016 0
0 0 0 829 1367820 -4187 0
0 0 0 833 1368653 -3354 0
0 0 0 810 1369463 -2544 0
71 1 S116 791 1370254 -1753 0
71 1 S116 788 1371042 -965 0
71 1 S116 789 1371831 -176 0
71 2 S116 796 1372627 620 0
71 2 S116 816 1373443 1436 0
71 2 S116 819 1374262 2255 0
71 2 S116 810 1375072 3065 0
71 2 S116 813 1375885 3878 0
71 2 S116 797 1376682 4675 0
71 2 S116 772 1377454 5447 0
71 2 S116 755 1378209 6202 0
71 2 S116 752 1378961 6954 0
0 0 0 761 1379722 -9013 0
0 0 0 811 1380533 -8202 0
0 0 0 852 1381385 -7350 0
0 0 0 859 1382244 -6491 0
0 0 0 826 1383070 -5665 0
0 0 0 795 1383865 -4870 0
0 0 0 782 1384647 -4088 0
0 0 0 780 1385427 -3308 0
0 0 0 777 1386204 -2531 0
72 1 S102 788 1386992 -1743 0
72 1 S102 795 1387787 -948 0
72 1 S102 780 1388567 -168 0
72 2 S102 767 1389334 599 0
72 2 S102 765 1390099 1364 0
72 2 S102 767 1390866 2131 0
72 2 S102 779 1391645 2910 0
72 2 S102 797 1392442 3707 0
72 2 S102 801 1393243 4508 0
72 2 S102 797 1394040 5305 0
72 2 S102 803 1394843 6108 0
72 2 S102 806 1395649 6914 0
0 0 0 807 1396456 -6818 0
0 0 0 798 1397254 -6020 0
0 0 0 773 1398027 -5247 0
0 0 0 767 1398794 -4480 0
0 0 0 757 1399551 -3723 0
0 0 0 759 1400310 -2964 0
0 0 0 756 1401066 -2208 0
73 1 S116 742 1401808 -1466 0
73 1 S116 741 1402549 -725 0
73 2 S116 761 1403310 36 0
73 2 S116 770 1404080 806 0
73 2 S116 775 1404855 1581 0
73 2 S116 756 1405611 2337 0
73 2 S116 747 1406358 3084 0
73 2 S116 749 1407107 3833 0
73 2 S116 762 1407869 4595 0
73 2 S116 792 1408661 5387 0
73 2 S116 821 1409482 6208 0
0 0 0 852 1410334 -9021 0
0 0 0 873 1411207 -8148 0
0 0 0 866 1412073 -7282 0
0 0 0 813 1412886 -6469 0
0 0 0 782 1413668 -5687 0
0 0 0 769 1414437 -4918 0
0 0 0 761 1415198 -4157 0
0 0 0 767 1415965 -3390 0
0 0 0 779 1416744 -2611 0
74 1 S106 774 1417518 -1837 0
74 1 S106 762 1418280 -1075 0
74 1 S106 758 1419038 -317 0
74 2 S106 768 1419806 451 0
74 2 S106 790 1420596 1241 0
74 2 S106 825 1421421 2066 0
74 2 S106 836 1422257 2902 0
74 2 S106 824 1423081 3726 0
74 2 S106 799 1423880 4525 0
74 2 S106 786 1424666 5311 0
74 2 S106 774 1425440 6085 0
74 2 S106 775 1426215 6860 0
0 0 0 801 1427016 -7757 0
0 0 0 836 1427852 -6921 0
0 0 0 827 1428679 -6094 0
0 0 0 820 1429499 -5274 0
0 0 0 806 1430305 -4468 0
0 0 0 782 1431087 -3686 0
0 0 0 769 1431856 -2917 0
0 0 0 757 1432613 -2160 0
75 1 S112 744 1433357 -1416 0
75 1 S112 744 1434101 -672 0
75 2 S112 756 1434857 84 0
75 2 S112 793 1435650 877 0
75 2 S112 891 1436541 1768 0
75 2 S112 932 1437473 2700 0
75 2 S112 886 1438359 3586 0
75 2 S112 809 1439168 4395 0
75 2 S112 772 1439940 5167 0
75 2 S112 768 1440708 5935 0
75 2 S112 780 1441488 6715 0
0 0 0 820 1442308 -6921 0
0 0 0 861 1443169 -6060 0
0 0 0 871 1444040 -5189 0
0 0 0 841 1444881 -4348 0
0 0 0 803 1445684 -3545 0
0 0 0 778 1446462 -2767 0
0 0 0 763 1447225 -2004 0
76 1 S116 764 1447989 -1240 0
76 1 S116 790 1448779 -450 0
76 2 S116 801 1449580 351 0
76 2 S116 806 1450386 1157 0
76 2 S116 836 1451222 1993 0
76 2 S116 895 1452117 2888 0
76 2 S116 949 1453066 3837 0
76 2 S116 975 1454041 4812 1
76 2 S116 940 1454981 5752 0
76 2 S116 897 1455878 6649 0
0 0 0 836 1456714 -7303 0
0 0 0 791 1457505 -6512 0
0 0 0 758 1458263 -5754 0
0 0 0 745 1459008 -5009 0
0 0 0 732 1459740 -4277 0
0 0 0 726 1460466 -3551 0
0 0 0 724 1461190 -2827 0
0 0 0 723 1461913 -2104 0
77 1 S106 735 1462648 -1369 0
77 1 S106 741 1463389 -628 0
77 2 S106 776 1464165 148 0
77 2 S106 844 1465009 992 0
77 2 S106 924 1465933 1916 0
77 2 S106 933 1466866 2849 0
77 2 S106 912 1467778 3761 0
77 2 S106 880 1468658 4641 0
77 2 S106 841 1469499 5482 0
77 2 S106 783 1470282 6265 0
77 2 S106 762 1471044 7027 0
0 0 0 752 1471796 -7457 0
0 0 0 770 1472566 -6687 0
0 0 0 775 1473341 -5912 0
0 0 0 793 1474134 -5119 0
0 0 0 819 1474953 -4300 0
0 0 0 830 1475783 -3470 0
0 0 0 835 1476618 -2635 0
78 1 S112 812 1477430 -1823 0
78 1 S112 798 1478228 -1025 0
78 1 S112 797 1479025 -228 0
78 2 S112 807 1479832 579 0
78 2 S112 840 1480672 1419 0
78 2 S112 855 1481527 2274 0
78 2 S112 856 1482383 3130 0
78 2 S112 839 1483222 3969 0
78 2 S112 829 1484051 4798 0
78 2 S112 809 1484860 5607 0
78 2 S112 780 1485640 6387 0
0 0 0 756 1486396 -11806 0
0 0 0 732 1487128 -11074 0
0 0 0 722 1487850 -10352 0
0 0 0 727 1488577 -9625 0
0 0 0 798 1489375 -8827 0
0 0 0 905 1490280 -7922 0
0 0 0 927 1491207 -6995 0
0 0 0 863 1492070 -6132 0
0 0 0 814 1492884 -5318 0
0 0 0 833 1493717 -4485 0
0 0 0 835 1494552 -3650 0
0 0 0 821 1495373 -2829 0
0 0 0 816 1496189 -2013 0
79 1 S102 828 1497017 -1185 0
79 1 S102 847 1497864 -338 0
79 2 S102 866 1498730 528 0
79 2 S102 864 1499594 1392 0
79 2 S102 821 1500415 2213 0
79 2 S102 794 1501209 3007 0
79 2 S102 766 1501975 3773 0
79 2 S102 761 1502736 4534 0
79 2 S102 764 1503500 5298 0
79 2 S102 784 1504284 6082 0
79 2 S102 823 1505107 6905 0
0 0 0 854 1505961 -8438 0
0 0 0 895 1506856 -7543 0
0 0 0 851 1507707 -6692 0
0 0 0 808 1508515 -5884 0
0 0 0 773 1509288 -5111 0
0 0 0 729 1510017 -4382 0
0 0 0 703 1510720 -3679 0
0 0 0 686 1511406 -2993 0
0 0 0 691 1512097 -2302 0
80 1 S116 708 1512805 -1594 0
80 1 S116 768 1513573 -826 0
80 1 S116 826 1514399 0 0
80 2 S116 817 1515216 817 0
80 2 S116 828 1516044 1645 0
80 2 S116 834 1516878 2479 0
80 2 S116 832 1517710 3311 0
80 2 S116 851 1518561 4162 0
80 2 S116 860 1519421 5022 0
80 2 S116 860 1520281 5882 0
80 2 S116 853 1521134 6735 0
