T_0135
BeatCount Mean SD BeatCountNoOutliers MeanNoOutliers SDNoOutliers
1779 874,261382799325 76,8048725407822 1771 873,795031055901 74,6386994649742

Trial TrialStatus Trialtype IBI AbsPosition RelPosition Outlier
0 0 0 814 1022 -15001 0
0 0 0 852 1874 -14149 0
0 0 0 794 2668 -13355 0
0 0 0 808 3476 -12547 0
0 0 0 814 4290 -11733 0
0 0 0 775 5065 -10958 0
0 0 0 725 5790 -10233 0
0 0 0 800 6590 -9433 0
0 0 0 924 7514 -8509 0
0 0 0 915 8429 -7594 0
0 0 0 900 9329 -6694 0
0 0 0 867 10196 -5827 0
0 0 0 794 10990 -5033 0
0 0 0 786 11776 -4247 0
0 0 0 812 12588 -3435 0
0 0 0 913 13501 -2522 0
1 1 S112 878 14379 -1644 0
1 1 S112 928 15307 -716 0
1 2 S112 942 16249 226 0
1 2 S112 887 17136 1113 0
1 2 S112 904 18040 2017 0
1 2 S112 954 18994 2971 0
1 2 S112 866 19860 3837 0
1 2 S112 970 20830 4807 0
1 2 S112 1007 21837 5814 0
1 2 S112 933 22770 6747 0
0 0 0 986 23756 -10967 0
0 0 0 965 24721 -10002 0
0 0 0 891 25612 -9111 0
0 0 0 945 26557 -8166 0
0 0 0 938 27495 -7228 0
0 0 0 838 28333 -6390 0
0 0 0 899 29232 -5491 0
0 0 0 879 30111 -4612 0
0 0 0 832 30943 -3780 0
0 0 0 970 31913 -2810 0
2 1 S102 981 32894 -1829 0
2 1 S102 894 33788 -935 0
2 2 S102 943 34731 8 0
2 2 S102 923 35654 931 0
2 2 S102 813 36467 1744 0
2 2 S102 885 37352 2629 0
2 2 S102 932 38284 3561 0
2 2 S102 949 39233 4510 0
2 2 S102 938 40171 5448 0
2 2 S102 1008 41179 6456 0
0 0 0 988 42167 -9599 0
0 0 0 954 43121 -8645 0
0 0 0 988 44109 -7657 0
0 0 0 930 45039 -6727 0
0 0 0 891 45930 -5836 0
0 0 0 909 46839 -4927 0
0 0 0 839 47678 -4088 0
0 0 0 879 48557 -3209 0
0 0 0 903 49460 -2306 0
3 1 S116 820 50280 -1486 0
3 1 S116 917 51197 -569 0
3 2 S116 901 52098 332 0
3 2 S116 875 52973 1207 0
3 2 S116 991 53964 2198 0
3 2 S116 1008 54972 3206 0
3 2 S116 944 55916 4150 0
3 2 S116 936 56852 5086 0
3 2 S116 920 57772 6006 0
3 2 S116 879 58651 6885 0
0 0 0 929 59580 -11566 0
0 0 0 937 60517 -10629 0
0 0 0 851 61368 -9778 0
0 0 0 903 62271 -8875 0
0 0 0 841 63112 -8034 0
0 0 0 810 63922 -7224 0
0 0 0 886 64808 -6338 0
0 0 0 882 65690 -5456 0
0 0 0 841 66531 -4615 0
0 0 0 879 67410 -3736 0
0 0 0 848 68258 -2888 0
0 0 0 819 69077 -2069 0
4 1 S106 805 69882 -1264 0
4 1 S106 780 70662 -484 0
4 2 S106 745 71407 261 0
4 2 S106 797 72204 1058 0
4 2 S106 923 73127 1981 0
4 2 S106 875 74002 2856 0
4 2 S106 956 74958 3812 0
4 2 S106 919 75877 4731 0
4 2 S106 928 76805 5659 0
4 2 S106 943 77748 6602 0
0 0 0 862 78610 -7539 0
0 0 0 932 79542 -6607 0
0 0 0 892 80434 -5715 0
0 0 0 882 81316 -4833 0
0 0 0 860 82176 -3973 0
0 0 0 801 82977 -3172 0
0 0 0 776 83753 -2396 0
5 1 S116 820 84573 -1576 0
5 1 S116 848 85421 -728 0
5 2 S116 786 86207 58 0
5 2 S116 807 87014 865 0
5 2 S116 934 87948 1799 0
5 2 S116 964 88912 2763 0
5 2 S116 967 89879 3730 0
5 2 S116 1025 90904 4755 0
5 2 S116 982 91886 5737 0
5 2 S116 968 92854 6705 0
0 0 0 971 93825 -10146 0
0 0 0 879 94704 -9267 0
0 0 0 887 95591 -8380 0
0 0 0 884 96475 -7496 0
0 0 0 808 97283 -6688 0
0 0 0 826 98109 -5862 0
0 0 0 870 98979 -4992 0
0 0 0 809 99788 -4183 0
0 0 0 829 100617 -3354 0
0 0 0 878 101495 -2476 0
6 1 S106 851 102346 -1625 0
6 1 S106 827 103173 -798 0
6 2 S106 837 104010 39 0
6 2 S106 806 104816 845 0
6 2 S106 812 105628 1657 0
6 2 S106 904 106532 2561 0
6 2 S106 878 107410 3439 0
6 2 S106 881 108291 4320 0
6 2 S106 919 109210 5239 0
6 2 S106 880 110090 6119 0
6 2 S106 873 110963 6992 0
0 0 0 871 111834 -11153 0
0 0 0 825 112659 -10328 0
0 0 0 838 113497 -9490 0
0 0 0 864 114361 -8626 0
0 0 0 820 115181 -7806 0
0 0 0 797 115978 -7009 0
0 0 0 831 116809 -6178 0
0 0 0 817 117626 -5361 0
0 0 0 805 118431 -4556 0
0 0 0 862 119293 -3694 0
0 0 0 830 120123 -2864 0
0 0 0 765 120888 -2099 0
7 1 S102 807 121695 -1292 0
7 1 S102 821 122516 -471 0
7 2 S102 802 123318 331 0
7 2 S102 848 124166 1179 0
7 2 S102 953 125119 2132 0
7 2 S102 934 126053 3066 0
7 2 S102 923 126976 3989 0
7 2 S102 912 127888 4901 0
7 2 S102 897 128785 5798 0
7 2 S102 816 129601 6614 0
0 0 0 858 130459 -9753 0
0 0 0 896 131355 -8857 0
0 0 0 809 132164 -8048 0
0 0 0 875 133039 -7173 0
0 0 0 857 133896 -6316 0
0 0 0 789 134685 -5527 0
0 0 0 827 135512 -4700 0
0 0 0 820 136332 -3880 0
0 0 0 782 137114 -3098 0
0 0 0 804 137918 -2294 0
8 1 S112 875 138793 -1419 0
8 1 S112 866 139659 -553 0
8 2 S112 811 140470 258 0
8 2 S112 855 141325 1113 0
8 2 S112 960 142285 2073 0
8 2 S112 896 143181 2969 0
8 2 S112 958 144139 3927 0
8 2 S112 979 145118 4906 0
8 2 S112 938 146056 5844 0
8 2 S112 953 147009 6797 0
0 0 0 964 147973 -7740 0
0 0 0 892 148865 -6848 0
0 0 0 869 149734 -5979 0
0 0 0 878 150612 -5101 0
0 0 0 815 151427 -4286 0
0 0 0 787 152214 -3499 0
0 0 0 808 153022 -2691 0
9 1 S116 821 153843 -1870 0
9 1 S116 781 154624 -1089 0
9 1 S116 812 155436 -277 0
9 2 S116 794 156230 517 0
9 2 S116 778 157008 1295 0
9 2 S116 921 157929 2216 0
9 2 S116 961 158890 3177 0
9 2 S116 887 159777 4064 0
9 2 S116 857 160634 4921 0
9 2 S116 893 161527 5814 0
9 2 S116 866 162393 6680 0
0 0 0 809 163202 -12570 0
0 0 0 864 164066 -11706 0
0 0 0 850 164916 -10856 0
0 0 0 774 165690 -10082 0
0 0 0 854 166544 -9228 0
0 0 0 847 167391 -8381 0
0 0 0 771 168162 -7610 0
0 0 0 801 168963 -6809 0
0 0 0 819 169782 -5990 0
0 0 0 807 170589 -5183 0
0 0 0 743 171332 -4440 0
0 0 0 798 172130 -3642 0
0 0 0 828 172958 -2814 0
10 1 S102 842 173800 -1972 0
10 1 S102 841 174641 -1131 0
10 1 S102 870 175511 -261 0
10 2 S102 872 176383 611 0
10 2 S102 872 177255 1483 0
10 2 S102 932 178187 2415 0
10 2 S102 920 179107 3335 0
10 2 S102 917 180024 4252 0
10 2 S102 928 180952 5180 0
10 2 S102 921 181873 6101 0
10 2 S102 866 182739 6967 0
0 0 0 879 183618 -11303 0
0 0 0 877 184495 -10426 0
0 0 0 832 185327 -9594 0
0 0 0 882 186209 -8712 0
0 0 0 840 187049 -7872 0
0 0 0 820 187869 -7052 0
0 0 0 883 188752 -6169 0
0 0 0 861 189613 -5308 0
0 0 0 835 190448 -4473 0
0 0 0 874 191322 -3599 0
0 0 0 883 192205 -2716 0
11 1 S112 841 193046 -1875 0
11 1 S112 912 193958 -963 0
11 1 S112 879 194837 -84 0
11 2 S112 805 195642 721 0
11 2 S112 858 196500 1579 0
11 2 S112 954 197454 2533 0
11 2 S112 904 198358 3437 0
11 2 S112 906 199264 4343 0
11 2 S112 945 200209 5288 0
11 2 S112 923 201132 6211 0
0 0 0 892 202024 -8132 0
0 0 0 899 202923 -7233 0
0 0 0 833 203756 -6400 0
0 0 0 805 204561 -5595 0
0 0 0 823 205384 -4772 0
0 0 0 840 206224 -3932 0
0 0 0 792 207016 -3140 0
0 0 0 878 207894 -2262 0
12 1 S116 884 208778 -1378 0
12 1 S116 829 209607 -549 0
12 2 S116 900 210507 351 0
12 2 S116 906 211413 1257 0
12 2 S116 940 212353 2197 0
12 2 S116 874 213227 3071 0
12 2 S116 906 214133 3977 0
12 2 S116 861 214994 4838 0
12 2 S116 773 215767 5611 0
12 2 S116 806 216573 6417 0
0 0 0 842 217415 -11873 0
0 0 0 893 218308 -10980 0
0 0 0 828 219136 -10152 0
0 0 0 920 220056 -9232 0
0 0 0 915 220971 -8317 0
0 0 0 855 221826 -7462 0
0 0 0 866 222692 -6596 0
0 0 0 909 223601 -5687 0
0 0 0 830 224431 -4857 0
0 0 0 811 225242 -4046 0
0 0 0 816 226058 -3230 0
0 0 0 821 226879 -2409 0
13 1 S112 772 227651 -1637 0
13 1 S112 827 228478 -810 0
13 2 S112 846 229324 36 0
13 2 S112 820 230144 856 0
13 2 S112 814 230958 1670 0
13 2 S112 895 231853 2565 0
13 2 S112 954 232807 3519 0
13 2 S112 886 233693 4405 0
13 2 S112 927 234620 5332 0
13 2 S112 938 235558 6270 0
0 0 0 865 236423 -11466 0
0 0 0 895 237318 -10571 0
0 0 0 858 238176 -9713 0
0 0 0 768 238944 -8945 0
0 0 0 819 239763 -8126 0
0 0 0 836 240599 -7290 0
0 0 0 779 241378 -6511 0
0 0 0 876 242254 -5635 0
0 0 0 887 243141 -4748 0
0 0 0 818 243959 -3930 0
0 0 0 854 244813 -3076 0
0 0 0 876 245689 -2200 0
14 1 S106 853 246542 -1347 0
14 1 S106 834 247376 -513 0
14 2 S106 853 248229 340 0
14 2 S106 851 249080 1191 0
14 2 S106 808 249888 1999 0
14 2 S106 870 250758 2869 0
14 2 S106 878 251636 3747 0
14 2 S106 828 252464 4575 0
14 2 S106 872 253336 5447 0
14 2 S106 864 254200 6311 0
0 0 0 802 255002 -10742 0
0 0 0 832 255834 -9910 0
0 0 0 856 256690 -9054 0
0 0 0 830 257520 -8224 0
0 0 0 839 258359 -7385 0
0 0 0 885 259244 -6500 0
0 0 0 849 260093 -5651 0
0 0 0 812 260905 -4839 0
0 0 0 839 261744 -4000 0
0 0 0 866 262610 -3134 0
0 0 0 814 263424 -2320 0
15 1 S116 870 264294 -1450 0
15 1 S116 884 265178 -566 0
15 2 S116 885 266063 319 0
15 2 S116 939 267002 1258 0
15 2 S116 924 267926 2182 0
15 2 S116 869 268795 3051 0
15 2 S116 915 269710 3966 0
15 2 S116 893 270603 4859 0
15 2 S116 808 271411 5667 0
15 2 S116 859 272270 6526 0
0 0 0 864 273134 -9288 0
0 0 0 806 273940 -8482 0
0 0 0 841 274781 -7641 0
0 0 0 829 275610 -6812 0
0 0 0 759 276369 -6053 0
0 0 0 814 277183 -5239 0
0 0 0 840 278023 -4399 0
0 0 0 766 278789 -3633 0
0 0 0 826 279615 -2807 0
16 1 S116 872 280487 -1935 0
16 1 S116 832 281319 -1103 0
16 1 S116 822 282141 -281 0
16 2 S116 871 283012 590 0
16 2 S116 861 283873 1451 0
16 2 S116 860 284733 2311 0
16 2 S116 885 285618 3196 0
16 2 S116 835 286453 4031 0
16 2 S116 772 287225 4803 0
16 2 S116 805 288030 5608 0
16 2 S116 830 288860 6438 0
0 0 0 797 289657 -9675 0
0 0 0 841 290498 -8834 0
0 0 0 873 291371 -7961 0
0 0 0 802 292173 -7159 0
0 0 0 839 293012 -6320 0
0 0 0 822 293834 -5498 0
0 0 0 753 294587 -4745 0
0 0 0 792 295379 -3953 0
0 0 0 797 296176 -3156 0
0 0 0 787 296963 -2369 0
17 1 S106 765 297728 -1604 0
17 1 S106 818 298546 -786 0
17 2 S106 827 299373 41 0
17 2 S106 791 300164 832 0
17 2 S106 879 301043 1711 0
17 2 S106 930 301973 2641 0
17 2 S106 858 302831 3499 0
17 2 S106 842 303673 4341 0
17 2 S106 859 304532 5200 0
17 2 S106 860 305392 6060 0
17 2 S106 816 306208 6876 0
0 0 0 864 307072 -12850 0
0 0 0 859 307931 -11991 0
0 0 0 802 308733 -11189 0
0 0 0 853 309586 -10336 0
0 0 0 909 310495 -9427 0
0 0 0 848 311343 -8579 0
0 0 0 830 312173 -7749 0
0 0 0 810 312983 -6939 0
0 0 0 730 313713 -6209 0
0 0 0 755 314468 -5454 0
0 0 0 774 315242 -4680 0
0 0 0 808 316050 -3872 0
0 0 0 764 316814 -3108 0
0 0 0 819 317633 -2289 0
18 1 S102 797 318430 -1492 0
18 1 S102 800 319230 -692 0
18 2 S102 782 320012 90 0
18 2 S102 819 320831 909 0
18 2 S102 834 321665 1743 0
18 2 S102 816 322481 2559 0
18 2 S102 905 323386 3464 0
18 2 S102 966 324352 4430 0
18 2 S102 918 325270 5348 0
18 2 S102 877 326147 6225 0
0 0 0 887 327034 -7875 0
0 0 0 854 327888 -7021 0
0 0 0 796 328684 -6225 0
0 0 0 839 329523 -5386 0
0 0 0 846 330369 -4540 0
0 0 0 768 331137 -3772 0
0 0 0 791 331928 -2981 0
0 0 0 801 332729 -2180 0
19 1 S106 785 333514 -1395 0
19 1 S106 759 334273 -636 0
19 2 S106 819 335092 183 0
19 2 S106 875 335967 1058 0
19 2 S106 827 336794 1885 0
19 2 S106 908 337702 2793 0
19 2 S106 935 338637 3728 0
19 2 S106 860 339497 4588 0
19 2 S106 870 340367 5458 0
19 2 S106 884 341251 6342 0
0 0 0 829 342080 -12507 0
0 0 0 801 342881 -11706 0
0 0 0 826 343707 -10880 0
0 0 0 843 344550 -10037 0
0 0 0 817 345367 -9220 0
0 0 0 831 346198 -8389 0
0 0 0 840 347038 -7549 0
0 0 0 739 347777 -6810 0
0 0 0 700 348477 -6110 0
0 0 0 719 349196 -5391 0
0 0 0 928 350124 -4463 0
0 0 0 840 350964 -3623 0
0 0 0 749 351713 -2874 0
0 0 0 713 352426 -2161 0
20 1 S112 717 353143 -1444 0
20 1 S112 759 353902 -685 0
20 2 S112 812 354714 127 0
20 2 S112 834 355548 961 0
20 2 S112 844 356392 1805 0
20 2 S112 839 357231 2644 0
20 2 S112 834 358065 3478 0
20 2 S112 834 358899 4312 0
20 2 S112 785 359684 5097 0
20 2 S112 819 360503 5916 0
20 2 S112 892 361395 6808 0
0 0 0 929 362324 -9671 0
0 0 0 923 363247 -8748 0
0 0 0 863 364110 -7885 0
0 0 0 913 365023 -6972 0
0 0 0 875 365898 -6097 0
0 0 0 861 366759 -5236 0
0 0 0 811 367570 -4425 0
0 0 0 876 368446 -3549 0
0 0 0 907 369353 -2642 0
21 1 S106 921 370274 -1721 0
21 1 S106 846 371120 -875 0
21 1 S106 874 371994 -1 0
21 2 S106 846 372840 845 0
21 2 S106 856 373696 1701 0
21 2 S106 834 374530 2535 0
21 2 S106 852 375382 3387 0
21 2 S106 893 376275 4280 0
21 2 S106 883 377158 5163 0
21 2 S106 907 378065 6070 0
21 2 S106 893 378958 6963 0
0 0 0 850 379808 -10456 0
0 0 0 859 380667 -9597 0
0 0 0 849 381516 -8748 0
0 0 0 815 382331 -7933 0
0 0 0 824 383155 -7109 0
0 0 0 810 383965 -6299 0
0 0 0 783 384748 -5516 0
0 0 0 856 385604 -4660 0
0 0 0 918 386522 -3742 0
0 0 0 865 387387 -2877 0
22 1 S116 898 388285 -1979 0
22 1 S116 843 389128 -1136 0
22 1 S116 853 389981 -283 0
22 2 S116 880 390861 597 0
22 2 S116 887 391748 1484 0
22 2 S116 901 392649 2385 0
22 2 S116 902 393551 3287 0
22 2 S116 892 394443 4179 0
22 2 S116 857 395300 5036 0
22 2 S116 865 396165 5901 0
22 2 S116 856 397021 6757 0
0 0 0 819 397840 -8389 0
0 0 0 871 398711 -7518 0
0 0 0 865 399576 -6653 0
0 0 0 773 400349 -5880 0
0 0 0 818 401167 -5062 0
0 0 0 814 401981 -4248 0
0 0 0 756 402737 -3492 0
0 0 0 819 403556 -2673 0
23 1 S112 881 404437 -1792 0
23 1 S112 849 405286 -943 0
23 1 S112 874 406160 -69 0
23 2 S112 890 407050 821 0
23 2 S112 933 407983 1754 0
23 2 S112 853 408836 2607 0
23 2 S112 907 409743 3514 0
23 2 S112 927 410670 4441 0
23 2 S112 888 411558 5329 0
23 2 S112 882 412440 6211 0
0 0 0 881 413321 -10614 0
0 0 0 899 414220 -9715 0
0 0 0 847 415067 -8868 0
0 0 0 862 415929 -8006 0
0 0 0 872 416801 -7134 0
0 0 0 810 417611 -6324 0
0 0 0 843 418454 -5481 0
0 0 0 853 419307 -4628 0
0 0 0 804 420111 -3824 0
0 0 0 884 420995 -2940 0
0 0 0 899 421894 -2041 0
24 1 S106 859 422753 -1182 0
24 1 S106 893 423646 -289 0
24 2 S106 933 424579 644 0
24 2 S106 873 425452 1517 0
24 2 S106 915 426367 2432 0
24 2 S106 948 427315 3380 0
24 2 S106 896 428211 4276 0
24 2 S106 931 429142 5207 0
24 2 S106 921 430063 6128 0
24 2 S106 864 430927 6992 0
0 0 0 887 431814 -8500 0
0 0 0 887 432701 -7613 0
0 0 0 826 433527 -6787 0
0 0 0 836 434363 -5951 0
0 0 0 857 435220 -5094 0
0 0 0 800 436020 -4294 0
0 0 0 845 436865 -3449 0
0 0 0 872 437737 -2577 0
25 1 S102 856 438593 -1721 0
25 1 S102 908 439501 -813 0
25 2 S102 938 440439 125 0
25 2 S102 882 441321 1007 0
25 2 S102 890 442211 1897 0
25 2 S102 892 443103 2789 0
25 2 S102 843 443946 3632 0
25 2 S102 904 444850 4536 0
25 2 S102 914 445764 5450 0
25 2 S102 882 446646 6332 0
0 0 0 882 447528 -7773 0
0 0 0 876 448404 -6897 0
0 0 0 861 449265 -6036 0
0 0 0 858 450123 -5178 0
0 0 0 855 450978 -4323 0
0 0 0 798 451776 -3525 0
0 0 0 790 452566 -2735 0
0 0 0 710 453276 -2025 0
26 1 S116 715 453991 -1310 0
26 1 S116 668 454659 -642 1
26 2 S116 669 455328 27 1
26 2 S116 704 456032 731 0
26 2 S116 918 456950 1649 0
26 2 S116 986 457936 2635 0
26 2 S116 947 458883 3582 0
26 2 S116 958 459841 4540 0
26 2 S116 872 460713 5412 0
26 2 S116 864 461577 6276 0
0 0 0 843 462420 -7437 0
0 0 0 794 463214 -6643 0
0 0 0 817 464031 -5826 0
0 0 0 821 464852 -5005 0
0 0 0 772 465624 -4233 0
0 0 0 762 466386 -3471 0
0 0 0 801 467187 -2670 0
27 1 S106 821 468008 -1849 0
27 1 S106 799 468807 -1050 0
27 1 S106 910 469717 -140 0
27 2 S106 906 470623 766 0
27 2 S106 840 471463 1606 0
27 2 S106 933 472396 2539 0
27 2 S106 962 473358 3501 0
27 2 S106 852 474210 4353 0
27 2 S106 911 475121 5264 0
27 2 S106 984 476105 6248 0
0 0 0 983 477088 -8187 0
0 0 0 1044 478132 -7143 0
0 0 0 986 479118 -6157 0
0 0 0 944 480062 -5213 0
0 0 0 958 481020 -4255 0
0 0 0 858 481878 -3397 0
0 0 0 903 482781 -2494 0
28 1 S102 969 483750 -1525 0
28 1 S102 893 484643 -632 0
28 2 S102 953 485596 321 0
28 2 S102 1026 486622 1347 0
28 2 S102 901 487523 2248 0
28 2 S102 994 488517 3242 0
28 2 S102 1060 489577 4302 0
28 2 S102 978 490555 5280 0
28 2 S102 1012 491567 6292 0
0 0 0 972 492539 -11735 0
0 0 0 940 493479 -10795 0
0 0 0 979 494458 -9816 0
0 0 0 908 495366 -8908 0
0 0 0 932 496298 -7976 0
0 0 0 894 497192 -7082 0
0 0 0 868 498060 -6214 0
0 0 0 933 498993 -5281 0
0 0 0 902 499895 -4379 0
0 0 0 881 500776 -3498 0
0 0 0 985 501761 -2513 0
29 1 S112 984 502745 -1529 0
29 1 S112 995 503740 -534 0
29 2 S112 994 504734 460 0
29 2 S112 961 505695 1421 0
29 2 S112 977 506672 2398 0
29 2 S112 970 507642 3368 0
29 2 S112 910 508552 4278 0
29 2 S112 968 509520 5246 0
29 2 S112 969 510489 6215 0
0 0 0 931 511420 -8637 0
0 0 0 946 512366 -7691 0
0 0 0 904 513270 -6787 0
0 0 0 841 514111 -5946 0
0 0 0 933 515044 -5013 0
0 0 0 921 515965 -4092 0
0 0 0 909 516874 -3183 0
0 0 0 980 517854 -2203 0
30 1 S112 965 518819 -1238 0
30 1 S112 904 519723 -334 0
30 2 S112 953 520676 619 0
30 2 S112 886 521562 1505 0
30 2 S112 838 522400 2343 0
30 2 S112 957 523357 3300 0
30 2 S112 1011 524368 4311 0
30 2 S112 931 525299 5242 0
30 2 S112 953 526252 6195 0
0 0 0 987 527239 -11253 0
0 0 0 963 528202 -10290 0
0 0 0 921 529123 -9369 0
0 0 0 969 530092 -8400 0
0 0 0 898 530990 -7502 0
0 0 0 972 531962 -6530 0
0 0 0 966 532928 -5564 0
0 0 0 890 533818 -4674 0
0 0 0 938 534756 -3736 0
0 0 0 939 535695 -2797 0
31 1 S106 849 536544 -1948 0
31 1 S106 916 537460 -1032 0
31 1 S106 953 538413 -79 0
31 2 S106 907 539320 828 0
31 2 S106 1005 540325 1833 0
31 2 S106 1005 541330 2838 0
31 2 S106 969 542299 3807 0
31 2 S106 970 543269 4777 0
31 2 S106 896 544165 5673 0
31 2 S106 880 545045 6553 0
0 0 0 891 545936 -10842 0
0 0 0 878 546814 -9964 0
0 0 0 947 547761 -9017 0
0 0 0 952 548713 -8065 0
0 0 0 905 549618 -7160 0
0 0 0 923 550541 -6237 0
0 0 0 869 551410 -5368 0
0 0 0 813 552223 -4555 0
0 0 0 855 553078 -3700 0
0 0 0 913 553991 -2787 0
32 1 S102 804 554795 -1983 0
32 1 S102 872 555667 -1111 0
32 1 S102 913 556580 -198 0
32 2 S102 955 557535 757 0
32 2 S102 938 558473 1695 0
32 2 S102 974 559447 2669 0
32 2 S102 941 560388 3610 0
32 2 S102 866 561254 4476 0
32 2 S102 896 562150 5372 0
32 2 S102 914 563064 6286 0
0 0 0 899 563963 -11532 0
0 0 0 924 564887 -10608 0
0 0 0 873 565760 -9735 0
0 0 0 904 566664 -8831 0
0 0 0 916 567580 -7915 0
0 0 0 883 568463 -7032 0
0 0 0 946 569409 -6086 0
0 0 0 994 570403 -5092 0
0 0 0 958 571361 -4134 0
0 0 0 986 572347 -3148 0
0 0 0 950 573297 -2198 0
33 1 S112 830 574127 -1368 0
33 1 S112 914 575041 -454 0
33 2 S112 940 575981 486 0
33 2 S112 957 576938 1443 0
33 2 S112 1062 578000 2505 0
33 2 S112 1059 579059 3564 0
33 2 S112 951 580010 4515 0
33 2 S112 973 580983 5488 0
33 2 S112 981 581964 6469 0
0 0 0 932 582896 -10935 0
0 0 0 977 583873 -9958 0
0 0 0 958 584831 -9000 0
0 0 0 878 585709 -8122 0
0 0 0 910 586619 -7212 0
0 0 0 875 587494 -6337 0
0 0 0 898 588392 -5439 0
0 0 0 998 589390 -4441 0
0 0 0 936 590326 -3505 0
0 0 0 908 591234 -2597 0
34 1 S106 942 592176 -1655 0
34 1 S106 908 593084 -747 0
34 2 S106 903 593987 156 0
34 2 S106 937 594924 1093 0
34 2 S106 915 595839 2008 0
34 2 S106 970 596809 2978 0
34 2 S106 980 597789 3958 0
34 2 S106 913 598702 4871 0
34 2 S106 968 599670 5839 0
34 2 S106 967 600637 6806 0
0 0 0 892 601529 -9775 0
0 0 0 950 602479 -8825 0
0 0 0 914 603393 -7911 0
0 0 0 940 604333 -6971 0
0 0 0 922 605255 -6049 0
0 0 0 832 606087 -5217 0
0 0 0 818 606905 -4399 0
0 0 0 856 607761 -3543 0
0 0 0 806 608567 -2737 0
35 1 S102 860 609427 -1877 0
35 1 S102 915 610342 -962 0
35 2 S102 999 611341 37 0
35 2 S102 887 612228 924 0
35 2 S102 959 613187 1883 0
35 2 S102 966 614153 2849 0
35 2 S102 894 615047 3743 0
35 2 S102 961 616008 4704 0
35 2 S102 933 616941 5637 0
35 2 S102 931 617872 6568 0
0 0 0 936 618808 -6820 0
0 0 0 917 619725 -5903 0
0 0 0 881 620606 -5022 0
0 0 0 900 621506 -4122 0
0 0 0 859 622365 -3263 0
0 0 0 859 623224 -2404 0
36 1 S106 913 624137 -1491 0
36 1 S106 882 625019 -609 0
36 2 S106 881 625900 272 0
36 2 S106 937 626837 1209 0
36 2 S106 928 627765 2137 0
36 2 S106 965 628730 3102 0
36 2 S106 953 629683 4055 0
36 2 S106 871 630554 4926 0
36 2 S106 903 631457 5829 0
36 2 S106 892 632349 6721 0
0 0 0 836 633185 -9817 0
0 0 0 906 634091 -8911 0
0 0 0 901 634992 -8010 0
0 0 0 904 635896 -7106 0
0 0 0 932 636828 -6174 0
0 0 0 856 637684 -5318 0
0 0 0 831 638515 -4487 0
0 0 0 930 639445 -3557 0
0 0 0 893 640338 -2664 0
37 1 S116 939 641277 -1725 0
37 1 S116 948 642225 -777 0
37 2 S116 901 643126 124 0
37 2 S116 928 644054 1052 0
37 2 S116 1004 645058 2056 0
37 2 S116 969 646027 3025 0
37 2 S116 943 646970 3968 0
37 2 S116 957 647927 4925 0
37 2 S116 860 648787 5785 0
37 2 S116 850 649637 6635 0
0 0 0 834 650471 -13022 0
0 0 0 800 651271 -12222 0
0 0 0 855 652126 -11367 0
0 0 0 914 653040 -10453 0
0 0 0 893 653933 -9560 0
0 0 0 979 654912 -8581 0
0 0 0 912 655824 -7669 0
0 0 0 855 656679 -6814 0
0 0 0 885 657564 -5929 0
0 0 0 856 658420 -5073 0
0 0 0 826 659246 -4247 0
0 0 0 874 660120 -3373 0
0 0 0 861 660981 -2512 0
38 1 S102 830 661811 -1682 0
38 1 S102 899 662710 -783 0
38 2 S102 947 663657 164 0
38 2 S102 877 664534 1041 0
38 2 S102 875 665409 1916 0
38 2 S102 842 666251 2758 0
38 2 S102 822 667073 3580 0
38 2 S102 875 667948 4455 0
38 2 S102 928 668876 5383 0
38 2 S102 846 669722 6229 0
0 0 0 896 670618 -10614 0
0 0 0 900 671518 -9714 0
0 0 0 855 672373 -8859 0
0 0 0 910 673283 -7949 0
0 0 0 932 674215 -7017 0
0 0 0 820 675035 -6197 0
0 0 0 840 675875 -5357 0
0 0 0 815 676690 -4542 0
0 0 0 754 677444 -3788 0
0 0 0 826 678270 -2962 0
0 0 0 952 679222 -2010 0
39 1 S116 1024 680246 -986 0
39 2 S116 1011 681257 25 0
39 2 S116 988 682245 1013 0
39 2 S116 936 683181 1949 0
39 2 S116 932 684113 2881 0
39 2 S116 925 685038 3806 0
39 2 S116 887 685925 4693 0
39 2 S116 872 686797 5565 0
39 2 S116 892 687689 6457 0
0 0 0 883 688572 -8824 0
0 0 0 877 689449 -7947 0
0 0 0 893 690342 -7054 0
0 0 0 830 691172 -6224 0
0 0 0 832 692004 -5392 0
0 0 0 853 692857 -4539 0
0 0 0 811 693668 -3728 0
0 0 0 850 694518 -2878 0
40 1 S112 905 695423 -1973 0
40 1 S112 852 696275 -1121 0
40 1 S112 806 697081 -315 0
40 2 S112 867 697948 552 0
40 2 S112 966 698914 1518 0
40 2 S112 898 699812 2416 0
40 2 S112 957 700769 3373 0
40 2 S112 978 701747 4351 0
40 2 S112 944 702691 5295 0
40 2 S112 937 703628 6232 0
0 0 0 935 704563 -187431 0
0 0 0 866 705429 -186565 0
0 0 0 883 706312 -185682 0
0 0 0 874 707186 -184808 0
0 0 0 815 708001 -183993 0
0 0 0 863 708864 -183130 0
0 0 0 869 709733 -182261 0
0 0 0 815 710548 -181446 0
0 0 0 855 711403 -180591 0
0 0 0 803 712206 -179788 0
0 0 0 718 712924 -179070 0
0 0 0 682 713606 -178388 0
0 0 0 702 714308 -177686 0
0 0 0 716 715024 -176970 0
0 0 0 733 715757 -176237 0
0 0 0 1429 717186 -174808 1
0 0 0 745 717931 -174063 0
0 0 0 794 718725 -173269 0
0 0 0 829 719554 -172440 0
0 0 0 812 720366 -171628 0
0 0 0 797 721163 -170831 0
0 0 0 784 721947 -170047 0
0 0 0 766 722713 -169281 0
0 0 0 753 723466 -168528 0
0 0 0 709 724175 -167819 0
0 0 0 714 724889 -167105 0
0 0 0 715 725604 -166390 0
0 0 0 735 726339 -165655 0
0 0 0 743 727082 -164912 0
0 0 0 754 727836 -164158 0
0 0 0 706 728542 -163452 0
0 0 0 735 729277 -162717 0
0 0 0 764 730041 -161953 0
0 0 0 807 730848 -161146 0
0 0 0 738 731586 -160408 0
0 0 0 704 732290 -159704 0
0 0 0 778 733068 -158926 0
0 0 0 842 733910 -158084 0
0 0 0 957 734867 -157127 0
0 0 0 984 735851 -156143 0
0 0 0 997 736848 -155146 0
0 0 0 975 737823 -154171 0
0 0 0 966 738789 -153205 0
0 0 0 964 739753 -152241 0
0 0 0 940 740693 -151301 0
0 0 0 901 741594 -150400 0
0 0 0 819 742413 -149581 0
0 0 0 745 743158 -148836 0
0 0 0 769 743927 -148067 0
0 0 0 840 744767 -147227 0
0 0 0 914 745681 -146313 0
0 0 0 928 746609 -145385 0
0 0 0 892 747501 -144493 0
0 0 0 928 748429 -143565 0
0 0 0 940 749369 -142625 0
0 0 0 942 750311 -141683 0
0 0 0 891 751202 -140792 0
0 0 0 863 752065 -139929 0
0 0 0 813 752878 -139116 0
0 0 0 784 753662 -138332 0
0 0 0 765 754427 -137567 0
0 0 0 791 755218 -136776 0
0 0 0 823 756041 -135953 0
0 0 0 753 756794 -135200 0
0 0 0 767 757561 -134433 0
0 0 0 764 758325 -133669 0
0 0 0 780 759105 -132889 0
0 0 0 803 759908 -132086 0
0 0 0 730 760638 -131356 0
0 0 0 751 761389 -130605 0
0 0 0 749 762138 -129856 0
0 0 0 768 762906 -129088 0
0 0 0 714 763620 -128374 0
0 0 0 711 764331 -127663 0
0 0 0 774 765105 -126889 0
0 0 0 798 765903 -126091 0
0 0 0 874 766777 -125217 0
0 0 0 877 767654 -124340 0
0 0 0 871 768525 -123469 0
0 0 0 893 769418 -122576 0
0 0 0 931 770349 -121645 0
0 0 0 885 771234 -120760 0
0 0 0 753 771987 -120007 0
0 0 0 773 772760 -119234 0
0 0 0 787 773547 -118447 0
0 0 0 916 774463 -117531 0
0 0 0 988 775451 -116543 0
0 0 0 930 776381 -115613 0
0 0 0 787 777168 -114826 0
0 0 0 782 777950 -114044 0
0 0 0 800 778750 -113244 0
0 0 0 891 779641 -112353 0
0 0 0 942 780583 -111411 0
0 0 0 954 781537 -110457 0
0 0 0 960 782497 -109497 0
0 0 0 893 783390 -108604 0
0 0 0 889 784279 -107715 0
0 0 0 890 785169 -106825 0
0 0 0 860 786029 -105965 0
0 0 0 871 786900 -105094 0
0 0 0 907 787807 -104187 0
0 0 0 881 788688 -103306 0
0 0 0 913 789601 -102393 0
0 0 0 951 790552 -101442 0
0 0 0 961 791513 -100481 0
0 0 0 913 792426 -99568 0
0 0 0 904 793330 -98664 0
0 0 0 799 794129 -97865 0
0 0 0 854 794983 -97011 0
0 0 0 855 795838 -96156 0
0 0 0 824 796662 -95332 0
0 0 0 906 797568 -94426 0
0 0 0 905 798473 -93521 0
0 0 0 866 799339 -92655 0
0 0 0 857 800196 -91798 0
0 0 0 894 801090 -90904 0
0 0 0 923 802013 -89981 0
0 0 0 845 802858 -89136 0
0 0 0 910 803768 -88226 0
0 0 0 908 804676 -87318 0
0 0 0 801 805477 -86517 0
0 0 0 825 806302 -85692 0
0 0 0 847 807149 -84845 0
0 0 0 826 807975 -84019 0
0 0 0 757 808732 -83262 0
0 0 0 804 809536 -82458 0
0 0 0 900 810436 -81558 0
0 0 0 927 811363 -80631 0
0 0 0 861 812224 -79770 0
0 0 0 926 813150 -78844 0
0 0 0 959 814109 -77885 0
0 0 0 904 815013 -76981 0
0 0 0 912 815925 -76069 0
0 0 0 902 816827 -75167 0
0 0 0 880 817707 -74287 0
0 0 0 884 818591 -73403 0
0 0 0 888 819479 -72515 0
0 0 0 867 820346 -71648 0
0 0 0 830 821176 -70818 0
0 0 0 868 822044 -69950 0
0 0 0 918 822962 -69032 0
0 0 0 782 823744 -68250 0
0 0 0 792 824536 -67458 0
0 0 0 815 825351 -66643 0
0 0 0 867 826218 -65776 0
0 0 0 938 827156 -64838 0
0 0 0 934 828090 -63904 0
0 0 0 953 829043 -62951 0
0 0 0 977 830020 -61974 0
0 0 0 870 830890 -61104 0
0 0 0 879 831769 -60225 0
0 0 0 889 832658 -59336 0
0 0 0 840 833498 -58496 0
0 0 0 821 834319 -57675 0
0 0 0 845 835164 -56830 0
0 0 0 846 836010 -55984 0
0 0 0 790 836800 -55194 0
0 0 0 899 837699 -54295 0
0 0 0 1009 838708 -53286 0
0 0 0 979 839687 -52307 0
0 0 0 954 840641 -51353 0
0 0 0 997 841638 -50356 0
0 0 0 905 842543 -49451 0
0 0 0 946 843489 -48505 0
0 0 0 971 844460 -47534 0
0 0 0 895 845355 -46639 0
0 0 0 892 846247 -45747 0
0 0 0 906 847153 -44841 0
0 0 0 875 848028 -43966 0
0 0 0 899 848927 -43067 0
0 0 0 947 849874 -42120 0
0 0 0 907 850781 -41213 0
0 0 0 903 851684 -40310 0
0 0 0 886 852570 -39424 0
0 0 0 848 853418 -38576 0
0 0 0 927 854345 -37649 0
0 0 0 971 855316 -36678 0
0 0 0 927 856243 -35751 0
0 0 0 961 857204 -34790 0
0 0 0 894 858098 -33896 0
0 0 0 798 858896 -33098 0
0 0 0 877 859773 -32221 0
0 0 0 936 860709 -31285 0
0 0 0 899 861608 -30386 0
0 0 0 890 862498 -29496 0
0 0 0 902 863400 -28594 0
0 0 0 845 864245 -27749 0
0 0 0 837 865082 -26912 0
0 0 0 881 865963 -26031 0
0 0 0 892 866855 -25139 0
0 0 0 846 867701 -24293 0
0 0 0 765 868466 -23528 0
0 0 0 810 869276 -22718 0
0 0 0 892 870168 -21826 0
0 0 0 977 871145 -20849 0
0 0 0 958 872103 -19891 0
0 0 0 961 873064 -18930 0
0 0 0 956 874020 -17974 0
0 0 0 869 874889 -17105 0
0 0 0 866 875755 -16239 0
0 0 0 825 876580 -15414 0
0 0 0 736 877316 -14678 0
0 0 0 726 878042 -13952 0
0 0 0 739 878781 -13213 0
0 0 0 854 879635 -12359 0
0 0 0 987 880622 -11372 0
0 0 0 953 881575 -10419 0
0 0 0 986 882561 -9433 0
0 0 0 961 883522 -8472 0
0 0 0 937 884459 -7535 0
0 0 0 902 885361 -6633 0
0 0 0 915 886276 -5718 0
0 0 0 886 887162 -4832 0
0 0 0 851 888013 -3981 0
0 0 0 867 888880 -3114 0
0 0 0 797 889677 -2317 0
41 1 S102 744 890421 -1573 0
41 1 S102 703 891124 -870 0
41 1 S102 744 891868 -126 0
41 2 S102 823 892691 697 0
41 2 S102 947 893638 1644 0
41 2 S102 944 894582 2588 0
41 2 S102 928 895510 3516 0
41 2 S102 905 896415 4421 0
41 2 S102 958 897373 5379 0
41 2 S102 962 898335 6341 0
0 0 0 909 899244 -7786 0
0 0 0 909 900153 -6877 0
0 0 0 908 901061 -5969 0
0 0 0 897 901958 -5072 0
0 0 0 823 902781 -4249 0
0 0 0 804 903585 -3445 0
0 0 0 811 904396 -2634 0
42 1 S112 804 905200 -1830 0
42 1 S112 775 905975 -1055 0
42 1 S112 852 906827 -203 0
42 2 S112 844 907671 641 0
42 2 S112 888 908559 1529 0
42 2 S112 948 909507 2477 0
42 2 S112 1023 910530 3500 0
42 2 S112 1017 911547 4517 0
42 2 S112 1013 912560 5530 0
42 2 S112 1039 913599 6569 0
0 0 0 991 914590 -9035 0
0 0 0 1012 915602 -8023 0
0 0 0 1005 916607 -7018 0
0 0 0 953 917560 -6065 0
0 0 0 943 918503 -5122 0
0 0 0 908 919411 -4214 0
0 0 0 951 920362 -3263 0
0 0 0 963 921325 -2300 0
43 1 S116 899 922224 -1401 0
43 1 S116 817 923041 -584 0
43 2 S116 849 923890 265 0
43 2 S116 861 924751 1126 0
43 2 S116 874 925625 2000 0
43 2 S116 968 926593 2968 0
43 2 S116 1005 927598 3973 0
43 2 S116 947 928545 4920 0
43 2 S116 975 929520 5895 0
43 2 S116 969 930489 6864 0
0 0 0 910 931399 -7893 0
0 0 0 955 932354 -6938 0
0 0 0 904 933258 -6034 0
0 0 0 919 934177 -5115 0
0 0 0 916 935093 -4199 0
0 0 0 831 935924 -3368 0
0 0 0 893 936817 -2475 0
44 1 S102 947 937764 -1528 0
44 1 S102 855 938619 -673 0
44 2 S102 878 939497 205 0
44 2 S102 907 940404 1112 0
44 2 S102 852 941256 1964 0
44 2 S102 967 942223 2931 0
44 2 S102 980 943203 3911 0
44 2 S102 950 944153 4861 0
44 2 S102 1006 945159 5867 0
44 2 S102 931 946090 6798 0
0 0 0 924 947014 -7994 0
0 0 0 911 947925 -7083 0
0 0 0 817 948742 -6266 0
0 0 0 859 949601 -5407 0
0 0 0 864 950465 -4543 0
0 0 0 783 951248 -3760 0
0 0 0 858 952106 -2902 0
45 1 S116 914 953020 -1988 0
45 1 S116 871 953891 -1117 0
45 1 S116 908 954799 -209 0
45 2 S116 920 955719 711 0
45 2 S116 937 956656 1648 0
45 2 S116 905 957561 2553 0
45 2 S116 978 958539 3531 0
45 2 S116 974 959513 4505 0
45 2 S116 963 960476 5468 0
45 2 S116 979 961455 6447 0
0 0 0 946 962401 -11490 0
0 0 0 941 963342 -10549 0
0 0 0 935 964277 -9614 0
0 0 0 882 965159 -8732 0
0 0 0 856 966015 -7876 0
0 0 0 877 966892 -6999 0
0 0 0 873 967765 -6126 0
0 0 0 900 968665 -5226 0
0 0 0 869 969534 -4357 0
0 0 0 830 970364 -3527 0
0 0 0 820 971184 -2707 0
46 1 S102 844 972028 -1863 0
46 1 S102 964 972992 -899 0
46 2 S102 908 973900 9 0
46 2 S102 967 974867 976 0
46 2 S102 1018 975885 1994 0
46 2 S102 973 976858 2967 0
46 2 S102 976 977834 3943 0
46 2 S102 964 978798 4907 0
46 2 S102 878 979676 5785 0
46 2 S102 888 980564 6673 0
0 0 0 904 981468 -9764 0
0 0 0 884 982352 -8880 0
0 0 0 914 983266 -7966 0
0 0 0 925 984191 -7041 0
0 0 0 838 985029 -6203 0
0 0 0 887 985916 -5316 0
0 0 0 861 986777 -4455 0
0 0 0 843 987620 -3612 0
0 0 0 899 988519 -2713 0
47 1 S112 889 989408 -1824 0
47 1 S112 796 990204 -1028 0
47 1 S112 810 991014 -218 0
47 2 S112 862 991876 644 0
47 2 S112 939 992815 1583 0
47 2 S112 902 993717 2485 0
47 2 S112 961 994678 3446 0
47 2 S112 1012 995690 4458 0
47 2 S112 939 996629 5397 0
47 2 S112 932 997561 6329 0
0 0 0 925 998486 -12757 0
0 0 0 861 999347 -11896 0
0 0 0 867 1000214 -11029 0
0 0 0 883 1001097 -10146 0
0 0 0 841 1001938 -9305 0
0 0 0 825 1002763 -8480 0
0 0 0 844 1003607 -7636 0
0 0 0 816 1004423 -6820 0
0 0 0 821 1005244 -5999 0
0 0 0 830 1006074 -5169 0
0 0 0 842 1006916 -4327 0
0 0 0 817 1007733 -3510 0
0 0 0 933 1008666 -2577 0
48 1 S116 901 1009567 -1676 0
48 1 S116 836 1010403 -840 0
48 2 S116 901 1011304 61 0
48 2 S116 911 1012215 972 0
48 2 S116 879 1013094 1851 0
48 2 S116 947 1014041 2798 0
48 2 S116 921 1014962 3719 0
48 2 S116 871 1015833 4590 0
48 2 S116 923 1016756 5513 0
48 2 S116 890 1017646 6403 0
0 0 0 881 1018527 -7901 0
0 0 0 900 1019427 -7001 0
0 0 0 850 1020277 -6151 0
0 0 0 855 1021132 -5296 0
0 0 0 868 1022000 -4428 0
0 0 0 843 1022843 -3585 0
0 0 0 822 1023665 -2763 0
49 1 S112 873 1024538 -1890 0
49 1 S112 877 1025415 -1013 0
49 1 S112 808 1026223 -205 0
49 2 S112 850 1027073 645 0
49 2 S112 896 1027969 1541 0
49 2 S112 916 1028885 2457 0
49 2 S112 892 1029777 3349 0
49 2 S112 989 1030766 4338 0
49 2 S112 963 1031729 5301 0
49 2 S112 950 1032679 6251 0
0 0 0 954 1033633 -12010 0
0 0 0 902 1034535 -11108 0
0 0 0 872 1035407 -10236 0
0 0 0 893 1036300 -9343 0
0 0 0 843 1037143 -8500 0
0 0 0 804 1037947 -7696 0
0 0 0 834 1038781 -6862 0
0 0 0 850 1039631 -6012 0
0 0 0 811 1040442 -5201 0
0 0 0 847 1041289 -4354 0
0 0 0 891 1042180 -3463 0
0 0 0 862 1043042 -2601 0
50 1 S106 815 1043857 -1786 0
50 1 S106 845 1044702 -941 0
50 1 S106 826 1045528 -115 0
50 2 S106 801 1046329 686 0
50 2 S106 771 1047100 1457 0
50 2 S106 824 1047924 2281 0
50 2 S106 856 1048780 3137 0
50 2 S106 868 1049648 4005 0
50 2 S106 797 1050445 4802 0
50 2 S106 841 1051286 5643 0
50 2 S106 860 1052146 6503 0
0 0 0 830 1052976 -6626 0
0 0 0 810 1053786 -5816 0
0 0 0 815 1054601 -5001 0
0 0 0 776 1055377 -4225 0
0 0 0 735 1056112 -3490 0
0 0 0 716 1056828 -2774 0
0 0 0 736 1057564 -2038 0
51 1 S112 712 1058276 -1326 0
51 1 S112 683 1058959 -643 0
51 2 S112 682 1059641 39 0
51 2 S112 680 1060321 719 0
51 2 S112 693 1061014 1412 0
51 2 S112 760 1061774 2172 0
51 2 S112 812 1062586 2984 0
51 2 S112 872 1063458 3856 0
51 2 S112 834 1064292 4690 0
51 2 S112 883 1065175 5573 0
51 2 S112 900 1066075 6473 0
0 0 0 842 1066917 -7755 0
0 0 0 848 1067765 -6907 0
0 0 0 821 1068586 -6086 0
0 0 0 778 1069364 -5308 0
0 0 0 784 1070148 -4524 0
0 0 0 757 1070905 -3767 0
0 0 0 761 1071666 -3006 0
0 0 0 728 1072394 -2278 0
52 1 S116 754 1073148 -1524 0
52 1 S116 797 1073945 -727 0
52 2 S116 867 1074812 140 0
52 2 S116 746 1075558 886 0
52 2 S116 728 1076286 1614 0
52 2 S116 754 1077040 2368 0
52 2 S116 828 1077868 3196 0
52 2 S116 882 1078750 4078 0
52 2 S116 882 1079632 4960 0
52 2 S116 838 1080470 5798 0
52 2 S116 811 1081281 6609 0
0 0 0 769 1082050 -9929 0
0 0 0 714 1082764 -9215 0
0 0 0 715 1083479 -8500 0
0 0 0 689 1084168 -7811 0
0 0 0 703 1084871 -7108 0
0 0 0 705 1085576 -6403 0
0 0 0 733 1086309 -5670 0
0 0 0 743 1087052 -4927 0
0 0 0 748 1087800 -4179 0
0 0 0 732 1088532 -3447 0
0 0 0 741 1089273 -2706 0
53 1 S106 767 1090040 -1939 0
53 1 S106 833 1090873 -1106 0
53 1 S106 876 1091749 -230 0
53 2 S106 931 1092680 701 0
53 2 S106 1079 1093759 1780 1
53 2 S106 1051 1094810 2831 0
53 2 S106 995 1095805 3826 0
53 2 S106 1023 1096828 4849 0
53 2 S106 997 1097825 5846 0
53 2 S106 984 1098809 6830 0
0 0 0 988 1099797 -7683 0
0 0 0 957 1100754 -6726 0
0 0 0 947 1101701 -5779 0
0 0 0 981 1102682 -4798 0
0 0 0 945 1103627 -3853 0
0 0 0 942 1104569 -2911 0
54 1 S102 950 1105519 -1961 0
54 1 S102 852 1106371 -1109 0
54 1 S102 888 1107259 -221 0
54 2 S102 956 1108215 735 0
54 2 S102 884 1109099 1619 0
54 2 S102 951 1110050 2570 0
54 2 S102 1031 1111081 3601 0
54 2 S102 983 1112064 4584 0
54 2 S102 951 1113015 5535 0
54 2 S102 929 1113944 6464 0
0 0 0 883 1114827 -12730 0
0 0 0 923 1115750 -11807 0
0 0 0 940 1116690 -10867 0
0 0 0 912 1117602 -9955 0
0 0 0 992 1118594 -8963 0
0 0 0 937 1119531 -8026 0
0 0 0 907 1120438 -7119 0
0 0 0 928 1121366 -6191 0
0 0 0 880 1122246 -5311 0
0 0 0 937 1123183 -4374 0
0 0 0 1004 1124187 -3370 0
0 0 0 931 1125118 -2439 0
55 1 S106 954 1126072 -1485 0
55 1 S106 911 1126983 -574 0
55 2 S106 874 1127857 300 0
55 2 S106 954 1128811 1254 0
55 2 S106 968 1129779 2222 0
55 2 S106 927 1130706 3149 0
55 2 S106 870 1131576 4019 0
55 2 S106 753 1132329 4772 0
55 2 S106 756 1133085 5528 0
55 2 S106 758 1133843 6286 0
0 0 0 793 1134636 -7626 0
0 0 0 748 1135384 -6878 0
0 0 0 829 1136213 -6049 0
0 0 0 905 1137118 -5144 0
0 0 0 857 1137975 -4287 0
0 0 0 813 1138788 -3474 0
0 0 0 802 1139590 -2672 0
56 1 S116 774 1140364 -1898 0
56 1 S116 731 1141095 -1167 0
56 1 S116 758 1141853 -409 0
56 2 S116 783 1142636 374 0
56 2 S116 796 1143432 1170 0
56 2 S116 793 1144225 1963 0
56 2 S116 841 1145066 2804 0
56 2 S116 855 1145921 3659 0
56 2 S116 829 1146750 4488 0
56 2 S116 878 1147628 5366 0
56 2 S116 891 1148519 6257 0
0 0 0 861 1149380 -8847 0
0 0 0 922 1150302 -7925 0
0 0 0 903 1151205 -7022 0
0 0 0 873 1152078 -6149 0
0 0 0 929 1153007 -5220 0
0 0 0 883 1153890 -4337 0
0 0 0 837 1154727 -3500 0
0 0 0 859 1155586 -2641 0
57 1 S106 853 1156439 -1788 0
57 1 S106 775 1157214 -1013 0
57 1 S106 844 1158058 -169 0
57 2 S106 872 1158930 703 0
57 2 S106 875 1159805 1578 0
57 2 S106 848 1160653 2426 0
57 2 S106 895 1161548 3321 0
57 2 S106 908 1162456 4229 0
57 2 S106 844 1163300 5073 0
57 2 S106 894 1164194 5967 0
57 2 S106 900 1165094 6867 0
0 0 0 849 1165943 -8730 0
0 0 0 870 1166813 -7860 0
0 0 0 847 1167660 -7013 0
0 0 0 813 1168473 -6200 0
0 0 0 851 1169324 -5349 0
0 0 0 836 1170160 -4513 0
0 0 0 801 1170961 -3712 0
0 0 0 846 1171807 -2866 0
0 0 0 858 1172665 -2008 0
58 1 S102 825 1173490 -1183 0
58 1 S102 828 1174318 -355 0
58 2 S102 855 1175173 500 0
58 2 S102 879 1176052 1379 0
58 2 S102 861 1176913 2240 0
58 2 S102 909 1177822 3149 0
58 2 S102 953 1178775 4102 0
58 2 S102 912 1179687 5014 0
58 2 S102 923 1180610 5937 0
58 2 S102 923 1181533 6860 0
0 0 0 882 1182415 -6167 0
0 0 0 863 1183278 -5304 0
0 0 0 833 1184111 -4471 0
0 0 0 795 1184906 -3676 0
0 0 0 794 1185700 -2882 0
0 0 0 799 1186499 -2083 0
59 1 S112 792 1187291 -1291 0
59 1 S112 761 1188052 -530 0
59 2 S112 719 1188771 189 0
59 2 S112 706 1189477 895 0
59 2 S112 700 1190177 1595 0
59 2 S112 736 1190913 2331 0
59 2 S112 777 1191690 3108 0
59 2 S112 757 1192447 3865 0
59 2 S112 749 1193196 4614 0
59 2 S112 783 1193979 5397 0
59 2 S112 792 1194771 6189 0
59 2 S112 754 1195525 6943 0
0 0 0 741 1196266 -10536 0
0 0 0 769 1197035 -9767 0
0 0 0 814 1197849 -8953 0
0 0 0 882 1198731 -8071 0
0 0 0 899 1199630 -7172 0
0 0 0 863 1200493 -6309 0
0 0 0 844 1201337 -5465 0
0 0 0 794 1202131 -4671 0
0 0 0 750 1202881 -3921 0
0 0 0 770 1203651 -3151 0
0 0 0 782 1204433 -2369 0
60 1 S102 781 1205214 -1588 0
60 1 S102 804 1206018 -784 0
60 2 S102 843 1206861 59 0
60 2 S102 848 1207709 907 0
60 2 S102 817 1208526 1724 0
60 2 S102 842 1209368 2566 0
60 2 S102 877 1210245 3443 0
60 2 S102 869 1211114 4312 0
60 2 S102 837 1211951 5149 0
60 2 S102 853 1212804 6002 0
60 2 S102 841 1213645 6843 0
0 0 0 806 1214451 -11449 0
0 0 0 821 1215272 -10628 0
0 0 0 842 1216114 -9786 0
0 0 0 823 1216937 -8963 0
0 0 0 813 1217750 -8150 0
0 0 0 784 1218534 -7366 0
0 0 0 745 1219279 -6621 0
0 0 0 759 1220038 -5862 0
0 0 0 782 1220820 -5080 0
0 0 0 779 1221599 -4301 0
0 0 0 743 1222342 -3558 0
0 0 0 757 1223099 -2801 0
0 0 0 796 1223895 -2005 0
61 1 S106 810 1224705 -1195 0
61 1 S106 787 1225492 -408 0
61 2 S106 829 1226321 421 0
61 2 S106 834 1227155 1255 0
61 2 S106 874 1228029 2129 0
61 2 S106 855 1228884 2984 0
61 2 S106 869 1229753 3853 0
61 2 S106 829 1230582 4682 0
61 2 S106 800 1231382 5482 0
61 2 S106 805 1232187 6287 0
0 0 0 789 1232976 -8939 0
0 0 0 787 1233763 -8152 0
0 0 0 815 1234578 -7337 0
0 0 0 802 1235380 -6535 0
0 0 0 770 1236150 -5765 0
0 0 0 808 1236958 -4957 0
0 0 0 757 1237715 -4200 0
0 0 0 744 1238459 -3456 0
0 0 0 750 1239209 -2706 0
62 1 S112 780 1239989 -1926 0
62 1 S112 794 1240783 -1132 0
62 1 S112 804 1241587 -328 0
62 2 S112 809 1242396 481 0
62 2 S112 779 1243175 1260 0
62 2 S112 874 1244049 2134 0
62 2 S112 934 1244983 3068 0
62 2 S112 919 1245902 3987 0
62 2 S112 896 1246798 4883 0
62 2 S112 915 1247713 5798 0
62 2 S112 866 1248579 6664 0
0 0 0 828 1249407 -11324 0
0 0 0 816 1250223 -10508 0
0 0 0 770 1250993 -9738 0
0 0 0 739 1251732 -8999 0
0 0 0 751 1252483 -8248 0
0 0 0 761 1253244 -7487 0
0 0 0 721 1253965 -6766 0
0 0 0 748 1254713 -6018 0
0 0 0 753 1255466 -5265 0
0 0 0 800 1256266 -4465 0
0 0 0 771 1257037 -3694 0
0 0 0 814 1257851 -2880 0
0 0 0 830 1258681 -2050 0
63 1 S102 757 1259438 -1293 0
63 1 S102 765 1260203 -528 0
63 2 S102 791 1260994 263 0
63 2 S102 790 1261784 1053 0
63 2 S102 733 1262517 1786 0
63 2 S102 743 1263260 2529 0
63 2 S102 784 1264044 3313 0
63 2 S102 824 1264868 4137 0
63 2 S102 794 1265662 4931 0
63 2 S102 805 1266467 5736 0
63 2 S102 817 1267284 6553 0
0 0 0 852 1268136 -9323 0
0 0 0 838 1268974 -8485 0
0 0 0 885 1269859 -7600 0
0 0 0 883 1270742 -6717 0
0 0 0 831 1271573 -5886 0
0 0 0 790 1272363 -5096 0
0 0 0 818 1273181 -4278 0
0 0 0 836 1274017 -3442 0
0 0 0 831 1274848 -2611 0
64 1 S112 848 1275696 -1763 0
64 1 S112 891 1276587 -872 0
64 2 S112 977 1277564 105 0
64 2 S112 915 1278479 1020 0
64 2 S112 938 1279417 1958 0
64 2 S112 940 1280357 2898 0
64 2 S112 868 1281225 3766 0
64 2 S112 888 1282113 4654 0
64 2 S112 878 1282991 5532 0
64 2 S112 850 1283841 6382 0
0 0 0 831 1284672 -8238 0
0 0 0 864 1285536 -7374 0
0 0 0 865 1286401 -6509 0
0 0 0 824 1287225 -5685 0
0 0 0 835 1288060 -4850 0
0 0 0 785 1288845 -4065 0
0 0 0 748 1289593 -3317 0
0 0 0 710 1290303 -2607 0
65 1 S106 675 1290978 -1932 1
65 1 S106 742 1291720 -1190 0
65 1 S106 841 1292561 -349 0
65 2 S106 960 1293521 611 0
65 2 S106 955 1294476 1566 0
65 2 S106 891 1295367 2457 0
65 2 S106 828 1296195 3285 0
65 2 S106 854 1297049 4139 0
65 2 S106 839 1297888 4978 0
65 2 S106 812 1298700 5790 0
65 2 S106 760 1299460 6550 0
0 0 0 774 1300234 -6884 0
0 0 0 800 1301034 -6084 0
0 0 0 863 1301897 -5221 0
0 0 0 857 1302754 -4364 0
0 0 0 847 1303601 -3517 0
0 0 0 863 1304464 -2654 0
66 1 S116 850 1305314 -1804 0
66 1 S116 806 1306120 -998 0
66 1 S116 798 1306918 -200 0
66 2 S116 798 1307716 598 0
66 2 S116 869 1308585 1467 0
66 2 S116 991 1309576 2458 0
66 2 S116 1024 1310600 3482 0
66 2 S116 991 1311591 4473 0
66 2 S116 981 1312572 5454 0
66 2 S116 975 1313547 6429 0
0 0 0 972 1314519 -11316 0
0 0 0 937 1315456 -10379 0
0 0 0 890 1316346 -9489 0
0 0 0 847 1317193 -8642 0
0 0 0 814 1318007 -7828 0
0 0 0 827 1318834 -7001 0
0 0 0 818 1319652 -6183 0
0 0 0 802 1320454 -5381 0
0 0 0 865 1321319 -4516 0
0 0 0 922 1322241 -3594 0
0 0 0 912 1323153 -2682 0
67 1 S102 844 1323997 -1838 0
67 1 S102 845 1324842 -993 0
67 1 S102 816 1325658 -177 0
67 2 S102 753 1326411 576 0
67 2 S102 756 1327167 1332 0
67 2 S102 767 1327934 2099 0
67 2 S102 794 1328728 2893 0
67 2 S102 749 1329477 3642 0
67 2 S102 777 1330254 4419 0
67 2 S102 870 1331124 5289 0
67 2 S102 952 1332076 6241 0
0 0 0 924 1333000 -8187 0
0 0 0 948 1333948 -7239 0
0 0 0 948 1334896 -6291 0
0 0 0 930 1335826 -5361 0
0 0 0 884 1336710 -4477 0
0 0 0 837 1337547 -3640 0
0 0 0 777 1338324 -2863 0
0 0 0 795 1339119 -2068 0
68 1 S106 759 1339878 -1309 0
68 1 S106 756 1340634 -553 0
68 2 S106 717 1341351 164 0
68 2 S106 748 1342099 912 0
68 2 S106 811 1342910 1723 0
68 2 S106 886 1343796 2609 0
68 2 S106 888 1344684 3497 0
68 2 S106 951 1345635 4448 0
68 2 S106 947 1346582 5395 0
68 2 S106 953 1347535 6348 0
0 0 0 936 1348471 -11101 0
0 0 0 868 1349339 -10233 0
0 0 0 868 1350207 -9365 0
0 0 0 837 1351044 -8528 0
0 0 0 755 1351799 -7773 0
0 0 0 761 1352560 -7012 0
0 0 0 752 1353312 -6260 0
0 0 0 748 1354060 -5512 0
0 0 0 725 1354785 -4787 0
0 0 0 759 1355544 -4028 0
0 0 0 780 1356324 -3248 0
0 0 0 771 1357095 -2477 0
69 1 S102 745 1357840 -1732 0
69 1 S102 754 1358594 -978 0
69 1 S102 785 1359379 -193 0
69 2 S102 766 1360145 573 0
69 2 S102 731 1360876 1304 0
69 2 S102 814 1361690 2118 0
69 2 S102 829 1362519 2947 0
69 2 S102 858 1363377 3805 0
69 2 S102 980 1364357 4785 0
69 2 S102 990 1365347 5775 0
69 2 S102 960 1366307 6735 0
0 0 0 925 1367232 -8670 0
0 0 0 874 1368106 -7796 0
0 0 0 814 1368920 -6982 0
0 0 0 810 1369730 -6172 0
0 0 0 783 1370513 -5389 0
0 0 0 745 1371258 -4644 0
0 0 0 733 1371991 -3911 0
0 0 0 751 1372742 -3160 0
0 0 0 788 1373530 -2372 0
70 1 S112 789 1374319 -1583 0
70 1 S112 733 1375052 -850 0
70 1 S112 731 1375783 -119 0
70 2 S112 723 1376506 604 0
70 2 S112 767 1377273 1371 0
70 2 S112 868 1378141 2239 0
70 2 S112 914 1379055 3153 0
70 2 S112 986 1380041 4139 0
70 2 S112 1008 1381049 5147 0
70 2 S112 946 1381995 6093 0
0 0 0 961 1382956 -11812 0
0 0 0 977 1383933 -10835 0
0 0 0 948 1384881 -9887 0
0 0 0 938 1385819 -8949 0
0 0 0 852 1386671 -8097 0
0 0 0 825 1387496 -7272 0
0 0 0 841 1388337 -6431 0
0 0 0 837 1389174 -5594 0
0 0 0 836 1390010 -4758 0
0 0 0 852 1390862 -3906 0
0 0 0 906 1391768 -3000 0
0 0 0 912 1392680 -2088 0
71 1 S116 851 1393531 -1237 0
71 1 S116 804 1394335 -433 0
71 2 S116 805 1395140 372 0
71 2 S116 840 1395980 1212 0
71 2 S116 879 1396859 2091 0
71 2 S116 870 1397729 2961 0
71 2 S116 849 1398578 3810 0
71 2 S116 943 1399521 4753 0
71 2 S116 971 1400492 5724 0
71 2 S116 993 1401485 6717 0
0 0 0 1014 1402499 -10638 0
0 0 0 933 1403432 -9705 0
0 0 0 807 1404239 -8898 0
0 0 0 860 1405099 -8038 0
0 0 0 1014 1406113 -7024 0
0 0 0 1002 1407115 -6022 0
0 0 0 883 1407998 -5139 0
0 0 0 927 1408925 -4212 0
0 0 0 926 1409851 -3286 0
0 0 0 898 1410749 -2388 0
72 1 S102 969 1411718 -1419 0
72 1 S102 1017 1412735 -402 0
72 2 S102 950 1413685 548 0
72 2 S102 976 1414661 1524 0
72 2 S102 980 1415641 2504 0
72 2 S102 1035 1416676 3539 0
72 2 S102 1012 1417688 4551 0
72 2 S102 924 1418612 5475 0
72 2 S102 995 1419607 6470 0
0 0 0 1040 1420647 -6979 0
0 0 0 992 1421639 -5987 0
0 0 0 900 1422539 -5087 0
0 0 0 913 1423452 -4174 0
0 0 0 918 1424370 -3256 0
0 0 0 856 1425226 -2400 0
73 1 S116 952 1426178 -1448 0
73 1 S116 1033 1427211 -415 0
73 2 S116 1016 1428227 601 0
73 2 S116 1039 1429266 1640 0
73 2 S116 1052 1430318 2692 0
73 2 S116 1059 1431377 3751 0
73 2 S116 1002 1432379 4753 0
73 2 S116 1039 1433418 5792 0
73 2 S116 1024 1434442 6816 0
0 0 0 982 1435424 -9278 0
0 0 0 984 1436408 -8294 0
0 0 0 889 1437297 -7405 0
0 0 0 870 1438167 -6535 0
0 0 0 872 1439039 -5663 0
0 0 0 840 1439879 -4823 0
0 0 0 850 1440729 -3973 0
0 0 0 931 1441660 -3042 0
0 0 0 944 1442604 -2098 0
74 1 S106 863 1443467 -1235 0
74 1 S106 920 1444387 -315 0
74 2 S106 881 1445268 566 0
74 2 S106 872 1446140 1438 0
74 2 S106 949 1447089 2387 0
74 2 S106 944 1448033 3331 0
74 2 S106 840 1448873 4171 0
74 2 S106 878 1449751 5049 0
74 2 S106 999 1450750 6048 0
0 0 0 1012 1451762 -6783 0
0 0 0 930 1452692 -5853 0
0 0 0 949 1453641 -4904 0
0 0 0 870 1454511 -4034 0
0 0 0 818 1455329 -3216 0
0 0 0 854 1456183 -2362 0
75 1 S112 909 1457092 -1453 0
75 1 S112 926 1458018 -527 0
75 2 S112 814 1458832 287 0
75 2 S112 873 1459705 1160 0
75 2 S112 1002 1460707 2162 0
75 2 S112 1012 1461719 3174 0
75 2 S112 1097 1462816 4271 1
75 2 S112 1048 1463864 5319 0
75 2 S112 1032 1464896 6351 0
0 0 0 993 1465889 -7046 0
0 0 0 940 1466829 -6106 0
0 0 0 855 1467684 -5251 0
0 0 0 864 1468548 -4387 0
0 0 0 850 1469398 -3537 0
0 0 0 805 1470203 -2732 0
76 1 S116 877 1471080 -1855 0
76 1 S116 912 1471992 -943 0
76 1 S116 869 1472861 -74 0
76 2 S116 869 1473730 795 0
76 2 S116 1080 1474810 1875 1
76 2 S116 1123 1475933 2998 1
76 2 S116 1067 1477000 4065 0
76 2 S116 1065 1478065 5130 0
76 2 S116 1052 1479117 6182 0
0 0 0 1050 1480167 -6976 0
0 0 0 1046 1481213 -5930 0
0 0 0 976 1482189 -4954 0
0 0 0 969 1483158 -3985 0
0 0 0 962 1484120 -3023 0
0 0 0 901 1485021 -2122 0
77 1 S106 1004 1486025 -1118 0
77 1 S106 1006 1487031 -112 0
77 2 S106 930 1487961 818 0
77 2 S106 1043 1489004 1861 0
77 2 S106 1016 1490020 2877 0
77 2 S106 1024 1491044 3901 0
77 2 S106 1030 1492074 4931 0
77 2 S106 980 1493054 5911 0
77 2 S106 1035 1494089 6946 0
0 0 0 996 1495085 -8205 0
0 0 0 1013 1496098 -7192 0
0 0 0 1000 1497098 -6192 0
0 0 0 928 1498026 -5264 0
0 0 0 941 1498967 -4323 0
0 0 0 886 1499853 -3437 0
0 0 0 947 1500800 -2490 0
78 1 S112 1050 1501850 -1440 0
78 1 S112 960 1502810 -480 0
78 2 S112 1005 1503815 525 0
78 2 S112 1011 1504826 1536 0
78 2 S112 925 1505751 2461 0
78 2 S112 1005 1506756 3466 0
78 2 S112 1031 1507787 4497 0
78 2 S112 984 1508771 5481 0
78 2 S112 1020 1509791 6501 0
0 0 0 1055 1510846 -11543 0
0 0 0 949 1511795 -10594 0
0 0 0 1034 1512829 -9560 0
0 0 0 968 1513797 -8592 0
0 0 0 972 1514769 -7620 0
0 0 0 993 1515762 -6627 0
0 0 0 901 1516663 -5726 0
0 0 0 1004 1517667 -4722 0
0 0 0 1001 1518668 -3721 0
0 0 0 944 1519612 -2777 0
79 1 S102 988 1520600 -1789 0
79 1 S102 924 1521524 -865 0
79 2 S102 895 1522419 30 0
79 2 S102 984 1523403 1014 0
79 2 S102 992 1524395 2006 0
79 2 S102 1012 1525407 3018 0
79 2 S102 1008 1526415 4026 0
79 2 S102 963 1527378 4989 0
79 2 S102 992 1528370 5981 0
79 2 S102 991 1529361 6972 0
0 0 0 887 1530248 -9548 0
0 0 0 961 1531209 -8587 0
0 0 0 960 1532169 -7627 0
0 0 0 937 1533106 -6690 0
0 0 0 909 1534015 -5781 0
0 0 0 836 1534851 -4945 0
0 0 0 867 1535718 -4078 0
0 0 0 989 1536707 -3089 0
0 0 0 809 1537516 -2280 0
80 1 S116 743 1538259 -1537 0
80 1 S116 867 1539126 -670 0
80 2 S116 890 1540016 220 0
80 2 S116 953 1540969 1173 0
80 2 S116 996 1541965 2169 0
80 2 S116 996 1542961 3165 0
80 2 S116 948 1543909 4113 0
80 2 S116 976 1544885 5089 0
80 2 S116 1012 1545897 6101 0
