T_0140
BeatCount Mean SD BeatCountNoOutliers MeanNoOutliers SDNoOutliers
2039 759,162824914174 47,2134502370023 1989 762,046254399196 42,1286511708935

Trial TrialStatus Trialtype IBI AbsPosition RelPosition Outlier
0 0 0 705 1097 -14839 0
0 0 0 717 1814 -14122 0
0 0 0 737 2551 -13385 0
0 0 0 733 3284 -12652 0
0 0 0 694 3978 -11958 0
0 0 0 652 4630 -11306 0
0 0 0 648 5278 -10658 0
0 0 0 643 5921 -10015 0
0 0 0 645 6566 -9370 0
0 0 0 651 7217 -8719 0
0 0 0 649 7866 -8070 0
0 0 0 660 8526 -7410 0
0 0 0 662 9188 -6748 0
0 0 0 687 9875 -6061 0
0 0 0 721 10596 -5340 0
0 0 0 735 11331 -4605 0
0 0 0 733 12064 -3872 0
0 0 0 706 12770 -3166 0
0 0 0 678 13448 -2488 0
1 1 S112 655 14103 -1833 0
1 1 S112 625 14728 -1208 1
1 1 S112 615 15343 -593 1
1 2 S112 622 15965 29 1
1 2 S112 625 16590 654 1
1 2 S112 662 17252 1316 0
1 2 S112 719 17971 2035 0
1 2 S112 752 18723 2787 0
1 2 S112 753 19476 3540 0
1 2 S112 735 20211 4275 0
1 2 S112 725 20936 5000 0
1 2 S112 739 21675 5739 0
1 2 S112 753 22428 6492 0
0 0 0 778 23206 -12558 0
0 0 0 781 23987 -11777 0
0 0 0 789 24776 -10988 0
0 0 0 779 25555 -10209 0
0 0 0 753 26308 -9456 0
0 0 0 719 27027 -8737 0
0 0 0 683 27710 -8054 0
0 0 0 673 28383 -7381 0
0 0 0 689 29072 -6692 0
0 0 0 732 29804 -5960 0
0 0 0 791 30595 -5169 0
0 0 0 777 31372 -4392 0
0 0 0 769 32141 -3623 0
0 0 0 756 32897 -2867 0
0 0 0 739 33636 -2128 0
2 1 S102 708 34344 -1420 0
2 1 S102 687 35031 -733 0
2 1 S102 708 35739 -25 0
2 2 S102 730 36469 705 0
2 2 S102 786 37255 1491 0
2 2 S102 799 38054 2290 0
2 2 S102 815 38869 3105 0
2 2 S102 807 39676 3912 0
2 2 S102 770 40446 4682 0
2 2 S102 785 41231 5467 0
2 2 S102 778 42009 6245 0
2 2 S102 783 42792 7028 0
0 0 0 787 43579 -10206 0
0 0 0 791 44370 -9415 0
0 0 0 767 45137 -8648 0
0 0 0 766 45903 -7882 0
0 0 0 769 46672 -7113 0
0 0 0 782 47454 -6331 0
0 0 0 779 48233 -5552 0
0 0 0 756 48989 -4796 0
0 0 0 743 49732 -4053 0
0 0 0 764 50496 -3289 0
0 0 0 771 51267 -2518 0
3 1 S116 799 52066 -1719 0
3 1 S116 804 52870 -915 0
3 1 S116 791 53661 -124 0
3 2 S116 750 54411 626 0
3 2 S116 744 55155 1370 0
3 2 S116 742 55897 2112 0
3 2 S116 744 56641 2856 0
3 2 S116 786 57427 3642 0
3 2 S116 805 58232 4447 0
3 2 S116 790 59022 5237 0
3 2 S116 777 59799 6014 0
3 2 S116 779 60578 6793 0
0 0 0 790 61368 -12908 0
0 0 0 801 62169 -12107 0
0 0 0 795 62964 -11312 0
0 0 0 779 63743 -10533 0
0 0 0 738 64481 -9795 0
0 0 0 667 65148 -9128 0
0 0 0 662 65810 -8466 0
0 0 0 659 66469 -7807 0
0 0 0 670 67139 -7137 0
0 0 0 712 67851 -6425 0
0 0 0 735 68586 -5690 0
0 0 0 787 69373 -4903 0
0 0 0 812 70185 -4091 0
0 0 0 781 70966 -3310 0
0 0 0 768 71734 -2542 0
4 1 S106 792 72526 -1750 0
4 1 S106 792 73318 -958 0
4 1 S106 796 74114 -162 0
4 2 S106 799 74913 637 0
4 2 S106 787 75700 1424 0
4 2 S106 758 76458 2182 0
4 2 S106 742 77200 2924 0
4 2 S106 751 77951 3675 0
4 2 S106 772 78723 4447 0
4 2 S106 827 79550 5274 0
4 2 S106 843 80393 6117 0
4 2 S106 830 81223 6947 0
0 0 0 805 82028 -7633 0
0 0 0 817 82845 -6816 0
0 0 0 812 83657 -6004 0
0 0 0 822 84479 -5182 0
0 0 0 833 85312 -4349 0
0 0 0 809 86121 -3540 0
0 0 0 779 86900 -2761 0
5 1 S116 781 87681 -1980 0
5 1 S116 766 88447 -1214 0
5 1 S116 760 89207 -454 0
5 2 S116 758 89965 304 0
5 2 S116 766 90731 1070 0
5 2 S116 744 91475 1814 0
5 2 S116 758 92233 2572 0
5 2 S116 793 93026 3365 0
5 2 S116 830 93856 4195 0
5 2 S116 859 94715 5054 0
5 2 S116 856 95571 5910 0
5 2 S116 823 96394 6733 0
0 0 0 780 97174 -9712 0
0 0 0 778 97952 -8934 0
0 0 0 776 98728 -8158 0
0 0 0 776 99504 -7382 0
0 0 0 774 100278 -6608 0
0 0 0 775 101053 -5833 0
0 0 0 739 101792 -5094 0
0 0 0 742 102534 -4352 0
0 0 0 755 103289 -3597 0
0 0 0 793 104082 -2804 0
6 1 S106 817 104899 -1987 0
6 1 S106 826 105725 -1161 0
6 1 S106 796 106521 -365 0
6 2 S106 792 107313 427 0
6 2 S106 797 108110 1224 0
6 2 S106 800 108910 2024 0
6 2 S106 808 109718 2832 0
6 2 S106 759 110477 3591 0
6 2 S106 763 111240 4354 0
6 2 S106 796 112036 5150 0
6 2 S106 840 112876 5990 0
6 2 S106 842 113718 6832 0
0 0 0 815 114533 -11368 0
0 0 0 783 115316 -10585 0
0 0 0 805 116121 -9780 0
0 0 0 807 116928 -8973 0
0 0 0 816 117744 -8157 0
0 0 0 816 118560 -7341 0
0 0 0 783 119343 -6558 0
0 0 0 773 120116 -5785 0
0 0 0 786 120902 -4999 0
0 0 0 790 121692 -4209 0
0 0 0 793 122485 -3416 0
0 0 0 787 123272 -2629 0
7 1 S102 759 124031 -1870 0
7 1 S102 785 124816 -1085 0
7 1 S102 782 125598 -303 0
7 2 S102 791 126389 488 0
7 2 S102 792 127181 1280 0
7 2 S102 769 127950 2049 0
7 2 S102 777 128727 2826 0
7 2 S102 785 129512 3611 0
7 2 S102 797 130309 4408 0
7 2 S102 813 131122 5221 0
7 2 S102 808 131930 6029 0
7 2 S102 794 132724 6823 0
0 0 0 759 133483 -8897 0
0 0 0 774 134257 -8123 0
0 0 0 770 135027 -7353 0
0 0 0 790 135817 -6563 0
0 0 0 800 136617 -5763 0
0 0 0 766 137383 -4997 0
0 0 0 760 138143 -4237 0
0 0 0 778 138921 -3459 0
0 0 0 774 139695 -2685 0
8 1 S112 806 140501 -1879 0
8 1 S112 811 141312 -1068 0
8 1 S112 782 142094 -286 0
8 2 S112 800 142894 514 0
8 2 S112 823 143717 1337 0
8 2 S112 849 144566 2186 0
8 2 S112 861 145427 3047 0
8 2 S112 855 146282 3902 0
8 2 S112 808 147090 4710 0
8 2 S112 790 147880 5500 0
8 2 S112 807 148687 6307 0
0 0 0 814 149501 -8612 0
0 0 0 840 150341 -7772 0
0 0 0 856 151197 -6916 0
0 0 0 845 152042 -6071 0
0 0 0 794 152836 -5277 0
0 0 0 812 153648 -4465 0
0 0 0 803 154451 -3662 0
0 0 0 807 155258 -2855 0
0 0 0 809 156067 -2046 0
9 1 S116 800 156867 -1246 0
9 1 S116 819 157686 -427 0
9 2 S116 843 158529 416 0
9 2 S116 854 159383 1270 0
9 2 S116 821 160204 2091 0
9 2 S116 791 160995 2882 0
9 2 S116 801 161796 3683 0
9 2 S116 789 162585 4472 0
9 2 S116 791 163376 5263 0
9 2 S116 771 164147 6034 0
9 2 S116 746 164893 6780 0
0 0 0 770 165663 -11698 0
0 0 0 778 166441 -10920 0
0 0 0 799 167240 -10121 0
0 0 0 813 168053 -9308 0
0 0 0 783 168836 -8525 0
0 0 0 788 169624 -7737 0
0 0 0 778 170402 -6959 0
0 0 0 778 171180 -6181 0
0 0 0 791 171971 -5390 0
0 0 0 768 172739 -4622 0
0 0 0 744 173483 -3878 0
0 0 0 730 174213 -3148 0
0 0 0 716 174929 -2432 0
10 1 S102 747 175676 -1685 0
10 1 S102 793 176469 -892 0
10 1 S102 810 177279 -82 0
10 2 S102 771 178050 689 0
10 2 S102 767 178817 1456 0
10 2 S102 782 179599 2238 0
10 2 S102 782 180381 3020 0
10 2 S102 796 181177 3816 0
10 2 S102 786 181963 4602 0
10 2 S102 757 182720 5359 0
10 2 S102 760 183480 6119 0
10 2 S102 755 184235 6874 0
0 0 0 761 184996 -11115 0
0 0 0 779 185775 -10336 0
0 0 0 796 186571 -9540 0
0 0 0 806 187377 -8734 0
0 0 0 781 188158 -7953 0
0 0 0 751 188909 -7202 0
0 0 0 761 189670 -6441 0
0 0 0 755 190425 -5686 0
0 0 0 759 191184 -4927 0
0 0 0 769 191953 -4158 0
0 0 0 769 192722 -3389 0
0 0 0 748 193470 -2641 0
11 1 S112 739 194209 -1902 0
11 1 S112 736 194945 -1166 0
11 1 S112 743 195688 -423 0
11 2 S112 745 196433 322 0
11 2 S112 747 197180 1069 0
11 2 S112 767 197947 1836 0
11 2 S112 780 198727 2616 0
11 2 S112 766 199493 3382 0
11 2 S112 782 200275 4164 0
11 2 S112 802 201077 4966 0
11 2 S112 821 201898 5787 0
11 2 S112 826 202724 6613 0
0 0 0 810 203534 -9172 0
0 0 0 763 204297 -8409 0
0 0 0 745 205042 -7664 0
0 0 0 732 205774 -6932 0
0 0 0 705 206479 -6227 0
0 0 0 730 207209 -5497 0
0 0 0 760 207969 -4737 0
0 0 0 778 208747 -3959 0
0 0 0 744 209491 -3215 0
0 0 0 767 210258 -2448 0
12 1 S116 771 211029 -1677 0
12 1 S116 795 211824 -882 0
12 1 S116 807 212631 -75 0
12 2 S116 770 213401 695 0
12 2 S116 798 214199 1493 0
12 2 S116 803 215002 2296 0
12 2 S116 797 215799 3093 0
12 2 S116 783 216582 3876 0
12 2 S116 752 217334 4628 0
12 2 S116 767 218101 5395 0
12 2 S116 748 218849 6143 0
12 2 S116 751 219600 6894 0
0 0 0 717 220317 -12316 0
0 0 0 717 221034 -11599 0
0 0 0 745 221779 -10854 0
0 0 0 758 222537 -10096 0
0 0 0 798 223335 -9298 0
0 0 0 807 224142 -8491 0
0 0 0 757 224899 -7734 0
0 0 0 738 225637 -6996 0
0 0 0 729 226366 -6267 0
0 0 0 694 227060 -5573 0
0 0 0 669 227729 -4904 0
0 0 0 643 228372 -4261 0
0 0 0 650 229022 -3611 0
0 0 0 669 229691 -2942 0
0 0 0 661 230352 -2281 0
13 1 S112 668 231020 -1613 0
13 1 S112 687 231707 -926 0
13 1 S112 697 232404 -229 0
13 2 S112 733 233137 504 0
13 2 S112 768 233905 1272 0
13 2 S112 793 234698 2065 0
13 2 S112 776 235474 2841 0
13 2 S112 733 236207 3574 0
13 2 S112 704 236911 4278 0
13 2 S112 719 237630 4997 0
13 2 S112 749 238379 5746 0
13 2 S112 818 239197 6564 0
0 0 0 817 240014 -11801 0
0 0 0 846 240860 -10955 0
0 0 0 824 241684 -10131 0
0 0 0 792 242476 -9339 0
0 0 0 799 243275 -8540 0
0 0 0 785 244060 -7755 0
0 0 0 769 244829 -6986 0
0 0 0 735 245564 -6251 0
0 0 0 726 246290 -5525 0
0 0 0 721 247011 -4804 0
0 0 0 675 247686 -4129 0
0 0 0 654 248340 -3475 0
0 0 0 689 249029 -2786 0
0 0 0 731 249760 -2055 0
14 1 S106 725 250485 -1330 0
14 1 S106 767 251252 -563 0
14 2 S106 782 252034 219 0
14 2 S106 802 252836 1021 0
14 2 S106 790 253626 1811 0
14 2 S106 768 254394 2579 0
14 2 S106 730 255124 3309 0
14 2 S106 714 255838 4023 0
14 2 S106 717 256555 4740 0
14 2 S106 747 257302 5487 0
14 2 S106 792 258094 6279 0
0 0 0 818 258912 -11139 0
0 0 0 780 259692 -10359 0
0 0 0 799 260491 -9560 0
0 0 0 796 261287 -8764 0
0 0 0 801 262088 -7963 0
0 0 0 800 262888 -7163 0
0 0 0 758 263646 -6405 0
0 0 0 724 264370 -5681 0
0 0 0 698 265068 -4983 0
0 0 0 694 265762 -4289 0
0 0 0 686 266448 -3603 0
0 0 0 741 267189 -2862 0
0 0 0 787 267976 -2075 0
15 1 S116 798 268774 -1277 0
15 1 S116 804 269578 -473 0
15 2 S116 803 270381 330 0
15 2 S116 793 271174 1123 0
15 2 S116 788 271962 1911 0
15 2 S116 778 272740 2689 0
15 2 S116 767 273507 3456 0
15 2 S116 743 274250 4199 0
15 2 S116 745 274995 4944 0
15 2 S116 752 275747 5696 0
15 2 S116 768 276515 6464 0
0 0 0 784 277299 -9662 0
0 0 0 797 278096 -8865 0
0 0 0 789 278885 -8076 0
0 0 0 752 279637 -7324 0
0 0 0 727 280364 -6597 0
0 0 0 733 281097 -5864 0
0 0 0 728 281825 -5136 0
0 0 0 760 282585 -4376 0
0 0 0 758 283343 -3618 0
0 0 0 749 284092 -2869 0
0 0 0 788 284880 -2081 0
16 1 S116 787 285667 -1294 0
16 1 S116 800 286467 -494 0
16 2 S116 780 287247 286 0
16 2 S116 763 288010 1049 0
16 2 S116 774 288784 1823 0
16 2 S116 765 289549 2588 0
16 2 S116 755 290304 3343 0
16 2 S116 754 291058 4097 0
16 2 S116 736 291794 4833 0
16 2 S116 755 292549 5588 0
16 2 S116 747 293296 6335 0
0 0 0 766 294062 -10339 0
0 0 0 780 294842 -9559 0
0 0 0 767 295609 -8792 0
0 0 0 773 296382 -8019 0
0 0 0 782 297164 -7237 0
0 0 0 786 297950 -6451 0
0 0 0 789 298739 -5662 0
0 0 0 777 299516 -4885 0
0 0 0 746 300262 -4139 0
0 0 0 756 301018 -3383 0
0 0 0 741 301759 -2642 0
17 1 S106 745 302504 -1897 0
17 1 S106 739 303243 -1158 0
17 1 S106 718 303961 -440 0
17 2 S106 715 304676 275 0
17 2 S106 754 305430 1029 0
17 2 S106 763 306193 1792 0
17 2 S106 791 306984 2583 0
17 2 S106 806 307790 3389 0
17 2 S106 791 308581 4180 0
17 2 S106 754 309335 4934 0
17 2 S106 748 310083 5682 0
17 2 S106 742 310825 6424 0
0 0 0 737 311562 -12220 0
0 0 0 756 312318 -11464 0
0 0 0 772 313090 -10692 0
0 0 0 762 313852 -9930 0
0 0 0 762 314614 -9168 0
0 0 0 769 315383 -8399 0
0 0 0 760 316143 -7639 0
0 0 0 761 316904 -6878 0
0 0 0 740 317644 -6138 0
0 0 0 743 318387 -5395 0
0 0 0 743 319130 -4652 0
0 0 0 733 319863 -3919 0
0 0 0 741 320604 -3178 0
0 0 0 739 321343 -2439 0
18 1 S102 711 322054 -1728 0
18 1 S102 713 322767 -1015 0
18 1 S102 711 323478 -304 0
18 2 S102 724 324202 420 0
18 2 S102 752 324954 1172 0
18 2 S102 784 325738 1956 0
18 2 S102 755 326493 2711 0
18 2 S102 745 327238 3456 0
18 2 S102 767 328005 4223 0
18 2 S102 765 328770 4988 0
18 2 S102 771 329541 5759 0
18 2 S102 779 330320 6538 0
0 0 0 754 331074 -7280 0
0 0 0 734 331808 -6546 0
0 0 0 745 332553 -5801 0
0 0 0 730 333283 -5071 0
0 0 0 737 334020 -4334 0
0 0 0 741 334761 -3593 0
0 0 0 706 335467 -2887 0
0 0 0 691 336158 -2196 0
19 1 S106 709 336867 -1487 0
19 1 S106 715 337582 -772 0
19 1 S106 704 338286 -68 0
19 2 S106 661 338947 593 0
19 2 S106 669 339616 1262 0
19 2 S106 676 340292 1938 0
19 2 S106 671 340963 2609 0
19 2 S106 688 341651 3297 0
19 2 S106 709 342360 4006 0
19 2 S106 733 343093 4739 0
19 2 S106 749 343842 5488 0
19 2 S106 734 344576 6222 0
19 2 S106 690 345266 6912 0
0 0 0 687 345953 -11267 0
0 0 0 681 346634 -10586 0
0 0 0 702 347336 -9884 0
0 0 0 751 348087 -9133 0
0 0 0 771 348858 -8362 0
0 0 0 757 349615 -7605 0
0 0 0 741 350356 -6864 0
0 0 0 754 351110 -6110 0
0 0 0 760 351870 -5350 0
0 0 0 779 352649 -4571 0
0 0 0 789 353438 -3782 0
0 0 0 784 354222 -2998 0
0 0 0 748 354970 -2250 0
20 1 S112 763 355733 -1487 0
20 1 S112 744 356477 -743 0
20 1 S112 736 357213 -7 0
20 2 S112 734 357947 727 0
20 2 S112 718 358665 1445 0
20 2 S112 712 359377 2157 0
20 2 S112 752 360129 2909 0
20 2 S112 773 360902 3682 0
20 2 S112 806 361708 4488 0
20 2 S112 831 362539 5319 0
20 2 S112 799 363338 6118 0
20 2 S112 808 364146 6926 0
0 0 0 812 364958 -10167 0
0 0 0 816 365774 -9351 0
0 0 0 801 366575 -8550 0
0 0 0 777 367352 -7773 0
0 0 0 753 368105 -7020 0
0 0 0 748 368853 -6272 0
0 0 0 727 369580 -5545 0
0 0 0 732 370312 -4813 0
0 0 0 755 371067 -4058 0
0 0 0 731 371798 -3327 0
0 0 0 743 372541 -2584 0
21 1 S106 759 373300 -1825 0
21 1 S106 783 374083 -1042 0
21 1 S106 813 374896 -229 0
21 2 S106 790 375686 561 0
21 2 S106 768 376454 1329 0
21 2 S106 780 377234 2109 0
21 2 S106 771 378005 2880 0
21 2 S106 780 378785 3660 0
21 2 S106 794 379579 4454 0
21 2 S106 764 380343 5218 0
21 2 S106 770 381113 5988 0
21 2 S106 772 381885 6760 0
0 0 0 780 382665 -11807 0
0 0 0 814 383479 -10993 0
0 0 0 820 384299 -10173 0
0 0 0 789 385088 -9384 0
0 0 0 820 385908 -8564 0
0 0 0 808 386716 -7756 0
0 0 0 808 387524 -6948 0
0 0 0 775 388299 -6173 0
0 0 0 774 389073 -5399 0
0 0 0 782 389855 -4617 0
0 0 0 769 390624 -3848 0
0 0 0 768 391392 -3080 0
0 0 0 740 392132 -2340 0
22 1 S116 725 392857 -1615 0
22 1 S116 740 393597 -875 0
22 1 S116 750 394347 -125 0
22 2 S116 786 395133 661 0
22 2 S116 818 395951 1479 0
22 2 S116 827 396778 2306 0
22 2 S116 796 397574 3102 0
22 2 S116 811 398385 3913 0
22 2 S116 815 399200 4728 0
22 2 S116 827 400027 5555 0
22 2 S116 806 400833 6361 0
0 0 0 777 401610 -10270 0
0 0 0 797 402407 -9473 0
0 0 0 798 403205 -8675 0
0 0 0 798 404003 -7877 0
0 0 0 803 404806 -7074 0
0 0 0 765 405571 -6309 0
0 0 0 744 406315 -5565 0
0 0 0 757 407072 -4808 0
0 0 0 762 407834 -4046 0
0 0 0 781 408615 -3265 0
0 0 0 796 409411 -2469 0
23 1 S112 772 410183 -1697 0
23 1 S112 769 410952 -928 0
23 1 S112 783 411735 -145 0
23 2 S112 789 412524 644 0
23 2 S112 800 413324 1444 0
23 2 S112 809 414133 2253 0
23 2 S112 790 414923 3043 0
23 2 S112 758 415681 3801 0
23 2 S112 730 416411 4531 0
23 2 S112 734 417145 5265 0
23 2 S112 736 417881 6001 0
23 2 S112 764 418645 6765 0
0 0 0 797 419442 -8950 0
0 0 0 823 420265 -8127 0
0 0 0 795 421060 -7332 0
0 0 0 803 421863 -6529 0
0 0 0 790 422653 -5739 0
0 0 0 793 423446 -4946 0
0 0 0 781 424227 -4165 0
0 0 0 750 424977 -3415 0
0 0 0 751 425728 -2664 0
24 1 S106 760 426488 -1904 0
24 1 S106 767 427255 -1137 0
24 1 S106 781 428036 -356 0
24 2 S106 755 428791 399 0
24 2 S106 724 429515 1123 0
24 2 S106 698 430213 1821 0
24 2 S106 682 430895 2503 0
24 2 S106 674 431569 3177 0
24 2 S106 758 432327 3935 0
24 2 S106 761 433088 4696 0
24 2 S106 776 433864 5472 0
24 2 S106 785 434649 6257 0
0 0 0 781 435430 -9507 0
0 0 0 768 436198 -8739 0
0 0 0 730 436928 -8009 0
0 0 0 714 437642 -7295 0
0 0 0 686 438328 -6609 0
0 0 0 671 438999 -5938 0
0 0 0 663 439662 -5275 0
0 0 0 650 440312 -4625 0
0 0 0 637 440949 -3988 1
0 0 0 619 441568 -3369 1
0 0 0 617 442185 -2752 1
0 0 0 640 442825 -2112 0
25 1 S102 665 443490 -1447 0
25 1 S102 735 444225 -712 0
25 2 S102 780 445005 68 0
25 2 S102 805 445810 873 0
25 2 S102 845 446655 1718 0
25 2 S102 844 447499 2562 0
25 2 S102 798 448297 3360 0
25 2 S102 797 449094 4157 0
25 2 S102 777 449871 4934 0
25 2 S102 777 450648 5711 0
25 2 S102 782 451430 6493 0
0 0 0 773 452203 -6942 0
0 0 0 759 452962 -6183 0
0 0 0 777 453739 -5406 0
0 0 0 781 454520 -4625 0
0 0 0 799 455319 -3826 0
0 0 0 820 456139 -3006 0
0 0 0 827 456966 -2179 0
26 1 S116 802 457768 -1377 0
26 1 S116 821 458589 -556 0
26 2 S116 813 459402 257 0
26 2 S116 825 460227 1082 0
26 2 S116 834 461061 1916 0
26 2 S116 809 461870 2725 0
26 2 S116 781 462651 3506 0
26 2 S116 795 463446 4301 0
26 2 S116 792 464238 5093 0
26 2 S116 810 465048 5903 0
26 2 S116 815 465863 6718 0
0 0 0 780 466643 -6958 0
0 0 0 795 467438 -6163 0
0 0 0 786 468224 -5377 0
0 0 0 798 469022 -4579 0
0 0 0 788 469810 -3791 0
0 0 0 769 470579 -3022 0
0 0 0 746 471325 -2276 0
27 1 S106 768 472093 -1508 0
27 1 S106 764 472857 -744 0
27 2 S106 782 473639 38 0
27 2 S106 788 474427 826 0
27 2 S106 771 475198 1597 0
27 2 S106 765 475963 2362 0
27 2 S106 789 476752 3151 0
27 2 S106 803 477555 3954 0
27 2 S106 822 478377 4776 0
27 2 S106 823 479200 5599 0
27 2 S106 785 479985 6384 0
0 0 0 802 480787 -7552 0
0 0 0 790 481577 -6762 0
0 0 0 802 482379 -5960 0
0 0 0 812 483191 -5148 0
0 0 0 812 484003 -4336 0
0 0 0 793 484796 -3543 0
0 0 0 766 485562 -2777 0
28 1 S102 780 486342 -1997 0
28 1 S102 779 487121 -1218 0
28 1 S102 793 487914 -425 0
28 2 S102 789 488703 364 0
28 2 S102 760 489463 1124 0
28 2 S102 738 490201 1862 0
28 2 S102 754 490955 2616 0
28 2 S102 752 491707 3368 0
28 2 S102 783 492490 4151 0
28 2 S102 814 493304 4965 0
28 2 S102 846 494150 5811 0
28 2 S102 847 494997 6658 0
0 0 0 828 495825 -10552 0
0 0 0 806 496631 -9746 0
0 0 0 764 497395 -8982 0
0 0 0 738 498133 -8244 0
0 0 0 728 498861 -7516 0
0 0 0 704 499565 -6812 0
0 0 0 715 500280 -6097 0
0 0 0 706 500986 -5391 0
0 0 0 715 501701 -4676 0
0 0 0 722 502423 -3954 0
0 0 0 724 503147 -3230 0
0 0 0 748 503895 -2482 0
29 1 S112 751 504646 -1731 0
29 1 S112 742 505388 -989 0
29 1 S112 711 506099 -278 0
29 2 S112 684 506783 406 0
29 2 S112 671 507454 1077 0
29 2 S112 681 508135 1758 0
29 2 S112 684 508819 2442 0
29 2 S112 665 509484 3107 0
29 2 S112 688 510172 3795 0
29 2 S112 717 510889 4512 0
29 2 S112 754 511643 5266 0
29 2 S112 779 512422 6045 0
29 2 S112 755 513177 6800 0
0 0 0 748 513925 -8102 0
0 0 0 763 514688 -7339 0
0 0 0 762 515450 -6577 0
0 0 0 776 516226 -5801 0
0 0 0 773 516999 -5028 0
0 0 0 746 517745 -4282 0
0 0 0 726 518471 -3556 0
0 0 0 722 519193 -2834 0
0 0 0 698 519891 -2136 0
30 1 S112 710 520601 -1426 0
30 1 S112 734 521335 -692 0
30 2 S112 735 522070 43 0
30 2 S112 764 522834 807 0
30 2 S112 765 523599 1572 0
30 2 S112 777 524376 2349 0
30 2 S112 790 525166 3139 0
30 2 S112 789 525955 3928 0
30 2 S112 806 526761 4734 0
30 2 S112 799 527560 5533 0
30 2 S112 813 528373 6346 0
0 0 0 799 529172 -10030 0
0 0 0 760 529932 -9270 0
0 0 0 747 530679 -8523 0
0 0 0 733 531412 -7790 0
0 0 0 744 532156 -7046 0
0 0 0 757 532913 -6289 0
0 0 0 766 533679 -5523 0
0 0 0 768 534447 -4755 0
0 0 0 771 535218 -3984 0
0 0 0 797 536015 -3187 0
0 0 0 802 536817 -2385 0
31 1 S106 815 537632 -1570 0
31 1 S106 820 538452 -750 0
31 2 S106 807 539259 57 0
31 2 S106 809 540068 866 0
31 2 S106 804 540872 1670 0
31 2 S106 804 541676 2474 0
31 2 S106 802 542478 3276 0
31 2 S106 774 543252 4050 0
31 2 S106 769 544021 4819 0
31 2 S106 776 544797 5595 0
31 2 S106 785 545582 6380 0
0 0 0 813 546395 -8971 0
0 0 0 833 547228 -8138 0
0 0 0 834 548062 -7304 0
0 0 0 838 548900 -6466 0
0 0 0 837 549737 -5629 0
0 0 0 828 550565 -4801 0
0 0 0 821 551386 -3980 0
0 0 0 780 552166 -3200 0
0 0 0 788 552954 -2412 0
32 1 S102 768 553722 -1644 0
32 1 S102 776 554498 -868 0
32 1 S102 787 555285 -81 0
32 2 S102 777 556062 696 0
32 2 S102 752 556814 1448 0
32 2 S102 760 557574 2208 0
32 2 S102 765 558339 2973 0
32 2 S102 782 559121 3755 0
32 2 S102 805 559926 4560 0
32 2 S102 816 560742 5376 0
32 2 S102 813 561555 6189 0
32 2 S102 770 562325 6959 0
0 0 0 767 563092 -10776 0
0 0 0 759 563851 -10017 0
0 0 0 754 564605 -9263 0
0 0 0 765 565370 -8498 0
0 0 0 769 566139 -7729 0
0 0 0 745 566884 -6984 0
0 0 0 715 567599 -6269 0
0 0 0 685 568284 -5584 0
0 0 0 678 568962 -4906 0
0 0 0 676 569638 -4230 0
0 0 0 696 570334 -3534 0
0 0 0 721 571055 -2813 0
0 0 0 714 571769 -2099 0
33 1 S112 676 572445 -1423 0
33 1 S112 654 573099 -769 0
33 1 S112 648 573747 -121 0
33 2 S112 651 574398 530 0
33 2 S112 654 575052 1184 0
33 2 S112 655 575707 1839 0
33 2 S112 643 576350 2482 0
33 2 S112 643 576993 3125 0
33 2 S112 652 577645 3777 0
33 2 S112 658 578303 4435 0
33 2 S112 674 578977 5109 0
33 2 S112 690 579667 5799 0
33 2 S112 697 580364 6496 0
0 0 0 706 581070 -11299 0
0 0 0 705 581775 -10594 0
0 0 0 672 582447 -9922 0
0 0 0 698 583145 -9224 0
0 0 0 700 583845 -8524 0
0 0 0 717 584562 -7807 0
0 0 0 742 585304 -7065 0
0 0 0 737 586041 -6328 0
0 0 0 733 586774 -5595 0
0 0 0 756 587530 -4839 0
0 0 0 756 588286 -4083 0
0 0 0 769 589055 -3314 0
0 0 0 775 589830 -2539 0
34 1 S106 744 590574 -1795 0
34 1 S106 746 591320 -1049 0
34 1 S106 724 592044 -325 0
34 2 S106 693 592737 368 0
34 2 S106 693 593430 1061 0
34 2 S106 693 594123 1754 0
34 2 S106 676 594799 2430 0
34 2 S106 681 595480 3111 0
34 2 S106 718 596198 3829 0
34 2 S106 747 596945 4576 0
34 2 S106 773 597718 5349 0
34 2 S106 794 598512 6143 0
34 2 S106 777 599289 6920 0
0 0 0 795 600084 -9891 0
0 0 0 796 600880 -9095 0
0 0 0 807 601687 -8288 0
0 0 0 818 602505 -7470 0
0 0 0 810 603315 -6660 0
0 0 0 779 604094 -5881 0
0 0 0 733 604827 -5148 0
0 0 0 702 605529 -4446 0
0 0 0 684 606213 -3762 0
0 0 0 681 606894 -3081 0
0 0 0 703 607597 -2378 0
35 1 S102 748 608345 -1630 0
35 1 S102 773 609118 -857 0
35 1 S102 774 609892 -83 0
35 2 S102 763 610655 680 0
35 2 S102 787 611442 1467 0
35 2 S102 780 612222 2247 0
35 2 S102 787 613009 3034 0
35 2 S102 787 613796 3821 0
35 2 S102 761 614557 4582 0
35 2 S102 752 615309 5334 0
35 2 S102 746 616055 6080 0
35 2 S102 737 616792 6817 0
0 0 0 754 617546 -7101 0
0 0 0 771 618317 -6330 0
0 0 0 786 619103 -5544 0
0 0 0 786 619889 -4758 0
0 0 0 776 620665 -3982 0
0 0 0 755 621420 -3227 0
0 0 0 732 622152 -2495 0
36 1 S106 735 622887 -1760 0
36 1 S106 714 623601 -1046 0
36 1 S106 723 624324 -323 0
36 2 S106 729 625053 406 0
36 2 S106 748 625801 1154 0
36 2 S106 769 626570 1923 0
36 2 S106 787 627357 2710 0
36 2 S106 772 628129 3482 0
36 2 S106 778 628907 4260 0
36 2 S106 761 629668 5021 0
36 2 S106 765 630433 5786 0
36 2 S106 762 631195 6548 0
0 0 0 744 631939 -9966 0
0 0 0 740 632679 -9226 0
0 0 0 740 633419 -8486 0
0 0 0 744 634163 -7742 0
0 0 0 751 634914 -6991 0
0 0 0 753 635667 -6238 0
0 0 0 726 636393 -5512 0
0 0 0 725 637118 -4787 0
0 0 0 729 637847 -4058 0
0 0 0 734 638581 -3324 0
0 0 0 751 639332 -2573 0
37 1 S116 757 640089 -1816 0
37 1 S116 742 640831 -1074 0
37 1 S116 740 641571 -334 0
37 2 S116 721 642292 387 0
37 2 S116 687 642979 1074 0
37 2 S116 658 643637 1732 0
37 2 S116 669 644306 2401 0
37 2 S116 670 644976 3071 0
37 2 S116 674 645650 3745 0
37 2 S116 702 646352 4447 0
37 2 S116 723 647075 5170 0
37 2 S116 743 647818 5913 0
37 2 S116 748 648566 6661 0
0 0 0 718 649284 -10858 0
0 0 0 718 650002 -10140 0
0 0 0 727 650729 -9413 0
0 0 0 742 651471 -8671 0
0 0 0 749 652220 -7922 0
0 0 0 766 652986 -7156 0
0 0 0 747 653733 -6409 0
0 0 0 730 654463 -5679 0
0 0 0 736 655199 -4943 0
0 0 0 733 655932 -4210 0
0 0 0 746 656678 -3464 0
0 0 0 748 657426 -2716 0
38 1 S102 743 658169 -1973 0
38 1 S102 770 658939 -1203 0
38 1 S102 781 659720 -422 0
38 2 S102 788 660508 366 0
38 2 S102 766 661274 1132 0
38 2 S102 733 662007 1865 0
38 2 S102 739 662746 2604 0
38 2 S102 724 663470 3328 0
38 2 S102 741 664211 4069 0
38 2 S102 771 664982 4840 0
38 2 S102 766 665748 5606 0
38 2 S102 773 666521 6379 0
0 0 0 787 667308 -9876 0
0 0 0 806 668114 -9070 0
0 0 0 819 668933 -8251 0
0 0 0 821 669754 -7430 0
0 0 0 781 670535 -6649 0
0 0 0 775 671310 -5874 0
0 0 0 746 672056 -5128 0
0 0 0 733 672789 -4395 0
0 0 0 714 673503 -3681 0
0 0 0 680 674183 -3001 0
0 0 0 685 674868 -2316 0
39 1 S116 701 675569 -1615 0
39 1 S116 724 676293 -891 0
39 1 S116 774 677067 -117 0
39 2 S116 792 677859 675 0
39 2 S116 797 678656 1472 0
39 2 S116 794 679450 2266 0
39 2 S116 821 680271 3087 0
39 2 S116 830 681101 3917 0
39 2 S116 826 681927 4743 0
39 2 S116 798 682725 5541 0
39 2 S116 792 683517 6333 0
0 0 0 777 684294 -8109 0
0 0 0 765 685059 -7344 0
0 0 0 753 685812 -6591 0
0 0 0 751 686563 -5840 0
0 0 0 758 687321 -5082 0
0 0 0 759 688080 -4323 0
0 0 0 769 688849 -3554 0
0 0 0 760 689609 -2794 0
0 0 0 748 690357 -2046 0
40 1 S112 769 691126 -1277 0
40 1 S112 782 691908 -495 0
40 2 S112 803 692711 308 0
40 2 S112 816 693527 1124 0
40 2 S112 793 694320 1917 0
40 2 S112 791 695111 2708 0
40 2 S112 783 695894 3491 0
40 2 S112 779 696673 4270 0
40 2 S112 772 697445 5042 0
40 2 S112 755 698200 5797 0
40 2 S112 759 698959 6556 0
0 0 0 774 699733 -188064 0
0 0 0 797 700530 -187267 0
0 0 0 835 701365 -186432 0
0 0 0 819 702184 -185613 0
0 0 0 819 703003 -184794 0
0 0 0 808 703811 -183986 0
0 0 0 801 704612 -183185 0
0 0 0 767 705379 -182418 0
0 0 0 738 706117 -181680 0
0 0 0 718 706835 -180962 0
0 0 0 744 707579 -180218 0
0 0 0 732 708311 -179486 0
0 0 0 750 709061 -178736 0
0 0 0 759 709820 -177977 0
0 0 0 763 710583 -177214 0
0 0 0 765 711348 -176449 0
0 0 0 760 712108 -175689 0
0 0 0 733 712841 -174956 0
0 0 0 694 713535 -174262 0
0 0 0 667 714202 -173595 0
0 0 0 640 714842 -172955 0
0 0 0 629 715471 -172326 1
0 0 0 636 716107 -171690 1
0 0 0 660 716767 -171030 0
0 0 0 694 717461 -170336 0
0 0 0 698 718159 -169638 0
0 0 0 686 718845 -168952 0
0 0 0 681 719526 -168271 0
0 0 0 659 720185 -167612 0
0 0 0 636 720821 -166976 1
0 0 0 689 721510 -166287 0
0 0 0 692 722202 -165595 0
0 0 0 707 722909 -164888 0
0 0 0 724 723633 -164164 0
0 0 0 725 724358 -163439 0
0 0 0 734 725092 -162705 0
0 0 0 735 725827 -161970 0
0 0 0 704 726531 -161266 0
0 0 0 683 727214 -160583 0
0 0 0 673 727887 -159910 0
0 0 0 666 728553 -159244 0
0 0 0 664 729217 -158580 0
0 0 0 666 729883 -157914 0
0 0 0 670 730553 -157244 0
0 0 0 673 731226 -156571 0
0 0 0 674 731900 -155897 0
0 0 0 664 732564 -155233 0
0 0 0 635 733199 -154598 1
0 0 0 622 733821 -153976 1
0 0 0 621 734442 -153355 1
0 0 0 635 735077 -152720 1
0 0 0 673 735750 -152047 0
0 0 0 700 736450 -151347 0
0 0 0 734 737184 -150613 0
0 0 0 751 737935 -149862 0
0 0 0 761 738696 -149101 0
0 0 0 764 739460 -148337 0
0 0 0 760 740220 -147577 0
0 0 0 749 740969 -146828 0
0 0 0 723 741692 -146105 0
0 0 0 699 742391 -145406 0
0 0 0 684 743075 -144722 0
0 0 0 686 743761 -144036 0
0 0 0 727 744488 -143309 0
0 0 0 755 745243 -142554 0
0 0 0 760 746003 -141794 0
0 0 0 789 746792 -141005 0
0 0 0 808 747600 -140197 0
0 0 0 818 748418 -139379 0
0 0 0 856 749274 -138523 0
0 0 0 820 750094 -137703 0
0 0 0 832 750926 -136871 0
0 0 0 820 751746 -136051 0
0 0 0 808 752554 -135243 0
0 0 0 788 753342 -134455 0
0 0 0 779 754121 -133676 0
0 0 0 744 754865 -132932 0
0 0 0 720 755585 -132212 0
0 0 0 719 756304 -131493 0
0 0 0 724 757028 -130769 0
0 0 0 792 757820 -129977 0
0 0 0 811 758631 -129166 0
0 0 0 845 759476 -128321 0
0 0 0 822 760298 -127499 0
0 0 0 793 761091 -126706 0
0 0 0 800 761891 -125906 0
0 0 0 793 762684 -125113 0
0 0 0 805 763489 -124308 0
0 0 0 805 764294 -123503 0
0 0 0 791 765085 -122712 0
0 0 0 766 765851 -121946 0
0 0 0 757 766608 -121189 0
0 0 0 756 767364 -120433 0
0 0 0 774 768138 -119659 0
0 0 0 797 768935 -118862 0
0 0 0 794 769729 -118068 0
0 0 0 759 770488 -117309 0
0 0 0 765 771253 -116544 0
0 0 0 760 772013 -115784 0
0 0 0 753 772766 -115031 0
0 0 0 759 773525 -114272 0
0 0 0 743 774268 -113529 0
0 0 0 717 774985 -112812 0
0 0 0 726 775711 -112086 0
0 0 0 716 776427 -111370 0
0 0 0 767 777194 -110603 0
0 0 0 783 777977 -109820 0
0 0 0 798 778775 -109022 0
0 0 0 816 779591 -108206 0
0 0 0 823 780414 -107383 0
0 0 0 806 781220 -106577 0
0 0 0 764 781984 -105813 0
0 0 0 770 782754 -105043 0
0 0 0 754 783508 -104289 0
0 0 0 759 784267 -103530 0
0 0 0 778 785045 -102752 0
0 0 0 758 785803 -101994 0
0 0 0 760 786563 -101234 0
0 0 0 775 787338 -100459 0
0 0 0 780 788118 -99679 0
0 0 0 791 788909 -98888 0
0 0 0 750 789659 -98138 0
0 0 0 711 790370 -97427 0
0 0 0 714 791084 -96713 0
0 0 0 717 791801 -95996 0
0 0 0 721 792522 -95275 0
0 0 0 749 793271 -94526 0
0 0 0 762 794033 -93764 0
0 0 0 754 794787 -93010 0
0 0 0 740 795527 -92270 0
0 0 0 716 796243 -91554 0
0 0 0 687 796930 -90867 0
0 0 0 679 797609 -90188 0
0 0 0 685 798294 -89503 0
0 0 0 702 798996 -88801 0
0 0 0 716 799712 -88085 0
0 0 0 729 800441 -87356 0
0 0 0 738 801179 -86618 0
0 0 0 753 801932 -85865 0
0 0 0 757 802689 -85108 0
0 0 0 766 803455 -84342 0
0 0 0 759 804214 -83583 0
0 0 0 719 804933 -82864 0
0 0 0 708 805641 -82156 0
0 0 0 700 806341 -81456 0
0 0 0 706 807047 -80750 0
0 0 0 720 807767 -80030 0
0 0 0 735 808502 -79295 0
0 0 0 738 809240 -78557 0
0 0 0 743 809983 -77814 0
0 0 0 735 810718 -77079 0
0 0 0 716 811434 -76363 0
0 0 0 731 812165 -75632 0
0 0 0 720 812885 -74912 0
0 0 0 721 813606 -74191 0
0 0 0 731 814337 -73460 0
0 0 0 723 815060 -72737 0
0 0 0 720 815780 -72017 0
0 0 0 725 816505 -71292 0
0 0 0 722 817227 -70570 0
0 0 0 730 817957 -69840 0
0 0 0 725 818682 -69115 0
0 0 0 687 819369 -68428 0
0 0 0 683 820052 -67745 0
0 0 0 677 820729 -67068 0
0 0 0 680 821409 -66388 0
0 0 0 689 822098 -65699 0
0 0 0 682 822780 -65017 0
0 0 0 680 823460 -64337 0
0 0 0 668 824128 -63669 0
0 0 0 635 824763 -63034 1
0 0 0 621 825384 -62413 1
0 0 0 620 826004 -61793 1
0 0 0 614 826618 -61179 1
0 0 0 628 827246 -60551 1
0 0 0 640 827886 -59911 0
0 0 0 642 828528 -59269 0
0 0 0 648 829176 -58621 0
0 0 0 627 829803 -57994 1
0 0 0 614 830417 -57380 1
0 0 0 603 831020 -56777 1
0 0 0 605 831625 -56172 1
0 0 0 605 832230 -55567 1
0 0 0 608 832838 -54959 1
0 0 0 609 833447 -54350 1
0 0 0 610 834057 -53740 1
0 0 0 606 834663 -53134 1
0 0 0 599 835262 -52535 1
0 0 0 595 835857 -51940 1
0 0 0 591 836448 -51349 1
0 0 0 587 837035 -50762 1
0 0 0 588 837623 -50174 1
0 0 0 593 838216 -49581 1
0 0 0 597 838813 -48984 1
0 0 0 596 839409 -48388 1
0 0 0 597 840006 -47791 1
0 0 0 616 840622 -47175 1
0 0 0 651 841273 -46524 0
0 0 0 710 841983 -45814 0
0 0 0 765 842748 -45049 0
0 0 0 812 843560 -44237 0
0 0 0 814 844374 -43423 0
0 0 0 779 845153 -42644 0
0 0 0 775 845928 -41869 0
0 0 0 759 846687 -41110 0
0 0 0 754 847441 -40356 0
0 0 0 748 848189 -39608 0
0 0 0 738 848927 -38870 0
0 0 0 706 849633 -38164 0
0 0 0 661 850294 -37503 0
0 0 0 664 850958 -36839 0
0 0 0 638 851596 -36201 0
0 0 0 626 852222 -35575 1
0 0 0 639 852861 -34936 0
0 0 0 686 853547 -34250 0
0 0 0 707 854254 -33543 0
0 0 0 753 855007 -32790 0
0 0 0 773 855780 -32017 0
0 0 0 790 856570 -31227 0
0 0 0 812 857382 -30415 0
0 0 0 810 858192 -29605 0
0 0 0 806 858998 -28799 0
0 0 0 796 859794 -28003 0
0 0 0 788 860582 -27215 0
0 0 0 787 861369 -26428 0
0 0 0 777 862146 -25651 0
0 0 0 747 862893 -24904 0
0 0 0 752 863645 -24152 0
0 0 0 745 864390 -23407 0
0 0 0 765 865155 -22642 0
0 0 0 780 865935 -21862 0
0 0 0 786 866721 -21076 0
0 0 0 769 867490 -20307 0
0 0 0 783 868273 -19524 0
0 0 0 775 869048 -18749 0
0 0 0 788 869836 -17961 0
0 0 0 805 870641 -17156 0
0 0 0 791 871432 -16365 0
0 0 0 762 872194 -15603 0
0 0 0 768 872962 -14835 0
0 0 0 764 873726 -14071 0
0 0 0 777 874503 -13294 0
0 0 0 784 875287 -12510 0
0 0 0 778 876065 -11732 0
0 0 0 740 876805 -10992 0
0 0 0 744 877549 -10248 0
0 0 0 749 878298 -9499 0
0 0 0 772 879070 -8727 0
0 0 0 811 879881 -7916 0
0 0 0 836 880717 -7080 0
0 0 0 801 881518 -6279 0
0 0 0 810 882328 -5469 0
0 0 0 794 883122 -4675 0
0 0 0 800 883922 -3875 0
0 0 0 763 884685 -3112 0
0 0 0 732 885417 -2380 0
41 1 S102 714 886131 -1666 0
41 1 S102 693 886824 -973 0
41 1 S102 753 887577 -220 0
41 2 S102 740 888317 520 0
41 2 S102 830 889147 1350 0
41 2 S102 886 890033 2236 1
41 2 S102 904 890937 3140 1
41 2 S102 901 891838 4041 1
41 2 S102 897 892735 4938 1
41 2 S102 857 893592 5795 0
41 2 S102 823 894415 6618 0
0 0 0 802 895217 -7152 0
0 0 0 777 895994 -6375 0
0 0 0 750 896744 -5625 0
0 0 0 746 897490 -4879 0
0 0 0 739 898229 -4140 0
0 0 0 733 898962 -3407 0
0 0 0 731 899693 -2676 0
42 1 S112 737 900430 -1939 0
42 1 S112 738 901168 -1201 0
42 1 S112 716 901884 -485 0
42 2 S112 677 902561 192 0
42 2 S112 700 903261 892 0
42 2 S112 737 903998 1629 0
42 2 S112 781 904779 2410 0
42 2 S112 777 905556 3187 0
42 2 S112 781 906337 3968 0
42 2 S112 788 907125 4756 0
42 2 S112 799 907924 5555 0
42 2 S112 792 908716 6347 0
0 0 0 767 909483 -9730 0
0 0 0 775 910258 -8955 0
0 0 0 765 911023 -8190 0
0 0 0 775 911798 -7415 0
0 0 0 796 912594 -6619 0
0 0 0 789 913383 -5830 0
0 0 0 759 914142 -5071 0
0 0 0 762 914904 -4309 0
0 0 0 760 915664 -3549 0
0 0 0 764 916428 -2785 0
0 0 0 780 917208 -2005 0
43 1 S116 796 918004 -1209 0
43 1 S116 768 918772 -441 0
43 2 S116 784 919556 343 0
43 2 S116 775 920331 1118 0
43 2 S116 791 921122 1909 0
43 2 S116 802 921924 2711 0
43 2 S116 811 922735 3522 0
43 2 S116 809 923544 4331 0
43 2 S116 817 924361 5148 0
43 2 S116 838 925199 5986 0
43 2 S116 845 926044 6831 0
0 0 0 839 926883 -7582 0
0 0 0 822 927705 -6760 0
0 0 0 817 928522 -5943 0
0 0 0 811 929333 -5132 0
0 0 0 800 930133 -4332 0
0 0 0 782 930915 -3550 0
0 0 0 746 931661 -2804 0
0 0 0 765 932426 -2039 0
44 1 S102 753 933179 -1286 0
44 1 S102 776 933955 -510 0
44 2 S102 805 934760 295 0
44 2 S102 805 935565 1100 0
44 2 S102 785 936350 1885 0
44 2 S102 801 937151 2686 0
44 2 S102 801 937952 3487 0
44 2 S102 808 938760 4295 0
44 2 S102 810 939570 5105 0
44 2 S102 779 940349 5884 0
44 2 S102 774 941123 6658 0
0 0 0 765 941888 -9438 0
0 0 0 763 942651 -8675 0
0 0 0 772 943423 -7903 0
0 0 0 791 944214 -7112 0
0 0 0 796 945010 -6316 0
0 0 0 758 945768 -5558 0
0 0 0 773 946541 -4785 0
0 0 0 764 947305 -4021 0
0 0 0 783 948088 -3238 0
0 0 0 779 948867 -2459 0
45 1 S116 749 949616 -1710 0
45 1 S116 763 950379 -947 0
45 1 S116 760 951139 -187 0
45 2 S116 781 951920 594 0
45 2 S116 807 952727 1401 0
45 2 S116 823 953550 2224 0
45 2 S116 802 954352 3026 0
45 2 S116 775 955127 3801 0
45 2 S116 784 955911 4585 0
45 2 S116 784 956695 5369 0
45 2 S116 796 957491 6165 0
45 2 S116 819 958310 6984 0
0 0 0 790 959100 -11490 0
0 0 0 790 959890 -10700 0
0 0 0 780 960670 -9920 0
0 0 0 788 961458 -9132 0
0 0 0 780 962238 -8352 0
0 0 0 768 963006 -7584 0
0 0 0 746 963752 -6838 0
0 0 0 757 964509 -6081 0
0 0 0 747 965256 -5334 0
0 0 0 756 966012 -4578 0
0 0 0 769 966781 -3809 0
0 0 0 759 967540 -3050 0
0 0 0 748 968288 -2302 0
46 1 S102 771 969059 -1531 0
46 1 S102 783 969842 -748 0
46 2 S102 799 970641 51 0
46 2 S102 810 971451 861 0
46 2 S102 783 972234 1644 0
46 2 S102 779 973013 2423 0
46 2 S102 779 973792 3202 0
46 2 S102 786 974578 3988 0
46 2 S102 796 975374 4784 0
46 2 S102 809 976183 5593 0
46 2 S102 787 976970 6380 0
0 0 0 806 977776 -9807 0
0 0 0 809 978585 -8998 0
0 0 0 829 979414 -8169 0
0 0 0 822 980236 -7347 0
0 0 0 826 981062 -6521 0
0 0 0 788 981850 -5733 0
0 0 0 788 982638 -4945 0
0 0 0 781 983419 -4164 0
0 0 0 798 984217 -3366 0
0 0 0 801 985018 -2565 0
47 1 S112 792 985810 -1773 0
47 1 S112 767 986577 -1006 0
47 1 S112 781 987358 -225 0
47 2 S112 772 988130 547 0
47 2 S112 793 988923 1340 0
47 2 S112 827 989750 2167 0
47 2 S112 812 990562 2979 0
47 2 S112 826 991388 3805 0
47 2 S112 846 992234 4651 0
47 2 S112 865 993099 5516 0
47 2 S112 883 993982 6399 1
0 0 0 868 994850 -12179 0
0 0 0 816 995666 -11363 0
0 0 0 777 996443 -10586 0
0 0 0 769 997212 -9817 0
0 0 0 758 997970 -9059 0
0 0 0 764 998734 -8295 0
0 0 0 774 999508 -7521 0
0 0 0 786 1000294 -6735 0
0 0 0 767 1001061 -5968 0
0 0 0 756 1001817 -5212 0
0 0 0 768 1002585 -4444 0
0 0 0 765 1003350 -3679 0
0 0 0 796 1004146 -2883 0
0 0 0 816 1004962 -2067 0
48 1 S116 799 1005761 -1268 0
48 1 S116 793 1006554 -475 0
48 2 S116 817 1007371 342 0
48 2 S116 836 1008207 1178 0
48 2 S116 857 1009064 2035 0
48 2 S116 846 1009910 2881 0
48 2 S116 805 1010715 3686 0
48 2 S116 779 1011494 4465 0
48 2 S116 779 1012273 5244 0
48 2 S116 777 1013050 6021 0
48 2 S116 791 1013841 6812 0
0 0 0 798 1014639 -8057 0
0 0 0 776 1015415 -7281 0
0 0 0 799 1016214 -6482 0
0 0 0 790 1017004 -5692 0
0 0 0 814 1017818 -4878 0
0 0 0 823 1018641 -4055 0
0 0 0 803 1019444 -3252 0
0 0 0 766 1020210 -2486 0
49 1 S112 775 1020985 -1711 0
49 1 S112 759 1021744 -952 0
49 1 S112 760 1022504 -192 0
49 2 S112 761 1023265 569 0
49 2 S112 750 1024015 1319 0
49 2 S112 756 1024771 2075 0
49 2 S112 781 1025552 2856 0
49 2 S112 801 1026353 3657 0
49 2 S112 834 1027187 4491 0
49 2 S112 800 1027987 5291 0
49 2 S112 809 1028796 6100 0
49 2 S112 800 1029596 6900 0
0 0 0 806 1030402 -10729 0
0 0 0 803 1031205 -9926 0
0 0 0 789 1031994 -9137 0
0 0 0 755 1032749 -8382 0
0 0 0 753 1033502 -7629 0
0 0 0 735 1034237 -6894 0
0 0 0 742 1034979 -6152 0
0 0 0 756 1035735 -5396 0
0 0 0 756 1036491 -4640 0
0 0 0 747 1037238 -3893 0
0 0 0 773 1038011 -3120 0
0 0 0 776 1038787 -2344 0
50 1 S106 776 1039563 -1568 0
50 1 S106 775 1040338 -793 0
50 1 S106 764 1041102 -29 0
50 2 S106 743 1041845 714 0
50 2 S106 756 1042601 1470 0
50 2 S106 749 1043350 2219 0
50 2 S106 765 1044115 2984 0
50 2 S106 795 1044910 3779 0
50 2 S106 807 1045717 4586 0
50 2 S106 795 1046512 5381 0
50 2 S106 812 1047324 6193 0
50 2 S106 822 1048146 7015 0
0 0 0 838 1048984 -6603 0
0 0 0 850 1049834 -5753 0
0 0 0 840 1050674 -4913 0
0 0 0 792 1051466 -4121 0
0 0 0 782 1052248 -3339 0
0 0 0 767 1053015 -2572 0
51 1 S112 774 1053789 -1798 0
51 1 S112 780 1054569 -1018 0
51 1 S112 757 1055326 -261 0
51 2 S112 754 1056080 493 0
51 2 S112 763 1056843 1256 0
51 2 S112 790 1057633 2046 0
51 2 S112 822 1058455 2868 0
51 2 S112 844 1059299 3712 0
51 2 S112 825 1060124 4537 0
51 2 S112 799 1060923 5336 0
51 2 S112 815 1061738 6151 0
51 2 S112 803 1062541 6954 0
0 0 0 813 1063354 -7535 0
0 0 0 806 1064160 -6729 0
0 0 0 781 1064941 -5948 0
0 0 0 778 1065719 -5170 0
0 0 0 779 1066498 -4391 0
0 0 0 783 1067281 -3608 0
0 0 0 802 1068083 -2806 0
52 1 S116 816 1068899 -1990 0
52 1 S116 784 1069683 -1206 0
52 1 S116 752 1070435 -454 0
52 2 S116 759 1071194 305 0
52 2 S116 753 1071947 1058 0
52 2 S116 785 1072732 1843 0
52 2 S116 819 1073551 2662 0
52 2 S116 845 1074396 3507 0
52 2 S116 843 1075239 4350 0
52 2 S116 836 1076075 5186 0
52 2 S116 831 1076906 6017 0
52 2 S116 800 1077706 6817 0
0 0 0 794 1078500 -9631 0
0 0 0 788 1079288 -8843 0
0 0 0 789 1080077 -8054 0
0 0 0 786 1080863 -7268 0
0 0 0 785 1081648 -6483 0
0 0 0 754 1082402 -5729 0
0 0 0 743 1083145 -4986 0
0 0 0 751 1083896 -4235 0
0 0 0 753 1084649 -3482 0
0 0 0 770 1085419 -2712 0
53 1 S106 780 1086199 -1932 0
53 1 S106 758 1086957 -1174 0
53 1 S106 761 1087718 -413 0
53 2 S106 738 1088456 325 0
53 2 S106 706 1089162 1031 0
53 2 S106 688 1089850 1719 0
53 2 S106 683 1090533 2402 0
53 2 S106 668 1091201 3070 0
53 2 S106 683 1091884 3753 0
53 2 S106 695 1092579 4448 0
53 2 S106 697 1093276 5145 0
53 2 S106 715 1093991 5860 0
53 2 S106 735 1094726 6595 0
0 0 0 732 1095458 -7361 0
0 0 0 693 1096151 -6668 0
0 0 0 713 1096864 -5955 0
0 0 0 711 1097575 -5244 0
0 0 0 733 1098308 -4511 0
0 0 0 751 1099059 -3760 0
0 0 0 736 1099795 -3024 0
0 0 0 727 1100522 -2297 0
54 1 S102 756 1101278 -1541 0
54 1 S102 763 1102041 -778 0
54 2 S102 794 1102835 16 0
54 2 S102 799 1103634 815 0
54 2 S102 798 1104432 1613 0
54 2 S102 768 1105200 2381 0
54 2 S102 784 1105984 3165 0
54 2 S102 782 1106766 3947 0
54 2 S102 796 1107562 4743 0
54 2 S102 788 1108350 5531 0
54 2 S102 771 1109121 6302 0
0 0 0 746 1109867 -11238 0
0 0 0 756 1110623 -10482 0
0 0 0 747 1111370 -9735 0
0 0 0 762 1112132 -8973 0
0 0 0 774 1112906 -8199 0
0 0 0 766 1113672 -7433 0
0 0 0 744 1114416 -6689 0
0 0 0 718 1115134 -5971 0
0 0 0 701 1115835 -5270 0
0 0 0 682 1116517 -4588 0
0 0 0 722 1117239 -3866 0
0 0 0 739 1117978 -3127 0
0 0 0 789 1118767 -2338 0
55 1 S106 841 1119608 -1497 0
55 1 S106 856 1120464 -641 0
55 2 S106 848 1121312 207 0
55 2 S106 833 1122145 1040 0
55 2 S106 817 1122962 1857 0
55 2 S106 788 1123750 2645 0
55 2 S106 752 1124502 3397 0
55 2 S106 702 1125204 4099 0
55 2 S106 693 1125897 4792 0
55 2 S106 694 1126591 5486 0
55 2 S106 701 1127292 6187 0
55 2 S106 714 1128006 6901 0
0 0 0 729 1128735 -7440 0
0 0 0 724 1129459 -6716 0
0 0 0 753 1130212 -5963 0
0 0 0 776 1130988 -5187 0
0 0 0 797 1131785 -4390 0
0 0 0 802 1132587 -3588 0
0 0 0 804 1133391 -2784 0
0 0 0 766 1134157 -2018 0
56 1 S116 775 1134932 -1243 0
56 1 S116 754 1135686 -489 0
56 2 S116 752 1136438 263 0
56 2 S116 764 1137202 1027 0
56 2 S116 756 1137958 1783 0
56 2 S116 749 1138707 2532 0
56 2 S116 770 1139477 3302 0
56 2 S116 773 1140250 4075 0
56 2 S116 793 1141043 4868 0
56 2 S116 798 1141841 5666 0
56 2 S116 787 1142628 6453 0
0 0 0 766 1143394 -7669 0
0 0 0 775 1144169 -6894 0
0 0 0 757 1144926 -6137 0
0 0 0 766 1145692 -5371 0
0 0 0 765 1146457 -4606 0
0 0 0 744 1147201 -3862 0
0 0 0 723 1147924 -3139 0
0 0 0 727 1148651 -2412 0
57 1 S106 724 1149375 -1688 0
57 1 S106 737 1150112 -951 0
57 1 S106 760 1150872 -191 0
57 2 S106 755 1151627 564 0
57 2 S106 747 1152374 1311 0
57 2 S106 760 1153134 2071 0
57 2 S106 759 1153893 2830 0
57 2 S106 770 1154663 3600 0
57 2 S106 760 1155423 4360 0
57 2 S106 739 1156162 5099 0
57 2 S106 733 1156895 5832 0
57 2 S106 731 1157626 6563 0
0 0 0 715 1158341 -8852 0
0 0 0 720 1159061 -8132 0
0 0 0 732 1159793 -7400 0
0 0 0 737 1160530 -6663 0
0 0 0 718 1161248 -5945 0
0 0 0 737 1161985 -5208 0
0 0 0 728 1162713 -4480 0
0 0 0 747 1163460 -3733 0
0 0 0 770 1164230 -2963 0
0 0 0 774 1165004 -2189 0
58 1 S102 744 1165748 -1445 0
58 1 S102 746 1166494 -699 0
58 2 S102 740 1167234 41 0
58 2 S102 743 1167977 784 0
58 2 S102 761 1168738 1545 0
58 2 S102 782 1169520 2327 0
58 2 S102 778 1170298 3105 0
58 2 S102 751 1171049 3856 0
58 2 S102 767 1171816 4623 0
58 2 S102 759 1172575 5382 0
58 2 S102 772 1173347 6154 0
58 2 S102 783 1174130 6937 0
0 0 0 785 1174915 -7033 0
0 0 0 756 1175671 -6277 0
0 0 0 770 1176441 -5507 0
0 0 0 754 1177195 -4753 0
0 0 0 745 1177940 -4008 0
0 0 0 745 1178685 -3263 0
0 0 0 716 1179401 -2547 0
59 1 S112 721 1180122 -1826 0
59 1 S112 720 1180842 -1106 0
59 1 S112 745 1181587 -361 0
59 2 S112 776 1182363 415 0
59 2 S112 800 1183163 1215 0
59 2 S112 796 1183959 2011 0
59 2 S112 769 1184728 2780 0
59 2 S112 782 1185510 3562 0
59 2 S112 770 1186280 4332 0
59 2 S112 777 1187057 5109 0
59 2 S112 775 1187832 5884 0
59 2 S112 748 1188580 6632 0
0 0 0 754 1189334 -10320 0
0 0 0 756 1190090 -9564 0
0 0 0 765 1190855 -8799 0
0 0 0 780 1191635 -8019 0
0 0 0 791 1192426 -7228 0
0 0 0 760 1193186 -6468 0
0 0 0 767 1193953 -5701 0
0 0 0 748 1194701 -4953 0
0 0 0 754 1195455 -4199 0
0 0 0 752 1196207 -3447 0
0 0 0 736 1196943 -2711 0
60 1 S102 754 1197697 -1957 0
60 1 S102 754 1198451 -1203 0
60 1 S102 767 1199218 -436 0
60 2 S102 776 1199994 340 0
60 2 S102 743 1200737 1083 0
60 2 S102 741 1201478 1824 0
60 2 S102 709 1202187 2533 0
60 2 S102 695 1202882 3228 0
60 2 S102 703 1203585 3931 0
60 2 S102 688 1204273 4619 0
60 2 S102 686 1204959 5305 0
60 2 S102 722 1205681 6027 0
60 2 S102 744 1206425 6771 0
0 0 0 764 1207189 -11795 0
0 0 0 765 1207954 -11030 0
0 0 0 745 1208699 -10285 0
0 0 0 759 1209458 -9526 0
0 0 0 751 1210209 -8775 0
0 0 0 740 1210949 -8035 0
0 0 0 727 1211676 -7308 0
0 0 0 720 1212396 -6588 0
0 0 0 698 1213094 -5890 0
0 0 0 693 1213787 -5197 0
0 0 0 685 1214472 -4512 0
0 0 0 694 1215166 -3818 0
0 0 0 719 1215885 -3099 0
0 0 0 742 1216627 -2357 0
61 1 S106 748 1217375 -1609 0
61 1 S106 753 1218128 -856 0
61 1 S106 772 1218900 -84 0
61 2 S106 777 1219677 693 0
61 2 S106 786 1220463 1479 0
61 2 S106 791 1221254 2270 0
61 2 S106 790 1222044 3060 0
61 2 S106 754 1222798 3814 0
61 2 S106 758 1223556 4572 0
61 2 S106 743 1224299 5315 0
61 2 S106 749 1225048 6064 0
61 2 S106 763 1225811 6827 0
0 0 0 759 1226570 -7468 0
0 0 0 751 1227321 -6717 0
0 0 0 770 1228091 -5947 0
0 0 0 780 1228871 -5167 0
0 0 0 795 1229666 -4372 0
0 0 0 797 1230463 -3575 0
0 0 0 758 1231221 -2817 0
0 0 0 738 1231959 -2079 0
62 1 S112 749 1232708 -1330 0
62 1 S112 737 1233445 -593 0
62 2 S112 745 1234190 152 0
62 2 S112 758 1234948 910 0
62 2 S112 766 1235714 1676 0
62 2 S112 757 1236471 2433 0
62 2 S112 778 1237249 3211 0
62 2 S112 787 1238036 3998 0
62 2 S112 798 1238834 4796 0
62 2 S112 816 1239650 5612 0
62 2 S112 795 1240445 6407 0
0 0 0 795 1241240 -13421 0
0 0 0 786 1242026 -12635 0
0 0 0 785 1242811 -11850 0
0 0 0 779 1243590 -11071 0
0 0 0 760 1244350 -10311 0
0 0 0 774 1245124 -9537 0
0 0 0 786 1245910 -8751 0
0 0 0 808 1246718 -7943 0
0 0 0 819 1247537 -7124 0
0 0 0 808 1248345 -6316 0
0 0 0 793 1249138 -5523 0
0 0 0 797 1249935 -4726 0
0 0 0 791 1250726 -3935 0
0 0 0 789 1251515 -3146 0
0 0 0 774 1252289 -2372 0
63 1 S102 778 1253067 -1594 0
63 1 S102 780 1253847 -814 0
63 1 S102 786 1254633 -28 0
63 2 S102 781 1255414 753 0
63 2 S102 780 1256194 1533 0
63 2 S102 758 1256952 2291 0
63 2 S102 773 1257725 3064 0
63 2 S102 769 1258494 3833 0
63 2 S102 795 1259289 4628 0
63 2 S102 821 1260110 5449 0
63 2 S102 813 1260923 6262 0
0 0 0 776 1261699 -9143 0
0 0 0 786 1262485 -8357 0
0 0 0 773 1263258 -7584 0
0 0 0 789 1264047 -6795 0
0 0 0 806 1264853 -5989 0
0 0 0 789 1265642 -5200 0
0 0 0 761 1266403 -4439 0
0 0 0 718 1267121 -3721 0
0 0 0 699 1267820 -3022 0
0 0 0 664 1268484 -2358 0
64 1 S112 647 1269131 -1711 0
64 1 S112 664 1269795 -1047 0
64 1 S112 661 1270456 -386 0
64 2 S112 687 1271143 301 0
64 2 S112 711 1271854 1012 0
64 2 S112 762 1272616 1774 0
64 2 S112 756 1273372 2530 0
64 2 S112 777 1274149 3307 0
64 2 S112 800 1274949 4107 0
64 2 S112 809 1275758 4916 0
64 2 S112 819 1276577 5735 0
64 2 S112 813 1277390 6548 0
0 0 0 789 1278179 -8180 0
0 0 0 740 1278919 -7440 0
0 0 0 730 1279649 -6710 0
0 0 0 690 1280339 -6020 0
0 0 0 723 1281062 -5297 0
0 0 0 771 1281833 -4526 0
0 0 0 801 1282634 -3725 0
0 0 0 797 1283431 -2928 0
0 0 0 808 1284239 -2120 0
65 1 S106 820 1285059 -1300 0
65 1 S106 837 1285896 -463 0
65 2 S106 846 1286742 383 0
65 2 S106 811 1287553 1194 0
65 2 S106 779 1288332 1973 0
65 2 S106 783 1289115 2756 0
65 2 S106 759 1289874 3515 0
65 2 S106 761 1290635 4276 0
65 2 S106 769 1291404 5045 0
65 2 S106 757 1292161 5802 0
65 2 S106 741 1292902 6543 0
0 0 0 725 1293627 -7537 0
0 0 0 753 1294380 -6784 0
0 0 0 752 1295132 -6032 0
0 0 0 788 1295920 -5244 0
0 0 0 819 1296739 -4425 0
0 0 0 802 1297541 -3623 0
0 0 0 788 1298329 -2835 0
0 0 0 788 1299117 -2047 0
66 1 S116 786 1299903 -1261 0
66 1 S116 777 1300680 -484 0
66 2 S116 766 1301446 282 0
66 2 S116 760 1302206 1042 0
66 2 S116 750 1302956 1792 0
66 2 S116 751 1303707 2543 0
66 2 S116 756 1304463 3299 0
66 2 S116 775 1305238 4074 0
66 2 S116 794 1306032 4868 0
66 2 S116 793 1306825 5661 0
66 2 S116 773 1307598 6434 0
0 0 0 789 1308387 -12190 0
0 0 0 795 1309182 -11395 0
0 0 0 813 1309995 -10582 0
0 0 0 809 1310804 -9773 0
0 0 0 801 1311605 -8972 0
0 0 0 751 1312356 -8221 0
0 0 0 750 1313106 -7471 0
0 0 0 736 1313842 -6735 0
0 0 0 747 1314589 -5988 0
0 0 0 757 1315346 -5231 0
0 0 0 770 1316116 -4461 0
0 0 0 757 1316873 -3704 0
0 0 0 775 1317648 -2929 0
0 0 0 769 1318417 -2160 0
67 1 S102 779 1319196 -1381 0
67 1 S102 792 1319988 -589 0
67 2 S102 780 1320768 191 0
67 2 S102 764 1321532 955 0
67 2 S102 774 1322306 1729 0
67 2 S102 768 1323074 2497 0
67 2 S102 777 1323851 3274 0
67 2 S102 801 1324652 4075 0
67 2 S102 788 1325440 4863 0
67 2 S102 778 1326218 5641 0
67 2 S102 797 1327015 6438 0
0 0 0 790 1327805 -6781 0
0 0 0 805 1328610 -5976 0
0 0 0 813 1329423 -5163 0
0 0 0 805 1330228 -4358 0
0 0 0 754 1330982 -3604 0
0 0 0 720 1331702 -2884 0
0 0 0 709 1332411 -2175 0
68 1 S106 706 1333117 -1469 0
68 1 S106 736 1333853 -733 0
68 2 S106 770 1334623 37 0
68 2 S106 787 1335410 824 0
68 2 S106 798 1336208 1622 0
68 2 S106 794 1337002 2416 0
68 2 S106 779 1337781 3195 0
68 2 S106 762 1338543 3957 0
68 2 S106 731 1339274 4688 0
68 2 S106 715 1339989 5403 0
68 2 S106 707 1340696 6110 0
68 2 S106 711 1341407 6821 0
0 0 0 718 1342125 -11078 0
0 0 0 705 1342830 -10373 0
0 0 0 747 1343577 -9626 0
0 0 0 763 1344340 -8863 0
0 0 0 779 1345119 -8084 0
0 0 0 788 1345907 -7296 0
0 0 0 792 1346699 -6504 0
0 0 0 769 1347468 -5735 0
0 0 0 772 1348240 -4963 0
0 0 0 756 1348996 -4207 0
0 0 0 755 1349751 -3452 0
0 0 0 760 1350511 -2692 0
69 1 S102 769 1351280 -1923 0
69 1 S102 757 1352037 -1166 0
69 1 S102 776 1352813 -390 0
69 2 S102 777 1353590 387 0
69 2 S102 792 1354382 1179 0
69 2 S102 799 1355181 1978 0
69 2 S102 803 1355984 2781 0
69 2 S102 762 1356746 3543 0
69 2 S102 752 1357498 4295 0
69 2 S102 740 1358238 5035 0
69 2 S102 735 1358973 5770 0
69 2 S102 759 1359732 6529 0
0 0 0 784 1360516 -9166 0
0 0 0 784 1361300 -8382 0
0 0 0 782 1362082 -7600 0
0 0 0 805 1362887 -6795 0
0 0 0 789 1363676 -6006 0
0 0 0 785 1364461 -5221 0
0 0 0 778 1365239 -4443 0
0 0 0 749 1365988 -3694 0
0 0 0 756 1366744 -2938 0
0 0 0 737 1367481 -2201 0
70 1 S112 739 1368220 -1462 0
70 1 S112 733 1368953 -729 0
70 2 S112 736 1369689 7 0
70 2 S112 724 1370413 731 0
70 2 S112 748 1371161 1479 0
70 2 S112 763 1371924 2242 0
70 2 S112 789 1372713 3031 0
70 2 S112 824 1373537 3855 0
70 2 S112 829 1374366 4684 0
70 2 S112 798 1375164 5482 0
70 2 S112 810 1375974 6292 0
0 0 0 802 1376776 -12137 0
0 0 0 804 1377580 -11333 0
0 0 0 796 1378376 -10537 0
0 0 0 766 1379142 -9771 0
0 0 0 749 1379891 -9022 0
0 0 0 737 1380628 -8285 0
0 0 0 715 1381343 -7570 0
0 0 0 699 1382042 -6871 0
0 0 0 667 1382709 -6204 0
0 0 0 658 1383367 -5546 0
0 0 0 675 1384042 -4871 0
0 0 0 680 1384722 -4191 0
0 0 0 721 1385443 -3470 0
0 0 0 744 1386187 -2726 0
71 1 S116 772 1386959 -1954 0
71 1 S116 796 1387755 -1158 0
71 1 S116 779 1388534 -379 0
71 2 S116 781 1389315 402 0
71 2 S116 767 1390082 1169 0
71 2 S116 761 1390843 1930 0
71 2 S116 760 1391603 2690 0
71 2 S116 753 1392356 3443 0
71 2 S116 738 1393094 4181 0
71 2 S116 744 1393838 4925 0
71 2 S116 756 1394594 5681 0
71 2 S116 770 1395364 6451 0
0 0 0 792 1396156 -9236 0
0 0 0 807 1396963 -8429 0
0 0 0 782 1397745 -7647 0
0 0 0 792 1398537 -6855 0
0 0 0 774 1399311 -6081 0
0 0 0 770 1400081 -5311 0
0 0 0 764 1400845 -4547 0
0 0 0 750 1401595 -3797 0
0 0 0 728 1402323 -3069 0
0 0 0 730 1403053 -2339 0
72 1 S102 707 1403760 -1632 0
72 1 S102 713 1404473 -919 0
72 1 S102 739 1405212 -180 0
72 2 S102 769 1405981 589 0
72 2 S102 801 1406782 1390 0
72 2 S102 783 1407565 2173 0
72 2 S102 773 1408338 2946 0
72 2 S102 801 1409139 3747 0
72 2 S102 819 1409958 4566 0
72 2 S102 856 1410814 5422 0
72 2 S102 863 1411677 6285 0
0 0 0 844 1412521 -7278 0
0 0 0 792 1413313 -6486 0
0 0 0 778 1414091 -5708 0
0 0 0 751 1414842 -4957 0
0 0 0 741 1415583 -4216 0
0 0 0 733 1416316 -3483 0
0 0 0 721 1417037 -2762 0
0 0 0 710 1417747 -2052 0
73 1 S116 693 1418440 -1359 0
73 1 S116 717 1419157 -642 0
73 2 S116 728 1419885 86 0
73 2 S116 768 1420653 854 0
73 2 S116 798 1421451 1652 0
73 2 S116 834 1422285 2486 0
73 2 S116 832 1423117 3318 0
73 2 S116 823 1423940 4141 0
73 2 S116 790 1424730 4931 0
73 2 S116 781 1425511 5712 0
73 2 S116 772 1426283 6484 0
0 0 0 771 1427054 -9340 0
0 0 0 789 1427843 -8551 0
0 0 0 798 1428641 -7753 0
0 0 0 787 1429428 -6966 0
0 0 0 757 1430185 -6209 0
0 0 0 762 1430947 -5447 0
0 0 0 749 1431696 -4698 0
0 0 0 762 1432458 -3936 0
0 0 0 778 1433236 -3158 0
0 0 0 769 1434005 -2389 0
74 1 S106 762 1434767 -1627 0
74 1 S106 767 1435534 -860 0
74 1 S106 770 1436304 -90 0
74 2 S106 772 1437076 682 0
74 2 S106 782 1437858 1464 0
74 2 S106 760 1438618 2224 0
74 2 S106 768 1439386 2992 0
74 2 S106 763 1440149 3755 0
74 2 S106 777 1440926 4532 0
74 2 S106 783 1441709 5315 0
74 2 S106 786 1442495 6101 0
74 2 S106 782 1443277 6883 0
0 0 0 764 1444041 -6809 0
0 0 0 763 1444804 -6046 0
0 0 0 759 1445563 -5287 0
0 0 0 772 1446335 -4515 0
0 0 0 783 1447118 -3732 0
0 0 0 763 1447881 -2969 0
0 0 0 733 1448614 -2236 0
75 1 S112 707 1449321 -1529 0
75 1 S112 700 1450021 -829 0
75 1 S112 719 1450740 -110 0
75 2 S112 742 1451482 632 0
75 2 S112 796 1452278 1428 0
75 2 S112 834 1453112 2262 0
75 2 S112 826 1453938 3088 0
75 2 S112 819 1454757 3907 0
75 2 S112 801 1455558 4708 0
75 2 S112 775 1456333 5483 0
75 2 S112 749 1457082 6232 0
75 2 S112 703 1457785 6935 0
0 0 0 666 1458451 -7502 0
0 0 0 680 1459131 -6822 0
0 0 0 684 1459815 -6138 0
0 0 0 725 1460540 -5413 0
0 0 0 773 1461313 -4640 0
0 0 0 799 1462112 -3841 0
0 0 0 781 1462893 -3060 0
0 0 0 787 1463680 -2273 0
76 1 S116 782 1464462 -1491 0
76 1 S116 775 1465237 -716 0
76 2 S116 785 1466022 69 0
76 2 S116 780 1466802 849 0
76 2 S116 773 1467575 1622 0
76 2 S116 772 1468347 2394 0
76 2 S116 769 1469116 3163 0
76 2 S116 756 1469872 3919 0
76 2 S116 744 1470616 4663 0
76 2 S116 762 1471378 5425 0
76 2 S116 776 1472154 6201 0
76 2 S116 802 1472956 7003 0
0 0 0 812 1473768 -7139 0
0 0 0 816 1474584 -6323 0
0 0 0 786 1475370 -5537 0
0 0 0 788 1476158 -4749 0
0 0 0 761 1476919 -3988 0
0 0 0 752 1477671 -3236 0
0 0 0 744 1478415 -2492 0
77 1 S106 730 1479145 -1762 0
77 1 S106 737 1479882 -1025 0
77 1 S106 743 1480625 -282 0
77 2 S106 757 1481382 475 0
77 2 S106 788 1482170 1263 0
77 2 S106 811 1482981 2074 0
77 2 S106 788 1483769 2862 0
77 2 S106 797 1484566 3659 0
77 2 S106 790 1485356 4449 0
77 2 S106 794 1486150 5243 0
77 2 S106 800 1486950 6043 0
77 2 S106 804 1487754 6847 0
0 0 0 774 1488528 -8510 0
0 0 0 786 1489314 -7724 0
0 0 0 766 1490080 -6958 0
0 0 0 778 1490858 -6180 0
0 0 0 783 1491641 -5397 0
0 0 0 770 1492411 -4627 0
0 0 0 777 1493188 -3850 0
0 0 0 779 1493967 -3071 0
0 0 0 790 1494757 -2281 0
78 1 S112 797 1495554 -1484 0
78 1 S112 786 1496340 -698 0
78 2 S112 752 1497092 54 0
78 2 S112 739 1497831 793 0
78 2 S112 745 1498576 1538 0
78 2 S112 746 1499322 2284 0
78 2 S112 770 1500092 3054 0
78 2 S112 798 1500890 3852 0
78 2 S112 794 1501684 4646 0
78 2 S112 774 1502458 5420 0
78 2 S112 782 1503240 6202 0
78 2 S112 770 1504010 6972 0
0 0 0 776 1504786 -11251 0
0 0 0 794 1505580 -10457 0
0 0 0 802 1506382 -9655 0
0 0 0 797 1507179 -8858 0
0 0 0 763 1507942 -8095 0
0 0 0 762 1508704 -7333 0
0 0 0 739 1509443 -6594 0
0 0 0 730 1510173 -5864 0
0 0 0 699 1510872 -5165 0
0 0 0 650 1511522 -4515 0
0 0 0 634 1512156 -3881 1
0 0 0 627 1512783 -3254 1
0 0 0 631 1513414 -2623 1
79 1 S102 629 1514043 -1994 1
79 1 S102 634 1514677 -1360 1
79 1 S102 640 1515317 -720 0
79 1 S102 711 1516028 -9 0
79 2 S102 730 1516758 721 0
79 2 S102 750 1517508 1471 0
79 2 S102 746 1518254 2217 0
79 2 S102 750 1519004 2967 0
79 2 S102 747 1519751 3714 0
79 2 S102 703 1520454 4417 0
79 2 S102 679 1521133 5096 0
79 2 S102 662 1521795 5758 0
79 2 S102 651 1522446 6409 0
0 0 0 640 1523086 -9247 0
0 0 0 638 1523724 -8609 0
0 0 0 633 1524357 -7976 1
0 0 0 643 1525000 -7333 0
0 0 0 673 1525673 -6660 0
0 0 0 688 1526361 -5972 0
0 0 0 683 1527044 -5289 0
0 0 0 704 1527748 -4585 0
0 0 0 691 1528439 -3894 0
0 0 0 657 1529096 -3237 0
0 0 0 645 1529741 -2592 0
80 1 S116 668 1530409 -1924 0
80 1 S116 728 1531137 -1196 0
80 1 S116 753 1531890 -443 0
80 2 S116 745 1532635 302 0
80 2 S116 772 1533407 1074 0
80 2 S116 788 1534195 1862 0
80 2 S116 799 1534994 2661 0
80 2 S116 819 1535813 3480 0
80 2 S116 804 1536617 4284 0
80 2 S116 771 1537388 5055 0
80 2 S116 772 1538160 5827 0
80 2 S116 767 1538927 6594 0
