T_0187
BeatCount Mean SD BeatCountNoOutliers MeanNoOutliers SDNoOutliers
2011 771,090999502735 56,5725719238142 1996 770,753507014028 49,6835301586511

Trial TrialStatus Trialtype IBI AbsPosition RelPosition Outlier
0 0 0 827 1118 -14745 0
0 0 0 791 1909 -13954 0
0 0 0 753 2662 -13201 0
0 0 0 734 3396 -12467 0
0 0 0 718 4114 -11749 0
0 0 0 715 4829 -11034 0
0 0 0 673 5502 -10361 0
0 0 0 713 6215 -9648 0
0 0 0 713 6928 -8935 0
0 0 0 733 7661 -8202 0
0 0 0 753 8414 -7449 0
0 0 0 768 9182 -6681 0
0 0 0 771 9953 -5910 0
0 0 0 766 10719 -5144 0
0 0 0 773 11492 -4371 0
0 0 0 782 12274 -3589 0
0 0 0 793 13067 -2796 0
1 1 S112 804 13871 -1992 0
1 1 S112 794 14665 -1198 0
1 1 S112 783 15448 -415 0
1 2 S112 763 16211 348 0
1 2 S112 775 16986 1123 0
1 2 S112 788 17774 1911 0
1 2 S112 792 18566 2703 0
1 2 S112 804 19370 3507 0
1 2 S112 808 20178 4315 0
1 2 S112 789 20967 5104 0
1 2 S112 792 21759 5896 0
1 2 S112 793 22552 6689 0
0 0 0 794 23346 -12129 0
0 0 0 809 24155 -11320 0
0 0 0 803 24958 -10517 0
0 0 0 775 25733 -9742 0
0 0 0 782 26515 -8960 0
0 0 0 767 27282 -8193 0
0 0 0 759 28041 -7434 0
0 0 0 757 28798 -6677 0
0 0 0 758 29556 -5919 0
0 0 0 739 30295 -5180 0
0 0 0 716 31011 -4464 0
0 0 0 718 31729 -3746 0
0 0 0 717 32446 -3029 0
0 0 0 726 33172 -2303 0
2 1 S102 737 33909 -1566 0
2 1 S102 705 34614 -861 0
2 1 S102 719 35333 -142 0
2 2 S102 729 36062 587 0
2 2 S102 750 36812 1337 0
2 2 S102 775 37587 2112 0
2 2 S102 799 38386 2911 0
2 2 S102 806 39192 3717 0
2 2 S102 798 39990 4515 0
2 2 S102 778 40768 5293 0
2 2 S102 773 41541 6066 0
2 2 S102 776 42317 6842 0
0 0 0 787 43104 -10193 0
0 0 0 788 43892 -9405 0
0 0 0 781 44673 -8624 0
0 0 0 762 45435 -7862 0
0 0 0 748 46183 -7114 0
0 0 0 747 46930 -6367 0
0 0 0 737 47667 -5630 0
0 0 0 741 48408 -4889 0
0 0 0 729 49137 -4160 0
0 0 0 695 49832 -3465 0
0 0 0 693 50525 -2772 0
0 0 0 688 51213 -2084 0
3 1 S116 700 51913 -1384 0
3 1 S116 719 52632 -665 0
3 2 S116 740 53372 75 0
3 2 S116 745 54117 820 0
3 2 S116 737 54854 1557 0
3 2 S116 753 55607 2310 0
3 2 S116 752 56359 3062 0
3 2 S116 772 57131 3834 0
3 2 S116 781 57912 4615 0
3 2 S116 788 58700 5403 0
3 2 S116 760 59460 6163 0
3 2 S116 765 60225 6928 0
0 0 0 760 60985 -12405 0
0 0 0 770 61755 -11635 0
0 0 0 771 62526 -10864 0
0 0 0 741 63267 -10123 0
0 0 0 755 64022 -9368 0
0 0 0 750 64772 -8618 0
0 0 0 749 65521 -7869 0
0 0 0 706 66227 -7163 0
0 0 0 681 66908 -6482 0
0 0 0 669 67577 -5813 0
0 0 0 654 68231 -5159 0
0 0 0 680 68911 -4479 0
0 0 0 692 69603 -3787 0
0 0 0 720 70323 -3067 0
0 0 0 745 71068 -2322 0
4 1 S106 766 71834 -1556 0
4 1 S106 750 72584 -806 0
4 1 S106 758 73342 -48 0
4 2 S106 755 74097 707 0
4 2 S106 768 74865 1475 0
4 2 S106 778 75643 2253 0
4 2 S106 782 76425 3035 0
4 2 S106 750 77175 3785 0
4 2 S106 754 77929 4539 0
4 2 S106 746 78675 5285 0
4 2 S106 751 79426 6036 0
4 2 S106 760 80186 6796 0
0 0 0 763 80949 -7809 0
0 0 0 728 81677 -7081 0
0 0 0 745 82422 -6336 0
0 0 0 748 83170 -5588 0
0 0 0 768 83938 -4820 0
0 0 0 782 84720 -4038 0
0 0 0 770 85490 -3268 0
0 0 0 716 86206 -2552 0
5 1 S116 710 86916 -1842 0
5 1 S116 690 87606 -1152 0
5 1 S116 692 88298 -460 0
5 2 S116 717 89015 257 0
5 2 S116 730 89745 987 0
5 2 S116 717 90462 1704 0
5 2 S116 735 91197 2439 0
5 2 S116 743 91940 3182 0
5 2 S116 773 92713 3955 0
5 2 S116 795 93508 4750 0
5 2 S116 784 94292 5534 0
5 2 S116 776 95068 6310 0
0 0 0 777 95845 -10602 0
0 0 0 793 96638 -9809 0
0 0 0 812 97450 -8997 0
0 0 0 817 98267 -8180 0
0 0 0 792 99059 -7388 0
0 0 0 779 99838 -6609 0
0 0 0 755 100593 -5854 0
0 0 0 755 101348 -5099 0
0 0 0 754 102102 -4345 0
0 0 0 759 102861 -3586 0
0 0 0 728 103589 -2858 0
0 0 0 739 104328 -2119 0
6 1 S106 732 105060 -1387 0
6 1 S106 746 105806 -641 0
6 2 S106 707 106513 66 0
6 2 S106 762 107275 828 0
6 2 S106 786 108061 1614 0
6 2 S106 854 108915 2468 0
6 2 S106 864 109779 3332 0
6 2 S106 871 110650 4203 0
6 2 S106 854 111504 5057 0
6 2 S106 840 112344 5897 0
6 2 S106 823 113167 6720 0
0 0 0 807 113974 -11025 0
0 0 0 803 114777 -10222 0
0 0 0 795 115572 -9427 0
0 0 0 760 116332 -8667 0
0 0 0 755 117087 -7912 0
0 0 0 744 117831 -7168 0
0 0 0 751 118582 -6417 0
0 0 0 764 119346 -5653 0
0 0 0 767 120113 -4886 0
0 0 0 746 120859 -4140 0
0 0 0 757 121616 -3383 0
0 0 0 752 122368 -2631 0
7 1 S102 765 123133 -1866 0
7 1 S102 791 123924 -1075 0
7 1 S102 801 124725 -274 0
7 2 S102 772 125497 498 0
7 2 S102 767 126264 1265 0
7 2 S102 760 127024 2025 0
7 2 S102 778 127802 2803 0
7 2 S102 797 128599 3600 0
7 2 S102 817 129416 4417 0
7 2 S102 822 130238 5239 0
7 2 S102 806 131044 6045 0
7 2 S102 797 131841 6842 0
0 0 0 777 132618 -9722 0
0 0 0 764 133382 -8958 0
0 0 0 768 134150 -8190 0
0 0 0 781 134931 -7409 0
0 0 0 779 135710 -6630 0
0 0 0 747 136457 -5883 0
0 0 0 743 137200 -5140 0
0 0 0 725 137925 -4415 0
0 0 0 740 138665 -3675 0
0 0 0 773 139438 -2902 0
0 0 0 794 140232 -2108 0
8 1 S112 780 141012 -1328 0
8 1 S112 789 141801 -539 0
8 2 S112 804 142605 265 0
8 2 S112 815 143420 1080 0
8 2 S112 835 144255 1915 0
8 2 S112 835 145090 2750 0
8 2 S112 827 145917 3577 0
8 2 S112 795 146712 4372 0
8 2 S112 792 147504 5164 0
8 2 S112 782 148286 5946 0
8 2 S112 779 149065 6725 0
0 0 0 776 149841 -9094 0
0 0 0 771 150612 -8323 0
0 0 0 733 151345 -7590 0
0 0 0 739 152084 -6851 0
0 0 0 732 152816 -6119 0
0 0 0 743 153559 -5376 0
0 0 0 760 154319 -4616 0
0 0 0 721 155040 -3895 0
0 0 0 734 155774 -3161 0
0 0 0 733 156507 -2428 0
9 1 S116 745 157252 -1683 0
9 1 S116 758 158010 -925 0
9 1 S116 739 158749 -186 0
9 2 S116 758 159507 572 0
9 2 S116 767 160274 1339 0
9 2 S116 778 161052 2117 0
9 2 S116 778 161830 2895 0
9 2 S116 768 162598 3663 0
9 2 S116 731 163329 4394 0
9 2 S116 732 164061 5126 0
9 2 S116 726 164787 5852 0
9 2 S116 742 165529 6594 0
0 0 0 752 166281 -11056 0
0 0 0 748 167029 -10308 0
0 0 0 712 167741 -9596 0
0 0 0 718 168459 -8878 0
0 0 0 710 169169 -8168 0
0 0 0 715 169884 -7453 0
0 0 0 719 170603 -6734 0
0 0 0 668 171271 -6066 0
0 0 0 694 171965 -5372 0
0 0 0 705 172670 -4667 0
0 0 0 744 173414 -3923 0
0 0 0 797 174211 -3126 0
0 0 0 835 175046 -2291 0
10 1 S102 812 175858 -1479 0
10 1 S102 819 176677 -660 0
10 2 S102 812 177489 152 0
10 2 S102 817 178306 969 0
10 2 S102 807 179113 1776 0
10 2 S102 808 179921 2584 0
10 2 S102 809 180730 3393 0
10 2 S102 812 181542 4205 0
10 2 S102 816 182358 5021 0
10 2 S102 792 183150 5813 0
10 2 S102 785 183935 6598 0
0 0 0 780 184715 -11156 0
0 0 0 790 185505 -10366 0
0 0 0 805 186310 -9561 0
0 0 0 799 187109 -8762 0
0 0 0 776 187885 -7986 0
0 0 0 757 188642 -7229 0
0 0 0 749 189391 -6480 0
0 0 0 758 190149 -5722 0
0 0 0 777 190926 -4945 0
0 0 0 771 191697 -4174 0
0 0 0 732 192429 -3442 0
0 0 0 746 193175 -2696 0
11 1 S112 757 193932 -1939 0
11 1 S112 788 194720 -1151 0
11 1 S112 811 195531 -340 0
11 2 S112 778 196309 438 0
11 2 S112 810 197119 1248 0
11 2 S112 812 197931 2060 0
11 2 S112 824 198755 2884 0
11 2 S112 836 199591 3720 0
11 2 S112 844 200435 4564 0
11 2 S112 819 201254 5383 0
11 2 S112 816 202070 6199 0
11 2 S112 817 202887 7016 0
0 0 0 826 203713 -6963 0
0 0 0 838 204551 -6125 0
0 0 0 826 205377 -5299 0
0 0 0 790 206167 -4509 0
0 0 0 785 206952 -3724 0
0 0 0 771 207723 -2953 0
0 0 0 778 208501 -2175 0
12 1 S116 789 209290 -1386 0
12 1 S116 745 210035 -641 0
12 2 S116 759 210794 118 0
12 2 S116 762 211556 880 0
12 2 S116 791 212347 1671 0
12 2 S116 834 213181 2505 0
12 2 S116 847 214028 3352 0
12 2 S116 844 214872 4196 0
12 2 S116 816 215688 5012 0
12 2 S116 809 216497 5821 0
12 2 S116 812 217309 6633 0
0 0 0 824 218133 -10796 0
0 0 0 825 218958 -9971 0
0 0 0 823 219781 -9148 0
0 0 0 775 220556 -8373 0
0 0 0 759 221315 -7614 0
0 0 0 751 222066 -6863 0
0 0 0 771 222837 -6092 0
0 0 0 791 223628 -5301 0
0 0 0 770 224398 -4531 0
0 0 0 739 225137 -3792 0
0 0 0 759 225896 -3033 0
0 0 0 766 226662 -2267 0
13 1 S112 735 227397 -1532 0
13 1 S112 791 228188 -741 0
13 2 S112 828 229016 87 0
13 2 S112 867 229883 954 0
13 2 S112 880 230763 1834 0
13 2 S112 882 231645 2716 0
13 2 S112 849 232494 3565 0
13 2 S112 807 233301 4372 0
13 2 S112 795 234096 5167 0
13 2 S112 785 234881 5952 0
13 2 S112 793 235674 6745 0
0 0 0 806 236480 -11431 0
0 0 0 803 237283 -10628 0
0 0 0 770 238053 -9858 0
0 0 0 755 238808 -9103 0
0 0 0 745 239553 -8358 0
0 0 0 744 240297 -7614 0
0 0 0 766 241063 -6848 0
0 0 0 769 241832 -6079 0
0 0 0 737 242569 -5342 0
0 0 0 770 243339 -4572 0
0 0 0 777 244116 -3795 0
0 0 0 807 244923 -2988 0
0 0 0 826 245749 -2162 0
14 1 S106 832 246581 -1330 0
14 1 S106 791 247372 -539 0
14 2 S106 781 248153 242 0
14 2 S106 768 248921 1010 0
14 2 S106 787 249708 1797 0
14 2 S106 802 250510 2599 0
14 2 S106 790 251300 3389 0
14 2 S106 756 252056 4145 0
14 2 S106 773 252829 4918 0
14 2 S106 778 253607 5696 0
14 2 S106 795 254402 6491 0
0 0 0 806 255208 -11917 0
0 0 0 781 255989 -11136 0
0 0 0 754 256743 -10382 0
0 0 0 749 257492 -9633 0
0 0 0 762 258254 -8871 0
0 0 0 772 259026 -8099 0
0 0 0 765 259791 -7334 0
0 0 0 746 260537 -6588 0
0 0 0 715 261252 -5873 0
0 0 0 683 261935 -5190 0
0 0 0 672 262607 -4518 0
0 0 0 699 263306 -3819 0
0 0 0 783 264089 -3036 0
0 0 0 898 264987 -2138 0
15 1 S116 913 265900 -1225 0
15 1 S116 930 266830 -295 1
15 2 S116 920 267750 625 1
15 2 S116 904 268654 1529 0
15 2 S116 881 269535 2410 0
15 2 S116 842 270377 3252 0
15 2 S116 810 271187 4062 0
15 2 S116 771 271958 4833 0
15 2 S116 727 272685 5560 0
15 2 S116 725 273410 6285 0
15 2 S116 716 274126 7001 0
0 0 0 724 274850 -9086 0
0 0 0 736 275586 -8350 0
0 0 0 739 276325 -7611 0
0 0 0 743 277068 -6868 0
0 0 0 729 277797 -6139 0
0 0 0 720 278517 -5419 0
0 0 0 720 279237 -4699 0
0 0 0 713 279950 -3986 0
0 0 0 721 280671 -3265 0
0 0 0 712 281383 -2553 0
16 1 S116 703 282086 -1850 0
16 1 S116 751 282837 -1099 0
16 1 S116 770 283607 -329 0
16 2 S116 805 284412 476 0
16 2 S116 814 285226 1290 0
16 2 S116 813 286039 2103 0
16 2 S116 796 286835 2899 0
16 2 S116 762 287597 3661 0
16 2 S116 753 288350 4414 0
16 2 S116 739 289089 5153 0
16 2 S116 742 289831 5895 0
16 2 S116 754 290585 6649 0
0 0 0 753 291338 -8695 0
0 0 0 715 292053 -7980 0
0 0 0 731 292784 -7249 0
0 0 0 730 293514 -6519 0
0 0 0 726 294240 -5793 0
0 0 0 726 294966 -5067 0
0 0 0 720 295686 -4347 0
0 0 0 685 296371 -3662 0
0 0 0 701 297072 -2961 0
0 0 0 698 297770 -2263 0
17 1 S106 712 298482 -1551 0
17 1 S106 716 299198 -835 0
17 1 S106 700 299898 -135 0
17 2 S106 725 300623 590 0
17 2 S106 742 301365 1332 0
17 2 S106 760 302125 2092 0
17 2 S106 778 302903 2870 0
17 2 S106 777 303680 3647 0
17 2 S106 745 304425 4392 0
17 2 S106 729 305154 5121 0
17 2 S106 720 305874 5841 0
17 2 S106 720 306594 6561 0
0 0 0 731 307325 -10978 0
0 0 0 746 308071 -10232 0
0 0 0 748 308819 -9484 0
0 0 0 725 309544 -8759 0
0 0 0 705 310249 -8054 0
0 0 0 703 310952 -7351 0
0 0 0 703 311655 -6648 0
0 0 0 714 312369 -5934 0
0 0 0 719 313088 -5215 0
0 0 0 716 313804 -4499 0
0 0 0 663 314467 -3836 0
0 0 0 678 315145 -3158 0
0 0 0 686 315831 -2472 0
18 1 S102 692 316523 -1780 0
18 1 S102 728 317251 -1052 0
18 1 S102 734 317985 -318 0
18 2 S102 734 318719 416 0
18 2 S102 766 319485 1182 0
18 2 S102 778 320263 1960 0
18 2 S102 790 321053 2750 0
18 2 S102 798 321851 3548 0
18 2 S102 790 322641 4338 0
18 2 S102 770 323411 5108 0
18 2 S102 731 324142 5839 0
18 2 S102 727 324869 6566 0
0 0 0 717 325586 -7223 0
0 0 0 721 326307 -6502 0
0 0 0 731 327038 -5771 0
0 0 0 733 327771 -5038 0
0 0 0 730 328501 -4308 0
0 0 0 711 329212 -3597 0
0 0 0 713 329925 -2884 0
0 0 0 712 330637 -2172 0
19 1 S106 728 331365 -1444 0
19 1 S106 760 332125 -684 0
19 2 S106 807 332932 123 0
19 2 S106 824 333756 947 0
19 2 S106 808 334564 1755 0
19 2 S106 754 335318 2509 0
19 2 S106 746 336064 3255 0
19 2 S106 749 336813 4004 0
19 2 S106 767 337580 4771 0
19 2 S106 774 338354 5545 0
19 2 S106 755 339109 6300 0
0 0 0 752 339861 -11018 0
0 0 0 751 340612 -10267 0
0 0 0 763 341375 -9504 0
0 0 0 774 342149 -8730 0
0 0 0 781 342930 -7949 0
0 0 0 745 343675 -7204 0
0 0 0 746 344421 -6458 0
0 0 0 731 345152 -5727 0
0 0 0 732 345884 -4995 0
0 0 0 750 346634 -4245 0
0 0 0 741 347375 -3504 0
0 0 0 745 348120 -2759 0
0 0 0 745 348865 -2014 0
20 1 S112 752 349617 -1262 0
20 1 S112 751 350368 -511 0
20 2 S112 744 351112 233 0
20 2 S112 703 351815 936 0
20 2 S112 720 352535 1656 0
20 2 S112 718 353253 2374 0
20 2 S112 725 353978 3099 0
20 2 S112 747 354725 3846 0
20 2 S112 754 355479 4600 0
20 2 S112 752 356231 5352 0
20 2 S112 724 356955 6076 0
20 2 S112 725 357680 6801 0
0 0 0 715 358395 -10091 0
0 0 0 727 359122 -9364 0
0 0 0 743 359865 -8621 0
0 0 0 748 360613 -7873 0
0 0 0 738 361351 -7135 0
0 0 0 704 362055 -6431 0
0 0 0 709 362764 -5722 0
0 0 0 708 363472 -5014 0
0 0 0 720 364192 -4294 0
0 0 0 737 364929 -3557 0
0 0 0 737 365666 -2820 0
0 0 0 711 366377 -2109 0
21 1 S106 723 367100 -1386 0
21 1 S106 722 367822 -664 0
21 2 S106 744 368566 80 0
21 2 S106 759 369325 839 0
21 2 S106 774 370099 1613 0
21 2 S106 774 370873 2387 0
21 2 S106 753 371626 3140 0
21 2 S106 725 372351 3865 0
21 2 S106 729 373080 4594 0
21 2 S106 740 373820 5334 0
21 2 S106 761 374581 6095 0
21 2 S106 768 375349 6863 0
0 0 0 733 376082 -10242 0
0 0 0 755 376837 -9487 0
0 0 0 768 377605 -8719 0
0 0 0 776 378381 -7943 0
0 0 0 778 379159 -7165 0
0 0 0 730 379889 -6435 0
0 0 0 731 380620 -5704 0
0 0 0 733 381353 -4971 0
0 0 0 753 382106 -4218 0
0 0 0 754 382860 -3464 0
0 0 0 729 383589 -2735 0
0 0 0 733 384322 -2002 0
22 1 S116 728 385050 -1274 0
22 1 S116 737 385787 -537 0
22 2 S116 752 386539 215 0
22 2 S116 767 387306 982 0
22 2 S116 768 388074 1750 0
22 2 S116 757 388831 2507 0
22 2 S116 731 389562 3238 0
22 2 S116 727 390289 3965 0
22 2 S116 730 391019 4695 0
22 2 S116 748 391767 5443 0
22 2 S116 774 392541 6217 0
22 2 S116 781 393322 6998 0
0 0 0 762 394084 -9797 0
0 0 0 768 394852 -9029 0
0 0 0 750 395602 -8279 0
0 0 0 757 396359 -7522 0
0 0 0 766 397125 -6756 0
0 0 0 744 397869 -6012 0
0 0 0 719 398588 -5293 0
0 0 0 718 399306 -4575 0
0 0 0 712 400018 -3863 0
0 0 0 700 400718 -3163 0
0 0 0 684 401402 -2479 0
23 1 S112 661 402063 -1818 0
23 1 S112 622 402685 -1196 1
23 1 S112 650 403335 -546 0
23 2 S112 657 403992 111 0
23 2 S112 685 404677 796 0
23 2 S112 713 405390 1509 0
23 2 S112 752 406142 2261 0
23 2 S112 762 406904 3023 0
23 2 S112 738 407642 3761 0
23 2 S112 755 408397 4516 0
23 2 S112 747 409144 5263 0
23 2 S112 756 409900 6019 0
23 2 S112 775 410675 6794 0
0 0 0 784 411459 -9365 0
0 0 0 763 412222 -8602 0
0 0 0 765 412987 -7837 0
0 0 0 758 413745 -7079 0
0 0 0 767 414512 -6312 0
0 0 0 777 415289 -5535 0
0 0 0 756 416045 -4779 0
0 0 0 749 416794 -4030 0
0 0 0 757 417551 -3273 0
0 0 0 783 418334 -2490 0
24 1 S106 806 419140 -1684 0
24 1 S106 807 419947 -877 0
24 1 S106 760 420707 -117 0
24 2 S106 764 421471 647 0
24 2 S106 777 422248 1424 0
24 2 S106 807 423055 2231 0
24 2 S106 809 423864 3040 0
24 2 S106 804 424668 3844 0
24 2 S106 772 425440 4616 0
24 2 S106 758 426198 5374 0
24 2 S106 751 426949 6125 0
24 2 S106 772 427721 6897 0
0 0 0 803 428524 -8414 0
0 0 0 803 429327 -7611 0
0 0 0 801 430128 -6810 0
0 0 0 764 430892 -6046 0
0 0 0 742 431634 -5304 0
0 0 0 740 432374 -4564 0
0 0 0 749 433123 -3815 0
0 0 0 763 433886 -3052 0
0 0 0 753 434639 -2299 0
25 1 S102 729 435368 -1570 0
25 1 S102 740 436108 -830 0
25 1 S102 743 436851 -87 0
25 2 S102 766 437617 679 0
25 2 S102 793 438410 1472 0
25 2 S102 800 439210 2272 0
25 2 S102 787 439997 3059 0
25 2 S102 766 440763 3825 0
25 2 S102 762 441525 4587 0
25 2 S102 761 442286 5348 0
25 2 S102 779 443065 6127 0
25 2 S102 791 443856 6918 0
0 0 0 786 444642 -6769 0
0 0 0 755 445397 -6014 0
0 0 0 757 446154 -5257 0
0 0 0 760 446914 -4497 0
0 0 0 771 447685 -3726 0
0 0 0 779 448464 -2947 0
0 0 0 724 449188 -2223 0
26 1 S116 738 449926 -1485 0
26 1 S116 729 450655 -756 0
26 1 S116 735 451390 -21 0
26 2 S116 736 452126 715 0
26 2 S116 727 452853 1442 0
26 2 S116 762 453615 2204 0
26 2 S116 780 454395 2984 0
26 2 S116 803 455198 3787 0
26 2 S116 810 456008 4597 0
26 2 S116 790 456798 5387 0
26 2 S116 782 457580 6169 0
26 2 S116 763 458343 6932 0
0 0 0 767 459110 -7089 0
0 0 0 777 459887 -6312 0
0 0 0 773 460660 -5539 0
0 0 0 752 461412 -4787 0
0 0 0 723 462135 -4064 0
0 0 0 715 462850 -3349 0
0 0 0 710 463560 -2639 0
27 1 S106 724 464284 -1915 0
27 1 S106 743 465027 -1172 0
27 1 S106 742 465769 -430 0
27 2 S106 736 466505 306 0
27 2 S106 743 467248 1049 0
27 2 S106 741 467989 1790 0
27 2 S106 736 468725 2526 0
27 2 S106 749 469474 3275 0
27 2 S106 766 470240 4041 0
27 2 S106 775 471015 4816 0
27 2 S106 767 471782 5583 0
27 2 S106 744 472526 6327 0
0 0 0 751 473277 -8406 0
0 0 0 759 474036 -7647 0
0 0 0 773 474809 -6874 0
0 0 0 779 475588 -6095 0
0 0 0 783 476371 -5312 0
0 0 0 742 477113 -4570 0
0 0 0 737 477850 -3833 0
0 0 0 728 478578 -3105 0
0 0 0 743 479321 -2362 0
28 1 S102 752 480073 -1610 0
28 1 S102 725 480798 -885 0
28 1 S102 684 481482 -201 0
28 2 S102 707 482189 506 0
28 2 S102 710 482899 1216 0
28 2 S102 753 483652 1969 0
28 2 S102 807 484459 2776 0
28 2 S102 811 485270 3587 0
28 2 S102 807 486077 4394 0
28 2 S102 779 486856 5173 0
28 2 S102 767 487623 5940 0
28 2 S102 765 488388 6705 0
0 0 0 769 489157 -10414 0
0 0 0 779 489936 -9635 0
0 0 0 750 490686 -8885 0
0 0 0 731 491417 -8154 0
0 0 0 720 492137 -7434 0
0 0 0 714 492851 -6720 0
0 0 0 730 493581 -5990 0
0 0 0 717 494298 -5273 0
0 0 0 744 495042 -4529 0
0 0 0 795 495837 -3734 0
0 0 0 825 496662 -2909 0
0 0 0 845 497507 -2064 0
29 1 S112 827 498334 -1237 0
29 1 S112 790 499124 -447 0
29 2 S112 786 499910 339 0
29 2 S112 773 500683 1112 0
29 2 S112 778 501461 1890 0
29 2 S112 779 502240 2669 0
29 2 S112 775 503015 3444 0
29 2 S112 754 503769 4198 0
29 2 S112 773 504542 4971 0
29 2 S112 776 505318 5747 0
29 2 S112 796 506114 6543 0
0 0 0 820 506934 -7160 0
0 0 0 838 507772 -6322 0
0 0 0 813 508585 -5509 0
0 0 0 793 509378 -4716 0
0 0 0 781 510159 -3935 0
0 0 0 786 510945 -3149 0
0 0 0 793 511738 -2356 0
30 1 S112 796 512534 -1560 0
30 1 S112 762 513296 -798 0
30 1 S112 746 514042 -52 0
30 2 S112 768 514810 716 0
30 2 S112 787 515597 1503 0
30 2 S112 814 516411 2317 0
30 2 S112 817 517228 3134 0
30 2 S112 819 518047 3953 0
30 2 S112 794 518841 4747 0
30 2 S112 793 519634 5540 0
30 2 S112 792 520426 6332 0
0 0 0 793 521219 -9370 0
0 0 0 807 522026 -8563 0
0 0 0 805 522831 -7758 0
0 0 0 779 523610 -6979 0
0 0 0 723 524333 -6256 0
0 0 0 684 525017 -5572 0
0 0 0 670 525687 -4902 0
0 0 0 718 526405 -4184 0
0 0 0 767 527172 -3417 0
0 0 0 850 528022 -2567 0
31 1 S106 872 528894 -1695 0
31 1 S106 899 529793 -796 0
31 2 S106 894 530687 98 0
31 2 S106 884 531571 982 0
31 2 S106 869 532440 1851 0
31 2 S106 842 533282 2693 0
31 2 S106 810 534092 3503 0
31 2 S106 773 534865 4276 0
31 2 S106 761 535626 5037 0
31 2 S106 751 536377 5788 0
31 2 S106 761 537138 6549 0
0 0 0 770 537908 -9707 0
0 0 0 772 538680 -8935 0
0 0 0 768 539448 -8167 0
0 0 0 766 540214 -7401 0
0 0 0 740 540954 -6661 0
0 0 0 741 541695 -5920 0
0 0 0 733 542428 -5187 0
0 0 0 724 543152 -4463 0
0 0 0 744 543896 -3719 0
0 0 0 722 544618 -2997 0
0 0 0 781 545399 -2216 0
32 1 S102 809 546208 -1407 0
32 1 S102 839 547047 -568 0
32 2 S102 846 547893 278 0
32 2 S102 844 548737 1122 0
32 2 S102 817 549554 1939 0
32 2 S102 792 550346 2731 0
32 2 S102 780 551126 3511 0
32 2 S102 784 551910 4295 0
32 2 S102 808 552718 5103 0
32 2 S102 818 553536 5921 0
32 2 S102 817 554353 6738 0
0 0 0 804 555157 -12220 0
0 0 0 765 555922 -11455 0
0 0 0 768 556690 -10687 0
0 0 0 759 557449 -9928 0
0 0 0 777 558226 -9151 0
0 0 0 788 559014 -8363 0
0 0 0 759 559773 -7604 0
0 0 0 719 560492 -6885 0
0 0 0 737 561229 -6148 0
0 0 0 740 561969 -5408 0
0 0 0 753 562722 -4655 0
0 0 0 738 563460 -3917 0
0 0 0 712 564172 -3205 0
0 0 0 739 564911 -2466 0
33 1 S112 756 565667 -1710 0
33 1 S112 777 566444 -933 0
33 1 S112 774 567218 -159 0
33 2 S112 752 567970 593 0
33 2 S112 748 568718 1341 0
33 2 S112 746 569464 2087 0
33 2 S112 745 570209 2832 0
33 2 S112 748 570957 3580 0
33 2 S112 745 571702 4325 0
33 2 S112 734 572436 5059 0
33 2 S112 736 573172 5795 0
33 2 S112 713 573885 6508 0
0 0 0 690 574575 -10872 0
0 0 0 706 575281 -10166 0
0 0 0 716 575997 -9450 0
0 0 0 780 576777 -8670 0
0 0 0 839 577616 -7831 0
0 0 0 857 578473 -6974 0
0 0 0 831 579304 -6143 0
0 0 0 832 580136 -5311 0
0 0 0 842 580978 -4469 0
0 0 0 838 581816 -3631 0
0 0 0 832 582648 -2799 0
34 1 S106 818 583466 -1981 0
34 1 S106 778 584244 -1203 0
34 1 S106 801 585045 -402 0
34 2 S106 799 585844 397 0
34 2 S106 829 586673 1226 0
34 2 S106 857 587530 2083 0
34 2 S106 850 588380 2933 0
34 2 S106 829 589209 3762 0
34 2 S106 792 590001 4554 0
34 2 S106 769 590770 5323 0
34 2 S106 758 591528 6081 0
34 2 S106 770 592298 6851 0
0 0 0 798 593096 -9444 0
0 0 0 819 593915 -8625 0
0 0 0 813 594728 -7812 0
0 0 0 779 595507 -7033 0
0 0 0 775 596282 -6258 0
0 0 0 763 597045 -5495 0
0 0 0 768 597813 -4727 0
0 0 0 766 598579 -3961 0
0 0 0 760 599339 -3201 0
0 0 0 743 600082 -2458 0
35 1 S102 755 600837 -1703 0
35 1 S102 760 601597 -943 0
35 1 S102 773 602370 -170 0
35 2 S102 788 603158 618 0
35 2 S102 802 603960 1420 0
35 2 S102 788 604748 2208 0
35 2 S102 744 605492 2952 0
35 2 S102 745 606237 3697 0
35 2 S102 736 606973 4433 0
35 2 S102 747 607720 5180 0
35 2 S102 787 608507 5967 0
35 2 S102 819 609326 6786 0
0 0 0 831 610157 -7154 0
0 0 0 795 610952 -6359 0
0 0 0 789 611741 -5570 0
0 0 0 769 612510 -4801 0
0 0 0 747 613257 -4054 0
0 0 0 713 613970 -3341 0
0 0 0 675 614645 -2666 0
0 0 0 644 615289 -2022 0
36 1 S106 661 615950 -1361 0
36 1 S106 665 616615 -696 0
36 1 S106 684 617299 -12 0
36 2 S106 701 618000 689 0
36 2 S106 693 618693 1382 0
36 2 S106 741 619434 2123 0
36 2 S106 753 620187 2876 0
36 2 S106 768 620955 3644 0
36 2 S106 774 621729 4418 0
36 2 S106 785 622514 5203 0
36 2 S106 747 623261 5950 0
36 2 S106 758 624019 6708 0
0 0 0 741 624760 -10190 0
0 0 0 750 625510 -9440 0
0 0 0 761 626271 -8679 0
0 0 0 756 627027 -7923 0
0 0 0 702 627729 -7221 0
0 0 0 725 628454 -6496 0
0 0 0 725 629179 -5771 0
0 0 0 741 629920 -5030 0
0 0 0 760 630680 -4270 0
0 0 0 726 631406 -3544 0
0 0 0 756 632162 -2788 0
0 0 0 774 632936 -2014 0
37 1 S116 817 633753 -1197 0
37 1 S116 853 634606 -344 0
37 2 S116 825 635431 481 0
37 2 S116 805 636236 1286 0
37 2 S116 817 637053 2103 0
37 2 S116 813 637866 2916 0
37 2 S116 828 638694 3744 0
37 2 S116 832 639526 4576 0
37 2 S116 808 640334 5384 0
37 2 S116 770 641104 6154 0
37 2 S116 779 641883 6933 0
0 0 0 785 642668 -10718 0
0 0 0 805 643473 -9913 0
0 0 0 826 644299 -9087 0
0 0 0 826 645125 -8261 0
0 0 0 784 645909 -7477 0
0 0 0 777 646686 -6700 0
0 0 0 774 647460 -5926 0
0 0 0 781 648241 -5145 0
0 0 0 786 649027 -4359 0
0 0 0 762 649789 -3597 0
0 0 0 752 650541 -2845 0
0 0 0 796 651337 -2049 0
38 1 S102 826 652163 -1223 0
38 1 S102 870 653033 -353 0
38 2 S102 881 653914 528 0
38 2 S102 870 654784 1398 0
38 2 S102 829 655613 2227 0
38 2 S102 822 656435 3049 0
38 2 S102 810 657245 3859 0
38 2 S102 809 658054 4668 0
38 2 S102 822 658876 5490 0
38 2 S102 825 659701 6315 0
0 0 0 797 660498 -9615 0
0 0 0 792 661290 -8823 0
0 0 0 789 662079 -8034 0
0 0 0 796 662875 -7238 0
0 0 0 819 663694 -6419 0
0 0 0 828 664522 -5591 0
0 0 0 793 665315 -4798 0
0 0 0 784 666099 -4014 0
0 0 0 777 666876 -3237 0
0 0 0 770 667646 -2467 0
39 1 S116 795 668441 -1672 0
39 1 S116 800 669241 -872 0
39 1 S116 791 670032 -81 0
39 2 S116 762 670794 681 0
39 2 S116 793 671587 1474 0
39 2 S116 803 672390 2277 0
39 2 S116 835 673225 3112 0
39 2 S116 849 674074 3961 0
39 2 S116 811 674885 4772 0
39 2 S116 817 675702 5589 0
39 2 S116 817 676519 6406 0
0 0 0 819 677338 -8690 0
0 0 0 831 678169 -7859 0
0 0 0 793 678962 -7066 0
0 0 0 783 679745 -6283 0
0 0 0 787 680532 -5496 0
0 0 0 802 681334 -4694 0
0 0 0 798 682132 -3896 0
0 0 0 752 682884 -3144 0
0 0 0 740 683624 -2404 0
40 1 S112 752 684376 -1652 0
40 1 S112 764 685140 -888 0
40 1 S112 782 685922 -106 0
40 2 S112 746 686668 640 0
40 2 S112 761 687429 1401 0
40 2 S112 770 688199 2171 0
40 2 S112 776 688975 2947 0
40 2 S112 783 689758 3730 0
40 2 S112 795 690553 4525 0
40 2 S112 785 691338 5310 0
40 2 S112 765 692103 6075 0
40 2 S112 781 692884 6856 0
0 0 0 784 693668 -186991 0
0 0 0 795 694463 -186196 0
0 0 0 799 695262 -185397 0
0 0 0 809 696071 -184588 0
0 0 0 764 696835 -183824 0
0 0 0 711 697546 -183113 0
0 0 0 674 698220 -182439 0
0 0 0 670 698890 -181769 0
0 0 0 715 699605 -181054 0
0 0 0 753 700358 -180301 0
0 0 0 778 701136 -179523 0
0 0 0 1613 702749 -177910 1
0 0 0 800 703549 -177110 0
0 0 0 806 704355 -176304 0
0 0 0 808 705163 -175496 0
0 0 0 787 705950 -174709 0
0 0 0 754 706704 -173955 0
0 0 0 734 707438 -173221 0
0 0 0 712 708150 -172509 0
0 0 0 693 708843 -171816 0
0 0 0 677 709520 -171139 0
0 0 0 650 710170 -170489 0
0 0 0 658 710828 -169831 0
0 0 0 647 711475 -169184 0
0 0 0 634 712109 -168550 0
0 0 0 631 712740 -167919 0
0 0 0 623 713363 -167296 1
0 0 0 600 713963 -166696 1
0 0 0 603 714566 -166093 1
0 0 0 604 715170 -165489 1
0 0 0 590 715760 -164899 1
0 0 0 602 716362 -164297 1
0 0 0 616 716978 -163681 1
0 0 0 658 717636 -163023 0
0 0 0 702 718338 -162321 0
0 0 0 739 719077 -161582 0
0 0 0 745 719822 -160837 0
0 0 0 771 720593 -160066 0
0 0 0 777 721370 -159289 0
0 0 0 778 722148 -158511 0
0 0 0 779 722927 -157732 0
0 0 0 742 723669 -156990 0
0 0 0 752 724421 -156238 0
0 0 0 752 725173 -155486 0
0 0 0 744 725917 -154742 0
0 0 0 745 726662 -153997 0
0 0 0 739 727401 -153258 0
0 0 0 715 728116 -152543 0
0 0 0 707 728823 -151836 0
0 0 0 723 729546 -151113 0
0 0 0 738 730284 -150375 0
0 0 0 782 731066 -149593 0
0 0 0 809 731875 -148784 0
0 0 0 802 732677 -147982 0
0 0 0 803 733480 -147179 0
0 0 0 794 734274 -146385 0
0 0 0 783 735057 -145602 0
0 0 0 770 735827 -144832 0
0 0 0 761 736588 -144071 0
0 0 0 695 737283 -143376 0
0 0 0 706 737989 -142670 0
0 0 0 711 738700 -141959 0
0 0 0 726 739426 -141233 0
0 0 0 752 740178 -140481 0
0 0 0 767 740945 -139714 0
0 0 0 727 741672 -138987 0
0 0 0 750 742422 -138237 0
0 0 0 741 743163 -137496 0
0 0 0 754 743917 -136742 0
0 0 0 764 744681 -135978 0
0 0 0 775 745456 -135203 0
0 0 0 737 746193 -134466 0
0 0 0 750 746943 -133716 0
0 0 0 741 747684 -132975 0
0 0 0 763 748447 -132212 0
0 0 0 765 749212 -131447 0
0 0 0 786 749998 -130661 0
0 0 0 797 750795 -129864 0
0 0 0 822 751617 -129042 0
0 0 0 838 752455 -128204 0
0 0 0 831 753286 -127373 0
0 0 0 800 754086 -126573 0
0 0 0 794 754880 -125779 0
0 0 0 780 755660 -124999 0
0 0 0 775 756435 -124224 0
0 0 0 767 757202 -123457 0
0 0 0 777 757979 -122680 0
0 0 0 755 758734 -121925 0
0 0 0 782 759516 -121143 0
0 0 0 786 760302 -120357 0
0 0 0 777 761079 -119580 0
0 0 0 768 761847 -118812 0
0 0 0 719 762566 -118093 0
0 0 0 687 763253 -117406 0
0 0 0 700 763953 -116706 0
0 0 0 703 764656 -116003 0
0 0 0 718 765374 -115285 0
0 0 0 734 766108 -114551 0
0 0 0 709 766817 -113842 0
0 0 0 676 767493 -113166 0
0 0 0 710 768203 -112456 0
0 0 0 714 768917 -111742 0
0 0 0 741 769658 -111001 0
0 0 0 757 770415 -110244 0
0 0 0 759 771174 -109485 0
0 0 0 710 771884 -108775 0
0 0 0 724 772608 -108051 0
0 0 0 715 773323 -107336 0
0 0 0 729 774052 -106607 0
0 0 0 732 774784 -105875 0
0 0 0 1453 776237 -104422 1
0 0 0 736 776973 -103686 0
0 0 0 730 777703 -102956 0
0 0 0 767 778470 -102189 0
0 0 0 789 779259 -101400 0
0 0 0 816 780075 -100584 0
0 0 0 780 780855 -99804 0
0 0 0 804 781659 -99000 0
0 0 0 799 782458 -98201 0
0 0 0 803 783261 -97398 0
0 0 0 801 784062 -96597 0
0 0 0 759 784821 -95838 0
0 0 0 702 785523 -95136 0
0 0 0 676 786199 -94460 0
0 0 0 663 786862 -93797 0
0 0 0 669 787531 -93128 0
0 0 0 645 788176 -92483 0
0 0 0 638 788814 -91845 0
0 0 0 635 789449 -91210 0
0 0 0 635 790084 -90575 0
0 0 0 648 790732 -89927 0
0 0 0 678 791410 -89249 0
0 0 0 714 792124 -88535 0
0 0 0 771 792895 -87764 0
0 0 0 796 793691 -86968 0
0 0 0 796 794487 -86172 0
0 0 0 806 795293 -85366 0
0 0 0 803 796096 -84563 0
0 0 0 790 796886 -83773 0
0 0 0 770 797656 -83003 0
0 0 0 733 798389 -82270 0
0 0 0 723 799112 -81547 0
0 0 0 696 799808 -80851 0
0 0 0 681 800489 -80170 0
0 0 0 669 801158 -79501 0
0 0 0 647 801805 -78854 0
0 0 0 657 802462 -78197 0
0 0 0 672 803134 -77525 0
0 0 0 685 803819 -76840 0
0 0 0 670 804489 -76170 0
0 0 0 734 805223 -75436 0
0 0 0 754 805977 -74682 0
0 0 0 770 806747 -73912 0
0 0 0 734 807481 -73178 0
0 0 0 722 808203 -72456 0
0 0 0 732 808935 -71724 0
0 0 0 744 809679 -70980 0
0 0 0 751 810430 -70229 0
0 0 0 739 811169 -69490 0
0 0 0 776 811945 -68714 0
0 0 0 799 812744 -67915 0
0 0 0 804 813548 -67111 0
0 0 0 775 814323 -66336 0
0 0 0 813 815136 -65523 0
0 0 0 831 815967 -64692 0
0 0 0 852 816819 -63840 0
0 0 0 866 817685 -62974 0
0 0 0 807 818492 -62167 0
0 0 0 819 819311 -61348 0
0 0 0 816 820127 -60532 0
0 0 0 819 820946 -59713 0
0 0 0 819 821765 -58894 0
0 0 0 800 822565 -58094 0
0 0 0 780 823345 -57314 0
0 0 0 786 824131 -56528 0
0 0 0 793 824924 -55735 0
0 0 0 813 825737 -54922 0
0 0 0 825 826562 -54097 0
0 0 0 805 827367 -53292 0
0 0 0 774 828141 -52518 0
0 0 0 785 828926 -51733 0
0 0 0 783 829709 -50950 0
0 0 0 786 830495 -50164 0
0 0 0 741 831236 -49423 0
0 0 0 757 831993 -48666 0
0 0 0 736 832729 -47930 0
0 0 0 695 833424 -47235 0
0 0 0 689 834113 -46546 0
0 0 0 662 834775 -45884 0
0 0 0 659 835434 -45225 0
0 0 0 654 836088 -44571 0
0 0 0 629 836717 -43942 0
0 0 0 645 837362 -43297 0
0 0 0 686 838048 -42611 0
0 0 0 762 838810 -41849 0
0 0 0 837 839647 -41012 0
0 0 0 848 840495 -40164 0
0 0 0 797 841292 -39367 0
0 0 0 776 842068 -38591 0
0 0 0 761 842829 -37830 0
0 0 0 746 843575 -37084 0
0 0 0 747 844322 -36337 0
0 0 0 752 845074 -35585 0
0 0 0 712 845786 -34873 0
0 0 0 720 846506 -34153 0
0 0 0 717 847223 -33436 0
0 0 0 722 847945 -32714 0
0 0 0 750 848695 -31964 0
0 0 0 792 849487 -31172 0
0 0 0 760 850247 -30412 0
0 0 0 786 851033 -29626 0
0 0 0 808 851841 -28818 0
0 0 0 825 852666 -27993 0
0 0 0 826 853492 -27167 0
0 0 0 760 854252 -26407 0
0 0 0 764 855016 -25643 0
0 0 0 762 855778 -24881 0
0 0 0 753 856531 -24128 0
0 0 0 755 857286 -23373 0
0 0 0 781 858067 -22592 0
0 0 0 757 858824 -21835 0
0 0 0 774 859598 -21061 0
0 0 0 767 860365 -20294 0
0 0 0 761 861126 -19533 0
0 0 0 747 861873 -18786 0
0 0 0 706 862579 -18080 0
0 0 0 706 863285 -17374 0
0 0 0 715 864000 -16659 0
0 0 0 720 864720 -15939 0
0 0 0 734 865454 -15205 0
0 0 0 731 866185 -14474 0
0 0 0 713 866898 -13761 0
0 0 0 731 867629 -13030 0
0 0 0 734 868363 -12296 0
0 0 0 748 869111 -11548 0
0 0 0 758 869869 -10790 0
0 0 0 744 870613 -10046 0
0 0 0 762 871375 -9284 0
0 0 0 762 872137 -8522 0
0 0 0 781 872918 -7741 0
0 0 0 790 873708 -6951 0
0 0 0 772 874480 -6179 0
0 0 0 752 875232 -5427 0
0 0 0 765 875997 -4662 0
0 0 0 769 876766 -3893 0
0 0 0 774 877540 -3119 0
0 0 0 748 878288 -2371 0
41 1 S102 718 879006 -1653 0
41 1 S102 736 879742 -917 0
41 1 S102 754 880496 -163 0
41 2 S102 772 881268 609 0
41 2 S102 798 882066 1407 0
41 2 S102 790 882856 2197 0
41 2 S102 785 883641 2982 0
41 2 S102 730 884371 3712 0
41 2 S102 726 885097 4438 0
41 2 S102 725 885822 5163 0
41 2 S102 744 886566 5907 0
41 2 S102 777 887343 6684 0
0 0 0 797 888140 -7672 0
0 0 0 778 888918 -6894 0
0 0 0 785 889703 -6109 0
0 0 0 793 890496 -5316 0
0 0 0 803 891299 -4513 0
0 0 0 778 892077 -3735 0
0 0 0 720 892797 -3015 0
0 0 0 722 893519 -2293 0
42 1 S112 698 894217 -1595 0
42 1 S112 678 894895 -917 0
42 1 S112 683 895578 -234 0
42 2 S112 708 896286 474 0
42 2 S112 733 897019 1207 0
42 2 S112 748 897767 1955 0
42 2 S112 725 898492 2680 0
42 2 S112 761 899253 3441 0
42 2 S112 783 900036 4224 0
42 2 S112 816 900852 5040 0
42 2 S112 827 901679 5867 0
42 2 S112 806 902485 6673 0
0 0 0 828 903313 -9408 0
0 0 0 835 904148 -8573 0
0 0 0 834 904982 -7739 0
0 0 0 834 905816 -6905 0
0 0 0 789 906605 -6116 0
0 0 0 780 907385 -5336 0
0 0 0 779 908164 -4557 0
0 0 0 810 908974 -3747 0
0 0 0 824 909798 -2923 0
0 0 0 809 910607 -2114 0
43 1 S116 825 911432 -1289 0
43 1 S116 835 912267 -454 0
43 2 S116 836 913103 382 0
43 2 S116 832 913935 1214 0
43 2 S116 791 914726 2005 0
43 2 S116 809 915535 2814 0
43 2 S116 805 916340 3619 0
43 2 S116 827 917167 4446 0
43 2 S116 848 918015 5294 0
43 2 S116 857 918872 6151 0
43 2 S116 827 919699 6978 0
0 0 0 828 920527 -7347 0
0 0 0 817 921344 -6530 0
0 0 0 816 922160 -5714 0
0 0 0 824 922984 -4890 0
0 0 0 817 923801 -4073 0
0 0 0 777 924578 -3296 0
0 0 0 792 925370 -2504 0
44 1 S102 790 926160 -1714 0
44 1 S102 784 926944 -930 0
44 1 S102 779 927723 -151 0
44 2 S102 735 928458 584 0
44 2 S102 776 929234 1360 0
44 2 S102 784 930018 2144 0
44 2 S102 806 930824 2950 0
44 2 S102 831 931655 3781 0
44 2 S102 840 932495 4621 0
44 2 S102 825 933320 5446 0
44 2 S102 792 934112 6238 0
0 0 0 796 934908 -9627 0
0 0 0 735 935643 -8892 0
0 0 0 711 936354 -8181 0
0 0 0 685 937039 -7496 0
0 0 0 662 937701 -6834 0
0 0 0 670 938371 -6164 0
0 0 0 655 939026 -5509 0
0 0 0 642 939668 -4867 0
0 0 0 634 940302 -4233 0
0 0 0 653 940955 -3580 0
0 0 0 743 941698 -2837 0
45 1 S116 848 942546 -1989 0
45 1 S116 895 943441 -1094 0
45 1 S116 928 944369 -166 1
45 2 S116 914 945283 748 0
45 2 S116 899 946182 1647 0
45 2 S116 878 947060 2525 0
45 2 S116 828 947888 3353 0
45 2 S116 827 948715 4180 0
45 2 S116 804 949519 4984 0
45 2 S116 812 950331 5796 0
45 2 S116 835 951166 6631 0
0 0 0 846 952012 -12003 0
0 0 0 843 952855 -11160 0
0 0 0 820 953675 -10340 0
0 0 0 828 954503 -9512 0
0 0 0 852 955355 -8660 0
0 0 0 853 956208 -7807 0
0 0 0 861 957069 -6946 0
0 0 0 813 957882 -6133 0
0 0 0 836 958718 -5297 0
0 0 0 826 959544 -4471 0
0 0 0 844 960388 -3627 0
0 0 0 861 961249 -2766 0
46 1 S102 836 962085 -1930 0
46 1 S102 864 962949 -1066 0
46 1 S102 875 963824 -191 0
46 2 S102 886 964710 695 0
46 2 S102 900 965610 1595 0
46 2 S102 907 966517 2502 0
46 2 S102 897 967414 3399 0
46 2 S102 871 968285 4270 0
46 2 S102 875 969160 5145 0
46 2 S102 889 970049 6034 0
46 2 S102 907 970956 6941 0
0 0 0 900 971856 -9981 0
0 0 0 889 972745 -9092 0
0 0 0 844 973589 -8248 0
0 0 0 816 974405 -7432 0
0 0 0 811 975216 -6621 0
0 0 0 804 976020 -5817 0
0 0 0 800 976820 -5017 0
0 0 0 760 977580 -4257 0
0 0 0 785 978365 -3472 0
0 0 0 805 979170 -2667 0
47 1 S112 830 980000 -1837 0
47 1 S112 848 980848 -989 0
47 1 S112 804 981652 -185 0
47 2 S112 830 982482 645 0
47 2 S112 828 983310 1473 0
47 2 S112 851 984161 2324 0
47 2 S112 882 985043 3206 0
47 2 S112 885 985928 4091 0
47 2 S112 871 986799 4962 0
47 2 S112 863 987662 5825 0
47 2 S112 848 988510 6673 0
0 0 0 845 989355 -11414 0
0 0 0 839 990194 -10575 0
0 0 0 829 991023 -9746 0
0 0 0 807 991830 -8939 0
0 0 0 776 992606 -8163 0
0 0 0 772 993378 -7391 0
0 0 0 766 994144 -6625 0
0 0 0 776 994920 -5849 0
0 0 0 783 995703 -5066 0
0 0 0 763 996466 -4303 0
0 0 0 768 997234 -3535 0
0 0 0 778 998012 -2757 0
48 1 S116 794 998806 -1963 0
48 1 S116 807 999613 -1156 0
48 1 S116 814 1000427 -342 0
48 2 S116 801 1001228 459 0
48 2 S116 764 1001992 1223 0
48 2 S116 774 1002766 1997 0
48 2 S116 768 1003534 2765 0
48 2 S116 781 1004315 3546 0
48 2 S116 797 1005112 4343 0
48 2 S116 799 1005911 5142 0
48 2 S116 765 1006676 5907 0
48 2 S116 781 1007457 6688 0
0 0 0 774 1008231 -8089 0
0 0 0 779 1009010 -7310 0
0 0 0 782 1009792 -6528 0
0 0 0 758 1010550 -5770 0
0 0 0 758 1011308 -5012 0
0 0 0 758 1012066 -4254 0
0 0 0 765 1012831 -3489 0
0 0 0 771 1013602 -2718 0
49 1 S112 752 1014354 -1966 0
49 1 S112 730 1015084 -1236 0
49 1 S112 733 1015817 -503 0
49 2 S112 733 1016550 230 0
49 2 S112 747 1017297 977 0
49 2 S112 765 1018062 1742 0
49 2 S112 761 1018823 2503 0
49 2 S112 756 1019579 3259 0
49 2 S112 771 1020350 4030 0
49 2 S112 775 1021125 4805 0
49 2 S112 799 1021924 5604 0
49 2 S112 814 1022738 6418 0
0 0 0 808 1023546 -11723 0
0 0 0 813 1024359 -10910 0
0 0 0 809 1025168 -10101 0
0 0 0 817 1025985 -9284 0
0 0 0 816 1026801 -8468 0
0 0 0 814 1027615 -7654 0
0 0 0 763 1028378 -6891 0
0 0 0 761 1029139 -6130 0
0 0 0 734 1029873 -5396 0
0 0 0 741 1030614 -4655 0
0 0 0 759 1031373 -3896 0
0 0 0 789 1032162 -3107 0
0 0 0 773 1032935 -2334 0
50 1 S106 804 1033739 -1530 0
50 1 S106 817 1034556 -713 0
50 2 S106 821 1035377 108 0
50 2 S106 833 1036210 941 0
50 2 S106 840 1037050 1781 0
50 2 S106 828 1037878 2609 0
50 2 S106 776 1038654 3385 0
50 2 S106 767 1039421 4152 0
50 2 S106 758 1040179 4910 0
50 2 S106 764 1040943 5674 0
50 2 S106 771 1041714 6445 0
0 0 0 754 1042468 -7158 0
0 0 0 746 1043214 -6412 0
0 0 0 774 1043988 -5638 0
0 0 0 790 1044778 -4848 0
0 0 0 795 1045573 -4053 0
0 0 0 782 1046355 -3271 0
0 0 0 747 1047102 -2524 0
51 1 S112 761 1047863 -1763 0
51 1 S112 760 1048623 -1003 0
51 1 S112 773 1049396 -230 0
51 2 S112 778 1050174 548 0
51 2 S112 758 1050932 1306 0
51 2 S112 764 1051696 2070 0
51 2 S112 766 1052462 2836 0
51 2 S112 774 1053236 3610 0
51 2 S112 792 1054028 4402 0
51 2 S112 817 1054845 5219 0
51 2 S112 824 1055669 6043 0
51 2 S112 797 1056466 6840 0
0 0 0 796 1057262 -7069 0
0 0 0 795 1058057 -6274 0
0 0 0 793 1058850 -5481 0
0 0 0 804 1059654 -4677 0
0 0 0 793 1060447 -3884 0
0 0 0 740 1061187 -3144 0
0 0 0 728 1061915 -2416 0
52 1 S116 734 1062649 -1682 0
52 1 S116 741 1063390 -941 0
52 1 S116 772 1064162 -169 0
52 2 S116 746 1064908 577 0
52 2 S116 776 1065684 1353 0
52 2 S116 792 1066476 2145 0
52 2 S116 795 1067271 2940 0
52 2 S116 798 1068069 3738 0
52 2 S116 774 1068843 4512 0
52 2 S116 737 1069580 5249 0
52 2 S116 741 1070321 5990 0
52 2 S116 731 1071052 6721 0
0 0 0 748 1071800 -9640 0
0 0 0 798 1072598 -8842 0
0 0 0 799 1073397 -8043 0
0 0 0 777 1074174 -7266 0
0 0 0 804 1074978 -6462 0
0 0 0 803 1075781 -5659 0
0 0 0 810 1076591 -4849 0
0 0 0 798 1077389 -4051 0
0 0 0 767 1078156 -3284 0
0 0 0 789 1078945 -2495 0
53 1 S106 801 1079746 -1694 0
53 1 S106 831 1080577 -863 0
53 1 S106 857 1081434 -6 0
53 2 S106 830 1082264 824 0
53 2 S106 864 1083128 1688 0
53 2 S106 876 1084004 2564 0
53 2 S106 875 1084879 3439 0
53 2 S106 864 1085743 4303 0
53 2 S106 811 1086554 5114 0
53 2 S106 826 1087380 5940 0
53 2 S106 813 1088193 6753 0
0 0 0 812 1089005 -7455 0
0 0 0 811 1089816 -6644 0
0 0 0 792 1090608 -5852 0
0 0 0 753 1091361 -5099 0
0 0 0 766 1092127 -4333 0
0 0 0 764 1092891 -3569 0
0 0 0 765 1093656 -2804 0
0 0 0 760 1094416 -2044 0
54 1 S102 726 1095142 -1318 0
54 1 S102 751 1095893 -567 0
54 2 S102 751 1096644 184 0
54 2 S102 770 1097414 954 0
54 2 S102 784 1098198 1738 0
54 2 S102 804 1099002 2542 0
54 2 S102 791 1099793 3333 0
54 2 S102 782 1100575 4115 0
54 2 S102 791 1101366 4906 0
54 2 S102 803 1102169 5709 0
54 2 S102 826 1102995 6535 0
0 0 0 848 1103843 -12345 0
0 0 0 830 1104673 -11515 0
0 0 0 798 1105471 -10717 0
0 0 0 807 1106278 -9910 0
0 0 0 805 1107083 -9105 0
0 0 0 803 1107886 -8302 0
0 0 0 784 1108670 -7518 0
0 0 0 745 1109415 -6773 0
0 0 0 767 1110182 -6006 0
0 0 0 761 1110943 -5245 0
0 0 0 787 1111730 -4458 0
0 0 0 767 1112497 -3691 0
0 0 0 787 1113284 -2904 0
0 0 0 784 1114068 -2120 0
55 1 S106 784 1114852 -1336 0
55 1 S106 790 1115642 -546 0
55 2 S106 793 1116435 247 0
55 2 S106 755 1117190 1002 0
55 2 S106 778 1117968 1780 0
55 2 S106 773 1118741 2553 0
55 2 S106 782 1119523 3335 0
55 2 S106 798 1120321 4133 0
55 2 S106 814 1121135 4947 0
55 2 S106 780 1121915 5727 0
55 2 S106 792 1122707 6519 0
0 0 0 790 1123497 -7181 0
0 0 0 793 1124290 -6388 0
0 0 0 804 1125094 -5584 0
0 0 0 808 1125902 -4776 0
0 0 0 794 1126696 -3982 0
0 0 0 758 1127454 -3224 0
0 0 0 765 1128219 -2459 0
56 1 S116 757 1128976 -1702 0
56 1 S116 767 1129743 -935 0
56 1 S116 788 1130531 -147 0
56 2 S116 781 1131312 634 0
56 2 S116 771 1132083 1405 0
56 2 S116 791 1132874 2196 0
56 2 S116 799 1133673 2995 0
56 2 S116 809 1134482 3804 0
56 2 S116 809 1135291 4613 0
56 2 S116 776 1136067 5389 0
56 2 S116 804 1136871 6193 0
56 2 S116 807 1137678 7000 0
0 0 0 823 1138501 -8341 0
0 0 0 832 1139333 -7509 0
0 0 0 803 1140136 -6706 0
0 0 0 749 1140885 -5957 0
0 0 0 723 1141608 -5234 0
0 0 0 747 1142355 -4487 0
0 0 0 761 1143116 -3726 0
0 0 0 809 1143925 -2917 0
0 0 0 817 1144742 -2100 0
57 1 S106 781 1145523 -1319 0
57 1 S106 816 1146339 -503 0
57 2 S106 813 1147152 310 0
57 2 S106 816 1147968 1126 0
57 2 S106 817 1148785 1943 0
57 2 S106 806 1149591 2749 0
57 2 S106 757 1150348 3506 0
57 2 S106 744 1151092 4250 0
57 2 S106 746 1151838 4996 0
57 2 S106 740 1152578 5736 0
57 2 S106 739 1153317 6475 0
0 0 0 713 1154030 -9291 0
0 0 0 704 1154734 -8587 0
0 0 0 707 1155441 -7880 0
0 0 0 722 1156163 -7158 0
0 0 0 718 1156881 -6440 0
0 0 0 719 1157600 -5721 0
0 0 0 722 1158322 -4999 0
0 0 0 686 1159008 -4313 0
0 0 0 684 1159692 -3629 0
0 0 0 674 1160366 -2955 0
0 0 0 643 1161009 -2312 0
58 1 S102 643 1161652 -1669 0
58 1 S102 627 1162279 -1042 0
58 1 S102 614 1162893 -428 1
58 2 S102 633 1163526 205 0
58 2 S102 734 1164260 939 0
58 2 S102 834 1165094 1773 0
58 2 S102 862 1165956 2635 0
58 2 S102 874 1166830 3509 0
58 2 S102 878 1167708 4387 0
58 2 S102 873 1168581 5260 0
58 2 S102 851 1169432 6111 0
58 2 S102 826 1170258 6937 0
0 0 0 808 1171066 -7971 0
0 0 0 759 1171825 -7212 0
0 0 0 764 1172589 -6448 0
0 0 0 765 1173354 -5683 0
0 0 0 788 1174142 -4895 0
0 0 0 807 1174949 -4088 0
0 0 0 833 1175782 -3255 0
0 0 0 847 1176629 -2408 0
59 1 S112 798 1177427 -1610 0
59 1 S112 784 1178211 -826 0
59 1 S112 791 1179002 -35 0
59 2 S112 813 1179815 778 0
59 2 S112 862 1180677 1640 0
59 2 S112 899 1181576 2539 0
59 2 S112 889 1182465 3428 0
59 2 S112 868 1183333 4296 0
59 2 S112 876 1184209 5172 0
59 2 S112 899 1185108 6071 0
59 2 S112 914 1186022 6985 0
0 0 0 900 1186922 -9473 0
0 0 0 875 1187797 -8598 0
0 0 0 818 1188615 -7780 0
0 0 0 824 1189439 -6956 0
0 0 0 796 1190235 -6160 0
0 0 0 782 1191017 -5378 0
0 0 0 732 1191749 -4646 0
0 0 0 707 1192456 -3939 0
0 0 0 720 1193176 -3219 0
0 0 0 714 1193890 -2505 0
60 1 S102 720 1194610 -1785 0
60 1 S102 775 1195385 -1010 0
60 1 S102 806 1196191 -204 0
60 2 S102 848 1197039 644 0
60 2 S102 850 1197889 1494 0
60 2 S102 821 1198710 2315 0
60 2 S102 836 1199546 3151 0
60 2 S102 835 1200381 3986 0
60 2 S102 828 1201209 4814 0
60 2 S102 835 1202044 5649 0
60 2 S102 815 1202859 6464 0
0 0 0 780 1203639 -11290 0
0 0 0 784 1204423 -10506 0
0 0 0 795 1205218 -9711 0
0 0 0 813 1206031 -8898 0
0 0 0 811 1206842 -8087 0
0 0 0 793 1207635 -7294 0
0 0 0 715 1208350 -6579 0
0 0 0 723 1209073 -5856 0
0 0 0 721 1209794 -5135 0
0 0 0 742 1210536 -4393 0
0 0 0 771 1211307 -3622 0
0 0 0 746 1212053 -2876 0
0 0 0 760 1212813 -2116 0
61 1 S106 790 1213603 -1326 0
61 1 S106 808 1214411 -518 0
61 2 S106 827 1215238 309 0
61 2 S106 836 1216074 1145 0
61 2 S106 824 1216898 1969 0
61 2 S106 780 1217678 2749 0
61 2 S106 797 1218475 3546 0
61 2 S106 805 1219280 4351 0
61 2 S106 833 1220113 5184 0
61 2 S106 868 1220981 6052 0
61 2 S106 874 1221855 6926 0
0 0 0 831 1222686 -6716 0
0 0 0 831 1223517 -5885 0
0 0 0 817 1224334 -5068 0
0 0 0 823 1225157 -4245 0
0 0 0 815 1225972 -3430 0
0 0 0 758 1226730 -2672 0
62 1 S112 738 1227468 -1934 0
62 1 S112 752 1228220 -1182 0
62 1 S112 762 1228982 -420 0
62 2 S112 777 1229759 357 0
62 2 S112 785 1230544 1142 0
62 2 S112 744 1231288 1886 0
62 2 S112 714 1232002 2600 0
62 2 S112 691 1232693 3291 0
62 2 S112 721 1233414 4012 0
62 2 S112 728 1234142 4740 0
62 2 S112 744 1234886 5484 0
62 2 S112 752 1235638 6236 0
62 2 S112 746 1236384 6982 0
0 0 0 715 1237099 -11484 0
0 0 0 728 1237827 -10756 0
0 0 0 710 1238537 -10046 0
0 0 0 708 1239245 -9338 0
0 0 0 703 1239948 -8635 0
0 0 0 677 1240625 -7958 0
0 0 0 642 1241267 -7316 0
0 0 0 660 1241927 -6656 0
0 0 0 661 1242588 -5995 0
0 0 0 674 1243262 -5321 0
0 0 0 703 1243965 -4618 0
0 0 0 744 1244709 -3874 0
0 0 0 772 1245481 -3102 0
0 0 0 747 1246228 -2355 0
63 1 S102 746 1246974 -1609 0
63 1 S102 750 1247724 -859 0
63 1 S102 750 1248474 -109 0
63 2 S102 765 1249239 656 0
63 2 S102 782 1250021 1438 0
63 2 S102 773 1250794 2211 0
63 2 S102 751 1251545 2962 0
63 2 S102 779 1252324 3741 0
63 2 S102 779 1253103 4520 0
63 2 S102 802 1253905 5322 0
63 2 S102 813 1254718 6135 0
63 2 S102 799 1255517 6934 0
0 0 0 755 1256272 -9288 0
0 0 0 766 1257038 -8522 0
0 0 0 767 1257805 -7755 0
0 0 0 782 1258587 -6973 0
0 0 0 798 1259385 -6175 0
0 0 0 741 1260126 -5434 0
0 0 0 698 1260824 -4736 0
0 0 0 721 1261545 -4015 0
0 0 0 734 1262279 -3281 0
0 0 0 795 1263074 -2486 0
64 1 S112 875 1263949 -1611 0
64 1 S112 870 1264819 -741 0
64 2 S112 805 1265624 64 0
64 2 S112 747 1266371 811 0
64 2 S112 730 1267101 1541 0
64 2 S112 699 1267800 2240 0
64 2 S112 682 1268482 2922 0
64 2 S112 680 1269162 3602 0
64 2 S112 676 1269838 4278 0
64 2 S112 683 1270521 4961 0
64 2 S112 675 1271196 5636 0
64 2 S112 676 1271872 6312 0
64 2 S112 663 1272535 6975 0
0 0 0 659 1273194 -7270 0
0 0 0 653 1273847 -6617 0
0 0 0 651 1274498 -5966 0
0 0 0 692 1275190 -5274 0
0 0 0 813 1276003 -4461 0
0 0 0 891 1276894 -3570 0
0 0 0 896 1277790 -2674 0
65 1 S106 817 1278607 -1857 0
65 1 S106 805 1279412 -1052 0
65 1 S106 807 1280219 -245 0
65 2 S106 809 1281028 564 0
65 2 S106 846 1281874 1410 0
65 2 S106 819 1282693 2229 0
65 2 S106 757 1283450 2986 0
65 2 S106 754 1284204 3740 0
65 2 S106 737 1284941 4477 0
65 2 S106 729 1285670 5206 0
65 2 S106 703 1286373 5909 0
65 2 S106 685 1287058 6594 0
0 0 0 690 1287748 -8332 0
0 0 0 722 1288470 -7610 0
0 0 0 745 1289215 -6865 0
0 0 0 788 1290003 -6077 0
0 0 0 755 1290758 -5322 0
0 0 0 739 1291497 -4583 0
0 0 0 737 1292234 -3846 0
0 0 0 723 1292957 -3123 0
0 0 0 678 1293635 -2445 0
66 1 S116 703 1294338 -1742 0
66 1 S116 710 1295048 -1032 0
66 1 S116 731 1295779 -301 0
66 2 S116 776 1296555 475 0
66 2 S116 758 1297313 1233 0
66 2 S116 789 1298102 2022 0
66 2 S116 817 1298919 2839 0
66 2 S116 872 1299791 3711 0
66 2 S116 906 1300697 4617 0
66 2 S116 922 1301619 5539 1
66 2 S116 874 1302493 6413 0
0 0 0 882 1303375 -11721 0
0 0 0 892 1304267 -10829 0
0 0 0 891 1305158 -9938 0
0 0 0 902 1306060 -9036 0
0 0 0 834 1306894 -8202 0
0 0 0 837 1307731 -7365 0
0 0 0 818 1308549 -6547 0
0 0 0 846 1309395 -5701 0
0 0 0 859 1310254 -4842 0
0 0 0 811 1311065 -4031 0
0 0 0 848 1311913 -3183 0
0 0 0 868 1312781 -2315 0
67 1 S102 895 1313676 -1420 0
67 1 S102 913 1314589 -507 0
67 2 S102 872 1315461 365 0
67 2 S102 900 1316361 1265 0
67 2 S102 895 1317256 2160 0
67 2 S102 876 1318132 3036 0
67 2 S102 860 1318992 3896 0
67 2 S102 805 1319797 4701 0
67 2 S102 816 1320613 5517 0
67 2 S102 807 1321420 6324 0
0 0 0 810 1322230 -7604 0
0 0 0 815 1323045 -6789 0
0 0 0 810 1323855 -5979 0
0 0 0 767 1324622 -5212 0
0 0 0 774 1325396 -4438 0
0 0 0 773 1326169 -3665 0
0 0 0 773 1326942 -2892 0
0 0 0 767 1327709 -2125 0
68 1 S106 757 1328466 -1368 0
68 1 S106 705 1329171 -663 0
68 2 S106 722 1329893 59 0
68 2 S106 738 1330631 797 0
68 2 S106 781 1331412 1578 0
68 2 S106 810 1332222 2388 0
68 2 S106 791 1333013 3179 0
68 2 S106 789 1333802 3968 0
68 2 S106 815 1334617 4783 0
68 2 S106 827 1335444 5610 0
68 2 S106 830 1336274 6440 0
0 0 0 800 1337074 -12173 0
0 0 0 769 1337843 -11404 0
0 0 0 776 1338619 -10628 0
0 0 0 768 1339387 -9860 0
0 0 0 785 1340172 -9075 0
0 0 0 770 1340942 -8305 0
0 0 0 716 1341658 -7589 0
0 0 0 733 1342391 -6856 0
0 0 0 726 1343117 -6130 0
0 0 0 749 1343866 -5381 0
0 0 0 775 1344641 -4606 0
0 0 0 777 1345418 -3829 0
0 0 0 753 1346171 -3076 0
0 0 0 785 1346956 -2291 0
69 1 S102 777 1347733 -1514 0
69 1 S102 791 1348524 -723 0
69 2 S102 792 1349316 69 0
69 2 S102 746 1350062 815 0
69 2 S102 716 1350778 1531 0
69 2 S102 708 1351486 2239 0
69 2 S102 665 1352151 2904 0
69 2 S102 669 1352820 3573 0
69 2 S102 668 1353488 4241 0
69 2 S102 652 1354140 4893 0
69 2 S102 652 1354792 5545 0
69 2 S102 668 1355460 6213 0
69 2 S102 689 1356149 6902 0
0 0 0 674 1356823 -9848 0
0 0 0 708 1357531 -9140 0
0 0 0 738 1358269 -8402 0
0 0 0 795 1359064 -7607 0
0 0 0 824 1359888 -6783 0
0 0 0 756 1360644 -6027 0
0 0 0 738 1361382 -5289 0
0 0 0 704 1362086 -4585 0
0 0 0 685 1362771 -3900 0
0 0 0 684 1363455 -3216 0
0 0 0 689 1364144 -2527 0
70 1 S112 672 1364816 -1855 0
70 1 S112 687 1365503 -1168 0
70 1 S112 740 1366243 -428 0
70 2 S112 786 1367029 358 0
70 2 S112 831 1367860 1189 0
70 2 S112 852 1368712 2041 0
70 2 S112 846 1369558 2887 0
70 2 S112 838 1370396 3725 0
70 2 S112 794 1371190 4519 0
70 2 S112 775 1371965 5294 0
70 2 S112 783 1372748 6077 0
70 2 S112 796 1373544 6873 0
0 0 0 814 1374358 -11776 0
0 0 0 816 1375174 -10960 0
0 0 0 772 1375946 -10188 0
0 0 0 770 1376716 -9418 0
0 0 0 768 1377484 -8650 0
0 0 0 769 1378253 -7881 0
0 0 0 794 1379047 -7087 0
0 0 0 803 1379850 -6284 0
0 0 0 768 1380618 -5516 0
0 0 0 790 1381408 -4726 0
0 0 0 804 1382212 -3922 0
0 0 0 821 1383033 -3101 0
0 0 0 817 1383850 -2284 0
71 1 S116 793 1384643 -1491 0
71 1 S116 776 1385419 -715 0
71 2 S116 779 1386198 64 0
71 2 S116 808 1387006 872 0
71 2 S116 834 1387840 1706 0
71 2 S116 865 1388705 2571 0
71 2 S116 880 1389585 3451 0
71 2 S116 843 1390428 4294 0
71 2 S116 845 1391273 5139 0
71 2 S116 850 1392123 5989 0
71 2 S116 854 1392977 6843 0
0 0 0 872 1393849 -9311 0
0 0 0 858 1394707 -8453 0
0 0 0 795 1395502 -7658 0
0 0 0 807 1396309 -6851 0
0 0 0 801 1397110 -6050 0
0 0 0 783 1397893 -5267 0
0 0 0 757 1398650 -4510 0
0 0 0 702 1399352 -3808 0
0 0 0 708 1400060 -3100 0
0 0 0 726 1400786 -2374 0
72 1 S102 728 1401514 -1646 0
72 1 S102 696 1402210 -950 0
72 1 S102 733 1402943 -217 0
72 2 S102 747 1403690 530 0
72 2 S102 760 1404450 1290 0
72 2 S102 763 1405213 2053 0
72 2 S102 731 1405944 2784 0
72 2 S102 747 1406691 3531 0
72 2 S102 745 1407436 4276 0
72 2 S102 737 1408173 5013 0
72 2 S102 740 1408913 5753 0
72 2 S102 716 1409629 6469 0
0 0 0 700 1410329 -7818 0
0 0 0 718 1411047 -7100 0
0 0 0 713 1411760 -6387 0
0 0 0 730 1412490 -5657 0
0 0 0 744 1413234 -4913 0
0 0 0 733 1413967 -4180 0
0 0 0 694 1414661 -3486 0
0 0 0 679 1415340 -2807 0
0 0 0 657 1415997 -2150 0
73 1 S116 675 1416672 -1475 0
73 1 S116 678 1417350 -797 0
73 1 S116 693 1418043 -104 0
73 2 S116 721 1418764 617 0
73 2 S116 760 1419524 1377 0
73 2 S116 812 1420336 2189 0
73 2 S116 837 1421173 3026 0
73 2 S116 836 1422009 3862 0
73 2 S116 796 1422805 4658 0
73 2 S116 766 1423571 5424 0
73 2 S116 758 1424329 6182 0
73 2 S116 743 1425072 6925 0
0 0 0 747 1425819 -9338 0
0 0 0 751 1426570 -8587 0
0 0 0 736 1427306 -7851 0
0 0 0 720 1428026 -7131 0
0 0 0 744 1428770 -6387 0
0 0 0 746 1429516 -5641 0
0 0 0 742 1430258 -4899 0
0 0 0 750 1431008 -4149 0
0 0 0 739 1431747 -3410 0
0 0 0 754 1432501 -2656 0
74 1 S106 748 1433249 -1908 0
74 1 S106 709 1433958 -1199 0
74 1 S106 693 1434651 -506 0
74 2 S106 675 1435326 169 0
74 2 S106 694 1436020 863 0
74 2 S106 715 1436735 1578 0
74 2 S106 741 1437476 2319 0
74 2 S106 763 1438239 3082 0
74 2 S106 779 1439018 3861 0
74 2 S106 762 1439780 4623 0
74 2 S106 746 1440526 5369 0
74 2 S106 758 1441284 6127 0
74 2 S106 740 1442024 6867 0
0 0 0 704 1442728 -7565 0
0 0 0 693 1443421 -6872 0
0 0 0 684 1444105 -6188 0
0 0 0 721 1444826 -5467 0
0 0 0 770 1445596 -4697 0
0 0 0 773 1446369 -3924 0
0 0 0 752 1447121 -3172 0
0 0 0 745 1447866 -2427 0
75 1 S112 744 1448610 -1683 0
75 1 S112 731 1449341 -952 0
75 1 S112 740 1450081 -212 0
75 2 S112 740 1450821 528 0
75 2 S112 725 1451546 1253 0
75 2 S112 712 1452258 1965 0
75 2 S112 753 1453011 2718 0
75 2 S112 777 1453788 3495 0
75 2 S112 814 1454602 4309 0
75 2 S112 836 1455438 5145 0
75 2 S112 820 1456258 5965 0
75 2 S112 825 1457083 6790 0
0 0 0 830 1457913 -7184 0
0 0 0 846 1458759 -6338 0
0 0 0 841 1459600 -5497 0
0 0 0 811 1460411 -4686 0
0 0 0 783 1461194 -3903 0
0 0 0 776 1461970 -3127 0
0 0 0 768 1462738 -2359 0
76 1 S116 767 1463505 -1592 0
76 1 S116 755 1464260 -837 0
76 1 S116 729 1464989 -108 0
76 2 S116 765 1465754 657 0
76 2 S116 784 1466538 1441 0
76 2 S116 832 1467370 2273 0
76 2 S116 887 1468257 3160 0
76 2 S116 897 1469154 4057 0
76 2 S116 883 1470037 4940 0
76 2 S116 828 1470865 5768 0
76 2 S116 834 1471699 6602 0
0 0 0 834 1472533 -8198 0
0 0 0 855 1473388 -7343 0
0 0 0 865 1474253 -6478 0
0 0 0 834 1475087 -5644 0
0 0 0 836 1475923 -4808 0
0 0 0 826 1476749 -3982 0
0 0 0 817 1477566 -3165 0
0 0 0 804 1478370 -2361 0
77 1 S106 759 1479129 -1602 0
77 1 S106 771 1479900 -831 0
77 1 S106 796 1480696 -35 0
77 2 S106 834 1481530 799 0
77 2 S106 822 1482352 1621 0
77 2 S106 858 1483210 2479 0
77 2 S106 872 1484082 3351 0
77 2 S106 885 1484967 4236 0
77 2 S106 876 1485843 5112 0
77 2 S106 809 1486652 5921 0
77 2 S106 806 1487458 6727 0
0 0 0 792 1488250 -9921 0
0 0 0 787 1489037 -9134 0
0 0 0 788 1489825 -8346 0
0 0 0 798 1490623 -7548 0
0 0 0 762 1491385 -6786 0
0 0 0 773 1492158 -6013 0
0 0 0 753 1492911 -5260 0
0 0 0 742 1493653 -4518 0
0 0 0 746 1494399 -3772 0
0 0 0 760 1495159 -3012 0
0 0 0 736 1495895 -2276 0
78 1 S112 775 1496670 -1501 0
78 1 S112 788 1497458 -713 0
78 2 S112 819 1498277 106 0
78 2 S112 804 1499081 910 0
78 2 S112 848 1499929 1758 0
78 2 S112 863 1500792 2621 0
78 2 S112 875 1501667 3496 0
78 2 S112 879 1502546 4375 0
78 2 S112 855 1503401 5230 0
78 2 S112 804 1504205 6034 0
78 2 S112 813 1505018 6847 0
0 0 0 816 1505834 -11419 0
0 0 0 829 1506663 -10590 0
0 0 0 830 1507493 -9760 0
0 0 0 795 1508288 -8965 0
0 0 0 801 1509089 -8164 0
0 0 0 788 1509877 -7376 0
0 0 0 784 1510661 -6592 0
0 0 0 775 1511436 -5817 0
0 0 0 725 1512161 -5092 0
0 0 0 738 1512899 -4354 0
0 0 0 747 1513646 -3607 0
0 0 0 769 1514415 -2838 0
0 0 0 793 1515208 -2045 0
79 1 S102 789 1515997 -1256 0
79 1 S102 764 1516761 -492 0
79 2 S102 800 1517561 308 0
79 2 S102 804 1518365 1112 0
79 2 S102 816 1519181 1928 0
79 2 S102 835 1520016 2763 0
79 2 S102 800 1520816 3563 0
79 2 S102 789 1521605 4352 0
79 2 S102 795 1522400 5147 0
79 2 S102 798 1523198 5945 0
79 2 S102 809 1524007 6754 0
0 0 0 814 1524821 -9276 0
0 0 0 810 1525631 -8466 0
0 0 0 759 1526390 -7707 0
0 0 0 771 1527161 -6936 0
0 0 0 751 1527912 -6185 0
0 0 0 742 1528654 -5443 0
0 0 0 733 1529387 -4710 0
0 0 0 697 1530084 -4013 0
0 0 0 691 1530775 -3322 0
0 0 0 718 1531493 -2604 0
80 1 S116 722 1532215 -1882 0
80 1 S116 744 1532959 -1138 0
80 1 S116 770 1533729 -368 0
80 2 S116 746 1534475 378 0
80 2 S116 785 1535260 1163 0
80 2 S116 795 1536055 1958 0
80 2 S116 817 1536872 2775 0
80 2 S116 838 1537710 3613 0
80 2 S116 825 1538535 4438 0
80 2 S116 791 1539326 5229 0
80 2 S116 805 1540131 6034 0
80 2 S116 802 1540933 6836 0
