T_0111
BeatCount Mean SD BeatCountNoOutliers MeanNoOutliers SDNoOutliers
2254 663,968500443656 52,2905042283933 2242 660,730151650312 26,1445658084986

Trial TrialStatus Trialtype IBI AbsPosition RelPosition Outlier
0 0 0 623 843 -15217 0
0 0 0 611 1454 -14606 0
0 0 0 609 2063 -13997 0
0 0 0 609 2672 -13388 0
0 0 0 616 3288 -12772 0
0 0 0 639 3927 -12133 0
0 0 0 690 4617 -11443 0
0 0 0 680 5297 -10763 0
0 0 0 672 5969 -10091 0
0 0 0 662 6631 -9429 0
0 0 0 652 7283 -8777 0
0 0 0 650 7933 -8127 0
0 0 0 638 8571 -7489 0
0 0 0 634 9205 -6855 0
0 0 0 635 9840 -6220 0
0 0 0 643 10483 -5577 0
0 0 0 650 11133 -4927 0
0 0 0 663 11796 -4264 0
0 0 0 650 12446 -3614 0
0 0 0 651 13097 -2963 0
0 0 0 672 13769 -2291 0
1 1 S112 674 14443 -1617 0
1 1 S112 678 15121 -939 0
1 1 S112 684 15805 -255 0
1 2 S112 687 16492 432 0
1 2 S112 682 17174 1114 0
1 2 S112 660 17834 1774 0
1 2 S112 646 18480 2420 0
1 2 S112 641 19121 3061 0
1 2 S112 655 19776 3716 0
1 2 S112 682 20458 4398 0
1 2 S112 689 21147 5087 0
1 2 S112 682 21829 5769 0
1 2 S112 676 22505 6445 0
0 0 0 661 23166 -11777 0
0 0 0 670 23836 -11107 0
0 0 0 655 24491 -10452 0
0 0 0 654 25145 -9798 0
0 0 0 652 25797 -9146 0
0 0 0 632 26429 -8514 0
0 0 0 626 27055 -7888 0
0 0 0 631 27686 -7257 0
0 0 0 634 28320 -6623 0
0 0 0 649 28969 -5974 0
0 0 0 660 29629 -5314 0
0 0 0 665 30294 -4649 0
0 0 0 658 30952 -3991 0
0 0 0 641 31593 -3350 0
0 0 0 637 32230 -2713 0
0 0 0 636 32866 -2077 0
2 1 S102 644 33510 -1433 0
2 1 S102 653 34163 -780 0
2 1 S102 656 34819 -124 0
2 2 S102 648 35467 524 0
2 2 S102 641 36108 1165 0
2 2 S102 641 36749 1806 0
2 2 S102 638 37387 2444 0
2 2 S102 647 38034 3091 0
2 2 S102 662 38696 3753 0
2 2 S102 688 39384 4441 0
2 2 S102 693 40077 5134 0
2 2 S102 686 40763 5820 0
2 2 S102 694 41457 6514 0
0 0 0 671 42128 -8366 0
0 0 0 665 42793 -7701 0
0 0 0 671 43464 -7030 0
0 0 0 663 44127 -6367 0
0 0 0 661 44788 -5706 0
0 0 0 660 45448 -5046 0
0 0 0 652 46100 -4394 0
0 0 0 661 46761 -3733 0
0 0 0 671 47432 -3062 0
0 0 0 673 48105 -2389 0
3 1 S116 674 48779 -1715 0
3 1 S116 664 49443 -1051 0
3 1 S116 658 50101 -393 0
3 2 S116 660 50761 267 0
3 2 S116 661 51422 928 0
3 2 S116 665 52087 1593 0
3 2 S116 679 52766 2272 0
3 2 S116 664 53430 2936 0
3 2 S116 649 54079 3585 0
3 2 S116 641 54720 4226 0
3 2 S116 632 55352 4858 0
3 2 S116 632 55984 5490 0
3 2 S116 633 56617 6123 0
3 2 S116 645 57262 6768 0
0 0 0 652 57914 -11827 0
0 0 0 671 58585 -11156 0
0 0 0 656 59241 -10500 0
0 0 0 639 59880 -9861 0
0 0 0 639 60519 -9222 0
0 0 0 635 61154 -8587 0
0 0 0 638 61792 -7949 0
0 0 0 630 62422 -7319 0
0 0 0 618 63040 -6701 0
0 0 0 610 63650 -6091 0
0 0 0 611 64261 -5480 0
0 0 0 611 64872 -4869 0
0 0 0 618 65490 -4251 0
0 0 0 627 66117 -3624 0
0 0 0 632 66749 -2992 0
0 0 0 619 67368 -2373 0
4 1 S106 625 67993 -1748 0
4 1 S106 636 68629 -1112 0
4 1 S106 661 69290 -451 0
4 2 S106 670 69960 219 0
4 2 S106 659 70619 878 0
4 2 S106 660 71279 1538 0
4 2 S106 652 71931 2190 0
4 2 S106 645 72576 2835 0
4 2 S106 640 73216 3475 0
4 2 S106 638 73854 4113 0
4 2 S106 643 74497 4756 0
4 2 S106 663 75160 5419 0
4 2 S106 673 75833 6092 0
4 2 S106 698 76531 6790 0
0 0 0 688 77219 -6664 0
0 0 0 677 77896 -5987 0
0 0 0 662 78558 -5325 0
0 0 0 659 79217 -4666 0
0 0 0 651 79868 -4015 0
0 0 0 645 80513 -3370 0
0 0 0 647 81160 -2723 0
0 0 0 645 81805 -2078 0
5 1 S116 643 82448 -1435 0
5 1 S116 650 83098 -785 0
5 1 S116 651 83749 -134 0
5 2 S116 641 84390 507 0
5 2 S116 648 85038 1155 0
5 2 S116 649 85687 1804 0
5 2 S116 641 86328 2445 0
5 2 S116 645 86973 3090 0
5 2 S116 656 87629 3746 0
5 2 S116 664 88293 4410 0
5 2 S116 671 88964 5081 0
5 2 S116 670 89634 5751 0
5 2 S116 664 90298 6415 0
0 0 0 649 90947 -10111 0
0 0 0 642 91589 -9469 0
0 0 0 638 92227 -8831 0
0 0 0 623 92850 -8208 0
0 0 0 620 93470 -7588 0
0 0 0 625 94095 -6963 0
0 0 0 625 94720 -6338 0
0 0 0 626 95346 -5712 0
0 0 0 630 95976 -5082 0
0 0 0 639 96615 -4443 0
0 0 0 653 97268 -3790 0
0 0 0 657 97925 -3133 0
0 0 0 650 98575 -2483 0
6 1 S106 640 99215 -1843 0
6 1 S106 644 99859 -1199 0
6 1 S106 637 100496 -562 0
6 2 S106 626 101122 64 0
6 2 S106 624 101746 688 0
6 2 S106 626 102372 1314 0
6 2 S106 628 103000 1942 0
6 2 S106 628 103628 2570 0
6 2 S106 624 104252 3194 0
6 2 S106 629 104881 3823 0
6 2 S106 637 105518 4460 0
6 2 S106 649 106167 5109 0
6 2 S106 675 106842 5784 0
6 2 S106 685 107527 6469 0
0 0 0 685 108212 -10286 0
0 0 0 683 108895 -9603 0
0 0 0 673 109568 -8930 0
0 0 0 661 110229 -8269 0
0 0 0 643 110872 -7626 0
0 0 0 644 111516 -6982 0
0 0 0 631 112147 -6351 0
0 0 0 635 112782 -5716 0
0 0 0 637 113419 -5079 0
0 0 0 639 114058 -4440 0
0 0 0 649 114707 -3791 0
0 0 0 639 115346 -3152 0
0 0 0 658 116004 -2494 0
7 1 S102 659 116663 -1835 0
7 1 S102 660 117323 -1175 0
7 1 S102 674 117997 -501 0
7 2 S102 669 118666 168 0
7 2 S102 653 119319 821 0
7 2 S102 650 119969 1471 0
7 2 S102 647 120616 2118 0
7 2 S102 648 121264 2766 0
7 2 S102 644 121908 3410 0
7 2 S102 647 122555 4057 0
7 2 S102 643 123198 4700 0
7 2 S102 639 123837 5339 0
7 2 S102 649 124486 5988 0
7 2 S102 658 125144 6646 0
0 0 0 662 125806 -7961 0
0 0 0 678 126484 -7283 0
0 0 0 689 127173 -6594 0
0 0 0 674 127847 -5920 0
0 0 0 675 128522 -5245 0
0 0 0 679 129201 -4566 0
0 0 0 680 129881 -3886 0
0 0 0 683 130564 -3203 0
0 0 0 682 131246 -2521 0
8 1 S112 664 131910 -1857 0
8 1 S112 654 132564 -1203 0
8 1 S112 646 133210 -557 0
8 2 S112 636 133846 79 0
8 2 S112 629 134475 708 0
8 2 S112 627 135102 1335 0
8 2 S112 632 135734 1967 0
8 2 S112 636 136370 2603 0
8 2 S112 638 137008 3241 0
8 2 S112 646 137654 3887 0
8 2 S112 656 138310 4543 0
8 2 S112 671 138981 5214 0
8 2 S112 670 139651 5884 0
8 2 S112 669 140320 6553 0
0 0 0 664 140984 -8118 0
0 0 0 675 141659 -7443 0
0 0 0 656 142315 -6787 0
0 0 0 642 142957 -6145 0
0 0 0 641 143598 -5504 0
0 0 0 630 144228 -4874 0
0 0 0 621 144849 -4253 0
0 0 0 599 145448 -3654 0
0 0 0 600 146048 -3054 0
0 0 0 602 146650 -2452 0
9 1 S116 597 147247 -1855 0
9 1 S116 589 147836 -1266 0
9 1 S116 606 148442 -660 0
9 1 S116 612 149054 -48 0
9 2 S116 614 149668 566 0
9 2 S116 609 150277 1175 0
9 2 S116 611 150888 1786 0
9 2 S116 613 151501 2399 0
9 2 S116 608 152109 3007 0
9 2 S116 603 152712 3610 0
9 2 S116 602 153314 4212 0
9 2 S116 605 153919 4817 0
9 2 S116 605 154524 5422 0
9 2 S116 604 155128 6026 0
9 2 S116 604 155732 6630 0
0 0 0 601 156333 -10873 0
0 0 0 606 156939 -10267 0
0 0 0 602 157541 -9665 0
0 0 0 607 158148 -9058 0
0 0 0 605 158753 -8453 0
0 0 0 607 159360 -7846 0
0 0 0 629 159989 -7217 0
0 0 0 667 160656 -6550 0
0 0 0 680 161336 -5870 0
0 0 0 677 162013 -5193 0
0 0 0 657 162670 -4536 0
0 0 0 640 163310 -3896 0
0 0 0 646 163956 -3250 0
0 0 0 651 164607 -2599 0
10 1 S102 658 165265 -1941 0
10 1 S102 670 165935 -1271 0
10 1 S102 657 166592 -614 0
10 2 S102 644 167236 30 0
10 2 S102 630 167866 660 0
10 2 S102 623 168489 1283 0
10 2 S102 619 169108 1902 0
10 2 S102 621 169729 2523 0
10 2 S102 626 170355 3149 0
10 2 S102 647 171002 3796 0
10 2 S102 661 171663 4457 0
10 2 S102 683 172346 5140 0
10 2 S102 688 173034 5828 0
10 2 S102 683 173717 6511 0
0 0 0 693 174410 -10402 0
0 0 0 702 175112 -9700 0
0 0 0 711 175823 -8989 0
0 0 0 690 176513 -8299 0
0 0 0 675 177188 -7624 0
0 0 0 666 177854 -6958 0
0 0 0 664 178518 -6294 0
0 0 0 652 179170 -5642 0
0 0 0 644 179814 -4998 0
0 0 0 644 180458 -4354 0
0 0 0 641 181099 -3713 0
0 0 0 636 181735 -3077 0
0 0 0 645 182380 -2432 0
11 1 S112 642 183022 -1790 0
11 1 S112 650 183672 -1140 0
11 1 S112 688 184360 -452 0
11 2 S112 690 185050 238 0
11 2 S112 670 185720 908 0
11 2 S112 682 186402 1590 0
11 2 S112 688 187090 2278 0
11 2 S112 696 187786 2974 0
11 2 S112 688 188474 3662 0
11 2 S112 682 189156 4344 0
11 2 S112 670 189826 5014 0
11 2 S112 670 190496 5684 0
11 2 S112 666 191162 6350 0
11 2 S112 666 191828 7016 0
0 0 0 666 192494 -6857 0
0 0 0 662 193156 -6195 0
0 0 0 666 193822 -5529 0
0 0 0 686 194508 -4843 0
0 0 0 686 195194 -4157 0
0 0 0 696 195890 -3461 0
0 0 0 678 196568 -2783 0
0 0 0 680 197248 -2103 0
12 1 S116 681 197929 -1422 0
12 1 S116 684 198613 -738 0
12 1 S116 687 199300 -51 0
12 2 S116 677 199977 626 0
12 2 S116 673 200650 1299 0
12 2 S116 682 201332 1981 0
12 2 S116 682 202014 2663 0
12 2 S116 677 202691 3340 0
12 2 S116 677 203368 4017 0
12 2 S116 671 204039 4688 0
12 2 S116 654 204693 5342 0
12 2 S116 666 205359 6008 0
12 2 S116 664 206023 6672 0
0 0 0 691 206714 -11354 0
0 0 0 690 207404 -10664 0
0 0 0 672 208076 -9992 0
0 0 0 668 208744 -9324 0
0 0 0 676 209420 -8648 0
0 0 0 674 210094 -7974 0
0 0 0 674 210768 -7300 0
0 0 0 666 211434 -6634 0
0 0 0 652 212086 -5982 0
0 0 0 642 212728 -5340 0
0 0 0 635 213363 -4705 0
0 0 0 628 213991 -4077 0
0 0 0 633 214624 -3444 0
0 0 0 627 215251 -2817 0
0 0 0 625 215876 -2192 0
13 1 S112 622 216498 -1570 0
13 1 S112 632 217130 -938 0
13 1 S112 653 217783 -285 0
13 2 S112 660 218443 375 0
13 2 S112 662 219105 1037 0
13 2 S112 665 219770 1702 0
13 2 S112 670 220440 2372 0
13 2 S112 666 221106 3038 0
13 2 S112 667 221773 3705 0
13 2 S112 677 222450 4382 0
13 2 S112 672 223122 5054 0
13 2 S112 689 223811 5743 0
13 2 S112 702 224513 6445 0
0 0 0 699 225212 -11573 0
0 0 0 686 225898 -10887 0
0 0 0 691 226589 -10196 0
0 0 0 689 227278 -9507 0
0 0 0 693 227971 -8814 0
0 0 0 688 228659 -8126 0
0 0 0 682 229341 -7444 0
0 0 0 683 230024 -6761 0
0 0 0 686 230710 -6075 0
0 0 0 683 231393 -5392 0
0 0 0 683 232076 -4709 0
0 0 0 682 232758 -4027 0
0 0 0 671 233429 -3356 0
0 0 0 669 234098 -2687 0
0 0 0 666 234764 -2021 0
14 1 S106 669 235433 -1352 0
14 1 S106 666 236099 -686 0
14 1 S106 666 236765 -20 0
14 2 S106 652 237417 632 0
14 2 S106 659 238076 1291 0
14 2 S106 666 238742 1957 0
14 2 S106 669 239411 2626 0
14 2 S106 676 240087 3302 0
14 2 S106 683 240770 3985 0
14 2 S106 666 241436 4651 0
14 2 S106 659 242095 5310 0
14 2 S106 662 242757 5972 0
14 2 S106 659 243416 6631 0
0 0 0 669 244085 -11931 0
0 0 0 670 244755 -11261 0
0 0 0 681 245436 -10580 0
0 0 0 664 246100 -9916 0
0 0 0 672 246772 -9244 0
0 0 0 671 247443 -8573 0
0 0 0 666 248109 -7907 0
0 0 0 661 248770 -7246 0
0 0 0 655 249425 -6591 0
0 0 0 646 250071 -5945 0
0 0 0 650 250721 -5295 0
0 0 0 648 251369 -4647 0
0 0 0 657 252026 -3990 0
0 0 0 666 252692 -3324 0
0 0 0 658 253350 -2666 0
0 0 0 642 253992 -2024 0
15 1 S116 646 254638 -1378 0
15 1 S116 642 255280 -736 0
15 1 S116 637 255917 -99 0
15 2 S116 637 256554 538 0
15 2 S116 641 257195 1179 0
15 2 S116 632 257827 1811 0
15 2 S116 630 258457 2441 0
15 2 S116 640 259097 3081 0
15 2 S116 653 259750 3734 0
15 2 S116 654 260404 4388 0
15 2 S116 654 261058 5042 0
15 2 S116 653 261711 5695 0
15 2 S116 648 262359 6343 0
15 2 S116 638 262997 6981 0
0 0 0 640 263637 -9190 0
0 0 0 639 264276 -8551 0
0 0 0 634 264910 -7917 0
0 0 0 638 265548 -7279 0
0 0 0 636 266184 -6643 0
0 0 0 630 266814 -6013 0
0 0 0 646 267460 -5367 0
0 0 0 657 268117 -4710 0
0 0 0 656 268773 -4054 0
0 0 0 664 269437 -3390 0
0 0 0 659 270096 -2731 0
0 0 0 647 270743 -2084 0
16 1 S116 637 271380 -1447 0
16 1 S116 632 272012 -815 0
16 1 S116 633 272645 -182 0
16 2 S116 637 273282 455 0
16 2 S116 632 273914 1087 0
16 2 S116 636 274550 1723 0
16 2 S116 633 275183 2356 0
16 2 S116 632 275815 2988 0
16 2 S116 630 276445 3618 0
16 2 S116 634 277079 4252 0
16 2 S116 647 277726 4899 0
16 2 S116 669 278395 5568 0
16 2 S116 672 279067 6240 0
16 2 S116 668 279735 6908 0
0 0 0 653 280388 -8768 0
0 0 0 657 281045 -8111 0
0 0 0 646 281691 -7465 0
0 0 0 645 282336 -6820 0
0 0 0 643 282979 -6177 0
0 0 0 635 283614 -5542 0
0 0 0 641 284255 -4901 0
0 0 0 646 284901 -4255 0
0 0 0 653 285554 -3602 0
0 0 0 641 286195 -2961 0
0 0 0 641 286836 -2320 0
17 1 S106 629 287465 -1691 0
17 1 S106 630 288095 -1061 0
17 1 S106 629 288724 -432 0
17 2 S106 628 289352 196 0
17 2 S106 637 289989 833 0
17 2 S106 641 290630 1474 0
17 2 S106 647 291277 2121 0
17 2 S106 649 291926 2770 0
17 2 S106 651 292577 3421 0
17 2 S106 656 293233 4077 0
17 2 S106 662 293895 4739 0
17 2 S106 667 294562 5406 0
17 2 S106 668 295230 6074 0
17 2 S106 671 295901 6745 0
0 0 0 663 296564 -10978 0
0 0 0 659 297223 -10319 0
0 0 0 655 297878 -9664 0
0 0 0 661 298539 -9003 0
0 0 0 662 299201 -8341 0
0 0 0 665 299866 -7676 0
0 0 0 658 300524 -7018 0
0 0 0 655 301179 -6363 0
0 0 0 654 301833 -5709 0
0 0 0 654 302487 -5055 0
0 0 0 658 303145 -4397 0
0 0 0 667 303812 -3730 0
0 0 0 662 304474 -3068 0
0 0 0 653 305127 -2415 0
18 1 S102 645 305772 -1770 0
18 1 S102 642 306414 -1128 0
18 1 S102 632 307046 -496 0
18 2 S102 636 307682 140 0
18 2 S102 655 308337 795 0
18 2 S102 666 309003 1461 0
18 2 S102 672 309675 2133 0
18 2 S102 668 310343 2801 0
18 2 S102 658 311001 3459 0
18 2 S102 649 311650 4108 0
18 2 S102 652 312302 4760 0
18 2 S102 651 312953 5411 0
18 2 S102 654 313607 6065 0
18 2 S102 654 314261 6719 0
0 0 0 654 314915 -6636 0
0 0 0 661 315576 -5975 0
0 0 0 659 316235 -5316 0
0 0 0 657 316892 -4659 0
0 0 0 654 317546 -4005 0
0 0 0 657 318203 -3348 0
0 0 0 654 318857 -2694 0
0 0 0 648 319505 -2046 0
19 1 S106 641 320146 -1405 0
19 1 S106 638 320784 -767 0
19 1 S106 641 321425 -126 0
19 2 S106 640 322065 514 0
19 2 S106 648 322713 1162 0
19 2 S106 657 323370 1819 0
19 2 S106 660 324030 2479 0
19 2 S106 659 324689 3138 0
19 2 S106 651 325340 3789 0
19 2 S106 654 325994 4443 0
19 2 S106 654 326648 5097 0
19 2 S106 654 327302 5751 0
19 2 S106 654 327956 6405 0
0 0 0 652 328608 -11046 0
0 0 0 648 329256 -10398 0
0 0 0 651 329907 -9747 0
0 0 0 657 330564 -9090 0
0 0 0 650 331214 -8440 0
0 0 0 645 331859 -7795 0
0 0 0 638 332497 -7157 0
0 0 0 630 333127 -6527 0
0 0 0 630 333757 -5897 0
0 0 0 626 334383 -5271 0
0 0 0 631 335014 -4640 0
0 0 0 627 335641 -4013 0
0 0 0 630 336271 -3383 0
0 0 0 623 336894 -2760 0
0 0 0 618 337512 -2142 0
20 1 S112 623 338135 -1519 0
20 1 S112 626 338761 -893 0
20 1 S112 627 339388 -266 0
20 2 S112 621 340009 355 0
20 2 S112 617 340626 972 0
20 2 S112 618 341244 1590 0
20 2 S112 627 341871 2217 0
20 2 S112 645 342516 2862 0
20 2 S112 659 343175 3521 0
20 2 S112 686 343861 4207 0
20 2 S112 684 344545 4891 0
20 2 S112 682 345227 5573 0
20 2 S112 674 345901 6247 0
20 2 S112 679 346580 6926 0
0 0 0 682 347262 -9700 0
0 0 0 680 347942 -9020 0
0 0 0 669 348611 -8351 0
0 0 0 654 349265 -7697 0
0 0 0 655 349920 -7042 0
0 0 0 650 350570 -6392 0
0 0 0 656 351226 -5736 0
0 0 0 655 351881 -5081 0
0 0 0 658 352539 -4423 0
0 0 0 650 353189 -3773 0
0 0 0 649 353838 -3124 0
0 0 0 651 354489 -2473 0
21 1 S106 644 355133 -1829 0
21 1 S106 660 355793 -1169 0
21 1 S106 673 356466 -496 0
21 2 S106 678 357144 182 0
21 2 S106 669 357813 851 0
21 2 S106 666 358479 1517 0
21 2 S106 664 359143 2181 0
21 2 S106 665 359808 2846 0
21 2 S106 660 360468 3506 0
21 2 S106 661 361129 4167 0
21 2 S106 650 361779 4817 0
21 2 S106 652 362431 5469 0
21 2 S106 651 363082 6120 0
21 2 S106 655 363737 6775 0
0 0 0 665 364402 -10945 0
0 0 0 675 365077 -10270 0
0 0 0 667 365744 -9603 0
0 0 0 668 366412 -8935 0
0 0 0 662 367074 -8273 0
0 0 0 665 367739 -7608 0
0 0 0 661 368400 -6947 0
0 0 0 656 369056 -6291 0
0 0 0 643 369699 -5648 0
0 0 0 639 370338 -5009 0
0 0 0 644 370982 -4365 0
0 0 0 636 371618 -3729 0
0 0 0 633 372251 -3096 0
0 0 0 634 372885 -2462 0
22 1 S116 631 373516 -1831 0
22 1 S116 628 374144 -1203 0
22 1 S116 635 374779 -568 0
22 2 S116 636 375415 68 0
22 2 S116 637 376052 705 0
22 2 S116 638 376690 1343 0
22 2 S116 640 377330 1983 0
22 2 S116 640 377970 2623 0
22 2 S116 635 378605 3258 0
22 2 S116 639 379244 3897 0
22 2 S116 641 379885 4538 0
22 2 S116 645 380530 5183 0
22 2 S116 655 381185 5838 0
22 2 S116 678 381863 6516 0
0 0 0 669 382532 -9377 0
0 0 0 660 383192 -8717 0
0 0 0 664 383856 -8053 0
0 0 0 660 384516 -7393 0
0 0 0 655 385171 -6738 0
0 0 0 640 385811 -6098 0
0 0 0 635 386446 -5463 0
0 0 0 630 387076 -4833 0
0 0 0 617 387693 -4216 0
0 0 0 615 388308 -3601 0
0 0 0 609 388917 -2992 0
0 0 0 604 389521 -2388 0
23 1 S112 591 390112 -1797 0
23 1 S112 578 390690 -1219 0
23 1 S112 581 391271 -638 0
23 1 S112 631 391902 -7 0
23 2 S112 634 392536 627 0
23 2 S112 643 393179 1270 0
23 2 S112 659 393838 1929 0
23 2 S112 670 394508 2599 0
23 2 S112 675 395183 3274 0
23 2 S112 668 395851 3942 0
23 2 S112 662 396513 4604 0
23 2 S112 660 397173 5264 0
23 2 S112 649 397822 5913 0
23 2 S112 639 398461 6552 0
0 0 0 632 399093 -9229 0
0 0 0 626 399719 -8603 0
0 0 0 629 400348 -7974 0
0 0 0 635 400983 -7339 0
0 0 0 663 401646 -6676 0
0 0 0 678 402324 -5998 0
0 0 0 686 403010 -5312 0
0 0 0 683 403693 -4629 0
0 0 0 671 404364 -3958 0
0 0 0 677 405041 -3281 0
0 0 0 678 405719 -2603 0
24 1 S106 683 406402 -1920 0
24 1 S106 678 407080 -1242 0
24 1 S106 671 407751 -571 0
24 2 S106 660 408411 89 0
24 2 S106 659 409070 748 0
24 2 S106 652 409722 1400 0
24 2 S106 654 410376 2054 0
24 2 S106 649 411025 2703 0
24 2 S106 645 411670 3348 0
24 2 S106 639 412309 3987 0
24 2 S106 635 412944 4622 0
24 2 S106 652 413596 5274 0
24 2 S106 652 414248 5926 0
24 2 S106 706 414954 6632 0
0 0 0 706 415660 -8179 0
0 0 0 695 416355 -7484 0
0 0 0 675 417030 -6809 0
0 0 0 684 417714 -6125 0
0 0 0 673 418387 -5452 0
0 0 0 667 419054 -4785 0
0 0 0 671 419725 -4114 0
0 0 0 686 420411 -3428 0
0 0 0 683 421094 -2745 0
0 0 0 684 421778 -2061 0
25 1 S102 676 422454 -1385 0
25 1 S102 668 423122 -717 0
25 1 S102 691 423813 -26 0
25 2 S102 694 424507 668 0
25 2 S102 709 425216 1377 0
25 2 S102 739 425955 2116 0
25 2 S102 721 426676 2837 0
25 2 S102 700 427376 3537 0
25 2 S102 686 428062 4223 0
25 2 S102 683 428745 4906 0
25 2 S102 672 429417 5578 0
25 2 S102 659 430076 6237 0
25 2 S102 659 430735 6896 0
0 0 0 655 431390 -5778 0
0 0 0 653 432043 -5125 0
0 0 0 656 432699 -4469 0
0 0 0 657 433356 -3812 0
0 0 0 665 434021 -3147 0
0 0 0 676 434697 -2471 0
26 1 S116 663 435360 -1808 0
26 1 S116 657 436017 -1151 0
26 1 S116 663 436680 -488 0
26 2 S116 676 437356 188 0
26 2 S116 685 438041 873 0
26 2 S116 677 438718 1550 0
26 2 S116 668 439386 2218 0
26 2 S116 658 440044 2876 0
26 2 S116 645 440689 3521 0
26 2 S116 640 441329 4161 0
26 2 S116 628 441957 4789 0
26 2 S116 622 442579 5411 0
26 2 S116 623 443202 6034 0
26 2 S116 637 443839 6671 0
0 0 0 639 444478 -7893 0
0 0 0 659 445137 -7234 0
0 0 0 660 445797 -6574 0
0 0 0 665 446462 -5909 0
0 0 0 680 447142 -5229 0
0 0 0 690 447832 -4539 0
0 0 0 674 448506 -3865 0
0 0 0 683 449189 -3182 0
0 0 0 715 449904 -2467 0
27 1 S106 701 450605 -1766 0
27 1 S106 701 451306 -1065 0
27 1 S106 699 452005 -366 0
27 2 S106 693 452698 327 0
27 2 S106 670 453368 997 0
27 2 S106 656 454024 1653 0
27 2 S106 648 454672 2301 0
27 2 S106 633 455305 2934 0
27 2 S106 633 455938 3567 0
27 2 S106 649 456587 4216 0
27 2 S106 659 457246 4875 0
27 2 S106 664 457910 5539 0
27 2 S106 673 458583 6212 0
27 2 S106 676 459259 6888 0
0 0 0 671 459930 -7079 0
0 0 0 684 460614 -6395 0
0 0 0 675 461289 -5720 0
0 0 0 680 461969 -5040 0
0 0 0 665 462634 -4375 0
0 0 0 654 463288 -3721 0
0 0 0 647 463935 -3074 0
0 0 0 637 464572 -2437 0
28 1 S102 635 465207 -1802 0
28 1 S102 636 465843 -1166 0
28 1 S102 654 466497 -512 0
28 2 S102 652 467149 140 0
28 2 S102 645 467794 785 0
28 2 S102 645 468439 1430 0
28 2 S102 648 469087 2078 0
28 2 S102 652 469739 2730 0
28 2 S102 652 470391 3382 0
28 2 S102 653 471044 4035 0
28 2 S102 651 471695 4686 0
28 2 S102 652 472347 5338 0
28 2 S102 643 472990 5981 0
28 2 S102 653 473643 6634 0
0 0 0 654 474297 -10319 0
0 0 0 657 474954 -9662 0
0 0 0 669 475623 -8993 0
0 0 0 679 476302 -8314 0
0 0 0 667 476969 -7647 0
0 0 0 672 477641 -6975 0
0 0 0 668 478309 -6307 0
0 0 0 660 478969 -5647 0
0 0 0 654 479623 -4993 0
0 0 0 645 480268 -4348 0
0 0 0 634 480902 -3714 0
0 0 0 635 481537 -3079 0
0 0 0 636 482173 -2443 0
29 1 S112 639 482812 -1804 0
29 1 S112 639 483451 -1165 0
29 1 S112 645 484096 -520 0
29 2 S112 642 484738 122 0
29 2 S112 649 485387 771 0
29 2 S112 652 486039 1423 0
29 2 S112 663 486702 2086 0
29 2 S112 671 487373 2757 0
29 2 S112 673 488046 3430 0
29 2 S112 667 488713 4097 0
29 2 S112 656 489369 4753 0
29 2 S112 653 490022 5406 0
29 2 S112 649 490671 6055 0
29 2 S112 656 491327 6711 0
0 0 0 666 491993 -7228 0
0 0 0 665 492658 -6563 0
0 0 0 664 493322 -5899 0
0 0 0 658 493980 -5241 0
0 0 0 658 494638 -4583 0
0 0 0 666 495304 -3917 0
0 0 0 674 495978 -3243 0
0 0 0 663 496641 -2580 0
30 1 S112 652 497293 -1928 0
30 1 S112 648 497941 -1280 0
30 1 S112 639 498580 -641 0
30 1 S112 617 499197 -24 0
30 2 S112 620 499817 596 0
30 2 S112 617 500434 1213 0
30 2 S112 623 501057 1836 0
30 2 S112 633 501690 2469 0
30 2 S112 674 502364 3143 0
30 2 S112 676 503040 3819 0
30 2 S112 669 503709 4488 0
30 2 S112 660 504369 5148 0
30 2 S112 648 505017 5796 0
30 2 S112 647 505664 6443 0
0 0 0 644 506308 -8646 0
0 0 0 655 506963 -7991 0
0 0 0 645 507608 -7346 0
0 0 0 645 508253 -6701 0
0 0 0 641 508894 -6060 0
0 0 0 630 509524 -5430 0
0 0 0 618 510142 -4812 0
0 0 0 619 510761 -4193 0
0 0 0 623 511384 -3570 0
0 0 0 620 512004 -2950 0
0 0 0 614 512618 -2336 0
31 1 S106 602 513220 -1734 0
31 1 S106 602 513822 -1132 0
31 1 S106 604 514426 -528 0
31 2 S106 608 515034 80 0
31 2 S106 614 515648 694 0
31 2 S106 625 516273 1319 0
31 2 S106 634 516907 1953 0
31 2 S106 640 517547 2593 0
31 2 S106 641 518188 3234 0
31 2 S106 637 518825 3871 0
31 2 S106 629 519454 4500 0
31 2 S106 636 520090 5136 0
31 2 S106 647 520737 5783 0
31 2 S106 672 521409 6455 0
0 0 0 733 522142 -9689 0
0 0 0 739 522881 -8950 0
0 0 0 749 523630 -8201 0
0 0 0 720 524350 -7481 0
0 0 0 719 525069 -6762 0
0 0 0 725 525794 -6037 0
0 0 0 714 526508 -5323 0
0 0 0 708 527216 -4615 0
0 0 0 699 527915 -3916 0
0 0 0 678 528593 -3238 0
0 0 0 683 529276 -2555 0
32 1 S102 672 529948 -1883 0
32 1 S102 669 530617 -1214 0
32 1 S102 683 531300 -531 0
32 2 S102 688 531988 157 0
32 2 S102 676 532664 833 0
32 2 S102 682 533346 1515 0
32 2 S102 691 534037 2206 0
32 2 S102 692 534729 2898 0
32 2 S102 695 535424 3593 0
32 2 S102 699 536123 4292 0
32 2 S102 685 536808 4977 0
32 2 S102 668 537476 5645 0
32 2 S102 674 538150 6319 0
32 2 S102 676 538826 6995 0
0 0 0 678 539504 -10149 0
0 0 0 692 540196 -9457 0
0 0 0 681 540877 -8776 0
0 0 0 678 541555 -8098 0
0 0 0 683 542238 -7415 0
0 0 0 681 542919 -6734 0
0 0 0 672 543591 -6062 0
0 0 0 657 544248 -5405 0
0 0 0 660 544908 -4745 0
0 0 0 661 545569 -4084 0
0 0 0 672 546241 -3412 0
0 0 0 681 546922 -2731 0
0 0 0 699 547621 -2032 0
33 1 S112 687 548308 -1345 0
33 1 S112 670 548978 -675 0
33 1 S112 674 549652 -1 0
33 2 S112 673 550325 672 0
33 2 S112 673 550998 1345 0
33 2 S112 685 551683 2030 0
33 2 S112 687 552370 2717 0
33 2 S112 678 553048 3395 0
33 2 S112 705 553753 4100 0
33 2 S112 694 554447 4794 0
33 2 S112 699 555146 5493 0
33 2 S112 702 555848 6195 0
33 2 S112 694 556542 6889 0
0 0 0 679 557221 -10751 0
0 0 0 675 557896 -10076 0
0 0 0 665 558561 -9411 0
0 0 0 678 559239 -8733 0
0 0 0 692 559931 -8041 0
0 0 0 666 560597 -7375 0
0 0 0 668 561265 -6707 0
0 0 0 662 561927 -6045 0
0 0 0 662 562589 -5383 0
0 0 0 662 563251 -4721 0
0 0 0 660 563911 -4061 0
0 0 0 653 564564 -3408 0
0 0 0 644 565208 -2764 0
0 0 0 650 565858 -2114 0
34 1 S106 647 566505 -1467 0
34 1 S106 650 567155 -817 0
34 1 S106 646 567801 -171 0
34 2 S106 642 568443 471 0
34 2 S106 643 569086 1114 0
34 2 S106 640 569726 1754 0
34 2 S106 649 570375 2403 0
34 2 S106 656 571031 3059 0
34 2 S106 664 571695 3723 0
34 2 S106 687 572382 4410 0
34 2 S106 683 573065 5093 0
34 2 S106 676 573741 5769 0
34 2 S106 673 574414 6442 0
0 0 0 674 575088 -8451 0
0 0 0 670 575758 -7781 0
0 0 0 670 576428 -7111 0
0 0 0 664 577092 -6447 0
0 0 0 647 577739 -5800 0
0 0 0 652 578391 -5148 0
0 0 0 655 579046 -4493 0
0 0 0 665 579711 -3828 0
0 0 0 675 580386 -3153 0
0 0 0 671 581057 -2482 0
35 1 S102 651 581708 -1831 0
35 1 S102 650 582358 -1181 0
35 1 S102 645 583003 -536 0
35 2 S102 643 583646 107 0
35 2 S102 645 584291 752 0
35 2 S102 649 584940 1401 0
35 2 S102 646 585586 2047 0
35 2 S102 654 586240 2701 0
35 2 S102 661 586901 3362 0
35 2 S102 673 587574 4035 0
35 2 S102 680 588254 4715 0
35 2 S102 680 588934 5395 0
35 2 S102 685 589619 6080 0
35 2 S102 682 590301 6762 0
0 0 0 679 590980 -7264 0
0 0 0 687 591667 -6577 0
0 0 0 675 592342 -5902 0
0 0 0 677 593019 -5225 0
0 0 0 669 593688 -4556 0
0 0 0 659 594347 -3897 0
0 0 0 660 595007 -3237 0
0 0 0 657 595664 -2580 0
36 1 S106 662 596326 -1918 0
36 1 S106 660 596986 -1258 0
36 1 S106 652 597638 -606 0
36 2 S106 655 598293 49 0
36 2 S106 659 598952 708 0
36 2 S106 660 599612 1368 0
36 2 S106 670 600282 2038 0
36 2 S106 681 600963 2719 0
36 2 S106 664 601627 3383 0
36 2 S106 657 602284 4040 0
36 2 S106 663 602947 4703 0
36 2 S106 662 603609 5365 0
36 2 S106 662 604271 6027 0
36 2 S106 671 604942 6698 0
0 0 0 667 605609 -8235 0
0 0 0 662 606271 -7573 0
0 0 0 667 606938 -6906 0
0 0 0 663 607601 -6243 0
0 0 0 663 608264 -5580 0
0 0 0 673 608937 -4907 0
0 0 0 663 609600 -4244 0
0 0 0 662 610262 -3582 0
0 0 0 667 610929 -2915 0
0 0 0 667 611596 -2248 0
37 1 S116 669 612265 -1579 0
37 1 S116 662 612927 -917 0
37 1 S116 649 613576 -268 0
37 2 S116 652 614228 384 0
37 2 S116 648 614876 1032 0
37 2 S116 655 615531 1687 0
37 2 S116 667 616198 2354 0
37 2 S116 673 616871 3027 0
37 2 S116 659 617530 3686 0
37 2 S116 649 618179 4335 0
37 2 S116 655 618834 4990 0
37 2 S116 662 619496 5652 0
37 2 S116 676 620172 6328 0
37 2 S116 690 620862 7018 0
0 0 0 684 621546 -11496 0
0 0 0 664 622210 -10832 0
0 0 0 660 622870 -10172 0
0 0 0 658 623528 -9514 0
0 0 0 653 624181 -8861 0
0 0 0 644 624825 -8217 0
0 0 0 636 625461 -7581 0
0 0 0 627 626088 -6954 0
0 0 0 631 626719 -6323 0
0 0 0 628 627347 -5695 0
0 0 0 629 627976 -5066 0
0 0 0 629 628605 -4437 0
0 0 0 619 629224 -3818 0
0 0 0 642 629866 -3176 0
0 0 0 645 630511 -2531 0
38 1 S102 665 631176 -1866 0
38 1 S102 686 631862 -1180 0
38 1 S102 662 632524 -518 0
38 2 S102 653 633177 135 0
38 2 S102 661 633838 796 0
38 2 S102 665 634503 1461 0
38 2 S102 675 635178 2136 0
38 2 S102 679 635857 2815 0
38 2 S102 677 636534 3492 0
38 2 S102 671 637205 4163 0
38 2 S102 665 637870 4828 0
38 2 S102 667 638537 5495 0
38 2 S102 682 639219 6177 0
38 2 S102 685 639904 6862 0
0 0 0 692 640596 -8428 0
0 0 0 679 641275 -7749 0
0 0 0 680 641955 -7069 0
0 0 0 685 642640 -6384 0
0 0 0 680 643320 -5704 0
0 0 0 680 644000 -5024 0
0 0 0 667 644667 -4357 0
0 0 0 663 645330 -3694 0
0 0 0 662 645992 -3032 0
0 0 0 665 646657 -2367 0
39 1 S116 662 647319 -1705 0
39 1 S116 655 647974 -1050 0
39 1 S116 648 648622 -402 0
39 2 S116 651 649273 249 0
39 2 S116 649 649922 898 0
39 2 S116 653 650575 1551 0
39 2 S116 668 651243 2219 0
39 2 S116 683 651926 2902 0
39 2 S116 670 652596 3572 0
39 2 S116 658 653254 4230 0
39 2 S116 648 653902 4878 0
39 2 S116 649 654551 5527 0
39 2 S116 643 655194 6170 0
39 2 S116 639 655833 6809 0
0 0 0 638 656471 -6512 0
0 0 0 642 657113 -5870 0
0 0 0 633 657746 -5237 0
0 0 0 628 658374 -4609 0
0 0 0 631 659005 -3978 0
0 0 0 632 659637 -3346 0
0 0 0 642 660279 -2704 0
0 0 0 653 660932 -2051 0
40 1 S112 659 661591 -1392 0
40 1 S112 650 662241 -742 0
40 1 S112 639 662880 -103 0
40 2 S112 648 663528 545 0
40 2 S112 662 664190 1207 0
40 2 S112 676 664866 1883 0
40 2 S112 673 665539 2556 0
40 2 S112 676 666215 3232 0
40 2 S112 668 666883 3900 0
40 2 S112 670 667553 4570 0
40 2 S112 676 668229 5246 0
40 2 S112 686 668915 5932 0
40 2 S112 690 669605 6622 0
0 0 0 680 670285 -187494 0
0 0 0 680 670965 -186814 0
0 0 0 656 671621 -186158 0
0 0 0 643 672264 -185515 0
0 0 0 611 672875 -184904 0
0 0 0 634 673509 -184270 0
0 0 0 643 674152 -183627 0
0 0 0 639 674791 -182988 0
0 0 0 636 675427 -182352 0
0 0 0 627 676054 -181725 0
0 0 0 641 676695 -181084 0
0 0 0 673 677368 -180411 0
0 0 0 675 678043 -179736 0
0 0 0 665 678708 -179071 0
0 0 0 650 679358 -178421 0
0 0 0 1259 680617 -177162 1
0 0 0 1201 681818 -175961 1
0 0 0 1162 682980 -174799 1
0 0 0 1111 684091 -173688 1
0 0 0 547 684638 -173141 0
0 0 0 577 685215 -172564 0
0 0 0 584 685799 -171980 0
0 0 0 580 686379 -171400 0
0 0 0 600 686979 -170800 0
0 0 0 605 687584 -170195 0
0 0 0 621 688205 -169574 0
0 0 0 617 688822 -168957 0
0 0 0 608 689430 -168349 0
0 0 0 601 690031 -167748 0
0 0 0 593 690624 -167155 0
0 0 0 589 691213 -166566 0
0 0 0 582 691795 -165984 0
0 0 0 579 692374 -165405 0
0 0 0 586 692960 -164819 0
0 0 0 599 693559 -164220 0
0 0 0 634 694193 -163586 0
0 0 0 684 694877 -162902 0
0 0 0 708 695585 -162194 0
0 0 0 718 696303 -161476 0
0 0 0 717 697020 -160759 0
0 0 0 696 697716 -160063 0
0 0 0 692 698408 -159371 0
0 0 0 694 699102 -158677 0
0 0 0 693 699795 -157984 0
0 0 0 686 700481 -157298 0
0 0 0 679 701160 -156619 0
0 0 0 671 701831 -155948 0
0 0 0 653 702484 -155295 0
0 0 0 633 703117 -154662 0
0 0 0 643 703760 -154019 0
0 0 0 631 704391 -153388 0
0 0 0 1272 705663 -152116 1
0 0 0 666 706329 -151450 0
0 0 0 671 707000 -150779 0
0 0 0 541 707541 -150238 0
0 0 0 785 708326 -149453 0
0 0 0 661 708987 -148792 0
0 0 0 663 709650 -148129 0
0 0 0 666 710316 -147463 0
0 0 0 669 710985 -146794 0
0 0 0 1303 712288 -145491 1
0 0 0 640 712928 -144851 0
0 0 0 621 713549 -144230 0
0 0 0 600 714149 -143630 0
0 0 0 601 714750 -143029 0
0 0 0 594 715344 -142435 0
0 0 0 590 715934 -141845 0
0 0 0 593 716527 -141252 0
0 0 0 681 717208 -140571 0
0 0 0 690 717898 -139881 0
0 0 0 673 718571 -139208 0
0 0 0 666 719237 -138542 0
0 0 0 681 719918 -137861 0
0 0 0 693 720611 -137168 0
0 0 0 681 721292 -136487 0
0 0 0 685 721977 -135802 0
0 0 0 675 722652 -135127 0
0 0 0 656 723308 -134471 0
0 0 0 650 723958 -133821 0
0 0 0 634 724592 -133187 0
0 0 0 624 725216 -132563 0
0 0 0 627 725843 -131936 0
0 0 0 637 726480 -131299 0
0 0 0 669 727149 -130630 0
0 0 0 675 727824 -129955 0
0 0 0 677 728501 -129278 0
0 0 0 672 729173 -128606 0
0 0 0 666 729839 -127940 0
0 0 0 674 730513 -127266 0
0 0 0 667 731180 -126599 0
0 0 0 655 731835 -125944 0
0 0 0 648 732483 -125296 0
0 0 0 647 733130 -124649 0
0 0 0 644 733774 -124005 0
0 0 0 629 734403 -123376 0
0 0 0 620 735023 -122756 0
0 0 0 615 735638 -122141 0
0 0 0 619 736257 -121522 0
0 0 0 633 736890 -120889 0
0 0 0 618 737508 -120271 0
0 0 0 620 738128 -119651 0
0 0 0 632 738760 -119019 0
0 0 0 650 739410 -118369 0
0 0 0 664 740074 -117705 0
0 0 0 665 740739 -117040 0
0 0 0 655 741394 -116385 0
0 0 0 633 742027 -115752 0
0 0 0 633 742660 -115119 0
0 0 0 621 743281 -114498 0
0 0 0 621 743902 -113877 0
0 0 0 647 744549 -113230 0
0 0 0 706 745255 -112524 0
0 0 0 730 745985 -111794 0
0 0 0 743 746728 -111051 0
0 0 0 725 747453 -110326 0
0 0 0 699 748152 -109627 0
0 0 0 681 748833 -108946 0
0 0 0 683 749516 -108263 0
0 0 0 677 750193 -107586 0
0 0 0 677 750870 -106909 0
0 0 0 681 751551 -106228 0
0 0 0 686 752237 -105542 0
0 0 0 684 752921 -104858 0
0 0 0 679 753600 -104179 0
0 0 0 668 754268 -103511 0
0 0 0 661 754929 -102850 0
0 0 0 657 755586 -102193 0
0 0 0 672 756258 -101521 0
0 0 0 687 756945 -100834 0
0 0 0 700 757645 -100134 0
0 0 0 709 758354 -99425 0
0 0 0 697 759051 -98728 0
0 0 0 689 759740 -98039 0
0 0 0 706 760446 -97333 0
0 0 0 711 761157 -96622 0
0 0 0 712 761869 -95910 0
0 0 0 744 762613 -95166 0
0 0 0 738 763351 -94428 0
0 0 0 717 764068 -93711 0
0 0 0 703 764771 -93008 0
0 0 0 690 765461 -92318 0
0 0 0 694 766155 -91624 0
0 0 0 1353 767508 -90271 1
0 0 0 665 768173 -89606 0
0 0 0 662 768835 -88944 0
0 0 0 659 769494 -88285 0
0 0 0 649 770143 -87636 0
0 0 0 662 770805 -86974 0
0 0 0 660 771465 -86314 0
0 0 0 661 772126 -85653 0
0 0 0 663 772789 -84990 0
0 0 0 646 773435 -84344 0
0 0 0 655 774090 -83689 0
0 0 0 658 774748 -83031 0
0 0 0 651 775399 -82380 0
0 0 0 643 776042 -81737 0
0 0 0 638 776680 -81099 0
0 0 0 634 777314 -80465 0
0 0 0 626 777940 -79839 0
0 0 0 617 778557 -79222 0
0 0 0 628 779185 -78594 0
0 0 0 635 779820 -77959 0
0 0 0 667 780487 -77292 0
0 0 0 713 781200 -76579 0
0 0 0 710 781910 -75869 0
0 0 0 715 782625 -75154 0
0 0 0 683 783308 -74471 0
0 0 0 686 783994 -73785 0
0 0 0 680 784674 -73105 0
0 0 0 669 785343 -72436 0
0 0 0 673 786016 -71763 0
0 0 0 672 786688 -71091 0
0 0 0 685 787373 -70406 0
0 0 0 693 788066 -69713 0
0 0 0 705 788771 -69008 0
0 0 0 699 789470 -68309 0
0 0 0 695 790165 -67614 0
0 0 0 688 790853 -66926 0
0 0 0 676 791529 -66250 0
0 0 0 682 792211 -65568 0
0 0 0 678 792889 -64890 0
0 0 0 670 793559 -64220 0
0 0 0 649 794208 -63571 0
0 0 0 652 794860 -62919 0
0 0 0 648 795508 -62271 0
0 0 0 651 796159 -61620 0
0 0 0 672 796831 -60948 0
0 0 0 693 797524 -60255 0
0 0 0 704 798228 -59551 0
0 0 0 700 798928 -58851 0
0 0 0 693 799621 -58158 0
0 0 0 673 800294 -57485 0
0 0 0 673 800967 -56812 0
0 0 0 674 801641 -56138 0
0 0 0 674 802315 -55464 0
0 0 0 684 802999 -54780 0
0 0 0 715 803714 -54065 0
0 0 0 748 804462 -53317 0
0 0 0 721 805183 -52596 0
0 0 0 708 805891 -51888 0
0 0 0 723 806614 -51165 0
0 0 0 711 807325 -50454 0
0 0 0 705 808030 -49749 0
0 0 0 710 808740 -49039 0
0 0 0 687 809427 -48352 0
0 0 0 677 810104 -47675 0
0 0 0 657 810761 -47018 0
0 0 0 662 811423 -46356 0
0 0 0 653 812076 -45703 0
0 0 0 672 812748 -45031 0
0 0 0 677 813425 -44354 0
0 0 0 689 814114 -43665 0
0 0 0 670 814784 -42995 0
0 0 0 682 815466 -42313 0
0 0 0 677 816143 -41636 0
0 0 0 684 816827 -40952 0
0 0 0 668 817495 -40284 0
0 0 0 659 818154 -39625 0
0 0 0 658 818812 -38967 0
0 0 0 646 819458 -38321 0
0 0 0 637 820095 -37684 0
0 0 0 635 820730 -37049 0
0 0 0 628 821358 -36421 0
0 0 0 623 821981 -35798 0
0 0 0 623 822604 -35175 0
0 0 0 617 823221 -34558 0
0 0 0 625 823846 -33933 0
0 0 0 639 824485 -33294 0
0 0 0 658 825143 -32636 0
0 0 0 684 825827 -31952 0
0 0 0 669 826496 -31283 0
0 0 0 671 827167 -30612 0
0 0 0 653 827820 -29959 0
0 0 0 666 828486 -29293 0
0 0 0 675 829161 -28618 0
0 0 0 681 829842 -27937 0
0 0 0 688 830530 -27249 0
0 0 0 684 831214 -26565 0
0 0 0 672 831886 -25893 0
0 0 0 660 832546 -25233 0
0 0 0 669 833215 -24564 0
0 0 0 672 833887 -23892 0
0 0 0 662 834549 -23230 0
0 0 0 636 835185 -22594 0
0 0 0 673 835858 -21921 0
0 0 0 690 836548 -21231 0
0 0 0 679 837227 -20552 0
0 0 0 670 837897 -19882 0
0 0 0 639 838536 -19243 0
0 0 0 652 839188 -18591 0
0 0 0 639 839827 -17952 0
0 0 0 634 840461 -17318 0
0 0 0 635 841096 -16683 0
0 0 0 639 841735 -16044 0
0 0 0 641 842376 -15403 0
0 0 0 640 843016 -14763 0
0 0 0 638 843654 -14125 0
0 0 0 631 844285 -13494 0
0 0 0 633 844918 -12861 0
0 0 0 642 845560 -12219 0
0 0 0 654 846214 -11565 0
0 0 0 669 846883 -10896 0
0 0 0 681 847564 -10215 0
0 0 0 688 848252 -9527 0
0 0 0 700 848952 -8827 0
0 0 0 690 849642 -8137 0
0 0 0 680 850322 -7457 0
0 0 0 672 850994 -6785 0
0 0 0 653 851647 -6132 0
0 0 0 660 852307 -5472 0
0 0 0 635 852942 -4837 0
0 0 0 649 853591 -4188 0
0 0 0 643 854234 -3545 0
0 0 0 639 854873 -2906 0
0 0 0 632 855505 -2274 0
41 1 S102 623 856128 -1651 0
41 1 S102 634 856762 -1017 0
41 1 S102 645 857407 -372 0
41 2 S102 682 858089 310 0
41 2 S102 700 858789 1010 0
41 2 S102 701 859490 1711 0
41 2 S102 690 860180 2401 0
41 2 S102 683 860863 3084 0
41 2 S102 674 861537 3758 0
41 2 S102 674 862211 4432 0
41 2 S102 673 862884 5105 0
41 2 S102 677 863561 5782 0
41 2 S102 686 864247 6468 0
0 0 0 693 864940 -6185 0
0 0 0 701 865641 -5484 0
0 0 0 708 866349 -4776 0
0 0 0 685 867034 -4091 0
0 0 0 665 867699 -3426 0
0 0 0 672 868371 -2754 0
0 0 0 674 869045 -2080 0
42 1 S112 685 869730 -1395 0
42 1 S112 708 870438 -687 0
42 2 S112 718 871156 31 0
42 2 S112 719 871875 750 0
42 2 S112 715 872590 1465 0
42 2 S112 692 873282 2157 0
42 2 S112 708 873990 2865 0
42 2 S112 710 874700 3575 0
42 2 S112 717 875417 4292 0
42 2 S112 723 876140 5015 0
42 2 S112 706 876846 5721 0
42 2 S112 684 877530 6405 0
0 0 0 674 878204 -9797 0
0 0 0 695 878899 -9102 0
0 0 0 690 879589 -8412 0
0 0 0 700 880289 -7712 0
0 0 0 711 881000 -7001 0
0 0 0 689 881689 -6312 0
0 0 0 697 882386 -5615 0
0 0 0 717 883103 -4898 0
0 0 0 722 883825 -4176 0
0 0 0 710 884535 -3466 0
0 0 0 712 885247 -2754 0
0 0 0 689 885936 -2065 0
43 1 S116 682 886618 -1383 0
43 1 S116 674 887292 -709 0
43 1 S116 657 887949 -52 0
43 2 S116 656 888605 604 0
43 2 S116 652 889257 1256 0
43 2 S116 655 889912 1911 0
43 2 S116 675 890587 2586 0
43 2 S116 683 891270 3269 0
43 2 S116 700 891970 3969 0
43 2 S116 695 892665 4664 0
43 2 S116 691 893356 5355 0
43 2 S116 701 894057 6056 0
43 2 S116 681 894738 6737 0
0 0 0 677 895415 -7573 0
0 0 0 680 896095 -6893 0
0 0 0 673 896768 -6220 0
0 0 0 666 897434 -5554 0
0 0 0 660 898094 -4894 0
0 0 0 646 898740 -4248 0
0 0 0 662 899402 -3586 0
0 0 0 668 900070 -2918 0
0 0 0 674 900744 -2244 0
44 1 S102 667 901411 -1577 0
44 1 S102 653 902064 -924 0
44 1 S102 657 902721 -267 0
44 2 S102 655 903376 388 0
44 2 S102 660 904036 1048 0
44 2 S102 677 904713 1725 0
44 2 S102 690 905403 2415 0
44 2 S102 692 906095 3107 0
44 2 S102 684 906779 3791 0
44 2 S102 679 907458 4470 0
44 2 S102 697 908155 5167 0
44 2 S102 704 908859 5871 0
44 2 S102 715 909574 6586 0
0 0 0 706 910280 -7944 0
0 0 0 697 910977 -7247 0
0 0 0 667 911644 -6580 0
0 0 0 670 912314 -5910 0
0 0 0 662 912976 -5248 0
0 0 0 659 913635 -4589 0
0 0 0 671 914306 -3918 0
0 0 0 677 914983 -3241 0
0 0 0 674 915657 -2567 0
45 1 S116 660 916317 -1907 0
45 1 S116 661 916978 -1246 0
45 1 S116 656 917634 -590 0
45 2 S116 658 918292 68 0
45 2 S116 668 918960 736 0
45 2 S116 677 919637 1413 0
45 2 S116 679 920316 2092 0
45 2 S116 672 920988 2764 0
45 2 S116 676 921664 3440 0
45 2 S116 686 922350 4126 0
45 2 S116 686 923036 4812 0
45 2 S116 678 923714 5490 0
45 2 S116 671 924385 6161 0
45 2 S116 653 925038 6814 0
0 0 0 654 925692 -10834 0
0 0 0 660 926352 -10174 0
0 0 0 659 927011 -9515 0
0 0 0 678 927689 -8837 0
0 0 0 681 928370 -8156 0
0 0 0 676 929046 -7480 0
0 0 0 704 929750 -6776 0
0 0 0 706 930456 -6070 0
0 0 0 715 931171 -5355 0
0 0 0 715 931886 -4640 0
0 0 0 698 932584 -3942 0
0 0 0 679 933263 -3263 0
0 0 0 680 933943 -2583 0
46 1 S102 669 934612 -1914 0
46 1 S102 667 935279 -1247 0
46 1 S102 661 935940 -586 0
46 2 S102 671 936611 85 0
46 2 S102 664 937275 749 0
46 2 S102 659 937934 1408 0
46 2 S102 682 938616 2090 0
46 2 S102 701 939317 2791 0
46 2 S102 720 940037 3511 0
46 2 S102 729 940766 4240 0
46 2 S102 719 941485 4959 0
46 2 S102 690 942175 5649 0
46 2 S102 682 942857 6331 0
46 2 S102 677 943534 7008 0
0 0 0 680 944214 -7680 0
0 0 0 685 944899 -6995 0
0 0 0 685 945584 -6310 0
0 0 0 685 946269 -5625 0
0 0 0 691 946960 -4934 0
0 0 0 689 947649 -4245 0
0 0 0 683 948332 -3562 0
0 0 0 684 949016 -2878 0
0 0 0 659 949675 -2219 0
47 1 S112 660 950335 -1559 0
47 1 S112 653 950988 -906 0
47 1 S112 649 951637 -257 0
47 2 S112 645 952282 388 0
47 2 S112 635 952917 1023 0
47 2 S112 628 953545 1651 0
47 2 S112 637 954182 2288 0
47 2 S112 658 954840 2946 0
47 2 S112 675 955515 3621 0
47 2 S112 701 956216 4322 0
47 2 S112 711 956927 5033 0
47 2 S112 715 957642 5748 0
47 2 S112 698 958340 6446 0
0 0 0 680 959020 -10696 0
0 0 0 680 959700 -10016 0
0 0 0 670 960370 -9346 0
0 0 0 661 961031 -8685 0
0 0 0 648 961679 -8037 0
0 0 0 642 962321 -7395 0
0 0 0 659 962980 -6736 0
0 0 0 671 963651 -6065 0
0 0 0 691 964342 -5374 0
0 0 0 690 965032 -4684 0
0 0 0 673 965705 -4011 0
0 0 0 676 966381 -3335 0
0 0 0 674 967055 -2661 0
48 1 S116 671 967726 -1990 0
48 1 S116 670 968396 -1320 0
48 1 S116 658 969054 -662 0
48 1 S116 649 969703 -13 0
48 2 S116 644 970347 631 0
48 2 S116 654 971001 1285 0
48 2 S116 664 971665 1949 0
48 2 S116 676 972341 2625 0
48 2 S116 676 973017 3301 0
48 2 S116 677 973694 3978 0
48 2 S116 665 974359 4643 0
48 2 S116 654 975013 5297 0
48 2 S116 662 975675 5959 0
48 2 S116 661 976336 6620 0
0 0 0 669 977005 -7582 0
0 0 0 690 977695 -6892 0
0 0 0 684 978379 -6208 0
0 0 0 662 979041 -5546 0
0 0 0 663 979704 -4883 0
0 0 0 661 980365 -4222 0
0 0 0 662 981027 -3560 0
0 0 0 654 981681 -2906 0
0 0 0 638 982319 -2268 0
49 1 S112 636 982955 -1632 0
49 1 S112 627 983582 -1005 0
49 1 S112 616 984198 -389 0
49 2 S112 602 984800 213 0
49 2 S112 625 985425 838 0
49 2 S112 636 986061 1474 0
49 2 S112 669 986730 2143 0
49 2 S112 687 987417 2830 0
49 2 S112 683 988100 3513 0
49 2 S112 678 988778 4191 0
49 2 S112 678 989456 4869 0
49 2 S112 681 990137 5550 0
49 2 S112 673 990810 6223 0
49 2 S112 678 991488 6901 0
0 0 0 677 992165 -10824 0
0 0 0 676 992841 -10148 0
0 0 0 658 993499 -9490 0
0 0 0 667 994166 -8823 0
0 0 0 668 994834 -8155 0
0 0 0 661 995495 -7494 0
0 0 0 649 996144 -6845 0
0 0 0 634 996778 -6211 0
0 0 0 620 997398 -5591 0
0 0 0 625 998023 -4966 0
0 0 0 612 998635 -4354 0
0 0 0 619 999254 -3735 0
0 0 0 641 999895 -3094 0
0 0 0 653 1000548 -2441 0
50 1 S106 660 1001208 -1781 0
50 1 S106 666 1001874 -1115 0
50 1 S106 650 1002524 -465 0
50 2 S106 635 1003159 170 0
50 2 S106 639 1003798 809 0
50 2 S106 637 1004435 1446 0
50 2 S106 642 1005077 2088 0
50 2 S106 644 1005721 2732 0
50 2 S106 644 1006365 3376 0
50 2 S106 644 1007009 4020 0
50 2 S106 646 1007655 4666 0
50 2 S106 655 1008310 5321 0
50 2 S106 645 1008955 5966 0
50 2 S106 643 1009598 6609 0
0 0 0 672 1010270 -7043 0
0 0 0 693 1010963 -6350 0
0 0 0 710 1011673 -5640 0
0 0 0 731 1012404 -4909 0
0 0 0 705 1013109 -4204 0
0 0 0 707 1013816 -3497 0
0 0 0 705 1014521 -2792 0
0 0 0 692 1015213 -2100 0
51 1 S112 675 1015888 -1425 0
51 1 S112 653 1016541 -772 0
51 1 S112 638 1017179 -134 0
51 2 S112 619 1017798 485 0
51 2 S112 618 1018416 1103 0
51 2 S112 640 1019056 1743 0
51 2 S112 657 1019713 2400 0
51 2 S112 690 1020403 3090 0
51 2 S112 695 1021098 3785 0
51 2 S112 712 1021810 4497 0
51 2 S112 712 1022522 5209 0
51 2 S112 695 1023217 5904 0
51 2 S112 703 1023920 6607 0
0 0 0 693 1024613 -6079 0
0 0 0 698 1025311 -5381 0
0 0 0 683 1025994 -4698 0
0 0 0 677 1026671 -4021 0
0 0 0 653 1027324 -3368 0
0 0 0 654 1027978 -2714 0
0 0 0 647 1028625 -2067 0
52 1 S116 652 1029277 -1415 0
52 1 S116 667 1029944 -748 0
52 1 S116 675 1030619 -73 0
52 2 S116 670 1031289 597 0
52 2 S116 664 1031953 1261 0
52 2 S116 694 1032647 1955 0
52 2 S116 707 1033354 2662 0
52 2 S116 705 1034059 3367 0
52 2 S116 730 1034789 4097 0
52 2 S116 720 1035509 4817 0
52 2 S116 706 1036215 5523 0
52 2 S116 685 1036900 6208 0
52 2 S116 679 1037579 6887 0
0 0 0 671 1038250 -8987 0
0 0 0 657 1038907 -8330 0
0 0 0 645 1039552 -7685 0
0 0 0 650 1040202 -7035 0
0 0 0 637 1040839 -6398 0
0 0 0 648 1041487 -5750 0
0 0 0 671 1042158 -5079 0
0 0 0 704 1042862 -4375 0
0 0 0 719 1043581 -3656 0
0 0 0 723 1044304 -2933 0
0 0 0 710 1045014 -2223 0
53 1 S106 695 1045709 -1528 0
53 1 S106 693 1046402 -835 0
53 1 S106 696 1047098 -139 0
53 2 S106 680 1047778 541 0
53 2 S106 667 1048445 1208 0
53 2 S106 658 1049103 1866 0
53 2 S106 652 1049755 2518 0
53 2 S106 643 1050398 3161 0
53 2 S106 638 1051036 3799 0
53 2 S106 643 1051679 4442 0
53 2 S106 666 1052345 5108 0
53 2 S106 681 1053026 5789 0
53 2 S106 709 1053735 6498 0
0 0 0 702 1054437 -8185 0
0 0 0 712 1055149 -7473 0
0 0 0 696 1055845 -6777 0
0 0 0 693 1056538 -6084 0
0 0 0 702 1057240 -5382 0
0 0 0 693 1057933 -4689 0
0 0 0 688 1058621 -4001 0
0 0 0 677 1059298 -3324 0
0 0 0 672 1059970 -2652 0
54 1 S102 654 1060624 -1998 0
54 1 S102 659 1061283 -1339 0
54 1 S102 657 1061940 -682 0
54 1 S102 653 1062593 -29 0
54 2 S102 659 1063252 630 0
54 2 S102 667 1063919 1297 0
54 2 S102 661 1064580 1958 0
54 2 S102 667 1065247 2625 0
54 2 S102 677 1065924 3302 0
54 2 S102 689 1066613 3991 0
54 2 S102 685 1067298 4676 0
54 2 S102 682 1067980 5358 0
54 2 S102 677 1068657 6035 0
54 2 S102 659 1069316 6694 0
0 0 0 659 1069975 -10087 0
0 0 0 670 1070645 -9417 0
0 0 0 672 1071317 -8745 0
0 0 0 669 1071986 -8076 0
0 0 0 662 1072648 -7414 0
0 0 0 655 1073303 -6759 0
0 0 0 664 1073967 -6095 0
0 0 0 675 1074642 -5420 0
0 0 0 689 1075331 -4731 0
0 0 0 683 1076014 -4048 0
0 0 0 673 1076687 -3375 0
0 0 0 685 1077372 -2690 0
55 1 S106 699 1078071 -1991 0
55 1 S106 698 1078769 -1293 0
55 1 S106 683 1079452 -610 0
55 2 S106 683 1080135 73 0
55 2 S106 663 1080798 736 0
55 2 S106 656 1081454 1392 0
55 2 S106 647 1082101 2039 0
55 2 S106 643 1082744 2682 0
55 2 S106 650 1083394 3332 0
55 2 S106 673 1084067 4005 0
55 2 S106 671 1084738 4676 0
55 2 S106 660 1085398 5336 0
55 2 S106 669 1086067 6005 0
55 2 S106 679 1086746 6684 0
0 0 0 697 1087443 -6346 0
0 0 0 703 1088146 -5643 0
0 0 0 701 1088847 -4942 0
0 0 0 680 1089527 -4262 0
0 0 0 676 1090203 -3586 0
0 0 0 677 1090880 -2909 0
0 0 0 666 1091546 -2243 0
56 1 S116 653 1092199 -1590 0
56 1 S116 633 1092832 -957 0
56 1 S116 626 1093458 -331 0
56 2 S116 622 1094080 291 0
56 2 S116 626 1094706 917 0
56 2 S116 644 1095350 1561 0
56 2 S116 673 1096023 2234 0
56 2 S116 672 1096695 2906 0
56 2 S116 664 1097359 3570 0
56 2 S116 653 1098012 4223 0
56 2 S116 663 1098675 4886 0
56 2 S116 667 1099342 5553 0
56 2 S116 676 1100018 6229 0
56 2 S116 681 1100699 6910 0
0 0 0 676 1101375 -6091 0
0 0 0 670 1102045 -5421 0
0 0 0 664 1102709 -4757 0
0 0 0 661 1103370 -4096 0
0 0 0 654 1104024 -3442 0
0 0 0 642 1104666 -2800 0
0 0 0 636 1105302 -2164 0
57 1 S106 637 1105939 -1527 0
57 1 S106 642 1106581 -885 0
57 1 S106 642 1107223 -243 0
57 2 S106 644 1107867 401 0
57 2 S106 639 1108506 1040 0
57 2 S106 636 1109142 1676 0
57 2 S106 656 1109798 2332 0
57 2 S106 670 1110468 3002 0
57 2 S106 665 1111133 3667 0
57 2 S106 673 1111806 4340 0
57 2 S106 671 1112477 5011 0
57 2 S106 666 1113143 5677 0
57 2 S106 654 1113797 6331 0
57 2 S106 664 1114461 6995 0
0 0 0 659 1115120 -7864 0
0 0 0 664 1115784 -7200 0
0 0 0 658 1116442 -6542 0
0 0 0 650 1117092 -5892 0
0 0 0 639 1117731 -5253 0
0 0 0 664 1118395 -4589 0
0 0 0 672 1119067 -3917 0
0 0 0 682 1119749 -3235 0
0 0 0 681 1120430 -2554 0
58 1 S102 661 1121091 -1893 0
58 1 S102 658 1121749 -1235 0
58 1 S102 661 1122410 -574 0
58 2 S102 666 1123076 92 0
58 2 S102 692 1123768 784 0
58 2 S102 701 1124469 1485 0
58 2 S102 714 1125183 2199 0
58 2 S102 700 1125883 2899 0
58 2 S102 678 1126561 3577 0
58 2 S102 685 1127246 4262 0
58 2 S102 679 1127925 4941 0
58 2 S102 669 1128594 5610 0
58 2 S102 664 1129258 6274 0
58 2 S102 662 1129920 6936 0
0 0 0 656 1130576 -7842 0
0 0 0 664 1131240 -7178 0
0 0 0 686 1131926 -6492 0
0 0 0 694 1132620 -5798 0
0 0 0 714 1133334 -5084 0
0 0 0 679 1134013 -4405 0
0 0 0 679 1134692 -3726 0
0 0 0 672 1135364 -3054 0
0 0 0 677 1136041 -2377 0
59 1 S112 685 1136726 -1692 0
59 1 S112 688 1137414 -1004 0
59 1 S112 672 1138086 -332 0
59 2 S112 668 1138754 336 0
59 2 S112 656 1139410 992 0
59 2 S112 654 1140064 1646 0
59 2 S112 651 1140715 2297 0
59 2 S112 646 1141361 2943 0
59 2 S112 648 1142009 3591 0
59 2 S112 657 1142666 4248 0
59 2 S112 652 1143318 4900 0
59 2 S112 656 1143974 5556 0
59 2 S112 660 1144634 6216 0
59 2 S112 666 1145300 6882 0
0 0 0 676 1145976 -8192 0
0 0 0 690 1146666 -7502 0
0 0 0 671 1147337 -6831 0
0 0 0 662 1147999 -6169 0
0 0 0 654 1148653 -5515 0
0 0 0 654 1149307 -4861 0
0 0 0 647 1149954 -4214 0
0 0 0 646 1150600 -3568 0
0 0 0 647 1151247 -2921 0
0 0 0 634 1151881 -2287 0
60 1 S102 631 1152512 -1656 0
60 1 S102 634 1153146 -1022 0
60 1 S102 635 1153781 -387 0
60 2 S102 652 1154433 265 0
60 2 S102 647 1155080 912 0
60 2 S102 645 1155725 1557 0
60 2 S102 644 1156369 2201 0
60 2 S102 638 1157007 2839 0
60 2 S102 638 1157645 3477 0
60 2 S102 647 1158292 4124 0
60 2 S102 650 1158942 4774 0
60 2 S102 669 1159611 5443 0
60 2 S102 682 1160293 6125 0
60 2 S102 678 1160971 6803 0
0 0 0 678 1161649 -10672 0
0 0 0 690 1162339 -9982 0
0 0 0 696 1163035 -9286 0
0 0 0 685 1163720 -8601 0
0 0 0 682 1164402 -7919 0
0 0 0 670 1165072 -7249 0
0 0 0 680 1165752 -6569 0
0 0 0 679 1166431 -5890 0
0 0 0 671 1167102 -5219 0
0 0 0 666 1167768 -4553 0
0 0 0 670 1168438 -3883 0
0 0 0 670 1169108 -3213 0
0 0 0 669 1169777 -2544 0
61 1 S106 671 1170448 -1873 0
61 1 S106 681 1171129 -1192 0
61 1 S106 677 1171806 -515 0
61 2 S106 664 1172470 149 0
61 2 S106 655 1173125 804 0
61 2 S106 661 1173786 1465 0
61 2 S106 660 1174446 2125 0
61 2 S106 659 1175105 2784 0
61 2 S106 657 1175762 3441 0
61 2 S106 650 1176412 4091 0
61 2 S106 648 1177060 4739 0
61 2 S106 654 1177714 5393 0
61 2 S106 661 1178375 6054 0
61 2 S106 663 1179038 6717 0
0 0 0 664 1179702 -6760 0
0 0 0 652 1180354 -6108 0
0 0 0 663 1181017 -5445 0
0 0 0 666 1181683 -4779 0
0 0 0 666 1182349 -4113 0
0 0 0 660 1183009 -3453 0
0 0 0 652 1183661 -2801 0
0 0 0 646 1184307 -2155 0
62 1 S112 646 1184953 -1509 0
62 1 S112 641 1185594 -868 0
62 1 S112 639 1186233 -229 0
62 2 S112 639 1186872 410 0
62 2 S112 639 1187511 1049 0
62 2 S112 651 1188162 1700 0
62 2 S112 658 1188820 2358 0
62 2 S112 659 1189479 3017 0
62 2 S112 654 1190133 3671 0
62 2 S112 646 1190779 4317 0
62 2 S112 640 1191419 4957 0
62 2 S112 658 1192077 5615 0
62 2 S112 656 1192733 6271 0
62 2 S112 657 1193390 6928 0
0 0 0 655 1194045 -10140 0
0 0 0 643 1194688 -9497 0
0 0 0 647 1195335 -8850 0
0 0 0 639 1195974 -8211 0
0 0 0 634 1196608 -7577 0
0 0 0 632 1197240 -6945 0
0 0 0 631 1197871 -6314 0
0 0 0 617 1198488 -5697 0
0 0 0 609 1199097 -5088 0
0 0 0 616 1199713 -4472 0
0 0 0 624 1200337 -3848 0
0 0 0 635 1200972 -3213 0
0 0 0 657 1201629 -2556 0
63 1 S102 668 1202297 -1888 0
63 1 S102 662 1202959 -1226 0
63 1 S102 655 1203614 -571 0
63 2 S102 660 1204274 89 0
63 2 S102 650 1204924 739 0
63 2 S102 651 1205575 1390 0
63 2 S102 650 1206225 2040 0
63 2 S102 654 1206879 2694 0
63 2 S102 643 1207522 3337 0
63 2 S102 643 1208165 3980 0
63 2 S102 645 1208810 4625 0
63 2 S102 648 1209458 5273 0
63 2 S102 663 1210121 5936 0
63 2 S102 680 1210801 6616 0
0 0 0 680 1211481 -8287 0
0 0 0 684 1212165 -7603 0
0 0 0 706 1212871 -6897 0
0 0 0 710 1213581 -6187 0
0 0 0 700 1214281 -5487 0
0 0 0 679 1214960 -4808 0
0 0 0 679 1215639 -4129 0
0 0 0 679 1216318 -3450 0
0 0 0 672 1216990 -2778 0
0 0 0 674 1217664 -2104 0
64 1 S112 670 1218334 -1434 0
64 1 S112 654 1218988 -780 0
64 1 S112 664 1219652 -116 0
64 2 S112 670 1220322 554 0
64 2 S112 680 1221002 1234 0
64 2 S112 687 1221689 1921 0
64 2 S112 686 1222375 2607 0
64 2 S112 671 1223046 3278 0
64 2 S112 682 1223728 3960 0
64 2 S112 682 1224410 4642 0
64 2 S112 676 1225086 5318 0
64 2 S112 673 1225759 5991 0
64 2 S112 658 1226417 6649 0
0 0 0 658 1227075 -6768 0
0 0 0 662 1227737 -6106 0
0 0 0 664 1228401 -5442 0
0 0 0 664 1229065 -4778 0
0 0 0 662 1229727 -4116 0
0 0 0 653 1230380 -3463 0
0 0 0 648 1231028 -2815 0
0 0 0 648 1231676 -2167 0
65 1 S106 643 1232319 -1524 0
65 1 S106 630 1232949 -894 0
65 1 S106 618 1233567 -276 0
65 2 S106 608 1234175 332 0
65 2 S106 609 1234784 941 0
65 2 S106 611 1235395 1552 0
65 2 S106 615 1236010 2167 0
65 2 S106 624 1236634 2791 0
65 2 S106 643 1237277 3434 0
65 2 S106 642 1237919 4076 0
65 2 S106 636 1238555 4712 0
65 2 S106 632 1239187 5344 0
65 2 S106 641 1239828 5985 0
65 2 S106 648 1240476 6633 0
0 0 0 657 1241133 -6354 0
0 0 0 663 1241796 -5691 0
0 0 0 660 1242456 -5031 0
0 0 0 654 1243110 -4377 0
0 0 0 660 1243770 -3717 0
0 0 0 654 1244424 -3063 0
0 0 0 652 1245076 -2411 0
66 1 S116 651 1245727 -1760 0
66 1 S116 633 1246360 -1127 0
66 1 S116 612 1246972 -515 0
66 2 S116 609 1247581 94 0
66 2 S116 640 1248221 734 0
66 2 S116 657 1248878 1391 0
66 2 S116 680 1249558 2071 0
66 2 S116 693 1250251 2764 0
66 2 S116 691 1250942 3455 0
66 2 S116 694 1251636 4149 0
66 2 S116 692 1252328 4841 0
66 2 S116 692 1253020 5533 0
66 2 S116 678 1253698 6211 0
66 2 S116 663 1254361 6874 0
0 0 0 649 1255010 -11111 0
0 0 0 638 1255648 -10473 0
0 0 0 632 1256280 -9841 0
0 0 0 623 1256903 -9218 0
0 0 0 628 1257531 -8590 0
0 0 0 637 1258168 -7953 0
0 0 0 663 1258831 -7290 0
0 0 0 665 1259496 -6625 0
0 0 0 663 1260159 -5962 0
0 0 0 653 1260812 -5309 0
0 0 0 656 1261468 -4653 0
0 0 0 669 1262137 -3984 0
0 0 0 669 1262806 -3315 0
0 0 0 675 1263481 -2640 0
67 1 S102 678 1264159 -1962 0
67 1 S102 676 1264835 -1286 0
67 1 S102 668 1265503 -618 0
67 2 S102 657 1266160 39 0
67 2 S102 657 1266817 696 0
67 2 S102 657 1267474 1353 0
67 2 S102 660 1268134 2013 0
67 2 S102 657 1268791 2670 0
67 2 S102 658 1269449 3328 0
67 2 S102 664 1270113 3992 0
67 2 S102 662 1270775 4654 0
67 2 S102 663 1271438 5317 0
67 2 S102 664 1272102 5981 0
67 2 S102 666 1272768 6647 0
0 0 0 674 1273442 -6290 0
0 0 0 736 1274178 -5554 0
0 0 0 709 1274887 -4845 0
0 0 0 1353 1276240 -3492 1
0 0 0 677 1276917 -2815 0
0 0 0 653 1277570 -2162 0
68 1 S106 647 1278217 -1515 0
68 1 S106 632 1278849 -883 0
68 2 S106 1219 1280068 336 1
68 2 S106 597 1280665 933 0
68 2 S106 600 1281265 1533 0
68 2 S106 603 1281868 2136 0
68 2 S106 606 1282474 2742 0
68 2 S106 616 1283090 3358 0
68 2 S106 619 1283709 3977 0
68 2 S106 625 1284334 4602 0
68 2 S106 625 1284959 5227 0
68 2 S106 626 1285585 5853 0
68 2 S106 628 1286213 6481 0
0 0 0 643 1286856 -10267 0
0 0 0 660 1287516 -9607 0
0 0 0 665 1288181 -8942 0
0 0 0 663 1288844 -8279 0
0 0 0 652 1289496 -7627 0
0 0 0 651 1290147 -6976 0
0 0 0 654 1290801 -6322 0
0 0 0 651 1291452 -5671 0
0 0 0 642 1292094 -5029 0
0 0 0 628 1292722 -4401 0
0 0 0 626 1293348 -3775 0
0 0 0 624 1293972 -3151 0
0 0 0 631 1294603 -2520 0
69 1 S102 651 1295254 -1869 0
69 1 S102 664 1295918 -1205 0
69 1 S102 678 1296596 -527 0
69 2 S102 673 1297269 146 0
69 2 S102 662 1297931 808 0
69 2 S102 674 1298605 1482 0
69 2 S102 682 1299287 2164 0
69 2 S102 678 1299965 2842 0
69 2 S102 678 1300643 3520 0
69 2 S102 670 1301313 4190 0
69 2 S102 671 1301984 4861 0
69 2 S102 657 1302641 5518 0
69 2 S102 662 1303303 6180 0
69 2 S102 657 1303960 6837 0
0 0 0 661 1304621 -8036 0
0 0 0 663 1305284 -7373 0
0 0 0 665 1305949 -6708 0
0 0 0 655 1306604 -6053 0
0 0 0 649 1307253 -5404 0
0 0 0 659 1307912 -4745 0
0 0 0 644 1308556 -4101 0
0 0 0 651 1309207 -3450 0
0 0 0 652 1309859 -2798 0
0 0 0 664 1310523 -2134 0
70 1 S112 660 1311183 -1474 0
70 1 S112 642 1311825 -832 0
70 1 S112 650 1312475 -182 0
70 2 S112 642 1313117 460 0
70 2 S112 644 1313761 1104 0
70 2 S112 664 1314425 1768 0
70 2 S112 669 1315094 2437 0
70 2 S112 667 1315761 3104 0
70 2 S112 672 1316433 3776 0
70 2 S112 666 1317099 4442 0
70 2 S112 653 1317752 5095 0
70 2 S112 652 1318404 5747 0
70 2 S112 655 1319059 6402 0
0 0 0 658 1319717 -11110 0
0 0 0 670 1320387 -10440 0
0 0 0 677 1321064 -9763 0
0 0 0 670 1321734 -9093 0
0 0 0 657 1322391 -8436 0
0 0 0 661 1323052 -7775 0
0 0 0 656 1323708 -7119 0
0 0 0 658 1324366 -6461 0
0 0 0 649 1325015 -5812 0
0 0 0 646 1325661 -5166 0
0 0 0 638 1326299 -4528 0
0 0 0 630 1326929 -3898 0
0 0 0 630 1327559 -3268 0
0 0 0 627 1328186 -2641 0
0 0 0 609 1328795 -2032 0
71 1 S116 595 1329390 -1437 0
71 1 S116 620 1330010 -817 0
71 1 S116 635 1330645 -182 0
71 2 S116 624 1331269 442 0
71 2 S116 631 1331900 1073 0
71 2 S116 656 1332556 1729 0
71 2 S116 658 1333214 2387 0
71 2 S116 657 1333871 3044 0
71 2 S116 666 1334537 3710 0
71 2 S116 670 1335207 4380 0
71 2 S116 675 1335882 5055 0
71 2 S116 676 1336558 5731 0
71 2 S116 677 1337235 6408 0
0 0 0 661 1337896 -9841 0
0 0 0 656 1338552 -9185 0
0 0 0 649 1339201 -8536 0
0 0 0 635 1339836 -7901 0
0 0 0 630 1340466 -7271 0
0 0 0 639 1341105 -6632 0
0 0 0 641 1341746 -5991 0
0 0 0 643 1342389 -5348 0
0 0 0 637 1343026 -4711 0
0 0 0 645 1343671 -4066 0
0 0 0 648 1344319 -3418 0
0 0 0 649 1344968 -2769 0
0 0 0 645 1345613 -2124 0
72 1 S102 636 1346249 -1488 0
72 1 S102 626 1346875 -862 0
72 1 S102 625 1347500 -237 0
72 2 S102 630 1348130 393 0
72 2 S102 645 1348775 1038 0
72 2 S102 657 1349432 1695 0
72 2 S102 665 1350097 2360 0
72 2 S102 683 1350780 3043 0
72 2 S102 683 1351463 3726 0
72 2 S102 689 1352152 4415 0
72 2 S102 676 1352828 5091 0
72 2 S102 670 1353498 5761 0
72 2 S102 668 1354166 6429 0
0 0 0 665 1354831 -6517 0
0 0 0 665 1355496 -5852 0
0 0 0 669 1356165 -5183 0
0 0 0 668 1356833 -4515 0
0 0 0 664 1357497 -3851 0
0 0 0 654 1358151 -3197 0
0 0 0 652 1358803 -2545 0
73 1 S116 664 1359467 -1881 0
73 1 S116 672 1360139 -1209 0
73 1 S116 678 1360817 -531 0
73 2 S116 670 1361487 139 0
73 2 S116 671 1362158 810 0
73 2 S116 664 1362822 1474 0
73 2 S116 667 1363489 2141 0
73 2 S116 664 1364153 2805 0
73 2 S116 667 1364820 3472 0
73 2 S116 662 1365482 4134 0
73 2 S116 664 1366146 4798 0
73 2 S116 660 1366806 5458 0
73 2 S116 648 1367454 6106 0
73 2 S116 651 1368105 6757 0
0 0 0 652 1368757 -8324 0
0 0 0 654 1369411 -7670 0
0 0 0 650 1370061 -7020 0
0 0 0 641 1370702 -6379 0
0 0 0 645 1371347 -5734 0
0 0 0 645 1371992 -5089 0
0 0 0 638 1372630 -4451 0
0 0 0 644 1373274 -3807 0
0 0 0 636 1373910 -3171 0
0 0 0 624 1374534 -2547 0
74 1 S106 611 1375145 -1936 0
74 1 S106 603 1375748 -1333 0
74 1 S106 605 1376353 -728 0
74 1 S106 603 1376956 -125 0
74 2 S106 609 1377565 484 0
74 2 S106 620 1378185 1104 0
74 2 S106 630 1378815 1734 0
74 2 S106 637 1379452 2371 0
74 2 S106 633 1380085 3004 0
74 2 S106 649 1380734 3653 0
74 2 S106 656 1381390 4309 0
74 2 S106 668 1382058 4977 0
74 2 S106 666 1382724 5643 0
74 2 S106 668 1383392 6311 0
74 2 S106 660 1384052 6971 0
0 0 0 659 1384711 -5981 0
0 0 0 672 1385383 -5309 0
0 0 0 681 1386064 -4628 0
0 0 0 674 1386738 -3954 0
0 0 0 675 1387413 -3279 0
0 0 0 721 1388134 -2558 0
75 1 S112 712 1388846 -1846 0
75 1 S112 712 1389558 -1134 0
75 1 S112 704 1390262 -430 0
75 2 S112 682 1390944 252 0
75 2 S112 688 1391632 940 0
75 2 S112 672 1392304 1612 0
75 2 S112 659 1392963 2271 0
75 2 S112 664 1393627 2935 0
75 2 S112 674 1394301 3609 0
75 2 S112 688 1394989 4297 0
75 2 S112 699 1395688 4996 0
75 2 S112 687 1396375 5683 0
75 2 S112 707 1397082 6390 0
0 0 0 718 1397800 -7348 0
0 0 0 720 1398520 -6628 0
0 0 0 716 1399236 -5912 0
0 0 0 704 1399940 -5208 0
0 0 0 688 1400628 -4520 0
0 0 0 682 1401310 -3838 0
0 0 0 677 1401987 -3161 0
0 0 0 673 1402660 -2488 0
76 1 S116 657 1403317 -1831 0
76 1 S116 650 1403967 -1181 0
76 1 S116 645 1404612 -536 0
76 2 S116 649 1405261 113 0
76 2 S116 663 1405924 776 0
76 2 S116 683 1406607 1459 0
76 2 S116 683 1407290 2142 0
76 2 S116 691 1407981 2833 0
76 2 S116 681 1408662 3514 0
76 2 S116 677 1409339 4191 0
76 2 S116 685 1410024 4876 0
76 2 S116 676 1410700 5552 0
76 2 S116 673 1411373 6225 0
76 2 S116 667 1412040 6892 0
0 0 0 659 1412699 -6325 0
0 0 0 649 1413348 -5676 0
0 0 0 650 1413998 -5026 0
0 0 0 658 1414656 -4368 0
0 0 0 665 1415321 -3703 0
0 0 0 670 1415991 -3033 0
0 0 0 665 1416656 -2368 0
77 1 S106 653 1417309 -1715 0
77 1 S106 639 1417948 -1076 0
77 1 S106 629 1418577 -447 0
77 2 S106 628 1419205 181 0
77 2 S106 623 1419828 804 0
77 2 S106 632 1420460 1436 0
77 2 S106 660 1421120 2096 0
77 2 S106 668 1421788 2764 0
77 2 S106 689 1422477 3453 0
77 2 S106 684 1423161 4137 0
77 2 S106 682 1423843 4819 0
77 2 S106 677 1424520 5496 0
77 2 S106 675 1425195 6171 0
77 2 S106 683 1425878 6854 0
0 0 0 743 1426621 -8948 0
0 0 0 733 1427354 -8215 0
0 0 0 719 1428073 -7496 0
0 0 0 713 1428786 -6783 0
0 0 0 713 1429499 -6070 0
0 0 0 691 1430190 -5379 0
0 0 0 676 1430866 -4703 0
0 0 0 684 1431550 -4019 0
0 0 0 697 1432247 -3322 0
0 0 0 703 1432950 -2619 0
78 1 S112 730 1433680 -1889 0
78 1 S112 716 1434396 -1173 0
78 1 S112 685 1435081 -488 0
78 2 S112 680 1435761 192 0
78 2 S112 669 1436430 861 0
78 2 S112 666 1437096 1527 0
78 2 S112 668 1437764 2195 0
78 2 S112 679 1438443 2874 0
78 2 S112 702 1439145 3576 0
78 2 S112 687 1439832 4263 0
78 2 S112 675 1440507 4938 0
78 2 S112 662 1441169 5600 0
78 2 S112 667 1441836 6267 0
78 2 S112 674 1442510 6941 0
0 0 0 685 1443195 -11191 0
0 0 0 706 1443901 -10485 0
0 0 0 702 1444603 -9783 0
0 0 0 701 1445304 -9082 0
0 0 0 681 1445985 -8401 0
0 0 0 671 1446656 -7730 0
0 0 0 671 1447327 -7059 0
0 0 0 664 1447991 -6395 0
0 0 0 658 1448649 -5737 0
0 0 0 652 1449301 -5085 0
0 0 0 649 1449950 -4436 0
0 0 0 642 1450592 -3794 0
0 0 0 648 1451240 -3146 0
0 0 0 663 1451903 -2483 0
79 1 S102 677 1452580 -1806 0
79 1 S102 688 1453268 -1118 0
79 1 S102 686 1453954 -432 0
79 2 S102 679 1454633 247 0
79 2 S102 700 1455333 947 0
79 2 S102 697 1456030 1644 0
79 2 S102 699 1456729 2343 0
79 2 S102 705 1457434 3048 0
79 2 S102 705 1458139 3753 0
79 2 S102 692 1458831 4445 0
79 2 S102 668 1459499 5113 0
79 2 S102 672 1460171 5785 0
79 2 S102 677 1460848 6462 0
0 0 0 692 1461540 -8264 0
0 0 0 700 1462240 -7564 0
0 0 0 696 1462936 -6868 0
0 0 0 672 1463608 -6196 0
0 0 0 666 1464274 -5530 0
0 0 0 663 1464937 -4867 0
0 0 0 660 1465597 -4207 0
0 0 0 669 1466266 -3538 0
0 0 0 678 1466944 -2860 0
0 0 0 674 1467618 -2186 0
80 1 S116 667 1468285 -1519 0
80 1 S116 667 1468952 -852 0
80 1 S116 660 1469612 -192 0
80 2 S116 654 1470266 462 0
80 2 S116 650 1470916 1112 0
80 2 S116 645 1471561 1757 0
80 2 S116 646 1472207 2403 0
80 2 S116 640 1472847 3043 0
80 2 S116 642 1473489 3685 0
80 2 S116 648 1474137 4333 0
80 2 S116 659 1474796 4992 0
80 2 S116 675 1475471 5667 0
80 2 S116 701 1476172 6368 0
