T_0156
BeatCount Mean SD BeatCountNoOutliers MeanNoOutliers SDNoOutliers
2084 721,28310940499 52,3490489988641 2062 720,5 46,8855029265768

Trial TrialStatus Trialtype IBI AbsPosition RelPosition Outlier
0 0 0 715 1020 -14550 0
0 0 0 702 1722 -13848 0
0 0 0 689 2411 -13159 0
0 0 0 691 3102 -12468 0
0 0 0 700 3802 -11768 0
0 0 0 684 4486 -11084 0
0 0 0 688 5174 -10396 0
0 0 0 678 5852 -9718 0
0 0 0 646 6498 -9072 0
0 0 0 606 7104 -8466 0
0 0 0 591 7695 -7875 0
0 0 0 589 8284 -7286 0
0 0 0 596 8880 -6690 0
0 0 0 609 9489 -6081 0
0 0 0 634 10123 -5447 0
0 0 0 665 10788 -4782 0
0 0 0 728 11516 -4054 0
0 0 0 795 12311 -3259 0
0 0 0 834 13145 -2425 0
1 1 S112 831 13976 -1594 0
1 1 S112 831 14807 -763 0
1 2 S112 794 15601 31 0
1 2 S112 762 16363 793 0
1 2 S112 733 17096 1526 0
1 2 S112 703 17799 2229 0
1 2 S112 692 18491 2921 0
1 2 S112 694 19185 3615 0
1 2 S112 699 19884 4314 0
1 2 S112 728 20612 5042 0
1 2 S112 748 21360 5790 0
1 2 S112 744 22104 6534 0
0 0 0 767 22871 -10372 0
0 0 0 776 23647 -9596 0
0 0 0 782 24429 -8814 0
0 0 0 768 25197 -8046 0
0 0 0 736 25933 -7310 0
0 0 0 706 26639 -6604 0
0 0 0 686 27325 -5918 0
0 0 0 672 27997 -5246 0
0 0 0 671 28668 -4575 0
0 0 0 682 29350 -3893 0
0 0 0 711 30061 -3182 0
0 0 0 737 30798 -2445 0
2 1 S102 754 31552 -1691 0
2 1 S102 758 32310 -933 0
2 1 S102 749 33059 -184 0
2 2 S102 744 33803 560 0
2 2 S102 744 34547 1304 0
2 2 S102 732 35279 2036 0
2 2 S102 714 35993 2750 0
2 2 S102 707 36700 3457 0
2 2 S102 711 37411 4168 0
2 2 S102 710 38121 4878 0
2 2 S102 721 38842 5599 0
2 2 S102 695 39537 6294 0
2 2 S102 690 40227 6984 0
0 0 0 710 40937 -7823 0
0 0 0 742 41679 -7081 0
0 0 0 724 42403 -6357 0
0 0 0 712 43115 -5645 0
0 0 0 713 43828 -4932 0
0 0 0 717 44545 -4215 0
0 0 0 730 45275 -3485 0
0 0 0 714 45989 -2771 0
0 0 0 700 46689 -2071 0
3 1 S116 705 47394 -1366 0
3 1 S116 700 48094 -666 0
3 2 S116 698 48792 32 0
3 2 S116 703 49495 735 0
3 2 S116 711 50206 1446 0
3 2 S116 733 50939 2179 0
3 2 S116 737 51676 2916 0
3 2 S116 724 52400 3640 0
3 2 S116 744 53144 4384 0
3 2 S116 736 53880 5120 0
3 2 S116 740 54620 5860 0
3 2 S116 737 55357 6597 0
0 0 0 739 56096 -10536 0
0 0 0 755 56851 -9781 0
0 0 0 773 57624 -9008 0
0 0 0 762 58386 -8246 0
0 0 0 738 59124 -7508 0
0 0 0 739 59863 -6769 0
0 0 0 727 60590 -6042 0
0 0 0 719 61309 -5323 0
0 0 0 703 62012 -4620 0
0 0 0 683 62695 -3937 0
0 0 0 684 63379 -3253 0
0 0 0 694 64073 -2559 0
4 1 S106 684 64757 -1875 0
4 1 S106 633 65390 -1242 0
4 1 S106 632 66022 -610 0
4 2 S106 669 66691 59 0
4 2 S106 710 67401 769 0
4 2 S106 728 68129 1497 0
4 2 S106 716 68845 2213 0
4 2 S106 708 69553 2921 0
4 2 S106 693 70246 3614 0
4 2 S106 685 70931 4299 0
4 2 S106 673 71604 4972 0
4 2 S106 683 72287 5655 0
4 2 S106 682 72969 6337 0
4 2 S106 684 73653 7021 0
0 0 0 693 74346 -8682 0
0 0 0 699 75045 -7983 0
0 0 0 712 75757 -7271 0
0 0 0 736 76493 -6535 0
0 0 0 763 77256 -5772 0
0 0 0 778 78034 -4994 0
0 0 0 738 78772 -4256 0
0 0 0 710 79482 -3546 0
0 0 0 685 80167 -2861 0
0 0 0 650 80817 -2211 0
5 1 S116 609 81426 -1602 0
5 1 S116 596 82022 -1006 0
5 1 S116 606 82628 -400 0
5 2 S116 621 83249 221 0
5 2 S116 671 83920 892 0
5 2 S116 741 84661 1633 0
5 2 S116 798 85459 2431 0
5 2 S116 819 86278 3250 0
5 2 S116 830 87108 4080 0
5 2 S116 831 87939 4911 0
5 2 S116 824 88763 5735 0
5 2 S116 811 89574 6546 0
0 0 0 785 90359 -8352 0
0 0 0 751 91110 -7601 0
0 0 0 721 91831 -6880 0
0 0 0 668 92499 -6212 0
0 0 0 640 93139 -5572 0
0 0 0 666 93805 -4906 0
0 0 0 710 94515 -4196 0
0 0 0 717 95232 -3479 0
0 0 0 744 95976 -2735 0
6 1 S106 755 96731 -1980 0
6 1 S106 758 97489 -1222 0
6 1 S106 763 98252 -459 0
6 2 S106 747 98999 288 0
6 2 S106 724 99723 1012 0
6 2 S106 719 100442 1731 0
6 2 S106 720 101162 2451 0
6 2 S106 715 101877 3166 0
6 2 S106 717 102594 3883 0
6 2 S106 693 103287 4576 0
6 2 S106 675 103962 5251 0
6 2 S106 687 104649 5938 0
6 2 S106 687 105336 6625 0
0 0 0 684 106020 -11275 0
0 0 0 678 106698 -10597 0
0 0 0 675 107373 -9922 0
0 0 0 678 108051 -9244 0
0 0 0 678 108729 -8566 0
0 0 0 661 109390 -7905 0
0 0 0 619 110009 -7286 0
0 0 0 622 110631 -6664 0
0 0 0 640 111271 -6024 0
0 0 0 666 111937 -5358 0
0 0 0 699 112636 -4659 0
0 0 0 726 113362 -3933 0
0 0 0 754 114116 -3179 0
0 0 0 780 114896 -2399 0
7 1 S102 786 115682 -1613 0
7 1 S102 784 116466 -829 0
7 1 S102 773 117239 -56 0
7 2 S102 755 117994 699 0
7 2 S102 735 118729 1434 0
7 2 S102 714 119443 2148 0
7 2 S102 703 120146 2851 0
7 2 S102 693 120839 3544 0
7 2 S102 718 121557 4262 0
7 2 S102 732 122289 4994 0
7 2 S102 752 123041 5746 0
7 2 S102 779 123820 6525 0
0 0 0 787 124607 -7973 0
0 0 0 806 125413 -7167 0
0 0 0 799 126212 -6368 0
0 0 0 785 126997 -5583 0
0 0 0 769 127766 -4814 0
0 0 0 763 128529 -4051 0
0 0 0 737 129266 -3314 0
0 0 0 724 129990 -2590 0
8 1 S112 715 130705 -1875 0
8 1 S112 688 131393 -1187 0
8 1 S112 659 132052 -528 0
8 2 S112 643 132695 115 0
8 2 S112 633 133328 748 0
8 2 S112 690 134018 1438 0
8 2 S112 733 134751 2171 0
8 2 S112 763 135514 2934 0
8 2 S112 776 136290 3710 0
8 2 S112 767 137057 4477 0
8 2 S112 761 137818 5238 0
8 2 S112 758 138576 5996 0
8 2 S112 730 139306 6726 0
0 0 0 709 140015 -6641 0
0 0 0 697 140712 -5944 0
0 0 0 695 141407 -5249 0
0 0 0 691 142098 -4558 0
0 0 0 691 142789 -3867 0
0 0 0 691 143480 -3176 0
0 0 0 720 144200 -2456 0
9 1 S116 753 144953 -1703 0
9 1 S116 791 145744 -912 0
9 1 S116 793 146537 -119 0
9 2 S116 791 147328 672 0
9 2 S116 784 148112 1456 0
9 2 S116 755 148867 2211 0
9 2 S116 739 149606 2950 0
9 2 S116 737 150343 3687 0
9 2 S116 748 151091 4435 0
9 2 S116 773 151864 5208 0
9 2 S116 795 152659 6003 0
9 2 S116 804 153463 6807 0
0 0 0 796 154259 -10169 0
0 0 0 785 155044 -9384 0
0 0 0 765 155809 -8619 0
0 0 0 729 156538 -7890 0
0 0 0 702 157240 -7188 0
0 0 0 684 157924 -6504 0
0 0 0 676 158600 -5828 0
0 0 0 681 159281 -5147 0
0 0 0 699 159980 -4448 0
0 0 0 758 160738 -3690 0
0 0 0 787 161525 -2903 0
0 0 0 785 162310 -2118 0
10 1 S102 795 163105 -1323 0
10 1 S102 798 163903 -525 0
10 2 S102 802 164705 277 0
10 2 S102 766 165471 1043 0
10 2 S102 743 166214 1786 0
10 2 S102 737 166951 2523 0
10 2 S102 718 167669 3241 0
10 2 S102 725 168394 3966 0
10 2 S102 721 169115 4687 0
10 2 S102 728 169843 5415 0
10 2 S102 739 170582 6154 0
10 2 S102 737 171319 6891 0
0 0 0 743 172062 -11679 0
0 0 0 777 172839 -10902 0
0 0 0 767 173606 -10135 0
0 0 0 755 174361 -9380 0
0 0 0 742 175103 -8638 0
0 0 0 725 175828 -7913 0
0 0 0 715 176543 -7198 0
0 0 0 693 177236 -6505 0
0 0 0 690 177926 -5815 0
0 0 0 699 178625 -5116 0
0 0 0 714 179339 -4402 0
0 0 0 728 180067 -3674 0
0 0 0 732 180799 -2942 0
0 0 0 724 181523 -2218 0
11 1 S112 711 182234 -1507 0
11 1 S112 705 182939 -802 0
11 1 S112 701 183640 -101 0
11 2 S112 701 184341 600 0
11 2 S112 721 185062 1321 0
11 2 S112 727 185789 2048 0
11 2 S112 755 186544 2803 0
11 2 S112 768 187312 3571 0
11 2 S112 760 188072 4331 0
11 2 S112 758 188830 5089 0
11 2 S112 756 189586 5845 0
11 2 S112 755 190341 6600 0
0 0 0 724 191065 -6005 0
0 0 0 696 191761 -5309 0
0 0 0 675 192436 -4634 0
0 0 0 665 193101 -3969 0
0 0 0 668 193769 -3301 0
0 0 0 710 194479 -2591 0
12 1 S116 742 195221 -1849 0
12 1 S116 766 195987 -1083 0
12 1 S116 794 196781 -289 0
12 2 S116 776 197557 487 0
12 2 S116 727 198284 1214 0
12 2 S116 704 198988 1918 0
12 2 S116 688 199676 2606 0
12 2 S116 693 200369 3299 0
12 2 S116 711 201080 4010 0
12 2 S116 734 201814 4744 0
12 2 S116 753 202567 5497 0
12 2 S116 766 203333 6263 0
12 2 S116 756 204089 7019 0
0 0 0 733 204822 -10137 0
0 0 0 713 205535 -9424 0
0 0 0 721 206256 -8703 0
0 0 0 693 206949 -8010 0
0 0 0 655 207604 -7355 0
0 0 0 620 208224 -6735 0
0 0 0 621 208845 -6114 0
0 0 0 654 209499 -5460 0
0 0 0 696 210195 -4764 0
0 0 0 724 210919 -4040 0
0 0 0 763 211682 -3277 0
0 0 0 813 212495 -2464 0
13 1 S112 835 213330 -1629 0
13 1 S112 814 214144 -815 0
13 1 S112 812 214956 -3 0
13 2 S112 800 215756 797 0
13 2 S112 780 216536 1577 0
13 2 S112 760 217296 2337 0
13 2 S112 734 218030 3071 0
13 2 S112 716 218746 3787 0
13 2 S112 712 219458 4499 0
13 2 S112 711 220169 5210 0
13 2 S112 725 220894 5935 0
13 2 S112 758 221652 6693 0
0 0 0 784 222436 -10875 0
0 0 0 803 223239 -10072 0
0 0 0 801 224040 -9271 0
0 0 0 762 224802 -8509 0
0 0 0 753 225555 -7756 0
0 0 0 731 226286 -7025 0
0 0 0 736 227022 -6289 0
0 0 0 741 227763 -5548 0
0 0 0 726 228489 -4822 0
0 0 0 706 229195 -4116 0
0 0 0 701 229896 -3415 0
0 0 0 703 230599 -2712 0
14 1 S106 726 231325 -1986 0
14 1 S106 760 232085 -1226 0
14 1 S106 786 232871 -440 0
14 2 S106 790 233661 350 0
14 2 S106 774 234435 1124 0
14 2 S106 746 235181 1870 0
14 2 S106 733 235914 2603 0
14 2 S106 716 236630 3319 0
14 2 S106 711 237341 4030 0
14 2 S106 701 238042 4731 0
14 2 S106 705 238747 5436 0
14 2 S106 707 239454 6143 0
14 2 S106 680 240134 6823 0
0 0 0 665 240799 -10417 0
0 0 0 662 241461 -9755 0
0 0 0 666 242127 -9089 0
0 0 0 659 242786 -8430 0
0 0 0 645 243431 -7785 0
0 0 0 628 244059 -7157 0
0 0 0 624 244683 -6533 0
0 0 0 627 245310 -5906 0
0 0 0 654 245964 -5252 0
0 0 0 677 246641 -4575 0
0 0 0 629 247270 -3946 0
0 0 0 661 247931 -3285 0
0 0 0 746 248677 -2539 0
15 1 S116 775 249452 -1764 0
15 1 S116 784 250236 -980 0
15 1 S116 801 251037 -179 0
15 2 S116 805 251842 626 0
15 2 S116 795 252637 1421 0
15 2 S116 780 253417 2201 0
15 2 S116 762 254179 2963 0
15 2 S116 749 254928 3712 0
15 2 S116 742 255670 4454 0
15 2 S116 726 256396 5180 0
15 2 S116 722 257118 5902 0
15 2 S116 705 257823 6607 0
0 0 0 705 258528 -9714 0
0 0 0 742 259270 -8972 0
0 0 0 774 260044 -8198 0
0 0 0 832 260876 -7366 0
0 0 0 834 261710 -6532 0
0 0 0 819 262529 -5713 0
0 0 0 791 263320 -4922 0
0 0 0 767 264087 -4155 0
0 0 0 745 264832 -3410 0
0 0 0 730 265562 -2680 0
16 1 S116 755 266317 -1925 0
16 1 S116 779 267096 -1146 0
16 1 S116 797 267893 -349 0
16 2 S116 812 268705 463 0
16 2 S116 808 269513 1271 0
16 2 S116 768 270281 2039 0
16 2 S116 748 271029 2787 0
16 2 S116 734 271763 3521 0
16 2 S116 735 272498 4256 0
16 2 S116 751 273249 5007 0
16 2 S116 767 274016 5774 0
16 2 S116 787 274803 6561 0
0 0 0 769 275572 -11271 0
0 0 0 771 276343 -10500 0
0 0 0 790 277133 -9710 0
0 0 0 808 277941 -8902 0
0 0 0 807 278748 -8095 0
0 0 0 800 279548 -7295 0
0 0 0 799 280347 -6496 0
0 0 0 777 281124 -5719 0
0 0 0 759 281883 -4960 0
0 0 0 740 282623 -4220 0
0 0 0 721 283344 -3499 0
0 0 0 714 284058 -2785 0
0 0 0 718 284776 -2067 0
17 1 S106 770 285546 -1297 0
17 1 S106 838 286384 -459 0
17 2 S106 839 287223 380 0
17 2 S106 872 288095 1252 1
17 2 S106 841 288936 2093 0
17 2 S106 792 289728 2885 0
17 2 S106 767 290495 3652 0
17 2 S106 754 291249 4406 0
17 2 S106 749 291998 5155 0
17 2 S106 763 292761 5918 0
17 2 S106 773 293534 6691 0
0 0 0 771 294305 -12813 0
0 0 0 758 295063 -12055 0
0 0 0 735 295798 -11320 0
0 0 0 706 296504 -10614 0
0 0 0 686 297190 -9928 0
0 0 0 697 297887 -9231 0
0 0 0 737 298624 -8494 0
0 0 0 790 299414 -7704 0
0 0 0 814 300228 -6890 0
0 0 0 815 301043 -6075 0
0 0 0 789 301832 -5286 0
0 0 0 778 302610 -4508 0
0 0 0 767 303377 -3741 0
0 0 0 756 304133 -2985 0
0 0 0 754 304887 -2231 0
18 1 S102 754 305641 -1477 0
18 1 S102 753 306394 -724 0
18 2 S102 771 307165 47 0
18 2 S102 754 307919 801 0
18 2 S102 735 308654 1536 0
18 2 S102 741 309395 2277 0
18 2 S102 743 310138 3020 0
18 2 S102 749 310887 3769 0
18 2 S102 772 311659 4541 0
18 2 S102 793 312452 5334 0
18 2 S102 814 313266 6148 0
18 2 S102 804 314070 6952 0
0 0 0 819 314889 -8824 0
0 0 0 789 315678 -8035 0
0 0 0 759 316437 -7276 0
0 0 0 744 317181 -6532 0
0 0 0 742 317923 -5790 0
0 0 0 739 318662 -5051 0
0 0 0 750 319412 -4301 0
0 0 0 736 320148 -3565 0
0 0 0 724 320872 -2841 0
0 0 0 712 321584 -2129 0
19 1 S106 698 322282 -1431 0
19 1 S106 702 322984 -729 0
19 1 S106 698 323682 -31 0
19 2 S106 703 324385 672 0
19 2 S106 701 325086 1373 0
19 2 S106 693 325779 2066 0
19 2 S106 684 326463 2750 0
19 2 S106 693 327156 3443 0
19 2 S106 702 327858 4145 0
19 2 S106 717 328575 4862 0
19 2 S106 734 329309 5596 0
19 2 S106 744 330053 6340 0
0 0 0 745 330798 -12229 0
0 0 0 732 331530 -11497 0
0 0 0 722 332252 -10775 0
0 0 0 713 332965 -10062 0
0 0 0 708 333673 -9354 0
0 0 0 705 334378 -8649 0
0 0 0 714 335092 -7935 0
0 0 0 710 335802 -7225 0
0 0 0 696 336498 -6529 0
0 0 0 685 337183 -5844 0
0 0 0 681 337864 -5163 0
0 0 0 696 338560 -4467 0
0 0 0 740 339300 -3727 0
0 0 0 801 340101 -2926 0
0 0 0 817 340918 -2109 0
20 1 S112 817 341735 -1292 0
20 1 S112 763 342498 -529 0
20 2 S112 735 343233 206 0
20 2 S112 705 343938 911 0
20 2 S112 687 344625 1598 0
20 2 S112 684 345309 2282 0
20 2 S112 674 345983 2956 0
20 2 S112 680 346663 3636 0
20 2 S112 676 347339 4312 0
20 2 S112 696 348035 5008 0
20 2 S112 725 348760 5733 0
20 2 S112 791 349551 6524 0
0 0 0 827 350378 -10189 0
0 0 0 818 351196 -9371 0
0 0 0 780 351976 -8591 0
0 0 0 745 352721 -7846 0
0 0 0 719 353440 -7127 0
0 0 0 711 354151 -6416 0
0 0 0 713 354864 -5703 0
0 0 0 706 355570 -4997 0
0 0 0 692 356262 -4305 0
0 0 0 675 356937 -3630 0
0 0 0 685 357622 -2945 0
0 0 0 646 358268 -2299 0
21 1 S106 646 358914 -1653 0
21 1 S106 653 359567 -1000 0
21 1 S106 681 360248 -319 0
21 2 S106 696 360944 377 0
21 2 S106 711 361655 1088 0
21 2 S106 729 362384 1817 0
21 2 S106 743 363127 2560 0
21 2 S106 740 363867 3300 0
21 2 S106 734 364601 4034 0
21 2 S106 719 365320 4753 0
21 2 S106 718 366038 5471 0
21 2 S106 743 366781 6214 0
21 2 S106 751 367532 6965 0
0 0 0 745 368277 -11670 0
0 0 0 726 369003 -10944 0
0 0 0 706 369709 -10238 0
0 0 0 681 370390 -9557 0
0 0 0 690 371080 -8867 0
0 0 0 688 371768 -8179 0
0 0 0 707 372475 -7472 0
0 0 0 723 373198 -6749 0
0 0 0 715 373913 -6034 0
0 0 0 707 374620 -5327 0
0 0 0 712 375332 -4615 0
0 0 0 708 376040 -3907 0
0 0 0 714 376754 -3193 0
0 0 0 707 377461 -2486 0
22 1 S116 707 378168 -1779 0
22 1 S116 718 378886 -1061 0
22 1 S116 721 379607 -340 0
22 2 S116 727 380334 387 0
22 2 S116 729 381063 1116 0
22 2 S116 738 381801 1854 0
22 2 S116 750 382551 2604 0
22 2 S116 759 383310 3363 0
22 2 S116 765 384075 4128 0
22 2 S116 765 384840 4893 0
22 2 S116 752 385592 5645 0
22 2 S116 753 386345 6398 0
0 0 0 739 387084 -10734 0
0 0 0 718 387802 -10016 0
0 0 0 707 388509 -9309 0
0 0 0 719 389228 -8590 0
0 0 0 741 389969 -7849 0
0 0 0 760 390729 -7089 0
0 0 0 743 391472 -6346 0
0 0 0 717 392189 -5629 0
0 0 0 712 392901 -4917 0
0 0 0 720 393621 -4197 0
0 0 0 719 394340 -3478 0
0 0 0 732 395072 -2746 0
0 0 0 740 395812 -2006 0
23 1 S112 726 396538 -1280 0
23 1 S112 726 397264 -554 0
23 2 S112 723 397987 169 0
23 2 S112 715 398702 884 0
23 2 S112 713 399415 1597 0
23 2 S112 718 400133 2315 0
23 2 S112 721 400854 3036 0
23 2 S112 735 401589 3771 0
23 2 S112 746 402335 4517 0
23 2 S112 728 403063 5245 0
23 2 S112 710 403773 5955 0
23 2 S112 722 404495 6677 0
0 0 0 731 405226 -9104 0
0 0 0 743 405969 -8361 0
0 0 0 758 406727 -7603 0
0 0 0 752 407479 -6851 0
0 0 0 731 408210 -6120 0
0 0 0 734 408944 -5386 0
0 0 0 733 409677 -4653 0
0 0 0 726 410403 -3927 0
0 0 0 706 411109 -3221 0
0 0 0 717 411826 -2504 0
24 1 S106 730 412556 -1774 0
24 1 S106 735 413291 -1039 0
24 1 S106 724 414015 -315 0
24 2 S106 721 414736 406 0
24 2 S106 723 415459 1129 0
24 2 S106 729 416188 1858 0
24 2 S106 726 416914 2584 0
24 2 S106 736 417650 3320 0
24 2 S106 745 418395 4065 0
24 2 S106 736 419131 4801 0
24 2 S106 723 419854 5524 0
24 2 S106 723 420577 6247 0
24 2 S106 717 421294 6964 0
0 0 0 714 422008 -8801 0
0 0 0 709 422717 -8092 0
0 0 0 720 423437 -7372 0
0 0 0 715 424152 -6657 0
0 0 0 693 424845 -5964 0
0 0 0 682 425527 -5282 0
0 0 0 682 426209 -4600 0
0 0 0 699 426908 -3901 0
0 0 0 700 427608 -3201 0
0 0 0 709 428317 -2492 0
25 1 S102 730 429047 -1762 0
25 1 S102 742 429789 -1020 0
25 1 S102 718 430507 -302 0
25 2 S102 711 431218 409 0
25 2 S102 704 431922 1113 0
25 2 S102 692 432614 1805 0
25 2 S102 690 433304 2495 0
25 2 S102 664 433968 3159 0
25 2 S102 624 434592 3783 0
25 2 S102 621 435213 4404 0
25 2 S102 633 435846 5037 0
25 2 S102 667 436513 5704 0
25 2 S102 669 437182 6373 0
0 0 0 701 437883 -8378 0
0 0 0 720 438603 -7658 0
0 0 0 755 439358 -6903 0
0 0 0 772 440130 -6131 0
0 0 0 792 440922 -5339 0
0 0 0 769 441691 -4570 0
0 0 0 734 442425 -3836 0
0 0 0 737 443162 -3099 0
0 0 0 739 443901 -2360 0
26 1 S116 758 444659 -1602 0
26 1 S116 743 445402 -859 0
26 1 S116 737 446139 -122 0
26 2 S116 743 446882 621 0
26 2 S116 726 447608 1347 0
26 2 S116 719 448327 2066 0
26 2 S116 713 449040 2779 0
26 2 S116 712 449752 3491 0
26 2 S116 726 450478 4217 0
26 2 S116 739 451217 4956 0
26 2 S116 733 451950 5689 0
26 2 S116 679 452629 6368 0
26 2 S116 647 453276 7015 0
0 0 0 646 453922 -7690 0
0 0 0 657 454579 -7033 0
0 0 0 676 455255 -6357 0
0 0 0 692 455947 -5665 0
0 0 0 714 456661 -4951 0
0 0 0 683 457344 -4268 0
0 0 0 640 457984 -3628 0
0 0 0 619 458603 -3009 0
0 0 0 621 459224 -2388 0
27 1 S106 637 459861 -1751 0
27 1 S106 648 460509 -1103 0
27 1 S106 657 461166 -446 0
27 2 S106 669 461835 223 0
27 2 S106 700 462535 923 0
27 2 S106 728 463263 1651 0
27 2 S106 763 464026 2414 0
27 2 S106 797 464823 3211 0
27 2 S106 796 465619 4007 0
27 2 S106 771 466390 4778 0
27 2 S106 741 467131 5519 0
27 2 S106 719 467850 6238 0
27 2 S106 712 468562 6950 0
0 0 0 695 469257 -5784 0
0 0 0 689 469946 -5095 0
0 0 0 673 470619 -4422 0
0 0 0 678 471297 -3744 0
0 0 0 697 471994 -3047 0
0 0 0 748 472742 -2299 0
28 1 S102 811 473553 -1488 0
28 1 S102 833 474386 -655 0
28 2 S102 845 475231 190 0
28 2 S102 820 476051 1010 0
28 2 S102 798 476849 1808 0
28 2 S102 779 477628 2587 0
28 2 S102 757 478385 3344 0
28 2 S102 762 479147 4106 0
28 2 S102 768 479915 4874 0
28 2 S102 767 480682 5641 0
28 2 S102 748 481430 6389 0
0 0 0 751 482181 -11610 0
0 0 0 741 482922 -10869 0
0 0 0 732 483654 -10137 0
0 0 0 727 484381 -9410 0
0 0 0 728 485109 -8682 0
0 0 0 709 485818 -7973 0
0 0 0 705 486523 -7268 0
0 0 0 696 487219 -6572 0
0 0 0 693 487912 -5879 0
0 0 0 706 488618 -5173 0
0 0 0 747 489365 -4426 0
0 0 0 778 490143 -3648 0
0 0 0 785 490928 -2863 0
0 0 0 766 491694 -2097 0
29 1 S112 734 492428 -1363 0
29 1 S112 737 493165 -626 0
29 2 S112 737 493902 111 0
29 2 S112 734 494636 845 0
29 2 S112 729 495365 1574 0
29 2 S112 727 496092 2301 0
29 2 S112 724 496816 3025 0
29 2 S112 728 497544 3753 0
29 2 S112 709 498253 4462 0
29 2 S112 704 498957 5166 0
29 2 S112 703 499660 5869 0
29 2 S112 701 500361 6570 0
0 0 0 710 501071 -7989 0
0 0 0 718 501789 -7271 0
0 0 0 735 502524 -6536 0
0 0 0 745 503269 -5791 0
0 0 0 755 504024 -5036 0
0 0 0 746 504770 -4290 0
0 0 0 735 505505 -3555 0
0 0 0 722 506227 -2833 0
0 0 0 697 506924 -2136 0
30 1 S112 690 507614 -1446 0
30 1 S112 680 508294 -766 0
30 1 S112 683 508977 -83 0
30 2 S112 670 509647 587 0
30 2 S112 678 510325 1265 0
30 2 S112 701 511026 1966 0
30 2 S112 715 511741 2681 0
30 2 S112 730 512471 3411 0
30 2 S112 732 513203 4143 0
30 2 S112 737 513940 4880 0
30 2 S112 726 514666 5606 0
30 2 S112 712 515378 6318 0
30 2 S112 702 516080 7020 0
0 0 0 704 516784 -8124 0
0 0 0 713 517497 -7411 0
0 0 0 712 518209 -6699 0
0 0 0 689 518898 -6010 0
0 0 0 666 519564 -5344 0
0 0 0 644 520208 -4700 0
0 0 0 639 520847 -4061 0
0 0 0 624 521471 -3437 0
0 0 0 635 522106 -2802 0
0 0 0 691 522797 -2111 0
31 1 S106 766 523563 -1345 0
31 1 S106 781 524344 -564 0
31 2 S106 780 525124 216 0
31 2 S106 770 525894 986 0
31 2 S106 737 526631 1723 0
31 2 S106 699 527330 2422 0
31 2 S106 683 528013 3105 0
31 2 S106 682 528695 3787 0
31 2 S106 683 529378 4470 0
31 2 S106 676 530054 5146 0
31 2 S106 670 530724 5816 0
31 2 S106 665 531389 6481 0
0 0 0 664 532053 -9550 0
0 0 0 664 532717 -8886 0
0 0 0 663 533380 -8223 0
0 0 0 669 534049 -7554 0
0 0 0 668 534717 -6886 0
0 0 0 653 535370 -6233 0
0 0 0 646 536016 -5587 0
0 0 0 646 536662 -4941 0
0 0 0 659 537321 -4282 0
0 0 0 669 537990 -3613 0
0 0 0 627 538617 -2986 0
0 0 0 615 539232 -2371 0
32 1 S102 633 539865 -1738 0
32 1 S102 671 540536 -1067 0
32 1 S102 720 541256 -347 0
32 2 S102 758 542014 411 0
32 2 S102 777 542791 1188 0
32 2 S102 773 543564 1961 0
32 2 S102 764 544328 2725 0
32 2 S102 743 545071 3468 0
32 2 S102 726 545797 4194 0
32 2 S102 697 546494 4891 0
32 2 S102 689 547183 5580 0
32 2 S102 694 547877 6274 0
32 2 S102 698 548575 6972 0
0 0 0 736 549311 -10959 0
0 0 0 798 550109 -10161 0
0 0 0 796 550905 -9365 0
0 0 0 788 551693 -8577 0
0 0 0 764 552457 -7813 0
0 0 0 761 553218 -7052 0
0 0 0 747 553965 -6305 0
0 0 0 742 554707 -5563 0
0 0 0 719 555426 -4844 0
0 0 0 706 556132 -4138 0
0 0 0 694 556826 -3444 0
0 0 0 694 557520 -2750 0
0 0 0 714 558234 -2036 0
33 1 S112 732 558966 -1304 0
33 1 S112 736 559702 -568 0
33 2 S112 742 560444 174 0
33 2 S112 734 561178 908 0
33 2 S112 723 561901 1631 0
33 2 S112 717 562618 2348 0
33 2 S112 720 563338 3068 0
33 2 S112 719 564057 3787 0
33 2 S112 720 564777 4507 0
33 2 S112 732 565509 5239 0
33 2 S112 724 566233 5963 0
33 2 S112 740 566973 6703 0
0 0 0 775 567748 -11073 0
0 0 0 783 568531 -10290 0
0 0 0 760 569291 -9530 0
0 0 0 738 570029 -8792 0
0 0 0 693 570722 -8099 0
0 0 0 671 571393 -7428 0
0 0 0 655 572048 -6773 0
0 0 0 653 572701 -6120 0
0 0 0 670 573371 -5450 0
0 0 0 714 574085 -4736 0
0 0 0 774 574859 -3962 0
0 0 0 778 575637 -3184 0
0 0 0 781 576418 -2403 0
34 1 S106 795 577213 -1608 0
34 1 S106 792 578005 -816 0
34 1 S106 782 578787 -34 0
34 2 S106 755 579542 721 0
34 2 S106 705 580247 1426 0
34 2 S106 680 580927 2106 0
34 2 S106 655 581582 2761 0
34 2 S106 652 582234 3413 0
34 2 S106 642 582876 4055 0
34 2 S106 638 583514 4693 0
34 2 S106 635 584149 5328 0
34 2 S106 624 584773 5952 0
34 2 S106 626 585399 6578 0
0 0 0 630 586029 -9139 0
0 0 0 632 586661 -8507 0
0 0 0 635 587296 -7872 0
0 0 0 640 587936 -7232 0
0 0 0 638 588574 -6594 0
0 0 0 652 589226 -5942 0
0 0 0 708 589934 -5234 0
0 0 0 775 590709 -4459 0
0 0 0 797 591506 -3662 0
0 0 0 791 592297 -2871 0
0 0 0 781 593078 -2090 0
35 1 S102 762 593840 -1328 0
35 1 S102 750 594590 -578 0
35 2 S102 731 595321 153 0
35 2 S102 736 596057 889 0
35 2 S102 752 596809 1641 0
35 2 S102 746 597555 2387 0
35 2 S102 753 598308 3140 0
35 2 S102 744 599052 3884 0
35 2 S102 728 599780 4612 0
35 2 S102 715 600495 5327 0
35 2 S102 710 601205 6037 0
35 2 S102 713 601918 6750 0
0 0 0 731 602649 -8666 0
0 0 0 732 603381 -7934 0
0 0 0 744 604125 -7190 0
0 0 0 749 604874 -6441 0
0 0 0 773 605647 -5668 0
0 0 0 797 606444 -4871 0
0 0 0 787 607231 -4084 0
0 0 0 794 608025 -3290 0
0 0 0 788 608813 -2502 0
36 1 S106 750 609563 -1752 0
36 1 S106 731 610294 -1021 0
36 1 S106 706 611000 -315 0
36 2 S106 687 611687 372 0
36 2 S106 677 612364 1049 0
36 2 S106 666 613030 1715 0
36 2 S106 669 613699 2384 0
36 2 S106 669 614368 3053 0
36 2 S106 722 615090 3775 0
36 2 S106 771 615861 4546 0
36 2 S106 770 616631 5316 0
36 2 S106 775 617406 6091 0
36 2 S106 768 618174 6859 0
0 0 0 736 618910 -10393 0
0 0 0 717 619627 -9676 0
0 0 0 719 620346 -8957 0
0 0 0 709 621055 -8248 0
0 0 0 709 621764 -7539 0
0 0 0 703 622467 -6836 0
0 0 0 680 623147 -6156 0
0 0 0 669 623816 -5487 0
0 0 0 678 624494 -4809 0
0 0 0 698 625192 -4111 0
0 0 0 702 625894 -3409 0
0 0 0 709 626603 -2700 0
0 0 0 698 627301 -2002 0
37 1 S116 689 627990 -1313 0
37 1 S116 685 628675 -628 0
37 2 S116 675 629350 47 0
37 2 S116 684 630034 731 0
37 2 S116 712 630746 1443 0
37 2 S116 727 631473 2170 0
37 2 S116 729 632202 2899 0
37 2 S116 719 632921 3618 0
37 2 S116 693 633614 4311 0
37 2 S116 662 634276 4973 0
37 2 S116 636 634912 5609 0
37 2 S116 622 635534 6231 0
37 2 S116 641 636175 6872 0
0 0 0 710 636885 -11848 0
0 0 0 730 637615 -11118 0
0 0 0 769 638384 -10349 0
0 0 0 781 639165 -9568 0
0 0 0 767 639932 -8801 0
0 0 0 702 640634 -8099 0
0 0 0 644 641278 -7455 0
0 0 0 626 641904 -6829 0
0 0 0 625 642529 -6204 0
0 0 0 625 643154 -5579 0
0 0 0 630 643784 -4949 0
0 0 0 650 644434 -4299 0
0 0 0 696 645130 -3603 0
0 0 0 802 645932 -2801 0
38 1 S102 897 646829 -1904 1
38 1 S102 902 647731 -1002 1
38 1 S102 874 648605 -128 1
38 2 S102 863 649468 735 1
38 2 S102 853 650321 1588 0
38 2 S102 826 651147 2414 0
38 2 S102 798 651945 3212 0
38 2 S102 777 652722 3989 0
38 2 S102 738 653460 4727 0
38 2 S102 723 654183 5450 0
38 2 S102 707 654890 6157 0
38 2 S102 721 655611 6878 0
0 0 0 726 656337 -8327 0
0 0 0 751 657088 -7576 0
0 0 0 773 657861 -6803 0
0 0 0 760 658621 -6043 0
0 0 0 740 659361 -5303 0
0 0 0 735 660096 -4568 0
0 0 0 740 660836 -3828 0
0 0 0 736 661572 -3092 0
0 0 0 745 662317 -2347 0
39 1 S116 752 663069 -1595 0
39 1 S116 746 663815 -849 0
39 1 S116 741 664556 -108 0
39 2 S116 747 665303 639 0
39 2 S116 757 666060 1396 0
39 2 S116 764 666824 2160 0
39 2 S116 766 667590 2926 0
39 2 S116 776 668366 3702 0
39 2 S116 777 669143 4479 0
39 2 S116 778 669921 5257 0
39 2 S116 764 670685 6021 0
39 2 S116 756 671441 6777 0
0 0 0 739 672180 -6327 0
0 0 0 741 672921 -5586 0
0 0 0 756 673677 -4830 0
0 0 0 737 674414 -4093 0
0 0 0 726 675140 -3367 0
0 0 0 719 675859 -2648 0
40 1 S112 727 676586 -1921 0
40 1 S112 744 677330 -1177 0
40 1 S112 769 678099 -408 0
40 2 S112 782 678881 374 0
40 2 S112 765 679646 1139 0
40 2 S112 783 680429 1922 0
40 2 S112 772 681201 2694 0
40 2 S112 752 681953 3446 0
40 2 S112 745 682698 4191 0
40 2 S112 746 683444 4937 0
40 2 S112 732 684176 5669 0
40 2 S112 726 684902 6395 0
0 0 0 743 685645 -186614 0
0 0 0 756 686401 -185858 0
0 0 0 780 687181 -185078 0
0 0 0 781 687962 -184297 0
0 0 0 794 688756 -183503 0
0 0 0 752 689508 -182751 0
0 0 0 711 690219 -182040 0
0 0 0 676 690895 -181364 0
0 0 0 666 691561 -180698 0
0 0 0 716 692277 -179982 0
0 0 0 734 693011 -179248 0
0 0 0 721 693732 -178527 0
0 0 0 708 694440 -177819 0
0 0 0 701 695141 -177118 0
0 0 0 682 695823 -176436 0
0 0 0 643 696466 -175793 0
0 0 0 628 697094 -175165 0
0 0 0 622 697716 -174543 0
0 0 0 649 698365 -173894 0
0 0 0 783 699148 -173111 0
0 0 0 811 699959 -172300 0
0 0 0 785 700744 -171515 0
0 0 0 773 701517 -170742 0
0 0 0 767 702284 -169975 0
0 0 0 761 703045 -169214 0
0 0 0 731 703776 -168483 0
0 0 0 705 704481 -167778 0
0 0 0 671 705152 -167107 0
0 0 0 654 705806 -166453 0
0 0 0 646 706452 -165807 0
0 0 0 638 707090 -165169 0
0 0 0 633 707723 -164536 0
0 0 0 632 708355 -163904 0
0 0 0 648 709003 -163256 0
0 0 0 702 709705 -162554 0
0 0 0 806 710511 -161748 0
0 0 0 881 711392 -160867 1
0 0 0 874 712266 -159993 1
0 0 0 850 713116 -159143 0
0 0 0 864 713980 -158279 1
0 0 0 843 714823 -157436 0
0 0 0 808 715631 -156628 0
0 0 0 793 716424 -155835 0
0 0 0 762 717186 -155073 0
0 0 0 718 717904 -154355 0
0 0 0 706 718610 -153649 0
0 0 0 709 719319 -152940 0
0 0 0 705 720024 -152235 0
0 0 0 701 720725 -151534 0
0 0 0 706 721431 -150828 0
0 0 0 707 722138 -150121 0
0 0 0 702 722840 -149419 0
0 0 0 711 723551 -148708 0
0 0 0 713 724264 -147995 0
0 0 0 724 724988 -147271 0
0 0 0 717 725705 -146554 0
0 0 0 704 726409 -145850 0
0 0 0 696 727105 -145154 0
0 0 0 696 727801 -144458 0
0 0 0 714 728515 -143744 0
0 0 0 732 729247 -143012 0
0 0 0 733 729980 -142279 0
0 0 0 739 730719 -141540 0
0 0 0 744 731463 -140796 0
0 0 0 735 732198 -140061 0
0 0 0 717 732915 -139344 0
0 0 0 697 733612 -138647 0
0 0 0 676 734288 -137971 0
0 0 0 669 734957 -137302 0
0 0 0 670 735627 -136632 0
0 0 0 685 736312 -135947 0
0 0 0 690 737002 -135257 0
0 0 0 708 737710 -134549 0
0 0 0 722 738432 -133827 0
0 0 0 731 739163 -133096 0
0 0 0 720 739883 -132376 0
0 0 0 717 740600 -131659 0
0 0 0 718 741318 -130941 0
0 0 0 708 742026 -130233 0
0 0 0 712 742738 -129521 0
0 0 0 715 743453 -128806 0
0 0 0 719 744172 -128087 0
0 0 0 728 744900 -127359 0
0 0 0 738 745638 -126621 0
0 0 0 741 746379 -125880 0
0 0 0 721 747100 -125159 0
0 0 0 711 747811 -124448 0
0 0 0 707 748518 -123741 0
0 0 0 719 749237 -123022 0
0 0 0 780 750017 -122242 0
0 0 0 833 750850 -121409 0
0 0 0 812 751662 -120597 0
0 0 0 802 752464 -119795 0
0 0 0 788 753252 -119007 0
0 0 0 788 754040 -118219 0
0 0 0 767 754807 -117452 0
0 0 0 751 755558 -116701 0
0 0 0 756 756314 -115945 0
0 0 0 748 757062 -115197 0
0 0 0 721 757783 -114476 0
0 0 0 696 758479 -113780 0
0 0 0 666 759145 -113114 0
0 0 0 648 759793 -112466 0
0 0 0 640 760433 -111826 0
0 0 0 653 761086 -111173 0
0 0 0 700 761786 -110473 0
0 0 0 747 762533 -109726 0
0 0 0 796 763329 -108930 0
0 0 0 816 764145 -108114 0
0 0 0 798 764943 -107316 0
0 0 0 784 765727 -106532 0
0 0 0 772 766499 -105760 0
0 0 0 741 767240 -105019 0
0 0 0 724 767964 -104295 0
0 0 0 715 768679 -103580 0
0 0 0 709 769388 -102871 0
0 0 0 716 770104 -102155 0
0 0 0 729 770833 -101426 0
0 0 0 726 771559 -100700 0
0 0 0 739 772298 -99961 0
0 0 0 754 773052 -99207 0
0 0 0 748 773800 -98459 0
0 0 0 729 774529 -97730 0
0 0 0 696 775225 -97034 0
0 0 0 661 775886 -96373 0
0 0 0 671 776557 -95702 0
0 0 0 670 777227 -95032 0
0 0 0 684 777911 -94348 0
0 0 0 695 778606 -93653 0
0 0 0 698 779304 -92955 0
0 0 0 694 779998 -92261 0
0 0 0 699 780697 -91562 0
0 0 0 699 781396 -90863 0
0 0 0 691 782087 -90172 0
0 0 0 692 782779 -89480 0
0 0 0 684 783463 -88796 0
0 0 0 676 784139 -88120 0
0 0 0 666 784805 -87454 0
0 0 0 672 785477 -86782 0
0 0 0 659 786136 -86123 0
0 0 0 656 786792 -85467 0
0 0 0 665 787457 -84802 0
0 0 0 665 788122 -84137 0
0 0 0 673 788795 -83464 0
0 0 0 677 789472 -82787 0
0 0 0 681 790153 -82106 0
0 0 0 683 790836 -81423 0
0 0 0 677 791513 -80746 0
0 0 0 673 792186 -80073 0
0 0 0 672 792858 -79401 0
0 0 0 678 793536 -78723 0
0 0 0 689 794225 -78034 0
0 0 0 707 794932 -77327 0
0 0 0 709 795641 -76618 0
0 0 0 711 796352 -75907 0
0 0 0 677 797029 -75230 0
0 0 0 653 797682 -74577 0
0 0 0 654 798336 -73923 0
0 0 0 673 799009 -73250 0
0 0 0 669 799678 -72581 0
0 0 0 671 800349 -71910 0
0 0 0 656 801005 -71254 0
0 0 0 651 801656 -70603 0
0 0 0 643 802299 -69960 0
0 0 0 633 802932 -69327 0
0 0 0 629 803561 -68698 0
0 0 0 629 804190 -68069 0
0 0 0 634 804824 -67435 0
0 0 0 651 805475 -66784 0
0 0 0 657 806132 -66127 0
0 0 0 673 806805 -65454 0
0 0 0 690 807495 -64764 0
0 0 0 682 808177 -64082 0
0 0 0 682 808859 -63400 0
0 0 0 668 809527 -62732 0
0 0 0 675 810202 -62057 0
0 0 0 674 810876 -61383 0
0 0 0 692 811568 -60691 0
0 0 0 712 812280 -59979 0
0 0 0 735 813015 -59244 0
0 0 0 735 813750 -58509 0
0 0 0 729 814479 -57780 0
0 0 0 706 815185 -57074 0
0 0 0 666 815851 -56408 0
0 0 0 655 816506 -55753 0
0 0 0 640 817146 -55113 0
0 0 0 641 817787 -54472 0
0 0 0 648 818435 -53824 0
0 0 0 668 819103 -53156 0
0 0 0 695 819798 -52461 0
0 0 0 733 820531 -51728 0
0 0 0 760 821291 -50968 0
0 0 0 743 822034 -50225 0
0 0 0 722 822756 -49503 0
0 0 0 703 823459 -48800 0
0 0 0 709 824168 -48091 0
0 0 0 721 824889 -47370 0
0 0 0 757 825646 -46613 0
0 0 0 771 826417 -45842 0
0 0 0 744 827161 -45098 0
0 0 0 709 827870 -44389 0
0 0 0 673 828543 -43716 0
0 0 0 629 829172 -43087 0
0 0 0 609 829781 -42478 0
0 0 0 617 830398 -41861 0
0 0 0 627 831025 -41234 0
0 0 0 648 831673 -40586 0
0 0 0 670 832343 -39916 0
0 0 0 712 833055 -39204 0
0 0 0 771 833826 -38433 0
0 0 0 808 834634 -37625 0
0 0 0 835 835469 -36790 0
0 0 0 833 836302 -35957 0
0 0 0 804 837106 -35153 0
0 0 0 769 837875 -34384 0
0 0 0 708 838583 -33676 0
0 0 0 674 839257 -33002 0
0 0 0 637 839894 -32365 0
0 0 0 632 840526 -31733 0
0 0 0 650 841176 -31083 0
0 0 0 679 841855 -30404 0
0 0 0 702 842557 -29702 0
0 0 0 712 843269 -28990 0
0 0 0 712 843981 -28278 0
0 0 0 699 844680 -27579 0
0 0 0 683 845363 -26896 0
0 0 0 681 846044 -26215 0
0 0 0 677 846721 -25538 0
0 0 0 691 847412 -24847 0
0 0 0 698 848110 -24149 0
0 0 0 725 848835 -23424 0
0 0 0 723 849558 -22701 0
0 0 0 704 850262 -21997 0
0 0 0 684 850946 -21313 0
0 0 0 668 851614 -20645 0
0 0 0 687 852301 -19958 0
0 0 0 697 852998 -19261 0
0 0 0 711 853709 -18550 0
0 0 0 692 854401 -17858 0
0 0 0 654 855055 -17204 0
0 0 0 661 855716 -16543 0
0 0 0 666 856382 -15877 0
0 0 0 1338 857720 -14539 1
0 0 0 666 858386 -13873 0
0 0 0 663 859049 -13210 0
0 0 0 648 859697 -12562 0
0 0 0 1312 861009 -11250 1
0 0 0 666 861675 -10584 0
0 0 0 667 862342 -9917 0
0 0 0 669 863011 -9248 0
0 0 0 671 863682 -8577 0
0 0 0 694 864376 -7883 0
0 0 0 699 865075 -7184 0
0 0 0 722 865797 -6462 0
0 0 0 736 866533 -5726 0
0 0 0 742 867275 -4984 0
0 0 0 734 868009 -4250 0
0 0 0 723 868732 -3527 0
0 0 0 695 869427 -2832 0
0 0 0 666 870093 -2166 0
41 1 S102 639 870732 -1527 0
41 1 S102 628 871360 -899 0
41 1 S102 628 871988 -271 0
41 2 S102 656 872644 385 0
41 2 S102 706 873350 1091 0
41 2 S102 707 874057 1798 0
41 2 S102 648 874705 2446 0
41 2 S102 653 875358 3099 0
41 2 S102 674 876032 3773 0
41 2 S102 685 876717 4458 0
41 2 S102 693 877410 5151 0
41 2 S102 710 878120 5861 0
41 2 S102 723 878843 6584 0
0 0 0 732 879575 -6942 0
0 0 0 741 880316 -6201 0
0 0 0 744 881060 -5457 0
0 0 0 736 881796 -4721 0
0 0 0 721 882517 -4000 0
0 0 0 718 883235 -3282 0
0 0 0 703 883938 -2579 0
42 1 S112 694 884632 -1885 0
42 1 S112 699 885331 -1186 0
42 1 S112 727 886058 -459 0
42 2 S112 779 886837 320 0
42 2 S112 811 887648 1131 0
42 2 S112 829 888477 1960 0
42 2 S112 828 889305 2788 0
42 2 S112 820 890125 3608 0
42 2 S112 806 890931 4414 0
42 2 S112 784 891715 5198 0
42 2 S112 792 892507 5990 0
42 2 S112 751 893258 6741 0
0 0 0 726 893984 -8730 0
0 0 0 709 894693 -8021 0
0 0 0 693 895386 -7328 0
0 0 0 694 896080 -6634 0
0 0 0 684 896764 -5950 0
0 0 0 702 897466 -5248 0
0 0 0 722 898188 -4526 0
0 0 0 721 898909 -3805 0
0 0 0 723 899632 -3082 0
0 0 0 732 900364 -2350 0
43 1 S116 740 901104 -1610 0
43 1 S116 749 901853 -861 0
43 1 S116 765 902618 -96 0
43 2 S116 765 903383 669 0
43 2 S116 758 904141 1427 0
43 2 S116 736 904877 2163 0
43 2 S116 729 905606 2892 0
43 2 S116 726 906332 3618 0
43 2 S116 719 907051 4337 0
43 2 S116 727 907778 5064 0
43 2 S116 733 908511 5797 0
43 2 S116 747 909258 6544 0
0 0 0 752 910010 -8569 0
0 0 0 743 910753 -7826 0
0 0 0 721 911474 -7105 0
0 0 0 712 912186 -6393 0
0 0 0 711 912897 -5682 0
0 0 0 723 913620 -4959 0
0 0 0 711 914331 -4248 0
0 0 0 706 915037 -3542 0
0 0 0 707 915744 -2835 0
0 0 0 730 916474 -2105 0
44 1 S102 763 917237 -1342 0
44 1 S102 775 918012 -567 0
44 2 S102 761 918773 194 0
44 2 S102 740 919513 934 0
44 2 S102 755 920268 1689 0
44 2 S102 760 921028 2449 0
44 2 S102 758 921786 3207 0
44 2 S102 768 922554 3975 0
44 2 S102 765 923319 4740 0
44 2 S102 742 924061 5482 0
44 2 S102 737 924798 6219 0
44 2 S102 726 925524 6945 0
0 0 0 735 926259 -8385 0
0 0 0 755 927014 -7630 0
0 0 0 773 927787 -6857 0
0 0 0 740 928527 -6117 0
0 0 0 720 929247 -5397 0
0 0 0 711 929958 -4686 0
0 0 0 713 930671 -3973 0
0 0 0 709 931380 -3264 0
0 0 0 699 932079 -2565 0
45 1 S116 698 932777 -1867 0
45 1 S116 721 933498 -1146 0
45 1 S116 740 934238 -406 0
45 2 S116 747 934985 341 0
45 2 S116 748 935733 1089 0
45 2 S116 737 936470 1826 0
45 2 S116 737 937207 2563 0
45 2 S116 736 937943 3299 0
45 2 S116 744 938687 4043 0
45 2 S116 730 939417 4773 0
45 2 S116 730 940147 5503 0
45 2 S116 728 940875 6231 0
45 2 S116 722 941597 6953 0
0 0 0 728 942325 -10688 0
0 0 0 744 943069 -9944 0
0 0 0 767 943836 -9177 0
0 0 0 756 944592 -8421 0
0 0 0 700 945292 -7721 0
0 0 0 641 945933 -7080 0
0 0 0 610 946543 -6470 0
0 0 0 607 947150 -5863 0
0 0 0 616 947766 -5247 0
0 0 0 634 948400 -4613 0
0 0 0 708 949108 -3905 0
0 0 0 834 949942 -3071 0
0 0 0 873 950815 -2198 1
46 1 S102 861 951676 -1337 1
46 1 S102 870 952546 -467 1
46 2 S102 851 953397 384 0
46 2 S102 826 954223 1210 0
46 2 S102 792 955015 2002 0
46 2 S102 797 955812 2799 0
46 2 S102 779 956591 3578 0
46 2 S102 736 957327 4314 0
46 2 S102 708 958035 5022 0
46 2 S102 701 958736 5723 0
46 2 S102 684 959420 6407 0
0 0 0 687 960107 -8489 0
0 0 0 696 960803 -7793 0
0 0 0 718 961521 -7075 0
0 0 0 727 962248 -6348 0
0 0 0 770 963018 -5578 0
0 0 0 784 963802 -4794 0
0 0 0 785 964587 -4009 0
0 0 0 769 965356 -3240 0
0 0 0 775 966131 -2465 0
47 1 S112 781 966912 -1684 0
47 1 S112 772 967684 -912 0
47 1 S112 763 968447 -149 0
47 2 S112 728 969175 579 0
47 2 S112 735 969910 1314 0
47 2 S112 733 970643 2047 0
47 2 S112 741 971384 2788 0
47 2 S112 779 972163 3567 0
47 2 S112 778 972941 4345 0
47 2 S112 769 973710 5114 0
47 2 S112 759 974469 5873 0
47 2 S112 742 975211 6615 0
0 0 0 739 975950 -10982 0
0 0 0 724 976674 -10258 0
0 0 0 732 977406 -9526 0
0 0 0 755 978161 -8771 0
0 0 0 766 978927 -8005 0
0 0 0 772 979699 -7233 0
0 0 0 775 980474 -6458 0
0 0 0 768 981242 -5690 0
0 0 0 777 982019 -4913 0
0 0 0 766 982785 -4147 0
0 0 0 768 983553 -3379 0
0 0 0 761 984314 -2618 0
48 1 S116 769 985083 -1849 0
48 1 S116 778 985861 -1071 0
48 1 S116 809 986670 -262 0
48 2 S116 801 987471 539 0
48 2 S116 782 988253 1321 0
48 2 S116 776 989029 2097 0
48 2 S116 787 989816 2884 0
48 2 S116 792 990608 3676 0
48 2 S116 790 991398 4466 0
48 2 S116 790 992188 5256 0
48 2 S116 797 992985 6053 0
48 2 S116 777 993762 6830 0
0 0 0 743 994505 -6900 0
0 0 0 714 995219 -6186 0
0 0 0 705 995924 -5481 0
0 0 0 707 996631 -4774 0
0 0 0 714 997345 -4060 0
0 0 0 741 998086 -3319 0
0 0 0 749 998835 -2570 0
49 1 S112 760 999595 -1810 0
49 1 S112 759 1000354 -1051 0
49 1 S112 766 1001120 -285 0
49 2 S112 778 1001898 493 0
49 2 S112 769 1002667 1262 0
49 2 S112 739 1003406 2001 0
49 2 S112 701 1004107 2702 0
49 2 S112 682 1004789 3384 0
49 2 S112 669 1005458 4053 0
49 2 S112 669 1006127 4722 0
49 2 S112 676 1006803 5398 0
49 2 S112 713 1007516 6111 0
49 2 S112 748 1008264 6859 0
0 0 0 755 1009019 -10374 0
0 0 0 770 1009789 -9604 0
0 0 0 774 1010563 -8830 0
0 0 0 740 1011303 -8090 0
0 0 0 718 1012021 -7372 0
0 0 0 694 1012715 -6678 0
0 0 0 686 1013401 -5992 0
0 0 0 697 1014098 -5295 0
0 0 0 721 1014819 -4574 0
0 0 0 757 1015576 -3817 0
0 0 0 776 1016352 -3041 0
0 0 0 779 1017131 -2262 0
50 1 S106 771 1017902 -1491 0
50 1 S106 764 1018666 -727 0
50 2 S106 750 1019416 23 0
50 2 S106 741 1020157 764 0
50 2 S106 730 1020887 1494 0
50 2 S106 728 1021615 2222 0
50 2 S106 736 1022351 2958 0
50 2 S106 749 1023100 3707 0
50 2 S106 740 1023840 4447 0
50 2 S106 740 1024580 5187 0
50 2 S106 728 1025308 5915 0
50 2 S106 713 1026021 6628 0
0 0 0 707 1026728 -7734 0
0 0 0 686 1027414 -7048 0
0 0 0 682 1028096 -6366 0
0 0 0 683 1028779 -5683 0
0 0 0 690 1029469 -4993 0
0 0 0 672 1030141 -4321 0
0 0 0 646 1030787 -3675 0
0 0 0 640 1031427 -3035 0
0 0 0 642 1032069 -2393 0
51 1 S112 621 1032690 -1772 0
51 1 S112 626 1033316 -1146 0
51 1 S112 706 1034022 -440 0
51 2 S112 829 1034851 389 0
51 2 S112 841 1035692 1230 0
51 2 S112 846 1036538 2076 0
51 2 S112 841 1037379 2917 0
51 2 S112 812 1038191 3729 0
51 2 S112 792 1038983 4521 0
51 2 S112 761 1039744 5282 0
51 2 S112 745 1040489 6027 0
51 2 S112 763 1041252 6790 0
0 0 0 760 1042012 -6028 0
0 0 0 761 1042773 -5267 0
0 0 0 737 1043510 -4530 0
0 0 0 715 1044225 -3815 0
0 0 0 724 1044949 -3091 0
0 0 0 740 1045689 -2351 0
52 1 S116 753 1046442 -1598 0
52 1 S116 776 1047218 -822 0
52 1 S116 786 1048004 -36 0
52 2 S116 782 1048786 746 0
52 2 S116 777 1049563 1523 0
52 2 S116 774 1050337 2297 0
52 2 S116 757 1051094 3054 0
52 2 S116 749 1051843 3803 0
52 2 S116 751 1052594 4554 0
52 2 S116 759 1053353 5313 0
52 2 S116 768 1054121 6081 0
52 2 S116 776 1054897 6857 0
0 0 0 755 1055652 -9016 0
0 0 0 760 1056412 -8256 0
0 0 0 750 1057162 -7506 0
0 0 0 747 1057909 -6759 0
0 0 0 730 1058639 -6029 0
0 0 0 700 1059339 -5329 0
0 0 0 705 1060044 -4624 0
0 0 0 712 1060756 -3912 0
0 0 0 724 1061480 -3188 0
0 0 0 760 1062240 -2428 0
53 1 S106 783 1063023 -1645 0
53 1 S106 806 1063829 -839 0
53 1 S106 789 1064618 -50 0
53 2 S106 779 1065397 729 0
53 2 S106 790 1066187 1519 0
53 2 S106 785 1066972 2304 0
53 2 S106 764 1067736 3068 0
53 2 S106 727 1068463 3795 0
53 2 S106 715 1069178 4510 0
53 2 S106 697 1069875 5207 0
53 2 S106 686 1070561 5893 0
53 2 S106 673 1071234 6566 0
0 0 0 676 1071910 -7596 0
0 0 0 665 1072575 -6931 0
0 0 0 671 1073246 -6260 0
0 0 0 677 1073923 -5583 0
0 0 0 708 1074631 -4875 0
0 0 0 712 1075343 -4163 0
0 0 0 746 1076089 -3417 0
0 0 0 739 1076828 -2678 0
54 1 S102 755 1077583 -1923 0
54 1 S102 764 1078347 -1159 0
54 1 S102 782 1079129 -377 0
54 2 S102 773 1079902 396 0
54 2 S102 750 1080652 1146 0
54 2 S102 740 1081392 1886 0
54 2 S102 715 1082107 2601 0
54 2 S102 702 1082809 3303 0
54 2 S102 667 1083476 3970 0
54 2 S102 627 1084103 4597 0
54 2 S102 625 1084728 5222 0
54 2 S102 638 1085366 5860 0
54 2 S102 664 1086030 6524 0
0 0 0 682 1086712 -10748 0
0 0 0 723 1087435 -10025 0
0 0 0 801 1088236 -9224 0
0 0 0 815 1089051 -8409 0
0 0 0 820 1089871 -7589 0
0 0 0 795 1090666 -6794 0
0 0 0 778 1091444 -6016 0
0 0 0 758 1092202 -5258 0
0 0 0 749 1092951 -4509 0
0 0 0 740 1093691 -3769 0
0 0 0 733 1094424 -3036 0
0 0 0 752 1095176 -2284 0
55 1 S106 753 1095929 -1531 0
55 1 S106 776 1096705 -755 0
55 2 S106 772 1097477 17 0
55 2 S106 779 1098256 796 0
55 2 S106 766 1099022 1562 0
55 2 S106 749 1099771 2311 0
55 2 S106 691 1100462 3002 0
55 2 S106 660 1101122 3662 0
55 2 S106 640 1101762 4302 0
55 2 S106 620 1102382 4922 0
55 2 S106 610 1102992 5532 0
55 2 S106 598 1103590 6130 0
55 2 S106 593 1104183 6723 0
0 0 0 586 1104769 -6766 1
0 0 0 581 1105350 -6185 1
0 0 0 579 1105929 -5606 1
0 0 0 577 1106506 -5029 1
0 0 0 578 1107084 -4451 1
0 0 0 575 1107659 -3876 1
0 0 0 571 1108230 -3305 1
0 0 0 576 1108806 -2729 1
0 0 0 579 1109385 -2150 1
56 1 S116 591 1109976 -1559 0
56 1 S116 612 1110588 -947 0
56 1 S116 621 1111209 -326 0
56 2 S116 631 1111840 305 0
56 2 S116 643 1112483 948 0
56 2 S116 665 1113148 1613 0
56 2 S116 659 1113807 2272 0
56 2 S116 656 1114463 2928 0
56 2 S116 659 1115122 3587 0
56 2 S116 653 1115775 4240 0
56 2 S116 672 1116447 4912 0
56 2 S116 679 1117126 5591 0
56 2 S116 690 1117816 6281 0
56 2 S116 697 1118513 6978 0
0 0 0 681 1119194 -7627 0
0 0 0 669 1119863 -6958 0
0 0 0 666 1120529 -6292 0
0 0 0 660 1121189 -5632 0
0 0 0 666 1121855 -4966 0
0 0 0 646 1122501 -4320 0
0 0 0 617 1123118 -3703 0
0 0 0 596 1123714 -3107 0
0 0 0 590 1124304 -2517 0
57 1 S106 611 1124915 -1906 0
57 1 S106 675 1125590 -1231 0
57 1 S106 722 1126312 -509 0
57 2 S106 780 1127092 271 0
57 2 S106 827 1127919 1098 0
57 2 S106 818 1128737 1916 0
57 2 S106 806 1129543 2722 0
57 2 S106 805 1130348 3527 0
57 2 S106 790 1131138 4317 0
57 2 S106 762 1131900 5079 0
57 2 S106 749 1132649 5828 0
57 2 S106 726 1133375 6554 0
0 0 0 700 1134075 -8329 0
0 0 0 687 1134762 -7642 0
0 0 0 689 1135451 -6953 0
0 0 0 677 1136128 -6276 0
0 0 0 687 1136815 -5589 0
0 0 0 720 1137535 -4869 0
0 0 0 730 1138265 -4139 0
0 0 0 726 1138991 -3413 0
0 0 0 724 1139715 -2689 0
58 1 S102 723 1140438 -1966 0
58 1 S102 726 1141164 -1240 0
58 1 S102 728 1141892 -512 0
58 2 S102 710 1142602 198 0
58 2 S102 704 1143306 902 0
58 2 S102 699 1144005 1601 0
58 2 S102 703 1144708 2304 0
58 2 S102 684 1145392 2988 0
58 2 S102 676 1146068 3664 0
58 2 S102 667 1146735 4331 0
58 2 S102 655 1147390 4986 0
58 2 S102 654 1148044 5640 0
58 2 S102 657 1148701 6297 0
58 2 S102 676 1149377 6973 0
0 0 0 700 1150077 -6137 0
0 0 0 731 1150808 -5406 0
0 0 0 726 1151534 -4680 0
0 0 0 712 1152246 -3968 0
0 0 0 708 1152954 -3260 0
0 0 0 693 1153647 -2567 0
59 1 S112 658 1154305 -1909 0
59 1 S112 633 1154938 -1276 0
59 1 S112 611 1155549 -665 0
59 1 S112 589 1156138 -76 0
59 2 S112 589 1156727 513 0
59 2 S112 603 1157330 1116 0
59 2 S112 634 1157964 1750 0
59 2 S112 694 1158658 2444 0
59 2 S112 763 1159421 3207 0
59 2 S112 807 1160228 4014 0
59 2 S112 783 1161011 4797 0
59 2 S112 772 1161783 5569 0
59 2 S112 746 1162529 6315 0
0 0 0 738 1163267 -8846 0
0 0 0 727 1163994 -8119 0
0 0 0 715 1164709 -7404 0
0 0 0 715 1165424 -6689 0
0 0 0 683 1166107 -6006 0
0 0 0 674 1166781 -5332 0
0 0 0 669 1167450 -4663 0
0 0 0 675 1168125 -3988 0
0 0 0 682 1168807 -3306 0
0 0 0 712 1169519 -2594 0
60 1 S102 740 1170259 -1854 0
60 1 S102 738 1170997 -1116 0
60 1 S102 723 1171720 -393 0
60 2 S102 720 1172440 327 0
60 2 S102 717 1173157 1044 0
60 2 S102 708 1173865 1752 0
60 2 S102 697 1174562 2449 0
60 2 S102 677 1175239 3126 0
60 2 S102 677 1175916 3803 0
60 2 S102 684 1176600 4487 0
60 2 S102 672 1177272 5159 0
60 2 S102 654 1177926 5813 0
60 2 S102 656 1178582 6469 0
0 0 0 678 1179260 -10840 0
0 0 0 724 1179984 -10116 0
0 0 0 747 1180731 -9369 0
0 0 0 774 1181505 -8595 0
0 0 0 771 1182276 -7824 0
0 0 0 772 1183048 -7052 0
0 0 0 779 1183827 -6273 0
0 0 0 780 1184607 -5493 0
0 0 0 759 1185366 -4734 0
0 0 0 715 1186081 -4019 0
0 0 0 705 1186786 -3314 0
0 0 0 712 1187498 -2602 0
61 1 S106 706 1188204 -1896 0
61 1 S106 717 1188921 -1179 0
61 1 S106 703 1189624 -476 0
61 2 S106 693 1190317 217 0
61 2 S106 694 1191011 911 0
61 2 S106 705 1191716 1616 0
61 2 S106 719 1192435 2335 0
61 2 S106 727 1193162 3062 0
61 2 S106 718 1193880 3780 0
61 2 S106 737 1194617 4517 0
61 2 S106 747 1195364 5264 0
61 2 S106 757 1196121 6021 0
61 2 S106 757 1196878 6778 0
0 0 0 743 1197621 -6355 0
0 0 0 710 1198331 -5645 0
0 0 0 725 1199056 -4920 0
0 0 0 698 1199754 -4222 0
0 0 0 693 1200447 -3529 0
0 0 0 682 1201129 -2847 0
0 0 0 685 1201814 -2162 0
62 1 S112 684 1202498 -1478 0
62 1 S112 695 1203193 -783 0
62 1 S112 707 1203900 -76 0
62 2 S112 716 1204616 640 0
62 2 S112 716 1205332 1356 0
62 2 S112 709 1206041 2065 0
62 2 S112 721 1206762 2786 0
62 2 S112 724 1207486 3510 0
62 2 S112 746 1208232 4256 0
62 2 S112 772 1209004 5028 0
62 2 S112 767 1209771 5795 0
62 2 S112 759 1210530 6554 0
0 0 0 725 1211255 -10709 0
0 0 0 703 1211958 -10006 0
0 0 0 681 1212639 -9325 0
0 0 0 676 1213315 -8649 0
0 0 0 681 1213996 -7968 0
0 0 0 688 1214684 -7280 0
0 0 0 713 1215397 -6567 0
0 0 0 731 1216128 -5836 0
0 0 0 716 1216844 -5120 0
0 0 0 704 1217548 -4416 0
0 0 0 691 1218239 -3725 0
0 0 0 714 1218953 -3011 0
0 0 0 718 1219671 -2293 0
63 1 S102 717 1220388 -1576 0
63 1 S102 709 1221097 -867 0
63 1 S102 692 1221789 -175 0
63 2 S102 683 1222472 508 0
63 2 S102 665 1223137 1173 0
63 2 S102 667 1223804 1840 0
63 2 S102 668 1224472 2508 0
63 2 S102 680 1225152 3188 0
63 2 S102 686 1225838 3874 0
63 2 S102 686 1226524 4560 0
63 2 S102 692 1227216 5252 0
63 2 S102 692 1227908 5944 0
63 2 S102 712 1228620 6656 0
0 0 0 722 1229342 -8289 0
0 0 0 728 1230070 -7561 0
0 0 0 731 1230801 -6830 0
0 0 0 723 1231524 -6107 0
0 0 0 740 1232264 -5367 0
0 0 0 746 1233010 -4621 0
0 0 0 743 1233753 -3878 0
0 0 0 740 1234493 -3138 0
0 0 0 720 1235213 -2418 0
64 1 S112 716 1235929 -1702 0
64 1 S112 733 1236662 -969 0
64 1 S112 720 1237382 -249 0
64 2 S112 717 1238099 468 0
64 2 S112 709 1238808 1177 0
64 2 S112 720 1239528 1897 0
64 2 S112 745 1240273 2642 0
64 2 S112 766 1241039 3408 0
64 2 S112 782 1241821 4190 0
64 2 S112 766 1242587 4956 0
64 2 S112 743 1243330 5699 0
64 2 S112 740 1244070 6439 0
0 0 0 722 1244792 -6814 0
0 0 0 705 1245497 -6109 0
0 0 0 697 1246194 -5412 0
0 0 0 692 1246886 -4720 0
0 0 0 689 1247575 -4031 0
0 0 0 694 1248269 -3337 0
0 0 0 700 1248969 -2637 0
65 1 S106 698 1249667 -1939 0
65 1 S106 714 1250381 -1225 0
65 1 S106 706 1251087 -519 0
65 2 S106 723 1251810 204 0
65 2 S106 730 1252540 934 0
65 2 S106 726 1253266 1660 0
65 2 S106 712 1253978 2372 0
65 2 S106 693 1254671 3065 0
65 2 S106 677 1255348 3742 0
65 2 S106 654 1256002 4396 0
65 2 S106 651 1256653 5047 0
65 2 S106 649 1257302 5696 0
65 2 S106 640 1257942 6336 0
65 2 S106 635 1258577 6971 0
0 0 0 635 1259212 -6983 0
0 0 0 633 1259845 -6350 0
0 0 0 639 1260484 -5711 0
0 0 0 650 1261134 -5061 0
0 0 0 663 1261797 -4398 0
0 0 0 668 1262465 -3730 0
0 0 0 667 1263132 -3063 0
0 0 0 658 1263790 -2405 0
66 1 S116 654 1264444 -1751 0
66 1 S116 648 1265092 -1103 0
66 1 S116 656 1265748 -447 0
66 2 S116 663 1266411 216 0
66 2 S116 628 1267039 844 0
66 2 S116 614 1267653 1458 0
66 2 S116 615 1268268 2073 0
66 2 S116 640 1268908 2713 0
66 2 S116 638 1269546 3351 0
66 2 S116 656 1270202 4007 0
66 2 S116 703 1270905 4710 0
66 2 S116 748 1271653 5458 0
66 2 S116 773 1272426 6231 0
66 2 S116 761 1273187 6992 0
0 0 0 737 1273924 -10640 0
0 0 0 723 1274647 -9917 0
0 0 0 719 1275366 -9198 0
0 0 0 690 1276056 -8508 0
0 0 0 672 1276728 -7836 0
0 0 0 660 1277388 -7176 0
0 0 0 665 1278053 -6511 0
0 0 0 661 1278714 -5850 0
0 0 0 681 1279395 -5169 0
0 0 0 708 1280103 -4461 0
0 0 0 745 1280848 -3716 0
0 0 0 762 1281610 -2954 0
0 0 0 749 1282359 -2205 0
67 1 S102 742 1283101 -1463 0
67 1 S102 747 1283848 -716 0
67 2 S102 750 1284598 34 0
67 2 S102 734 1285332 768 0
67 2 S102 709 1286041 1477 0
67 2 S102 693 1286734 2170 0
67 2 S102 698 1287432 2868 0
67 2 S102 711 1288143 3579 0
67 2 S102 712 1288855 4291 0
67 2 S102 717 1289572 5008 0
67 2 S102 708 1290280 5716 0
67 2 S102 706 1290986 6422 0
0 0 0 716 1291702 -6755 0
0 0 0 721 1292423 -6034 0
0 0 0 723 1293146 -5311 0
0 0 0 710 1293856 -4601 0
0 0 0 679 1294535 -3922 0
0 0 0 679 1295214 -3243 0
0 0 0 674 1295888 -2569 0
68 1 S106 687 1296575 -1882 0
68 1 S106 712 1297287 -1170 0
68 1 S106 725 1298012 -445 0
68 2 S106 731 1298743 286 0
68 2 S106 760 1299503 1046 0
68 2 S106 779 1300282 1825 0
68 2 S106 801 1301083 2626 0
68 2 S106 777 1301860 3403 0
68 2 S106 758 1302618 4161 0
68 2 S106 744 1303362 4905 0
68 2 S106 717 1304079 5622 0
68 2 S106 707 1304786 6329 0
0 0 0 701 1305487 -11488 0
0 0 0 710 1306197 -10778 0
0 0 0 727 1306924 -10051 0
0 0 0 743 1307667 -9308 0
0 0 0 727 1308394 -8581 0
0 0 0 717 1309111 -7864 0
0 0 0 716 1309827 -7148 0
0 0 0 721 1310548 -6427 0
0 0 0 722 1311270 -5705 0
0 0 0 712 1311982 -4993 0
0 0 0 704 1312686 -4289 0
0 0 0 704 1313390 -3585 0
0 0 0 697 1314087 -2888 0
0 0 0 694 1314781 -2194 0
69 1 S102 678 1315459 -1516 0
69 1 S102 664 1316123 -852 0
69 1 S102 646 1316769 -206 0
69 2 S102 620 1317389 414 0
69 2 S102 618 1318007 1032 0
69 2 S102 638 1318645 1670 0
69 2 S102 649 1319294 2319 0
69 2 S102 673 1319967 2992 0
69 2 S102 701 1320668 3693 0
69 2 S102 731 1321399 4424 0
69 2 S102 773 1322172 5197 0
69 2 S102 828 1323000 6025 0
69 2 S102 855 1323855 6880 0
0 0 0 856 1324711 -8560 0
0 0 0 842 1325553 -7718 0
0 0 0 814 1326367 -6904 0
0 0 0 758 1327125 -6146 0
0 0 0 723 1327848 -5423 0
0 0 0 728 1328576 -4695 0
0 0 0 731 1329307 -3964 0
0 0 0 729 1330036 -3235 0
0 0 0 716 1330752 -2519 0
70 1 S112 720 1331472 -1799 0
70 1 S112 727 1332199 -1072 0
70 1 S112 747 1332946 -325 0
70 2 S112 764 1333710 439 0
70 2 S112 783 1334493 1222 0
70 2 S112 777 1335270 1999 0
70 2 S112 771 1336041 2770 0
70 2 S112 792 1336833 3562 0
70 2 S112 793 1337626 4355 0
70 2 S112 772 1338398 5127 0
70 2 S112 776 1339174 5903 0
70 2 S112 773 1339947 6676 0
0 0 0 763 1340710 -10450 0
0 0 0 737 1341447 -9713 0
0 0 0 732 1342179 -8981 0
0 0 0 721 1342900 -8260 0
0 0 0 723 1343623 -7537 0
0 0 0 747 1344370 -6790 0
0 0 0 738 1345108 -6052 0
0 0 0 739 1345847 -5313 0
0 0 0 736 1346583 -4577 0
0 0 0 740 1347323 -3837 0
0 0 0 730 1348053 -3107 0
0 0 0 714 1348767 -2393 0
71 1 S116 704 1349471 -1689 0
71 1 S116 682 1350153 -1007 0
71 1 S116 685 1350838 -322 0
71 2 S116 691 1351529 369 0
71 2 S116 699 1352228 1068 0
71 2 S116 717 1352945 1785 0
71 2 S116 724 1353669 2509 0
71 2 S116 741 1354410 3250 0
71 2 S116 758 1355168 4008 0
71 2 S116 765 1355933 4773 0
71 2 S116 750 1356683 5523 0
71 2 S116 739 1357422 6262 0
71 2 S116 741 1358163 7003 0
0 0 0 730 1358893 -8348 0
0 0 0 719 1359612 -7629 0
0 0 0 713 1360325 -6916 0
0 0 0 693 1361018 -6223 0
0 0 0 688 1361706 -5535 0
0 0 0 697 1362403 -4838 0
0 0 0 709 1363112 -4129 0
0 0 0 727 1363839 -3402 0
0 0 0 725 1364564 -2677 0
72 1 S102 729 1365293 -1948 0
72 1 S102 735 1366028 -1213 0
72 1 S102 743 1366771 -470 0
72 2 S102 719 1367490 249 0
72 2 S102 706 1368196 955 0
72 2 S102 700 1368896 1655 0
72 2 S102 709 1369605 2364 0
72 2 S102 730 1370335 3094 0
72 2 S102 730 1371065 3824 0
72 2 S102 718 1371783 4542 0
72 2 S102 716 1372499 5258 0
72 2 S102 713 1373212 5971 0
72 2 S102 695 1373907 6666 0
0 0 0 672 1374579 -6654 0
0 0 0 670 1375249 -5984 0
0 0 0 671 1375920 -5313 0
0 0 0 683 1376603 -4630 0
0 0 0 704 1377307 -3926 0
0 0 0 724 1378031 -3202 0
0 0 0 727 1378758 -2475 0
73 1 S116 726 1379484 -1749 0
73 1 S116 719 1380203 -1030 0
73 1 S116 713 1380916 -317 0
73 2 S116 709 1381625 392 0
73 2 S116 702 1382327 1094 0
73 2 S116 718 1383045 1812 0
73 2 S116 701 1383746 2513 0
73 2 S116 707 1384453 3220 0
73 2 S116 701 1385154 3921 0
73 2 S116 701 1385855 4622 0
73 2 S116 696 1386551 5318 0
73 2 S116 704 1387255 6022 0
73 2 S116 704 1387959 6726 0
0 0 0 695 1388654 -8229 0
0 0 0 686 1389340 -7543 0
0 0 0 691 1390031 -6852 0
0 0 0 665 1390696 -6187 0
0 0 0 654 1391350 -5533 0
0 0 0 642 1391992 -4891 0
0 0 0 633 1392625 -4258 0
0 0 0 608 1393233 -3650 0
0 0 0 611 1393844 -3039 0
0 0 0 628 1394472 -2411 0
74 1 S106 654 1395126 -1757 0
74 1 S106 691 1395817 -1066 0
74 1 S106 713 1396530 -353 0
74 2 S106 751 1397281 398 0
74 2 S106 753 1398034 1151 0
74 2 S106 737 1398771 1888 0
74 2 S106 723 1399494 2611 0
74 2 S106 720 1400214 3331 0
74 2 S106 729 1400943 4060 0
74 2 S106 713 1401656 4773 0
74 2 S106 707 1402363 5480 0
74 2 S106 709 1403072 6189 0
74 2 S106 719 1403791 6908 0
0 0 0 731 1404522 -6353 0
0 0 0 748 1405270 -5605 0
0 0 0 745 1406015 -4860 0
0 0 0 718 1406733 -4142 0
0 0 0 711 1407444 -3431 0
0 0 0 728 1408172 -2703 0
75 1 S112 733 1408905 -1970 0
75 1 S112 724 1409629 -1246 0
75 1 S112 710 1410339 -536 0
75 2 S112 711 1411050 175 0
75 2 S112 725 1411775 900 0
75 2 S112 716 1412491 1616 0
75 2 S112 732 1413223 2348 0
75 2 S112 721 1413944 3069 0
75 2 S112 728 1414672 3797 0
75 2 S112 732 1415404 4529 0
75 2 S112 735 1416139 5264 0
75 2 S112 753 1416892 6017 0
75 2 S112 743 1417635 6760 0
0 0 0 749 1418384 -6467 0
0 0 0 757 1419141 -5710 0
0 0 0 752 1419893 -4958 0
0 0 0 719 1420612 -4239 0
0 0 0 717 1421329 -3522 0
0 0 0 709 1422038 -2813 0
0 0 0 726 1422764 -2087 0
76 1 S116 727 1423491 -1360 0
76 1 S116 733 1424224 -627 0
76 2 S116 723 1424947 96 0
76 2 S116 705 1425652 801 0
76 2 S116 713 1426365 1514 0
76 2 S116 721 1427086 2235 0
76 2 S116 713 1427799 2948 0
76 2 S116 713 1428512 3661 0
76 2 S116 714 1429226 4375 0
76 2 S116 710 1429936 5085 0
76 2 S116 716 1430652 5801 0
76 2 S116 734 1431386 6535 0
0 0 0 753 1432139 -7417 0
0 0 0 745 1432884 -6672 0
0 0 0 724 1433608 -5948 0
0 0 0 705 1434313 -5243 0
0 0 0 687 1435000 -4556 0
0 0 0 683 1435683 -3873 0
0 0 0 693 1436376 -3180 0
0 0 0 702 1437078 -2478 0
77 1 S106 702 1437780 -1776 0
77 1 S106 698 1438478 -1078 0
77 1 S106 697 1439175 -381 0
77 2 S106 712 1439887 331 0
77 2 S106 724 1440611 1055 0
77 2 S106 732 1441343 1787 0
77 2 S106 726 1442069 2513 0
77 2 S106 724 1442793 3237 0
77 2 S106 723 1443516 3960 0
77 2 S106 726 1444242 4686 0
77 2 S106 717 1444959 5403 0
77 2 S106 688 1445647 6091 0
77 2 S106 676 1446323 6767 0
0 0 0 651 1446974 -8066 0
0 0 0 646 1447620 -7420 0
0 0 0 675 1448295 -6745 0
0 0 0 712 1449007 -6033 0
0 0 0 711 1449718 -5322 0
0 0 0 700 1450418 -4622 0
0 0 0 667 1451085 -3955 0
0 0 0 628 1451713 -3327 0
0 0 0 619 1452332 -2708 0
0 0 0 625 1452957 -2083 0
78 1 S112 651 1453608 -1432 0
78 1 S112 673 1454281 -759 0
78 1 S112 697 1454978 -62 0
78 2 S112 731 1455709 669 0
78 2 S112 744 1456453 1413 0
78 2 S112 748 1457201 2161 0
78 2 S112 771 1457972 2932 0
78 2 S112 809 1458781 3741 0
78 2 S112 825 1459606 4566 0
78 2 S112 816 1460422 5382 0
78 2 S112 801 1461223 6183 0
78 2 S112 790 1462013 6973 0
0 0 0 765 1462778 -10034 0
0 0 0 747 1463525 -9287 0
0 0 0 731 1464256 -8556 0
0 0 0 723 1464979 -7833 0
0 0 0 720 1465699 -7113 0
0 0 0 733 1466432 -6380 0
0 0 0 741 1467173 -5639 0
0 0 0 794 1467967 -4845 0
0 0 0 802 1468769 -4043 0
0 0 0 807 1469576 -3236 0
0 0 0 794 1470370 -2442 0
79 1 S102 793 1471163 -1649 0
79 1 S102 760 1471923 -889 0
79 1 S102 748 1472671 -141 0
79 2 S102 707 1473378 566 0
79 2 S102 706 1474084 1272 0
79 2 S102 707 1474791 1979 0
79 2 S102 714 1475505 2693 0
79 2 S102 722 1476227 3415 0
79 2 S102 724 1476951 4139 0
79 2 S102 716 1477667 4855 0
79 2 S102 715 1478382 5570 0
79 2 S102 709 1479091 6279 0
79 2 S102 711 1479802 6990 0
0 0 0 721 1480523 -8403 0
0 0 0 740 1481263 -7663 0
0 0 0 736 1481999 -6927 0
0 0 0 729 1482728 -6198 0
0 0 0 692 1483420 -5506 0
0 0 0 706 1484126 -4800 0
0 0 0 720 1484846 -4080 0
0 0 0 725 1485571 -3355 0
0 0 0 721 1486292 -2634 0
80 1 S116 704 1486996 -1930 0
80 1 S116 694 1487690 -1236 0
80 1 S116 671 1488361 -565 0
80 2 S116 665 1489026 100 0
80 2 S116 659 1489685 759 0
80 2 S116 668 1490353 1427 0
80 2 S116 687 1491040 2114 0
80 2 S116 722 1491762 2836 0
80 2 S116 760 1492522 3596 0
80 2 S116 759 1493281 4355 0
80 2 S116 747 1494028 5102 0
80 2 S116 760 1494788 5862 0
80 2 S116 753 1495541 6615 0
