T_0105
BeatCount Mean SD BeatCountNoOutliers MeanNoOutliers SDNoOutliers
1957 807,443536024527 174,762349606093 1955 806,975447570332 174,237815539601

Trial TrialStatus Trialtype IBI AbsPosition RelPosition Outlier
0 0 0 740 1026 -14947 0
0 0 0 809 1835 -14138 0
0 0 0 838 2673 -13300 0
0 0 0 801 3474 -12499 0
0 0 0 758 4232 -11741 0
0 0 0 440 4672 -11301 0
0 0 0 1012 5684 -10289 0
0 0 0 702 6386 -9587 0
0 0 0 737 7123 -8850 0
0 0 0 748 7871 -8102 0
0 0 0 710 8581 -7392 0
0 0 0 746 9327 -6646 0
0 0 0 819 10146 -5827 0
0 0 0 862 11008 -4965 0
0 0 0 833 11841 -4132 0
0 0 0 767 12608 -3365 0
0 0 0 434 13042 -2931 0
1 1 S112 1142 14184 -1789 0
1 1 S112 771 14955 -1018 0
1 1 S112 757 15712 -261 0
1 2 S112 717 16429 456 0
1 2 S112 501 16930 957 0
1 2 S112 1020 17950 1977 0
1 2 S112 757 18707 2734 0
1 2 S112 832 19539 3566 0
1 2 S112 880 20419 4446 0
1 2 S112 446 20865 4892 0
1 2 S112 1152 22017 6044 0
1 2 S112 755 22772 6799 0
0 0 0 781 23553 -12364 0
0 0 0 792 24345 -11572 0
0 0 0 804 25149 -10768 0
0 0 0 831 25980 -9937 0
0 0 0 893 26873 -9044 0
0 0 0 492 27365 -8552 0
0 0 0 1135 28500 -7417 0
0 0 0 719 29219 -6698 0
0 0 0 694 29913 -6004 0
0 0 0 722 30635 -5282 0
0 0 0 779 31414 -4503 0
0 0 0 845 32259 -3658 0
0 0 0 812 33071 -2846 0
0 0 0 827 33898 -2019 0
2 1 S102 888 34786 -1131 0
2 1 S102 954 35740 -177 0
2 2 S102 464 36204 287 0
2 2 S102 1189 37393 1476 0
2 2 S102 812 38205 2288 0
2 2 S102 780 38985 3068 0
2 2 S102 793 39778 3861 0
2 2 S102 799 40577 4660 0
2 2 S102 840 41417 5500 0
2 2 S102 904 42321 6404 0
0 0 0 882 43203 -10171 0
0 0 0 822 44025 -9349 0
0 0 0 788 44813 -8561 0
0 0 0 910 45723 -7651 0
0 0 0 895 46618 -6756 0
0 0 0 822 47440 -5934 0
0 0 0 455 47895 -5479 0
0 0 0 1079 48974 -4400 0
0 0 0 715 49689 -3685 0
0 0 0 706 50395 -2979 0
0 0 0 741 51136 -2238 0
3 1 S116 763 51899 -1475 0
3 1 S116 776 52675 -699 0
3 2 S116 852 53527 153 0
3 2 S116 881 54408 1034 0
3 2 S116 889 55297 1923 0
3 2 S116 833 56130 2756 0
3 2 S116 439 56569 3195 0
3 2 S116 1183 57752 4378 0
3 2 S116 807 58559 5185 0
3 2 S116 737 59296 5922 0
3 2 S116 691 59987 6613 0
0 0 0 665 60652 -12036 0
0 0 0 685 61337 -11351 0
0 0 0 802 62139 -10549 0
0 0 0 1006 63145 -9543 0
0 0 0 962 64107 -8581 0
0 0 0 885 64992 -7696 0
0 0 0 846 65838 -6850 0
0 0 0 774 66612 -6076 0
0 0 0 725 67337 -5351 0
0 0 0 724 68061 -4627 0
0 0 0 766 68827 -3861 0
0 0 0 811 69638 -3050 0
0 0 0 850 70488 -2200 0
4 1 S106 850 71338 -1350 0
4 1 S106 846 72184 -504 0
4 2 S106 821 73005 317 0
4 2 S106 455 73460 772 0
4 2 S106 1162 74622 1934 0
4 2 S106 779 75401 2713 0
4 2 S106 731 76132 3444 0
4 2 S106 735 76867 4179 0
4 2 S106 786 77653 4965 0
4 2 S106 869 78522 5834 0
4 2 S106 909 79431 6743 0
0 0 0 937 80368 -6892 0
0 0 0 915 81283 -5977 0
0 0 0 874 82157 -5103 0
0 0 0 451 82608 -4652 0
0 0 0 1170 83778 -3482 0
0 0 0 737 84515 -2745 0
0 0 0 704 85219 -2041 0
5 1 S116 724 85943 -1317 0
5 1 S116 479 86422 -838 0
5 2 S116 1147 87569 309 0
5 2 S116 755 88324 1064 0
5 2 S116 733 89057 1797 0
5 2 S116 790 89847 2587 0
5 2 S116 885 90732 3472 0
5 2 S116 934 91666 4406 0
5 2 S116 940 92606 5346 0
5 2 S116 465 93071 5811 0
5 2 S116 1209 94280 7020 0
0 0 0 786 95066 -9867 0
0 0 0 718 95784 -9149 0
0 0 0 735 96519 -8414 0
0 0 0 464 96983 -7950 0
0 0 0 1157 98140 -6793 0
0 0 0 754 98894 -6039 0
0 0 0 714 99608 -5325 0
0 0 0 705 100313 -4620 0
0 0 0 764 101077 -3856 0
0 0 0 870 101947 -2986 0
0 0 0 893 102840 -2093 0
6 1 S106 897 103737 -1196 0
6 1 S106 846 104583 -350 0
6 2 S106 859 105442 509 0
6 2 S106 458 105900 967 0
6 2 S106 1210 107110 2177 0
6 2 S106 832 107942 3009 0
6 2 S106 751 108693 3760 0
6 2 S106 725 109418 4485 0
6 2 S106 758 110176 5243 0
6 2 S106 827 111003 6070 0
6 2 S106 906 111909 6976 0
0 0 0 941 112850 -9192 0
0 0 0 885 113735 -8307 0
0 0 0 790 114525 -7517 0
0 0 0 446 114971 -7071 0
0 0 0 1110 116081 -5961 0
0 0 0 738 116819 -5223 0
0 0 0 728 117547 -4495 0
0 0 0 708 118255 -3787 0
0 0 0 720 118975 -3067 0
0 0 0 794 119769 -2273 0
7 1 S102 851 120620 -1422 0
7 1 S102 870 121490 -552 0
7 2 S102 827 122317 275 0
7 2 S102 876 123193 1151 0
7 2 S102 445 123638 1596 0
7 2 S102 1218 124856 2814 0
7 2 S102 822 125678 3636 0
7 2 S102 757 126435 4393 0
7 2 S102 768 127203 5161 0
7 2 S102 807 128010 5968 0
7 2 S102 842 128852 6810 0
0 0 0 806 129658 -9841 0
0 0 0 862 130520 -8979 0
0 0 0 946 131466 -8033 0
0 0 0 945 132411 -7088 0
0 0 0 476 132887 -6612 0
0 0 0 1128 134015 -5484 0
0 0 0 737 134752 -4747 0
0 0 0 719 135471 -4028 0
0 0 0 710 136181 -3318 0
0 0 0 694 136875 -2624 0
8 1 S112 682 137557 -1942 0
8 1 S112 713 138270 -1229 0
8 1 S112 800 139070 -429 0
8 2 S112 910 139980 481 0
8 2 S112 946 140926 1427 0
8 2 S112 472 141398 1899 0
8 2 S112 1203 142601 3102 0
8 2 S112 829 143430 3931 0
8 2 S112 839 144269 4770 0
8 2 S112 840 145109 5610 0
8 2 S112 487 145596 6097 0
0 0 0 1211 146807 -8922 0
0 0 0 787 147594 -8135 0
0 0 0 741 148335 -7394 0
0 0 0 776 149111 -6618 0
0 0 0 476 149587 -6142 0
0 0 0 1205 150792 -4937 0
0 0 0 772 151564 -4165 0
0 0 0 734 152298 -3431 0
0 0 0 733 153031 -2698 0
9 1 S116 802 153833 -1896 0
9 1 S116 858 154691 -1038 0
9 1 S116 869 155560 -169 0
9 2 S116 485 156045 316 0
9 2 S116 1090 157135 1406 0
9 2 S116 747 157882 2153 0
9 2 S116 773 158655 2926 0
9 2 S116 820 159475 3746 0
9 2 S116 792 160267 4538 0
9 2 S116 818 161085 5356 0
9 2 S116 876 161961 6232 0
0 0 0 898 162859 -12714 0
0 0 0 923 163782 -11791 0
0 0 0 845 164627 -10946 0
0 0 0 445 165072 -10501 0
0 0 0 1195 166267 -9306 0
0 0 0 791 167058 -8515 0
0 0 0 718 167776 -7797 0
0 0 0 701 168477 -7096 0
0 0 0 464 168941 -6632 0
0 0 0 1082 170023 -5550 0
0 0 0 749 170772 -4801 0
0 0 0 790 171562 -4011 0
0 0 0 762 172324 -3249 0
0 0 0 777 173101 -2472 0
10 1 S102 857 173958 -1615 0
10 1 S102 889 174847 -726 0
10 2 S102 868 175715 142 0
10 2 S102 806 176521 948 0
10 2 S102 846 177367 1794 0
10 2 S102 867 178234 2661 0
10 2 S102 872 179106 3533 0
10 2 S102 882 179988 4415 0
10 2 S102 492 180480 4907 0
10 2 S102 1154 181634 6061 0
10 2 S102 782 182416 6843 0
0 0 0 777 183193 -12158 0
0 0 0 783 183976 -11375 0
0 0 0 784 184760 -10591 0
0 0 0 804 185564 -9787 0
0 0 0 883 186447 -8904 0
0 0 0 836 187283 -8068 0
0 0 0 798 188081 -7270 0
0 0 0 762 188843 -6508 0
0 0 0 462 189305 -6046 0
0 0 0 1191 190496 -4855 0
0 0 0 789 191285 -4066 0
0 0 0 739 192024 -3327 0
0 0 0 728 192752 -2599 0
11 1 S112 755 193507 -1844 0
11 1 S112 812 194319 -1032 0
11 1 S112 862 195181 -170 0
11 2 S112 841 196022 671 0
11 2 S112 811 196833 1482 0
11 2 S112 888 197721 2370 0
11 2 S112 942 198663 3312 0
11 2 S112 933 199596 4245 0
11 2 S112 902 200498 5147 0
11 2 S112 438 200936 5585 0
11 2 S112 1169 202105 6754 0
0 0 0 759 202864 -7623 0
0 0 0 748 203612 -6875 0
0 0 0 778 204390 -6097 0
0 0 0 477 204867 -5620 0
0 0 0 1159 206026 -4461 0
0 0 0 712 206738 -3749 0
0 0 0 677 207415 -3072 0
0 0 0 661 208076 -2411 0
12 1 S116 702 208778 -1709 0
12 1 S116 898 209676 -811 0
12 2 S116 907 210583 96 0
12 2 S116 969 211552 1065 0
12 2 S116 991 212543 2056 0
12 2 S116 1009 213552 3065 0
12 2 S116 438 213990 3503 0
12 2 S116 1224 215214 4727 0
12 2 S116 765 215979 5492 0
12 2 S116 717 216696 6209 0
12 2 S116 739 217435 6948 0
0 0 0 459 217894 -11526 0
0 0 0 1057 218951 -10469 0
0 0 0 755 219706 -9714 0
0 0 0 773 220479 -8941 0
0 0 0 767 221246 -8174 0
0 0 0 482 221728 -7692 0
0 0 0 1054 222782 -6638 0
0 0 0 734 223516 -5904 0
0 0 0 755 224271 -5149 0
0 0 0 774 225045 -4375 0
0 0 0 802 225847 -3573 0
0 0 0 871 226718 -2702 0
13 1 S112 901 227619 -1801 0
13 1 S112 906 228525 -895 0
13 2 S112 898 229423 3 0
13 2 S112 878 230301 881 0
13 2 S112 470 230771 1351 0
13 2 S112 1222 231993 2573 0
13 2 S112 848 232841 3421 0
13 2 S112 833 233674 4254 0
13 2 S112 844 234518 5098 0
13 2 S112 859 235377 5957 0
13 2 S112 819 236196 6776 0
0 0 0 820 237016 -11618 0
0 0 0 899 237915 -10719 0
0 0 0 923 238838 -9796 0
0 0 0 897 239735 -8899 0
0 0 0 842 240577 -8057 0
0 0 0 812 241389 -7245 0
0 0 0 755 242144 -6490 0
0 0 0 714 242858 -5776 0
0 0 0 729 243587 -5047 0
0 0 0 781 244368 -4266 0
0 0 0 817 245185 -3449 0
0 0 0 845 246030 -2604 0
14 1 S106 787 246817 -1817 0
14 1 S106 819 247636 -998 0
14 1 S106 896 248532 -102 0
14 2 S106 890 249422 788 0
14 2 S106 827 250249 1615 0
14 2 S106 772 251021 2387 0
14 2 S106 812 251833 3199 0
14 2 S106 852 252685 4051 0
14 2 S106 870 253555 4921 0
14 2 S106 858 254413 5779 0
14 2 S106 509 254922 6288 0
0 0 0 1119 256041 -12952 0
0 0 0 772 256813 -12180 0
0 0 0 765 257578 -11415 0
0 0 0 793 258371 -10622 0
0 0 0 780 259151 -9842 0
0 0 0 843 259994 -8999 0
0 0 0 818 260812 -8181 0
0 0 0 838 261650 -7343 0
0 0 0 769 262419 -6574 0
0 0 0 737 263156 -5837 0
0 0 0 462 263618 -5375 0
0 0 0 1089 264707 -4286 0
0 0 0 727 265434 -3559 0
0 0 0 716 266150 -2843 0
0 0 0 694 266844 -2149 0
15 1 S116 729 267573 -1420 0
15 1 S116 771 268344 -649 0
15 2 S116 843 269187 194 0
15 2 S116 831 270018 1025 0
15 2 S116 833 270851 1858 0
15 2 S116 916 271767 2774 0
15 2 S116 466 272233 3240 0
15 2 S116 1207 273440 4447 0
15 2 S116 772 274212 5219 0
15 2 S116 712 274924 5931 0
15 2 S116 689 275613 6620 0
0 0 0 467 276080 -10187 0
0 0 0 1075 277155 -9112 0
0 0 0 757 277912 -8355 0
0 0 0 813 278725 -7542 0
0 0 0 765 279490 -6777 0
0 0 0 440 279930 -6337 0
0 0 0 1088 281018 -5249 0
0 0 0 706 281724 -4543 0
0 0 0 695 282419 -3848 0
0 0 0 682 283101 -3166 0
0 0 0 699 283800 -2467 0
16 1 S116 796 284596 -1671 0
16 1 S116 904 285500 -767 0
16 2 S116 954 286454 187 0
16 2 S116 901 287355 1088 0
16 2 S116 853 288208 1941 0
16 2 S116 454 288662 2395 0
16 2 S116 1207 289869 3602 0
16 2 S116 857 290726 4459 0
16 2 S116 824 291550 5283 0
16 2 S116 847 292397 6130 0
16 2 S116 850 293247 6980 0
0 0 0 794 294041 -10114 0
0 0 0 825 294866 -9289 0
0 0 0 467 295333 -8822 0
0 0 0 1219 296552 -7603 0
0 0 0 854 297406 -6749 0
0 0 0 771 298177 -5978 0
0 0 0 737 298914 -5241 0
0 0 0 762 299676 -4479 0
0 0 0 840 300516 -3639 0
0 0 0 858 301374 -2781 0
17 1 S106 866 302240 -1915 0
17 1 S106 825 303065 -1090 0
17 1 S106 860 303925 -230 0
17 2 S106 474 304399 244 0
17 2 S106 1207 305606 1451 0
17 2 S106 796 306402 2247 0
17 2 S106 744 307146 2991 0
17 2 S106 766 307912 3757 0
17 2 S106 806 308718 4563 0
17 2 S106 870 309588 5433 0
17 2 S106 871 310459 6304 0
0 0 0 844 311303 -12398 0
0 0 0 884 312187 -11514 0
0 0 0 893 313080 -10621 0
0 0 0 465 313545 -10156 0
0 0 0 1210 314755 -8946 0
0 0 0 799 315554 -8147 0
0 0 0 759 316313 -7388 0
0 0 0 730 317043 -6658 0
0 0 0 750 317793 -5908 0
0 0 0 808 318601 -5100 0
0 0 0 878 319479 -4222 0
0 0 0 858 320337 -3364 0
0 0 0 874 321211 -2490 0
18 1 S102 912 322123 -1578 0
18 1 S102 464 322587 -1114 0
18 2 S102 1189 323776 75 0
18 2 S102 762 324538 837 0
18 2 S102 762 325300 1599 0
18 2 S102 784 326084 2383 0
18 2 S102 827 326911 3210 0
18 2 S102 851 327762 4061 0
18 2 S102 824 328586 4885 0
18 2 S102 476 329062 5361 0
18 2 S102 1214 330276 6575 0
0 0 0 835 331111 -9086 0
0 0 0 772 331883 -8314 0
0 0 0 781 332664 -7533 0
0 0 0 823 333487 -6710 0
0 0 0 909 334396 -5801 0
0 0 0 917 335313 -4884 0
0 0 0 810 336123 -4074 0
0 0 0 824 336947 -3250 0
0 0 0 825 337772 -2425 0
19 1 S106 831 338603 -1594 0
19 1 S106 771 339374 -823 0
19 1 S106 784 340158 -39 0
19 2 S106 829 340987 790 0
19 2 S106 840 341827 1630 0
19 2 S106 783 342610 2413 0
19 2 S106 757 343367 3170 0
19 2 S106 796 344163 3966 0
19 2 S106 811 344974 4777 0
19 2 S106 843 345817 5620 0
19 2 S106 786 346603 6406 0
0 0 0 769 347372 -11542 0
0 0 0 800 348172 -10742 0
0 0 0 847 349019 -9895 0
0 0 0 853 349872 -9042 0
0 0 0 765 350637 -8277 0
0 0 0 731 351368 -7546 0
0 0 0 723 352091 -6823 0
0 0 0 691 352782 -6132 0
0 0 0 695 353477 -5437 0
0 0 0 737 354214 -4700 0
0 0 0 748 354962 -3952 0
0 0 0 729 355691 -3223 0
0 0 0 766 356457 -2457 0
20 1 S112 810 357267 -1647 0
20 1 S112 832 358099 -815 0
20 1 S112 790 358889 -25 0
20 2 S112 766 359655 741 0
20 2 S112 789 360444 1530 0
20 2 S112 798 361242 2328 0
20 2 S112 790 362032 3118 0
20 2 S112 763 362795 3881 0
20 2 S112 823 363618 4704 0
20 2 S112 852 364470 5556 0
20 2 S112 861 365331 6417 0
0 0 0 802 366133 -10652 0
0 0 0 455 366588 -10197 0
0 0 0 1140 367728 -9057 0
0 0 0 786 368514 -8271 0
0 0 0 756 369270 -7515 0
0 0 0 778 370048 -6737 0
0 0 0 771 370819 -5966 0
0 0 0 819 371638 -5147 0
0 0 0 756 372394 -4391 0
0 0 0 467 372861 -3924 0
0 0 0 1086 373947 -2838 0
0 0 0 749 374696 -2089 0
21 1 S106 751 375447 -1338 0
21 1 S106 701 376148 -637 0
21 2 S106 715 376863 78 0
21 2 S106 795 377658 873 0
21 2 S106 895 378553 1768 0
21 2 S106 890 379443 2658 0
21 2 S106 840 380283 3498 0
21 2 S106 910 381193 4408 0
21 2 S106 449 381642 4857 0
21 2 S106 1208 382850 6065 0
21 2 S106 799 383649 6864 0
0 0 0 782 384431 -12298 0
0 0 0 788 385219 -11510 0
0 0 0 760 385979 -10750 0
0 0 0 722 386701 -10028 0
0 0 0 810 387511 -9218 0
0 0 0 782 388293 -8436 0
0 0 0 734 389027 -7702 0
0 0 0 717 389744 -6985 0
0 0 0 727 390471 -6258 0
0 0 0 718 391189 -5540 0
0 0 0 772 391961 -4768 0
0 0 0 812 392773 -3956 0
0 0 0 837 393610 -3119 0
0 0 0 785 394395 -2334 0
22 1 S116 495 394890 -1839 0
22 1 S116 1129 396019 -710 0
22 2 S116 781 396800 71 0
22 2 S116 751 397551 822 0
22 2 S116 741 398292 1563 0
22 2 S116 756 399048 2319 0
22 2 S116 781 399829 3100 0
22 2 S116 823 400652 3923 0
22 2 S116 818 401470 4741 0
22 2 S116 826 402296 5567 0
22 2 S116 837 403133 6404 0
0 0 0 829 403962 -10473 0
0 0 0 757 404719 -9716 0
0 0 0 799 405518 -8917 0
0 0 0 837 406355 -8080 0
0 0 0 866 407221 -7214 0
0 0 0 802 408023 -6412 0
0 0 0 458 408481 -5954 0
0 0 0 1108 409589 -4846 0
0 0 0 762 410351 -4084 0
0 0 0 735 411086 -3349 0
0 0 0 715 411801 -2634 0
23 1 S112 757 412558 -1877 0
23 1 S112 840 413398 -1037 0
23 1 S112 922 414320 -115 0
23 2 S112 866 415186 751 0
23 2 S112 909 416095 1660 0
23 2 S112 927 417022 2587 0
23 2 S112 934 417956 3521 0
23 2 S112 473 418429 3994 0
23 2 S112 1196 419625 5190 0
23 2 S112 829 420454 6019 0
23 2 S112 802 421256 6821 0
0 0 0 776 422032 -10142 0
0 0 0 824 422856 -9318 0
0 0 0 856 423712 -8462 0
0 0 0 877 424589 -7585 0
0 0 0 496 425085 -7089 0
0 0 0 1227 426312 -5862 0
0 0 0 769 427081 -5093 0
0 0 0 707 427788 -4386 0
0 0 0 692 428480 -3694 0
0 0 0 703 429183 -2991 0
0 0 0 442 429625 -2549 0
24 1 S106 1159 430784 -1390 0
24 1 S106 748 431532 -642 0
24 2 S106 739 432271 97 0
24 2 S106 706 432977 803 0
24 2 S106 712 433689 1515 0
24 2 S106 776 434465 2291 0
24 2 S106 842 435307 3133 0
24 2 S106 887 436194 4020 0
24 2 S106 863 437057 4883 0
24 2 S106 850 437907 5733 0
24 2 S106 442 438349 6175 0
0 0 0 1181 439530 -8675 0
0 0 0 805 440335 -7870 0
0 0 0 805 441140 -7065 0
0 0 0 781 441921 -6284 0
0 0 0 479 442400 -5805 0
0 0 0 1063 443463 -4742 0
0 0 0 739 444202 -4003 0
0 0 0 744 444946 -3259 0
0 0 0 766 445712 -2493 0
25 1 S102 806 446518 -1687 0
25 1 S102 776 447294 -911 0
25 1 S102 762 448056 -149 0
25 2 S102 470 448526 321 0
25 2 S102 1171 449697 1492 0
25 2 S102 813 450510 2305 0
25 2 S102 792 451302 3097 0
25 2 S102 746 452048 3843 0
25 2 S102 762 452810 4605 0
25 2 S102 835 453645 5440 0
25 2 S102 901 454546 6341 0
0 0 0 917 455463 -6635 0
0 0 0 880 456343 -5755 0
0 0 0 908 457251 -4847 0
0 0 0 458 457709 -4389 0
0 0 0 1152 458861 -3237 0
0 0 0 722 459583 -2515 0
26 1 S116 708 460291 -1807 0
26 1 S116 737 461028 -1070 0
26 1 S116 465 461493 -605 0
26 2 S116 1162 462655 557 0
26 2 S116 809 463464 1366 0
26 2 S116 825 464289 2191 0
26 2 S116 815 465104 3006 0
26 2 S116 462 465566 3468 0
26 2 S116 1220 466786 4688 0
26 2 S116 861 467647 5549 0
26 2 S116 800 468447 6349 0
0 0 0 779 469226 -8804 0
0 0 0 871 470097 -7933 0
0 0 0 921 471018 -7012 0
0 0 0 961 471979 -6051 0
0 0 0 465 472444 -5586 0
0 0 0 1210 473654 -4376 0
0 0 0 801 474455 -3575 0
0 0 0 724 475179 -2851 0
0 0 0 704 475883 -2147 0
27 1 S106 456 476339 -1691 0
27 1 S106 1081 477420 -610 0
27 2 S106 732 478152 122 0
27 2 S106 741 478893 863 0
27 2 S106 810 479703 1673 0
27 2 S106 475 480178 2148 0
27 2 S106 1218 481396 3366 0
27 2 S106 803 482199 4169 0
27 2 S106 825 483024 4994 0
27 2 S106 862 483886 5856 0
27 2 S106 892 484778 6748 0
0 0 0 839 485617 -8145 0
0 0 0 803 486420 -7342 0
0 0 0 494 486914 -6848 0
0 0 0 1207 488121 -5641 0
0 0 0 829 488950 -4812 0
0 0 0 733 489683 -4079 0
0 0 0 701 490384 -3378 0
0 0 0 703 491087 -2675 0
28 1 S102 722 491809 -1953 0
28 1 S102 723 492532 -1230 0
28 1 S102 744 493276 -486 0
28 2 S102 836 494112 350 0
28 2 S102 800 494912 1150 0
28 2 S102 810 495722 1960 0
28 2 S102 874 496596 2834 0
28 2 S102 900 497496 3734 0
28 2 S102 513 498009 4247 0
28 2 S102 1220 499229 5467 0
28 2 S102 837 500066 6304 0
0 0 0 821 500887 -12869 0
0 0 0 807 501694 -12062 0
0 0 0 822 502516 -11240 0
0 0 0 794 503310 -10446 0
0 0 0 872 504182 -9574 0
0 0 0 909 505091 -8665 0
0 0 0 819 505910 -7846 0
0 0 0 762 506672 -7084 0
0 0 0 462 507134 -6622 0
0 0 0 1124 508258 -5498 0
0 0 0 756 509014 -4742 0
0 0 0 727 509741 -4015 0
0 0 0 739 510480 -3276 0
0 0 0 486 510966 -2790 0
29 1 S112 1149 512115 -1641 0
29 1 S112 796 512911 -845 0
29 1 S112 784 513695 -61 0
29 2 S112 774 514469 713 0
29 2 S112 872 515341 1585 0
29 2 S112 932 516273 2517 0
29 2 S112 944 517217 3461 0
29 2 S112 882 518099 4343 0
29 2 S112 847 518946 5190 0
29 2 S112 888 519834 6078 0
29 2 S112 888 520722 6966 0
0 0 0 903 521625 -8726 0
0 0 0 849 522474 -7877 0
0 0 0 452 522926 -7425 0
0 0 0 1186 524112 -6239 0
0 0 0 818 524930 -5421 0
0 0 0 820 525750 -4601 0
0 0 0 732 526482 -3869 0
0 0 0 756 527238 -3113 0
0 0 0 783 528021 -2330 0
30 1 S112 822 528843 -1508 0
30 1 S112 794 529637 -714 0
30 2 S112 866 530503 152 0
30 2 S112 907 531410 1059 0
30 2 S112 883 532293 1942 0
30 2 S112 798 533091 2740 0
30 2 S112 804 533895 3544 0
30 2 S112 457 534352 4001 0
30 2 S112 1180 535532 5181 0
30 2 S112 777 536309 5958 0
30 2 S112 713 537022 6671 0
0 0 0 736 537758 -9354 0
0 0 0 774 538532 -8580 0
0 0 0 891 539423 -7689 0
0 0 0 865 540288 -6824 0
0 0 0 505 540793 -6319 0
0 0 0 1191 541984 -5128 0
0 0 0 746 542730 -4382 0
0 0 0 744 543474 -3638 0
0 0 0 744 544218 -2894 0
0 0 0 747 544965 -2147 0
31 1 S106 700 545665 -1447 0
31 1 S106 680 546345 -767 0
31 1 S106 693 547038 -74 0
31 2 S106 745 547783 671 0
31 2 S106 918 548701 1589 0
31 2 S106 940 549641 2529 0
31 2 S106 939 550580 3468 0
31 2 S106 918 551498 4386 0
31 2 S106 436 551934 4822 0
31 2 S106 1226 553160 6048 0
31 2 S106 893 554053 6941 0
0 0 0 866 554919 -10014 0
0 0 0 804 555723 -9210 0
0 0 0 482 556205 -8728 0
0 0 0 1200 557405 -7528 0
0 0 0 806 558211 -6722 0
0 0 0 753 558964 -5969 0
0 0 0 742 559706 -5227 0
0 0 0 712 560418 -4515 0
0 0 0 732 561150 -3783 0
0 0 0 739 561889 -3044 0
0 0 0 725 562614 -2319 0
32 1 S102 817 563431 -1502 0
32 1 S102 791 564222 -711 0
32 2 S102 775 564997 64 0
32 2 S102 841 565838 905 0
32 2 S102 862 566700 1767 0
32 2 S102 880 567580 2647 0
32 2 S102 881 568461 3528 0
32 2 S102 859 569320 4387 0
32 2 S102 459 569779 4846 0
32 2 S102 1114 570893 5960 0
32 2 S102 738 571631 6698 0
0 0 0 724 572355 -9803 0
0 0 0 733 573088 -9070 0
0 0 0 749 573837 -8321 0
0 0 0 757 574594 -7564 0
0 0 0 755 575349 -6809 0
0 0 0 776 576125 -6033 0
0 0 0 834 576959 -5199 0
0 0 0 897 577856 -4302 0
0 0 0 481 578337 -3821 0
0 0 0 1202 579539 -2619 0
33 1 S112 781 580320 -1838 0
33 1 S112 767 581087 -1071 0
33 1 S112 778 581865 -293 0
33 2 S112 793 582658 500 0
33 2 S112 797 583455 1297 0
33 2 S112 779 584234 2076 0
33 2 S112 769 585003 2845 0
33 2 S112 838 585841 3683 0
33 2 S112 896 586737 4579 0
33 2 S112 498 587235 5077 0
33 2 S112 1242 588477 6319 0
0 0 0 879 589356 -11950 0
0 0 0 792 590148 -11158 0
0 0 0 772 590920 -10386 0
0 0 0 820 591740 -9566 0
0 0 0 866 592606 -8700 0
0 0 0 811 593417 -7889 0
0 0 0 767 594184 -7122 0
0 0 0 805 594989 -6317 0
0 0 0 854 595843 -5463 0
0 0 0 886 596729 -4577 0
0 0 0 854 597583 -3723 0
0 0 0 787 598370 -2936 0
0 0 0 457 598827 -2479 0
34 1 S106 1188 600015 -1291 0
34 1 S106 783 600798 -508 0
34 2 S106 750 601548 242 0
34 2 S106 729 602277 971 0
34 2 S106 789 603066 1760 0
34 2 S106 857 603923 2617 0
34 2 S106 859 604782 3476 0
34 2 S106 836 605618 4312 0
34 2 S106 906 606524 5218 0
34 2 S106 936 607460 6154 0
0 0 0 912 608372 -10193 0
0 0 0 471 608843 -9722 0
0 0 0 1204 610047 -8518 0
0 0 0 824 610871 -7694 0
0 0 0 774 611645 -6920 0
0 0 0 746 612391 -6174 0
0 0 0 768 613159 -5406 0
0 0 0 812 613971 -4594 0
0 0 0 786 614757 -3808 0
0 0 0 808 615565 -3000 0
0 0 0 873 616438 -2127 0
35 1 S102 876 617314 -1251 0
35 1 S102 510 617824 -741 0
35 2 S102 1126 618950 385 0
35 2 S102 781 619731 1166 0
35 2 S102 787 620518 1953 0
35 2 S102 797 621315 2750 0
35 2 S102 774 622089 3524 0
35 2 S102 792 622881 4316 0
35 2 S102 849 623730 5165 0
35 2 S102 885 624615 6050 0
35 2 S102 897 625512 6947 0
0 0 0 878 626390 -8222 0
0 0 0 445 626835 -7777 0
0 0 0 1198 628033 -6579 0
0 0 0 826 628859 -5753 0
0 0 0 791 629650 -4962 0
0 0 0 733 630383 -4229 0
0 0 0 481 630864 -3748 0
0 0 0 1028 631892 -2720 0
36 1 S106 734 632626 -1986 0
36 1 S106 735 633361 -1251 0
36 1 S106 770 634131 -481 0
36 2 S106 794 634925 313 0
36 2 S106 828 635753 1141 0
36 2 S106 847 636600 1988 0
36 2 S106 799 637399 2787 0
36 2 S106 809 638208 3596 0
36 2 S106 825 639033 4421 0
36 2 S106 856 639889 5277 0
36 2 S106 845 640734 6122 0
36 2 S106 844 641578 6966 0
0 0 0 457 642035 -10001 0
0 0 0 1109 643144 -8892 0
0 0 0 751 643895 -8141 0
0 0 0 750 644645 -7391 0
0 0 0 749 645394 -6642 0
0 0 0 718 646112 -5924 0
0 0 0 762 646874 -5162 0
0 0 0 772 647646 -4390 0
0 0 0 786 648432 -3604 0
0 0 0 723 649155 -2881 0
0 0 0 728 649883 -2153 0
37 1 S116 787 650670 -1366 0
37 1 S116 787 651457 -579 0
37 2 S116 773 652230 194 0
37 2 S116 723 652953 917 0
37 2 S116 773 653726 1690 0
37 2 S116 757 654483 2447 0
37 2 S116 737 655220 3184 0
37 2 S116 808 656028 3992 0
37 2 S116 891 656919 4883 0
37 2 S116 875 657794 5758 0
37 2 S116 798 658592 6556 0
0 0 0 819 659411 -12088 0
0 0 0 840 660251 -11248 0
0 0 0 846 661097 -10402 0
0 0 0 811 661908 -9591 0
0 0 0 824 662732 -8767 0
0 0 0 480 663212 -8287 0
0 0 0 1097 664309 -7190 0
0 0 0 717 665026 -6473 0
0 0 0 685 665711 -5788 0
0 0 0 693 666404 -5095 0
0 0 0 756 667160 -4339 0
0 0 0 875 668035 -3464 0
0 0 0 849 668884 -2615 0
38 1 S102 826 669710 -1789 0
38 1 S102 452 670162 -1337 0
38 1 S102 1201 671363 -136 0
38 2 S102 815 672178 679 0
38 2 S102 764 672942 1443 0
38 2 S102 750 673692 2193 0
38 2 S102 793 674485 2986 0
38 2 S102 838 675323 3824 0
38 2 S102 847 676170 4671 0
38 2 S102 814 676984 5485 0
38 2 S102 812 677796 6297 0
0 0 0 836 678632 -9247 0
0 0 0 481 679113 -8766 0
0 0 0 1207 680320 -7559 0
0 0 0 789 681109 -6770 0
0 0 0 739 681848 -6031 0
0 0 0 731 682579 -5300 0
0 0 0 742 683321 -4558 0
0 0 0 754 684075 -3804 0
0 0 0 770 684845 -3034 0
0 0 0 841 685686 -2193 0
39 1 S116 877 686563 -1316 0
39 1 S116 887 687450 -429 0
39 2 S116 466 687916 37 0
39 2 S116 1155 689071 1192 0
39 2 S116 785 689856 1977 0
39 2 S116 794 690650 2771 0
39 2 S116 802 691452 3573 0
39 2 S116 812 692264 4385 0
39 2 S116 796 693060 5181 0
39 2 S116 879 693939 6060 0
39 2 S116 917 694856 6977 0
0 0 0 849 695705 -8702 0
0 0 0 856 696561 -7846 0
0 0 0 446 697007 -7400 0
0 0 0 1224 698231 -6176 0
0 0 0 821 699052 -5355 0
0 0 0 798 699850 -4557 0
0 0 0 756 700606 -3801 0
0 0 0 498 701104 -3303 0
0 0 0 1021 702125 -2282 0
40 1 S112 725 702850 -1557 0
40 1 S112 742 703592 -815 0
40 1 S112 772 704364 -43 0
40 2 S112 740 705104 697 0
40 2 S112 845 705949 1542 0
40 2 S112 931 706880 2473 0
40 2 S112 467 707347 2940 0
40 2 S112 1231 708578 4171 0
40 2 S112 845 709423 5016 0
40 2 S112 829 710252 5845 0
40 2 S112 846 711098 6691 0
0 0 0 863 711961 -188038 0
0 0 0 871 712832 -187167 0
0 0 0 831 713663 -186336 0
0 0 0 461 714124 -185875 0
0 0 0 1202 715326 -184673 0
0 0 0 771 716097 -183902 0
0 0 0 706 716803 -183196 0
0 0 0 670 717473 -182526 0
0 0 0 472 717945 -182054 0
0 0 0 898 718843 -181156 0
0 0 0 671 719514 -180485 0
0 0 0 756 720270 -179729 0
0 0 0 885 721155 -178844 0
0 0 0 862 722017 -177982 0
0 0 0 846 722863 -177136 0
0 0 0 868 723731 -176268 0
0 0 0 495 724226 -175773 0
0 0 0 1165 725391 -174608 0
0 0 0 798 726189 -173810 0
0 0 0 782 726971 -173028 0
0 0 0 796 727767 -172232 0
0 0 0 504 728271 -171728 0
0 0 0 1145 729416 -170583 0
0 0 0 765 730181 -169818 0
0 0 0 715 730896 -169103 0
0 0 0 729 731625 -168374 0
0 0 0 477 732102 -167897 0
0 0 0 1115 733217 -166782 0
0 0 0 761 733978 -166021 0
0 0 0 777 734755 -165244 0
0 0 0 753 735508 -164491 0
0 0 0 752 736260 -163739 0
0 0 0 807 737067 -162932 0
0 0 0 870 737937 -162062 0
0 0 0 898 738835 -161164 0
0 0 0 849 739684 -160315 0
0 0 0 847 740531 -159468 0
0 0 0 454 740985 -159014 0
0 0 0 1196 742181 -157818 0
0 0 0 796 742977 -157022 0
0 0 0 738 743715 -156284 0
0 0 0 758 744473 -155526 0
0 0 0 462 744935 -155064 0
0 0 0 1115 746050 -153949 0
0 0 0 742 746792 -153207 0
0 0 0 746 747538 -152461 0
0 0 0 804 748342 -151657 0
0 0 0 858 749200 -150799 0
0 0 0 879 750079 -149920 0
0 0 0 816 750895 -149104 0
0 0 0 443 751338 -148661 0
0 0 0 1224 752562 -147437 0
0 0 0 840 753402 -146597 0
0 0 0 749 754151 -145848 0
0 0 0 780 754931 -145068 0
0 0 0 483 755414 -144585 0
0 0 0 1130 756544 -143455 0
0 0 0 731 757275 -142724 0
0 0 0 747 758022 -141977 0
0 0 0 785 758807 -141192 0
0 0 0 469 759276 -140723 0
0 0 0 1100 760376 -139623 0
0 0 0 735 761111 -138888 0
0 0 0 738 761849 -138150 0
0 0 0 717 762566 -137433 0
0 0 0 694 763260 -136739 0
0 0 0 687 763947 -136052 0
0 0 0 735 764682 -135317 0
0 0 0 789 765471 -134528 0
0 0 0 889 766360 -133639 0
0 0 0 853 767213 -132786 0
0 0 0 804 768017 -131982 0
0 0 0 465 768482 -131517 0
0 0 0 1138 769620 -130379 0
0 0 0 725 770345 -129654 0
0 0 0 675 771020 -128979 0
0 0 0 670 771690 -128309 0
0 0 0 703 772393 -127606 0
0 0 0 760 773153 -126846 0
0 0 0 811 773964 -126035 0
0 0 0 853 774817 -125182 0
0 0 0 900 775717 -124282 0
0 0 0 884 776601 -123398 0
0 0 0 445 777046 -122953 0
0 0 0 1168 778214 -121785 0
0 0 0 734 778948 -121051 0
0 0 0 719 779667 -120332 0
0 0 0 740 780407 -119592 0
0 0 0 780 781187 -118812 0
0 0 0 819 782006 -117993 0
0 0 0 852 782858 -117141 0
0 0 0 492 783350 -116649 0
0 0 0 1210 784560 -115439 0
0 0 0 842 785402 -114597 0
0 0 0 799 786201 -113798 0
0 0 0 762 786963 -113036 0
0 0 0 780 787743 -112256 0
0 0 0 835 788578 -111421 0
0 0 0 870 789448 -110551 0
0 0 0 481 789929 -110070 0
0 0 0 1170 791099 -108900 0
0 0 0 778 791877 -108122 0
0 0 0 749 792626 -107373 0
0 0 0 754 793380 -106619 0
0 0 0 714 794094 -105905 0
0 0 0 696 794790 -105209 0
0 0 0 747 795537 -104462 0
0 0 0 852 796389 -103610 0
0 0 0 912 797301 -102698 0
0 0 0 917 798218 -101781 0
0 0 0 851 799069 -100930 0
0 0 0 781 799850 -100149 0
0 0 0 820 800670 -99329 0
0 0 0 823 801493 -98506 0
0 0 0 807 802300 -97699 0
0 0 0 762 803062 -96937 0
0 0 0 469 803531 -96468 0
0 0 0 1184 804715 -95284 0
0 0 0 808 805523 -94476 0
0 0 0 826 806349 -93650 0
0 0 0 835 807184 -92815 0
0 0 0 904 808088 -91911 0
0 0 0 898 808986 -91013 0
0 0 0 864 809850 -90149 0
0 0 0 443 810293 -89706 0
0 0 0 1171 811464 -88535 0
0 0 0 737 812201 -87798 0
0 0 0 698 812899 -87100 0
0 0 0 721 813620 -86379 0
0 0 0 461 814081 -85918 0
0 0 0 1148 815229 -84770 0
0 0 0 824 816053 -83946 0
0 0 0 840 816893 -83106 0
0 0 0 854 817747 -82252 0
0 0 0 883 818630 -81369 0
0 0 0 904 819534 -80465 0
0 0 0 844 820378 -79621 0
0 0 0 440 820818 -79181 0
0 0 0 1164 821982 -78017 0
0 0 0 764 822746 -77253 0
0 0 0 719 823465 -76534 0
0 0 0 687 824152 -75847 0
0 0 0 670 824822 -75177 0
0 0 0 668 825490 -74509 0
0 0 0 770 826260 -73739 0
0 0 0 811 827071 -72928 0
0 0 0 869 827940 -72059 0
0 0 0 875 828815 -71184 0
0 0 0 441 829256 -70743 0
0 0 0 1189 830445 -69554 0
0 0 0 754 831199 -68800 0
0 0 0 750 831949 -68050 0
0 0 0 774 832723 -67276 0
0 0 0 487 833210 -66789 0
0 0 0 1083 834293 -65706 0
0 0 0 719 835012 -64987 0
0 0 0 739 835751 -64248 0
0 0 0 815 836566 -63433 0
0 0 0 804 837370 -62629 0
0 0 0 734 838104 -61895 0
0 0 0 737 838841 -61158 0
0 0 0 809 839650 -60349 0
0 0 0 869 840519 -59480 0
0 0 0 882 841401 -58598 0
0 0 0 808 842209 -57790 0
0 0 0 838 843047 -56952 0
0 0 0 864 843911 -56088 0
0 0 0 865 844776 -55223 0
0 0 0 862 845638 -54361 0
0 0 0 837 846475 -53524 0
0 0 0 448 846923 -53076 0
0 0 0 1116 848039 -51960 0
0 0 0 715 848754 -51245 0
0 0 0 709 849463 -50536 0
0 0 0 743 850206 -49793 0
0 0 0 474 850680 -49319 0
0 0 0 1130 851810 -48189 0
0 0 0 746 852556 -47443 0
0 0 0 710 853266 -46733 0
0 0 0 741 854007 -45992 0
0 0 0 480 854487 -45512 0
0 0 0 1168 855655 -44344 0
0 0 0 786 856441 -43558 0
0 0 0 775 857216 -42783 0
0 0 0 786 858002 -41997 0
0 0 0 818 858820 -41179 0
0 0 0 838 859658 -40341 0
0 0 0 858 860516 -39483 0
0 0 0 481 860997 -39002 0
0 0 0 1172 862169 -37830 0
0 0 0 743 862912 -37087 0
0 0 0 737 863649 -36350 0
0 0 0 751 864400 -35599 0
0 0 0 791 865191 -34808 0
0 0 0 838 866029 -33970 0
0 0 0 790 866819 -33180 0
0 0 0 809 867628 -32371 0
0 0 0 900 868528 -31471 0
0 0 0 919 869447 -30552 0
0 0 0 500 869947 -30052 0
0 0 0 1190 871137 -28862 0
0 0 0 759 871896 -28103 0
0 0 0 754 872650 -27349 0
0 0 0 761 873411 -26588 0
0 0 0 801 874212 -25787 0
0 0 0 766 874978 -25021 0
0 0 0 807 875785 -24214 0
0 0 0 876 876661 -23338 0
0 0 0 947 877608 -22391 0
0 0 0 915 878523 -21476 0
0 0 0 500 879023 -20976 0
0 0 0 1208 880231 -19768 0
0 0 0 841 881072 -18927 0
0 0 0 785 881857 -18142 0
0 0 0 721 882578 -17421 0
0 0 0 707 883285 -16714 0
0 0 0 736 884021 -15978 0
0 0 0 751 884772 -15227 0
0 0 0 733 885505 -14494 0
0 0 0 763 886268 -13731 0
0 0 0 845 887113 -12886 0
0 0 0 826 887939 -12060 0
0 0 0 801 888740 -11259 0
0 0 0 850 889590 -10409 0
0 0 0 833 890423 -9576 0
0 0 0 839 891262 -8737 0
0 0 0 827 892089 -7910 0
0 0 0 461 892550 -7449 0
0 0 0 1135 893685 -6314 0
0 0 0 725 894410 -5589 0
0 0 0 683 895093 -4906 0
0 0 0 707 895800 -4199 0
0 0 0 749 896549 -3450 0
0 0 0 755 897304 -2695 0
41 1 S102 790 898094 -1905 0
41 1 S102 892 898986 -1013 0
41 1 S102 891 899877 -122 0
41 2 S102 862 900739 740 0
41 2 S102 446 901185 1186 0
41 2 S102 1162 902347 2348 0
41 2 S102 804 903151 3152 0
41 2 S102 783 903934 3935 0
41 2 S102 796 904730 4731 0
41 2 S102 782 905512 5513 0
41 2 S102 791 906303 6304 0
0 0 0 853 907156 -7200 0
0 0 0 914 908070 -6286 0
0 0 0 917 908987 -5369 0
0 0 0 840 909827 -4529 0
0 0 0 442 910269 -4087 0
0 0 0 1166 911435 -2921 0
0 0 0 758 912193 -2163 0
42 1 S112 707 912900 -1456 0
42 1 S112 690 913590 -766 0
42 1 S112 721 914311 -45 0
42 2 S112 461 914772 416 0
42 2 S112 1194 915966 1610 0
42 2 S112 805 916771 2415 0
42 2 S112 785 917556 3200 0
42 2 S112 836 918392 4036 0
42 2 S112 928 919320 4964 0
42 2 S112 958 920278 5922 0
42 2 S112 952 921230 6874 0
0 0 0 433 921663 -10333 0
0 0 0 1236 922899 -9097 0
0 0 0 847 923746 -8250 0
0 0 0 846 924592 -7404 0
0 0 0 785 925377 -6619 0
0 0 0 480 925857 -6139 0
0 0 0 1109 926966 -5030 0
0 0 0 761 927727 -4269 0
0 0 0 746 928473 -3523 0
0 0 0 711 929184 -2812 0
0 0 0 728 929912 -2084 0
43 1 S116 873 930785 -1211 0
43 1 S116 983 931768 -228 0
43 2 S116 448 932216 220 0
43 2 S116 1225 933441 1445 0
43 2 S116 878 934319 2323 0
43 2 S116 861 935180 3184 0
43 2 S116 893 936073 4077 0
43 2 S116 458 936531 4535 0
43 2 S116 1173 937704 5708 0
43 2 S116 736 938440 6444 0
0 0 0 752 939192 -6912 0
0 0 0 797 939989 -6115 0
0 0 0 449 940438 -5666 0
0 0 0 1196 941634 -4470 0
0 0 0 744 942378 -3726 0
0 0 0 729 943107 -2997 0
0 0 0 786 943893 -2211 0
44 1 S102 460 944353 -1751 0
44 1 S102 1198 945551 -553 0
44 2 S102 780 946331 227 0
44 2 S102 735 947066 962 0
44 2 S102 766 947832 1728 0
44 2 S102 469 948301 2197 0
44 2 S102 1218 949519 3415 0
44 2 S102 849 950368 4264 0
44 2 S102 853 951221 5117 0
44 2 S102 821 952042 5938 0
44 2 S102 494 952536 6432 0
0 0 0 1224 953760 -7447 0
0 0 0 875 954635 -6572 0
0 0 0 786 955421 -5786 0
0 0 0 753 956174 -5033 0
0 0 0 462 956636 -4571 0
0 0 0 1111 957747 -3460 0
0 0 0 723 958470 -2737 0
0 0 0 692 959162 -2045 0
45 1 S116 674 959836 -1371 0
45 1 S116 460 960296 -911 0
45 2 S116 1072 961368 161 0
45 2 S116 698 962066 859 0
45 2 S116 783 962849 1642 0
45 2 S116 938 963787 2580 0
45 2 S116 467 964254 3047 0
45 2 S116 1209 965463 4256 0
45 2 S116 830 966293 5086 0
45 2 S116 871 967164 5957 0
45 2 S116 901 968065 6858 0
0 0 0 449 968514 -11924 0
0 0 0 1188 969702 -10736 0
0 0 0 834 970536 -9902 0
0 0 0 831 971367 -9071 0
0 0 0 779 972146 -8292 0
0 0 0 505 972651 -7787 0
0 0 0 1025 973676 -6762 0
0 0 0 692 974368 -6070 0
0 0 0 702 975070 -5368 0
0 0 0 719 975789 -4649 0
0 0 0 459 976248 -4190 0
0 0 0 1204 977452 -2986 0
0 0 0 864 978316 -2122 0
46 1 S102 842 979158 -1280 0
46 1 S102 849 980007 -431 0
46 2 S102 481 980488 50 0
46 2 S102 1207 981695 1257 0
46 2 S102 835 982530 2092 0
46 2 S102 808 983338 2900 0
46 2 S102 828 984166 3728 0
46 2 S102 458 984624 4186 0
46 2 S102 1168 985792 5354 0
46 2 S102 761 986553 6115 0
46 2 S102 718 987271 6833 0
0 0 0 742 988013 -9467 0
0 0 0 463 988476 -9004 0
0 0 0 1215 989691 -7789 0
0 0 0 901 990592 -6888 0
0 0 0 846 991438 -6042 0
0 0 0 778 992216 -5264 0
0 0 0 747 992963 -4517 0
0 0 0 809 993772 -3708 0
0 0 0 821 994593 -2887 0
0 0 0 831 995424 -2056 0
47 1 S112 840 996264 -1216 0
47 1 S112 785 997049 -431 0
47 2 S112 517 997566 86 0
47 2 S112 1132 998698 1218 0
47 2 S112 813 999511 2031 0
47 2 S112 819 1000330 2850 0
47 2 S112 836 1001166 3686 0
47 2 S112 845 1002011 4531 0
47 2 S112 803 1002814 5334 0
47 2 S112 803 1003617 6137 0
47 2 S112 857 1004474 6994 0
0 0 0 861 1005335 -11393 0
0 0 0 881 1006216 -10512 0
0 0 0 888 1007104 -9624 0
0 0 0 843 1007947 -8781 0
0 0 0 793 1008740 -7988 0
0 0 0 790 1009530 -7198 0
0 0 0 797 1010327 -6401 0
0 0 0 748 1011075 -5653 0
0 0 0 506 1011581 -5147 0
0 0 0 1088 1012669 -4059 0
0 0 0 774 1013443 -3285 0
0 0 0 774 1014217 -2511 0
48 1 S116 738 1014955 -1773 0
48 1 S116 755 1015710 -1018 0
48 1 S116 809 1016519 -209 0
48 2 S116 858 1017377 649 0
48 2 S116 894 1018271 1543 0
48 2 S116 826 1019097 2369 0
48 2 S116 880 1019977 3249 0
48 2 S116 495 1020472 3744 0
48 2 S116 1230 1021702 4974 0
48 2 S116 799 1022501 5773 0
48 2 S116 783 1023284 6556 0
0 0 0 801 1024085 -8807 0
0 0 0 841 1024926 -7966 0
0 0 0 863 1025789 -7103 0
0 0 0 873 1026662 -6230 0
0 0 0 1047 1027709 -5183 0
0 0 0 962 1028671 -4221 0
0 0 0 883 1029554 -3338 0
0 0 0 443 1029997 -2895 0
49 1 S112 1184 1031181 -1711 0
49 1 S112 795 1031976 -916 0
49 1 S112 775 1032751 -141 0
49 2 S112 758 1033509 617 0
49 2 S112 754 1034263 1371 0
49 2 S112 833 1035096 2204 0
49 2 S112 897 1035993 3101 0
49 2 S112 924 1036917 4025 0
49 2 S112 864 1037781 4889 0
49 2 S112 937 1038718 5826 0
49 2 S112 463 1039181 6289 0
0 0 0 1242 1040423 -11915 0
0 0 0 833 1041256 -11082 0
0 0 0 785 1042041 -10297 0
0 0 0 833 1042874 -9464 0
0 0 0 843 1043717 -8621 0
0 0 0 792 1044509 -7829 0
0 0 0 757 1045266 -7072 0
0 0 0 714 1045980 -6358 0
0 0 0 711 1046691 -5647 0
0 0 0 713 1047404 -4934 0
0 0 0 759 1048163 -4175 0
0 0 0 810 1048973 -3365 0
0 0 0 831 1049804 -2534 0
50 1 S106 777 1050581 -1757 0
50 1 S106 729 1051310 -1028 0
50 1 S106 785 1052095 -243 0
50 2 S106 812 1052907 569 0
50 2 S106 850 1053757 1419 0
50 2 S106 831 1054588 2250 0
50 2 S106 458 1055046 2708 0
50 2 S106 1198 1056244 3906 0
50 2 S106 765 1057009 4671 0
50 2 S106 757 1057766 5428 0
50 2 S106 770 1058536 6198 0
0 0 0 833 1059369 -8221 0
0 0 0 864 1060233 -7357 0
0 0 0 857 1061090 -6500 0
0 0 0 493 1061583 -6007 0
0 0 0 1244 1062827 -4763 0
0 0 0 807 1063634 -3956 0
0 0 0 751 1064385 -3205 0
0 0 0 742 1065127 -2463 0
51 1 S112 791 1065918 -1672 0
51 1 S112 841 1066759 -831 0
51 2 S112 882 1067641 51 0
51 2 S112 804 1068445 855 0
51 2 S112 876 1069321 1731 0
51 2 S112 937 1070258 2668 0
51 2 S112 475 1070733 3143 0
51 2 S112 1220 1071953 4363 0
51 2 S112 780 1072733 5143 0
51 2 S112 769 1073502 5912 0
51 2 S112 779 1074281 6691 0
0 0 0 811 1075092 -6242 0
0 0 0 840 1075932 -5402 0
0 0 0 862 1076794 -4540 0
0 0 0 832 1077626 -3708 0
0 0 0 823 1078449 -2885 0
0 0 0 788 1079237 -2097 0
52 1 S116 470 1079707 -1627 0
52 1 S116 1191 1080898 -436 0
52 2 S116 793 1081691 357 0
52 2 S116 739 1082430 1096 0
52 2 S116 750 1083180 1846 0
52 2 S116 796 1083976 2642 0
52 2 S116 822 1084798 3464 0
52 2 S116 844 1085642 4308 0
52 2 S116 781 1086423 5089 0
52 2 S116 873 1087296 5962 0
52 2 S116 903 1088199 6865 0
0 0 0 452 1088651 -8930 0
0 0 0 1214 1089865 -7716 0
0 0 0 757 1090622 -6959 0
0 0 0 724 1091346 -6235 0
0 0 0 716 1092062 -5519 0
0 0 0 731 1092793 -4788 0
0 0 0 738 1093531 -4050 0
0 0 0 707 1094238 -3343 0
0 0 0 724 1094962 -2619 0
53 1 S106 790 1095752 -1829 0
53 1 S106 846 1096598 -983 0
53 1 S106 897 1097495 -86 0
53 2 S106 831 1098326 745 0
53 2 S106 828 1099154 1573 0
53 2 S106 476 1099630 2049 0
53 2 S106 1199 1100829 3248 0
53 2 S106 786 1101615 4034 0
53 2 S106 775 1102390 4809 0
53 2 S106 796 1103186 5605 0
53 2 S106 831 1104017 6436 0
0 0 0 814 1104831 -7504 0
0 0 0 790 1105621 -6714 0
0 0 0 493 1106114 -6221 0
0 0 0 1250 1107364 -4971 0
0 0 0 796 1108160 -4175 0
0 0 0 741 1108901 -3434 0
0 0 0 710 1109611 -2724 0
0 0 0 691 1110302 -2033 0
54 1 S102 693 1110995 -1340 0
54 1 S102 755 1111750 -585 0
54 2 S102 860 1112610 275 0
54 2 S102 958 1113568 1233 0
54 2 S102 963 1114531 2196 0
54 2 S102 467 1114998 2663 0
54 2 S102 1206 1116204 3869 0
54 2 S102 855 1117059 4724 0
54 2 S102 833 1117892 5557 0
54 2 S102 831 1118723 6388 0
0 0 0 832 1119555 -11879 0
0 0 0 818 1120373 -11061 0
0 0 0 882 1121255 -10179 0
0 0 0 500 1121755 -9679 0
0 0 0 1236 1122991 -8443 0
0 0 0 796 1123787 -7647 0
0 0 0 745 1124532 -6902 0
0 0 0 749 1125281 -6153 0
0 0 0 776 1126057 -5377 0
0 0 0 858 1126915 -4519 0
0 0 0 885 1127800 -3634 0
0 0 0 823 1128623 -2811 0
55 1 S106 881 1129504 -1930 0
55 1 S106 940 1130444 -990 0
55 1 S106 471 1130915 -519 0
55 2 S106 1189 1132104 670 0
55 2 S106 776 1132880 1446 0
55 2 S106 769 1133649 2215 0
55 2 S106 799 1134448 3014 0
55 2 S106 791 1135239 3805 0
55 2 S106 776 1136015 4581 0
55 2 S106 848 1136863 5429 0
55 2 S106 909 1137772 6338 0
0 0 0 875 1138647 -9017 0
0 0 0 824 1139471 -8193 0
0 0 0 449 1139920 -7744 0
0 0 0 1217 1141137 -6527 0
0 0 0 899 1142036 -5628 0
0 0 0 819 1142855 -4809 0
0 0 0 774 1143629 -4035 0
0 0 0 768 1144397 -3267 0
0 0 0 732 1145129 -2535 0
56 1 S116 735 1145864 -1800 0
56 1 S116 791 1146655 -1009 0
56 1 S116 825 1147480 -184 0
56 2 S116 818 1148298 634 0
56 2 S116 806 1149104 1440 0
56 2 S116 867 1149971 2307 0
56 2 S116 896 1150867 3203 0
56 2 S116 502 1151369 3705 0
56 2 S116 1174 1152543 4879 0
56 2 S116 775 1153318 5654 0
56 2 S116 749 1154067 6403 0
0 0 0 782 1154849 -6359 0
0 0 0 786 1155635 -5573 0
0 0 0 830 1156465 -4743 0
0 0 0 776 1157241 -3967 0
0 0 0 490 1157731 -3477 0
0 0 0 1054 1158785 -2423 0
57 1 S106 725 1159510 -1698 0
57 1 S106 705 1160215 -993 0
57 1 S106 734 1160949 -259 0
57 2 S106 771 1161720 512 0
57 2 S106 868 1162588 1380 0
57 2 S106 847 1163435 2227 0
57 2 S106 839 1164274 3066 0
57 2 S106 904 1165178 3970 0
57 2 S106 927 1166105 4897 0
57 2 S106 455 1166560 5352 0
57 2 S106 1177 1167737 6529 0
0 0 0 789 1168526 -9476 0
0 0 0 765 1169291 -8711 0
0 0 0 794 1170085 -7917 0
0 0 0 792 1170877 -7125 0
0 0 0 805 1171682 -6320 0
0 0 0 837 1172519 -5483 0
0 0 0 806 1173325 -4677 0
0 0 0 814 1174139 -3863 0
0 0 0 876 1175015 -2987 0
0 0 0 895 1175910 -2092 0
58 1 S102 838 1176748 -1254 0
58 1 S102 790 1177538 -464 0
58 1 S102 447 1177985 -17 0
58 2 S102 1183 1179168 1166 0
58 2 S102 806 1179974 1972 0
58 2 S102 745 1180719 2717 0
58 2 S102 738 1181457 3455 0
58 2 S102 798 1182255 4253 0
58 2 S102 856 1183111 5109 0
58 2 S102 901 1184012 6010 0
58 2 S102 859 1184871 6869 0
0 0 0 910 1185781 -7938 0
0 0 0 913 1186694 -7025 0
0 0 0 452 1187146 -6573 0
0 0 0 1233 1188379 -5340 0
0 0 0 828 1189207 -4512 0
0 0 0 752 1189959 -3760 0
0 0 0 717 1190676 -3043 0
0 0 0 704 1191380 -2339 0
59 1 S112 735 1192115 -1604 0
59 1 S112 801 1192916 -803 0
59 2 S112 830 1193746 27 0
59 2 S112 823 1194569 850 0
59 2 S112 802 1195371 1652 0
59 2 S112 451 1195822 2103 0
59 2 S112 1192 1197014 3295 0
59 2 S112 779 1197793 4074 0
59 2 S112 713 1198506 4787 0
59 2 S112 714 1199220 5501 0
59 2 S112 459 1199679 5960 0
0 0 0 1122 1200801 -8667 0
0 0 0 755 1201556 -7912 0
0 0 0 758 1202314 -7154 0
0 0 0 792 1203106 -6362 0
0 0 0 787 1203893 -5575 0
0 0 0 783 1204676 -4792 0
0 0 0 770 1205446 -4022 0
0 0 0 469 1205915 -3553 0
0 0 0 1174 1207089 -2379 0
60 1 S102 756 1207845 -1623 0
60 1 S102 717 1208562 -906 0
60 1 S102 737 1209299 -169 0
60 2 S102 480 1209779 311 0
60 2 S102 1109 1210888 1420 0
60 2 S102 735 1211623 2155 0
60 2 S102 722 1212345 2877 0
60 2 S102 754 1213099 3631 0
60 2 S102 816 1213915 4447 0
60 2 S102 860 1214775 5307 0
60 2 S102 858 1215633 6165 0
60 2 S102 804 1216437 6969 0
0 0 0 455 1216892 -10514 0
0 0 0 1225 1218117 -9289 0
0 0 0 816 1218933 -8473 0
0 0 0 716 1219649 -7757 0
0 0 0 713 1220362 -7044 0
0 0 0 467 1220829 -6577 0
0 0 0 960 1221789 -5617 0
0 0 0 671 1222460 -4946 0
0 0 0 648 1223108 -4298 0
0 0 0 654 1223762 -3644 0
0 0 0 691 1224453 -2953 0
0 0 0 725 1225178 -2228 0
61 1 S106 751 1225929 -1477 0
61 1 S106 732 1226661 -745 0
61 1 S106 709 1227370 -36 0
61 2 S106 695 1228065 659 0
61 2 S106 720 1228785 1379 0
61 2 S106 750 1229535 2129 0
61 2 S106 778 1230313 2907 0
61 2 S106 764 1231077 3671 0
61 2 S106 711 1231788 4382 0
61 2 S106 760 1232548 5142 0
61 2 S106 438 1232986 5580 0
61 2 S106 1144 1234130 6724 0
0 0 0 760 1234890 -8365 0
0 0 0 722 1235612 -7643 0
0 0 0 754 1236366 -6889 0
0 0 0 466 1236832 -6423 0
0 0 0 1158 1237990 -5265 0
0 0 0 752 1238742 -4513 0
0 0 0 715 1239457 -3798 0
0 0 0 709 1240166 -3089 0
0 0 0 729 1240895 -2360 0
62 1 S112 777 1241672 -1583 0
62 1 S112 751 1242423 -832 0
62 1 S112 464 1242887 -368 0
62 2 S112 1018 1243905 650 0
62 2 S112 710 1244615 1360 0
62 2 S112 701 1245316 2061 0
62 2 S112 681 1245997 2742 0
62 2 S112 685 1246682 3427 0
62 2 S112 744 1247426 4171 0
62 2 S112 811 1248237 4982 0
62 2 S112 853 1249090 5835 0
62 2 S112 841 1249931 6676 0
0 0 0 784 1250715 -11191 0
0 0 0 455 1251170 -10736 0
0 0 0 1179 1252349 -9557 0
0 0 0 799 1253148 -8758 0
0 0 0 724 1253872 -8034 0
0 0 0 701 1254573 -7333 0
0 0 0 725 1255298 -6608 0
0 0 0 797 1256095 -5811 0
0 0 0 866 1256961 -4945 0
0 0 0 857 1257818 -4088 0
0 0 0 886 1258704 -3202 0
0 0 0 907 1259611 -2295 0
63 1 S102 493 1260104 -1802 0
63 1 S102 1202 1261306 -600 0
63 2 S102 782 1262088 182 0
63 2 S102 774 1262862 956 0
63 2 S102 793 1263655 1749 0
63 2 S102 828 1264483 2577 0
63 2 S102 839 1265322 3416 0
63 2 S102 821 1266143 4237 0
63 2 S102 456 1266599 4693 0
63 2 S102 1239 1267838 5932 0
63 2 S102 867 1268705 6799 0
0 0 0 812 1269517 -8569 0
0 0 0 829 1270346 -7740 0
0 0 0 478 1270824 -7262 0
0 0 0 1209 1272033 -6053 0
0 0 0 762 1272795 -5291 0
0 0 0 707 1273502 -4584 0
0 0 0 678 1274180 -3906 0
0 0 0 682 1274862 -3224 0
0 0 0 746 1275608 -2478 0
64 1 S112 954 1276562 -1524 0
64 1 S112 977 1277539 -547 0
64 2 S112 947 1278486 400 0
64 2 S112 970 1279456 1370 0
64 2 S112 437 1279893 1807 0
64 2 S112 1235 1281128 3042 0
64 2 S112 905 1282033 3947 0
64 2 S112 813 1282846 4760 0
64 2 S112 743 1283589 5503 0
64 2 S112 790 1284379 6293 0
0 0 0 857 1285236 -8235 0
0 0 0 908 1286144 -7327 0
0 0 0 468 1286612 -6859 0
0 0 0 1232 1287844 -5627 0
0 0 0 859 1288703 -4768 0
0 0 0 750 1289453 -4018 0
0 0 0 714 1290167 -3304 0
0 0 0 729 1290896 -2575 0
65 1 S106 797 1291693 -1778 0
65 1 S106 865 1292558 -913 0
65 1 S106 904 1293462 -9 0
65 2 S106 902 1294364 893 0
65 2 S106 885 1295249 1778 0
65 2 S106 442 1295691 2220 0
65 2 S106 1174 1296865 3394 0
65 2 S106 741 1297606 4135 0
65 2 S106 739 1298345 4874 0
65 2 S106 760 1299105 5634 0
65 2 S106 489 1299594 6123 0
0 0 0 1159 1300753 -6395 0
0 0 0 776 1301529 -5619 0
0 0 0 745 1302274 -4874 0
0 0 0 745 1303019 -4129 0
0 0 0 782 1303801 -3347 0
0 0 0 827 1304628 -2520 0
66 1 S116 810 1305438 -1710 0
66 1 S116 807 1306245 -903 0
66 1 S116 901 1307146 -2 0
66 2 S116 947 1308093 945 0
66 2 S116 953 1309046 1898 0
66 2 S116 933 1309979 2831 0
66 2 S116 864 1310843 3695 0
66 2 S116 457 1311300 4152 0
66 2 S116 1197 1312497 5349 0
66 2 S116 789 1313286 6138 0
66 2 S116 729 1314015 6867 0
0 0 0 721 1314736 -12057 0
0 0 0 773 1315509 -11284 0
0 0 0 912 1316421 -10372 0
0 0 0 983 1317404 -9389 0
0 0 0 905 1318309 -8484 0
0 0 0 805 1319114 -7679 0
0 0 0 840 1319954 -6839 0
0 0 0 910 1320864 -5929 0
0 0 0 914 1321778 -5015 0
0 0 0 889 1322667 -4126 0
0 0 0 478 1323145 -3648 0
0 0 0 1175 1324320 -2473 0
67 1 S102 798 1325118 -1675 0
67 1 S102 794 1325912 -881 0
67 1 S102 789 1326701 -92 0
67 2 S102 766 1327467 674 0
67 2 S102 840 1328307 1514 0
67 2 S102 915 1329222 2429 0
67 2 S102 949 1330171 3378 0
67 2 S102 894 1331065 4272 0
67 2 S102 858 1331923 5130 0
67 2 S102 451 1332374 5581 0
67 2 S102 1230 1333604 6811 0
0 0 0 857 1334461 -7684 0
0 0 0 807 1335268 -6877 0
0 0 0 796 1336064 -6081 0
0 0 0 495 1336559 -5586 0
0 0 0 1199 1337758 -4387 0
0 0 0 735 1338493 -3652 0
0 0 0 709 1339202 -2943 0
0 0 0 733 1339935 -2210 0
68 1 S106 463 1340398 -1747 0
68 1 S106 1162 1341560 -585 0
68 2 S106 775 1342335 190 0
68 2 S106 771 1343106 961 0
68 2 S106 852 1343958 1813 0
68 2 S106 915 1344873 2728 0
68 2 S106 922 1345795 3650 0
68 2 S106 882 1346677 4532 0
68 2 S106 447 1347124 4979 0
68 2 S106 1224 1348348 6203 0
0 0 0 842 1349190 -11258 0
0 0 0 776 1349966 -10482 0
0 0 0 775 1350741 -9707 0
0 0 0 832 1351573 -8875 0
0 0 0 772 1352345 -8103 0
0 0 0 737 1353082 -7366 0
0 0 0 709 1353791 -6657 0
0 0 0 714 1354505 -5943 0
0 0 0 738 1355243 -5205 0
0 0 0 809 1356052 -4396 0
0 0 0 888 1356940 -3508 0
0 0 0 874 1357814 -2634 0
69 1 S102 777 1358591 -1857 0
69 1 S102 847 1359438 -1010 0
69 1 S102 862 1360300 -148 0
69 2 S102 888 1361188 740 0
69 2 S102 879 1362067 1619 0
69 2 S102 904 1362971 2523 0
69 2 S102 457 1363428 2980 0
69 2 S102 1193 1364621 4173 0
69 2 S102 766 1365387 4939 0
69 2 S102 717 1366104 5656 0
69 2 S102 738 1366842 6394 0
0 0 0 785 1367627 -9780 0
0 0 0 895 1368522 -8885 0
0 0 0 952 1369474 -7933 0
0 0 0 964 1370438 -6969 0
0 0 0 896 1371334 -6073 0
0 0 0 831 1372165 -5242 0
0 0 0 449 1372614 -4793 0
0 0 0 1139 1373753 -3654 0
0 0 0 756 1374509 -2898 0
0 0 0 739 1375248 -2159 0
70 1 S112 721 1375969 -1438 0
70 1 S112 759 1376728 -679 0
70 2 S112 838 1377566 159 0
70 2 S112 897 1378463 1056 0
70 2 S112 910 1379373 1966 0
70 2 S112 851 1380224 2817 0
70 2 S112 930 1381154 3747 0
70 2 S112 479 1381633 4226 0
70 2 S112 1259 1382892 5485 1
70 2 S112 828 1383720 6313 0
0 0 0 754 1384474 -11169 0
0 0 0 786 1385260 -10383 0
0 0 0 484 1385744 -9899 0
0 0 0 1194 1386938 -8705 0
0 0 0 759 1387697 -7946 0
0 0 0 724 1388421 -7222 0
0 0 0 750 1389171 -6472 0
0 0 0 475 1389646 -5997 0
0 0 0 1158 1390804 -4839 0
0 0 0 763 1391567 -4076 0
0 0 0 744 1392311 -3332 0
0 0 0 802 1393113 -2530 0
71 1 S116 843 1393956 -1687 0
71 1 S116 878 1394834 -809 0
71 2 S116 828 1395662 19 0
71 2 S116 460 1396122 479 0
71 2 S116 1231 1397353 1710 0
71 2 S116 852 1398205 2562 0
71 2 S116 744 1398949 3306 0
71 2 S116 714 1399663 4020 0
71 2 S116 772 1400435 4792 0
71 2 S116 435 1400870 5227 0
71 2 S116 1224 1402094 6451 0
0 0 0 870 1402964 -9241 0
0 0 0 806 1403770 -8435 0
0 0 0 850 1404620 -7585 0
0 0 0 883 1405503 -6702 0
0 0 0 884 1406387 -5818 0
0 0 0 833 1407220 -4985 0
0 0 0 480 1407700 -4505 0
0 0 0 1222 1408922 -3283 0
0 0 0 825 1409747 -2458 0
72 1 S102 803 1410550 -1655 0
72 1 S102 775 1411325 -880 0
72 1 S102 781 1412106 -99 0
72 2 S102 852 1412958 753 0
72 2 S102 924 1413882 1677 0
72 2 S102 944 1414826 2621 0
72 2 S102 919 1415745 3540 0
72 2 S102 878 1416623 4418 0
72 2 S102 444 1417067 4862 0
72 2 S102 1204 1418271 6066 0
72 2 S102 793 1419064 6859 0
0 0 0 752 1419816 -8470 0
0 0 0 729 1420545 -7741 0
0 0 0 492 1421037 -7249 0
0 0 0 1167 1422204 -6082 0
0 0 0 843 1423047 -5239 0
0 0 0 789 1423836 -4450 0
0 0 0 738 1424574 -3712 0
0 0 0 791 1425365 -2921 0
0 0 0 800 1426165 -2121 0
73 1 S116 747 1426912 -1374 0
73 1 S116 475 1427387 -899 0
73 2 S116 1124 1428511 225 0
73 2 S116 716 1429227 941 0
73 2 S116 735 1429962 1676 0
73 2 S116 791 1430753 2467 0
73 2 S116 474 1431227 2941 0
73 2 S116 1219 1432446 4160 0
73 2 S116 869 1433315 5029 0
73 2 S116 818 1434133 5847 0
73 2 S116 809 1434942 6656 0
0 0 0 490 1435432 -10394 0
0 0 0 1247 1436679 -9147 0
0 0 0 834 1437513 -8313 0
0 0 0 838 1438351 -7475 0
0 0 0 848 1439199 -6627 0
0 0 0 837 1440036 -5790 0
0 0 0 923 1440959 -4867 0
0 0 0 851 1441810 -4016 0
0 0 0 463 1442273 -3553 0
0 0 0 1189 1443462 -2364 0
74 1 S106 830 1444292 -1534 0
74 1 S106 817 1445109 -717 0
74 2 S106 811 1445920 94 0
74 2 S106 488 1446408 582 0
74 2 S106 1172 1447580 1754 0
74 2 S106 823 1448403 2577 0
74 2 S106 883 1449286 3460 0
74 2 S106 851 1450137 4311 0
74 2 S106 768 1450905 5079 0
74 2 S106 824 1451729 5903 0
74 2 S106 892 1452621 6795 0
0 0 0 919 1453540 -7422 0
0 0 0 916 1454456 -6506 0
0 0 0 860 1455316 -5646 0
0 0 0 445 1455761 -5201 0
0 0 0 1182 1456943 -4019 0
0 0 0 751 1457694 -3268 0
0 0 0 706 1458400 -2562 0
75 1 S112 729 1459129 -1833 0
75 1 S112 462 1459591 -1371 0
75 1 S112 1132 1460723 -239 0
75 2 S112 734 1461457 495 0
75 2 S112 744 1462201 1239 0
75 2 S112 842 1463043 2081 0
75 2 S112 488 1463531 2569 0
75 2 S112 1254 1464785 3823 0
75 2 S112 888 1465673 4711 0
75 2 S112 843 1466516 5554 0
75 2 S112 901 1467417 6455 0
75 2 S112 489 1467906 6944 0
0 0 0 1271 1469177 -8065 1
0 0 0 844 1470021 -7221 0
0 0 0 821 1470842 -6400 0
0 0 0 883 1471725 -5517 0
0 0 0 520 1472245 -4997 0
0 0 0 1206 1473451 -3791 0
0 0 0 751 1474202 -3040 0
0 0 0 760 1474962 -2280 0
76 1 S116 796 1475758 -1484 0
76 1 S116 471 1476229 -1013 0
76 2 S116 1184 1477413 171 0
76 2 S116 753 1478166 924 0
76 2 S116 807 1478973 1731 0
76 2 S116 894 1479867 2625 0
76 2 S116 928 1480795 3553 0
76 2 S116 870 1481665 4423 0
76 2 S116 841 1482506 5264 0
76 2 S116 910 1483416 6174 0
0 0 0 983 1484399 -7217 0
0 0 0 931 1485330 -6286 0
0 0 0 454 1485784 -5832 0
0 0 0 1223 1487007 -4609 0
0 0 0 784 1487791 -3825 0
0 0 0 727 1488518 -3098 0
0 0 0 749 1489267 -2349 0
77 1 S106 446 1489713 -1903 0
77 1 S106 1174 1490887 -729 0
77 2 S106 773 1491660 44 0
77 2 S106 738 1492398 782 0
77 2 S106 808 1493206 1590 0
77 2 S106 458 1493664 2048 0
77 2 S106 1212 1494876 3260 0
77 2 S106 819 1495695 4079 0
77 2 S106 759 1496454 4838 0
77 2 S106 808 1497262 5646 0
77 2 S106 500 1497762 6146 0
0 0 0 1235 1498997 -10009 0
0 0 0 835 1499832 -9174 0
0 0 0 815 1500647 -8359 0
0 0 0 870 1501517 -7489 0
0 0 0 487 1502004 -7002 0
0 0 0 1192 1503196 -5810 0
0 0 0 745 1503941 -5065 0
0 0 0 753 1504694 -4312 0
0 0 0 775 1505469 -3537 0
0 0 0 463 1505932 -3074 0
78 1 S112 1185 1507117 -1889 0
78 1 S112 744 1507861 -1145 0
78 1 S112 785 1508646 -360 0
78 2 S112 839 1509485 479 0
78 2 S112 899 1510384 1378 0
78 2 S112 924 1511308 2302 0
78 2 S112 856 1512164 3158 0
78 2 S112 446 1512610 3604 0
78 2 S112 1225 1513835 4829 0
78 2 S112 854 1514689 5683 0
78 2 S112 793 1515482 6476 0
0 0 0 739 1516221 -11502 0
0 0 0 758 1516979 -10744 0
0 0 0 840 1517819 -9904 0
0 0 0 908 1518727 -8996 0
0 0 0 811 1519538 -8185 0
0 0 0 762 1520300 -7423 0
0 0 0 750 1521050 -6673 0
0 0 0 477 1521527 -6196 0
0 0 0 1020 1522547 -5176 0
0 0 0 720 1523267 -4456 0
0 0 0 701 1523968 -3755 0
0 0 0 736 1524704 -3019 0
0 0 0 479 1525183 -2540 0
79 1 S102 1149 1526332 -1391 0
79 1 S102 807 1527139 -584 0
79 2 S102 777 1527916 193 0
79 2 S102 810 1528726 1003 0
79 2 S102 889 1529615 1892 0
79 2 S102 950 1530565 2842 0
79 2 S102 880 1531445 3722 0
79 2 S102 474 1531919 4196 0
79 2 S102 1214 1533133 5410 0
79 2 S102 810 1533943 6220 0
79 2 S102 734 1534677 6954 0
0 0 0 717 1535394 -9737 0
0 0 0 758 1536152 -8979 0
0 0 0 438 1536590 -8541 0
0 0 0 1214 1537804 -7327 0
0 0 0 784 1538588 -6543 0
0 0 0 717 1539305 -5826 0
0 0 0 681 1539986 -5145 0
0 0 0 461 1540447 -4684 0
0 0 0 1073 1541520 -3611 0
0 0 0 731 1542251 -2880 0
0 0 0 792 1543043 -2088 0
80 1 S116 821 1543864 -1267 0
80 1 S116 845 1544709 -422 0
80 2 S116 863 1545572 441 0
80 2 S116 861 1546433 1302 0
80 2 S116 464 1546897 1766 0
80 2 S116 1198 1548095 2964 0
80 2 S116 819 1548914 3783 0
80 2 S116 814 1549728 4597 0
80 2 S116 779 1550507 5376 0
80 2 S116 727 1551234 6103 0
80 2 S116 698 1551932 6801 0
