T_0110
BeatCount Mean SD BeatCountNoOutliers MeanNoOutliers SDNoOutliers
1792 837,145647321429 53,4628399678274 1764 837,823696145125 50,44293411675

Trial TrialStatus Trialtype IBI AbsPosition RelPosition Outlier
0 0 0 894 1291 -14451 0
0 0 0 872 2163 -13579 0
0 0 0 821 2984 -12758 0
0 0 0 869 3853 -11889 0
0 0 0 885 4738 -11004 0
0 0 0 853 5591 -10151 0
0 0 0 951 6542 -9200 0
0 0 0 902 7444 -8298 0
0 0 0 904 8348 -7394 0
0 0 0 915 9263 -6479 0
0 0 0 850 10113 -5629 0
0 0 0 863 10976 -4766 0
0 0 0 854 11830 -3912 0
0 0 0 815 12645 -3097 0
0 0 0 893 13538 -2204 0
1 1 S112 929 14467 -1275 0
1 1 S112 864 15331 -411 0
1 2 S112 956 16287 545 0
1 2 S112 967 17254 1512 0
1 2 S112 978 18232 2490 1
1 2 S112 896 19128 3386 0
1 2 S112 908 20036 4294 0
1 2 S112 929 20965 5223 0
1 2 S112 884 21849 6107 0
0 0 0 940 22789 -12117 0
0 0 0 954 23743 -11163 0
0 0 0 828 24571 -10335 0
0 0 0 833 25404 -9502 0
0 0 0 859 26263 -8643 0
0 0 0 850 27113 -7793 0
0 0 0 806 27919 -6987 0
0 0 0 841 28760 -6146 0
0 0 0 857 29617 -5289 0
0 0 0 793 30410 -4496 0
0 0 0 857 31267 -3639 0
0 0 0 871 32138 -2768 0
2 1 S102 788 32926 -1980 0
2 1 S102 866 33792 -1114 0
2 1 S102 856 34648 -258 0
2 2 S102 792 35440 534 0
2 2 S102 872 36312 1406 0
2 2 S102 894 37206 2300 0
2 2 S102 823 38029 3123 0
2 2 S102 892 38921 4015 0
2 2 S102 924 39845 4939 0
2 2 S102 840 40685 5779 0
2 2 S102 871 41556 6650 0
0 0 0 909 42465 -8423 0
0 0 0 844 43309 -7579 0
0 0 0 874 44183 -6705 0
0 0 0 885 45068 -5820 0
0 0 0 813 45881 -5007 0
0 0 0 873 46754 -4134 0
0 0 0 875 47629 -3259 0
0 0 0 804 48433 -2455 0
3 1 S116 870 49303 -1585 0
3 1 S116 857 50160 -728 0
3 2 S116 803 50963 75 0
3 2 S116 869 51832 944 0
3 2 S116 967 52799 1911 0
3 2 S116 907 53706 2818 0
3 2 S116 821 54527 3639 0
3 2 S116 778 55305 4417 0
3 2 S116 820 56125 5237 0
3 2 S116 876 57001 6113 0
3 2 S116 880 57881 6993 0
0 0 0 855 58736 -10272 0
0 0 0 767 59503 -9505 0
0 0 0 819 60322 -8686 0
0 0 0 849 61171 -7837 0
0 0 0 843 62014 -6994 0
0 0 0 819 62833 -6175 0
0 0 0 850 63683 -5325 0
0 0 0 814 64497 -4511 0
0 0 0 838 65335 -3673 0
0 0 0 849 66184 -2824 0
0 0 0 817 67001 -2007 0
4 1 S106 826 67827 -1181 0
4 1 S106 865 68692 -316 0
4 2 S106 845 69537 529 0
4 2 S106 876 70413 1405 0
4 2 S106 918 71331 2323 0
4 2 S106 854 72185 3177 0
4 2 S106 831 73016 4008 0
4 2 S106 914 73930 4922 0
4 2 S106 905 74835 5827 0
4 2 S106 891 75726 6718 0
0 0 0 909 76635 -6747 0
0 0 0 829 77464 -5918 0
0 0 0 863 78327 -5055 0
0 0 0 826 79153 -4229 0
0 0 0 768 79921 -3461 0
0 0 0 825 80746 -2636 0
5 1 S116 841 81587 -1795 0
5 1 S116 834 82421 -961 0
5 1 S116 797 83218 -164 0
5 2 S116 905 84123 741 0
5 2 S116 927 85050 1668 0
5 2 S116 832 85882 2500 0
5 2 S116 846 86728 3346 0
5 2 S116 887 87615 4233 0
5 2 S116 894 88509 5127 0
5 2 S116 835 89344 5962 0
5 2 S116 794 90138 6756 0
0 0 0 867 91005 -8972 0
0 0 0 896 91901 -8076 0
0 0 0 786 92687 -7290 0
0 0 0 863 93550 -6427 0
0 0 0 854 94404 -5573 0
0 0 0 802 95206 -4771 0
0 0 0 853 96059 -3918 0
0 0 0 864 96923 -3054 0
0 0 0 799 97722 -2255 0
6 1 S106 867 98589 -1388 0
6 1 S106 953 99542 -435 0
6 2 S106 1005 100547 570 1
6 2 S106 837 101384 1407 0
6 2 S106 901 102285 2308 0
6 2 S106 918 103203 3226 0
6 2 S106 875 104078 4101 0
6 2 S106 820 104898 4921 0
6 2 S106 886 105784 5807 0
6 2 S106 912 106696 6719 0
0 0 0 903 107599 -12123 0
0 0 0 803 108402 -11320 0
0 0 0 864 109266 -10456 0
0 0 0 909 110175 -9547 0
0 0 0 872 111047 -8675 0
0 0 0 844 111891 -7831 0
0 0 0 909 112800 -6922 0
0 0 0 868 113668 -6054 0
0 0 0 871 114539 -5183 0
0 0 0 942 115481 -4241 0
0 0 0 853 116334 -3388 0
0 0 0 878 117212 -2510 0
7 1 S102 910 118122 -1600 0
7 1 S102 836 118958 -764 0
7 2 S102 859 119817 95 0
7 2 S102 943 120760 1038 0
7 2 S102 857 121617 1895 0
7 2 S102 806 122423 2701 0
7 2 S102 846 123269 3547 0
7 2 S102 900 124169 4447 0
7 2 S102 924 125093 5371 0
7 2 S102 916 126009 6287 0
0 0 0 891 126900 -8007 0
0 0 0 865 127765 -7142 0
0 0 0 773 128538 -6369 0
0 0 0 789 129327 -5580 0
0 0 0 794 130121 -4786 0
0 0 0 784 130905 -4002 0
0 0 0 809 131714 -3193 0
0 0 0 830 132544 -2363 0
8 1 S112 801 133345 -1562 0
8 1 S112 815 134160 -747 0
8 2 S112 888 135048 141 0
8 2 S112 887 135935 1028 0
8 2 S112 850 136785 1878 0
8 2 S112 926 137711 2804 0
8 2 S112 922 138633 3726 0
8 2 S112 815 139448 4541 0
8 2 S112 862 140310 5403 0
8 2 S112 886 141196 6289 0
0 0 0 876 142072 -6629 0
0 0 0 807 142879 -5822 0
0 0 0 872 143751 -4950 0
0 0 0 783 144534 -4167 0
0 0 0 796 145330 -3371 0
0 0 0 812 146142 -2559 0
9 1 S116 791 146933 -1768 0
9 1 S116 839 147772 -929 0
9 1 S116 848 148620 -81 0
9 2 S116 780 149400 699 0
9 2 S116 890 150290 1589 0
9 2 S116 892 151182 2481 0
9 2 S116 834 152016 3315 0
9 2 S116 820 152836 4135 0
9 2 S116 890 153726 5025 0
9 2 S116 865 154591 5890 0
9 2 S116 786 155377 6676 0
0 0 0 825 156202 -10635 0
0 0 0 850 157052 -9785 0
0 0 0 775 157827 -9010 0
0 0 0 808 158635 -8202 0
0 0 0 795 159430 -7407 0
0 0 0 789 160219 -6618 0
0 0 0 849 161068 -5769 0
0 0 0 900 161968 -4869 0
0 0 0 847 162815 -4022 0
0 0 0 906 163721 -3116 0
0 0 0 914 164635 -2202 0
10 1 S102 874 165509 -1328 0
10 1 S102 923 166432 -405 0
10 2 S102 868 167300 463 0
10 2 S102 857 168157 1320 0
10 2 S102 917 169074 2237 0
10 2 S102 910 169984 3147 0
10 2 S102 856 170840 4003 0
10 2 S102 923 171763 4926 0
10 2 S102 892 172655 5818 0
10 2 S102 867 173522 6685 0
0 0 0 918 174440 -10816 0
0 0 0 878 175318 -9938 0
0 0 0 867 176185 -9071 0
0 0 0 855 177040 -8216 0
0 0 0 786 177826 -7430 0
0 0 0 780 178606 -6650 0
0 0 0 738 179344 -5912 0
0 0 0 709 180053 -5203 0
0 0 0 736 180789 -4467 0
0 0 0 720 181509 -3747 0
0 0 0 807 182316 -2940 0
0 0 0 866 183182 -2074 0
11 1 S112 792 183974 -1282 0
11 1 S112 863 184837 -419 0
11 2 S112 884 185721 465 0
11 2 S112 858 186579 1323 0
11 2 S112 925 187504 2248 0
11 2 S112 917 188421 3165 0
11 2 S112 853 189274 4018 0
11 2 S112 906 190180 4924 0
11 2 S112 958 191138 5882 0
11 2 S112 893 192031 6775 0
0 0 0 943 192974 -7783 0
0 0 0 947 193921 -6836 0
0 0 0 845 194766 -5991 0
0 0 0 931 195697 -5060 0
0 0 0 841 196538 -4219 0
0 0 0 800 197338 -3419 0
0 0 0 792 198130 -2627 0
12 1 S116 745 198875 -1882 0
12 1 S116 715 199590 -1167 0
12 1 S116 727 200317 -440 0
12 2 S116 726 201043 286 0
12 2 S116 724 201767 1010 0
12 2 S116 734 202501 1744 0
12 2 S116 780 203281 2524 0
12 2 S116 784 204065 3308 0
12 2 S116 743 204808 4051 0
12 2 S116 742 205550 4793 0
12 2 S116 748 206298 5541 0
12 2 S116 722 207020 6263 0
12 2 S116 709 207729 6972 0
0 0 0 734 208463 -11442 0
0 0 0 717 209180 -10725 0
0 0 0 692 209872 -10033 1
0 0 0 691 210563 -9342 1
0 0 0 690 211253 -8652 1
0 0 0 771 212024 -7881 0
0 0 0 899 212923 -6982 0
0 0 0 880 213803 -6102 0
0 0 0 910 214713 -5192 0
0 0 0 913 215626 -4279 0
0 0 0 917 216543 -3362 0
0 0 0 847 217390 -2515 0
13 1 S112 796 218186 -1719 0
13 1 S112 814 219000 -905 0
13 1 S112 833 219833 -72 0
13 2 S112 847 220680 775 0
13 2 S112 887 221567 1662 0
13 2 S112 885 222452 2547 0
13 2 S112 825 223277 3372 0
13 2 S112 865 224142 4237 0
13 2 S112 895 225037 5132 0
13 2 S112 858 225895 5990 0
13 2 S112 885 226780 6875 0
0 0 0 943 227723 -11065 0
0 0 0 876 228599 -10189 0
0 0 0 883 229482 -9306 0
0 0 0 874 230356 -8432 0
0 0 0 803 231159 -7629 0
0 0 0 834 231993 -6795 0
0 0 0 823 232816 -5972 0
0 0 0 786 233602 -5186 0
0 0 0 824 234426 -4362 0
0 0 0 804 235230 -3558 0
0 0 0 790 236020 -2768 0
14 1 S106 820 236840 -1948 0
14 1 S106 811 237651 -1137 0
14 1 S106 791 238442 -346 0
14 2 S106 832 239274 486 0
14 2 S106 788 240062 1274 0
14 2 S106 779 240841 2053 0
14 2 S106 814 241655 2867 0
14 2 S106 832 242487 3699 0
14 2 S106 769 243256 4468 0
14 2 S106 785 244041 5253 0
14 2 S106 835 244876 6088 0
14 2 S106 828 245704 6916 0
0 0 0 781 246485 -11003 0
0 0 0 829 247314 -10174 0
0 0 0 773 248087 -9401 0
0 0 0 810 248897 -8591 0
0 0 0 816 249713 -7775 0
0 0 0 775 250488 -7000 0
0 0 0 770 251258 -6230 0
0 0 0 790 252048 -5440 0
0 0 0 764 252812 -4676 0
0 0 0 780 253592 -3896 0
0 0 0 887 254479 -3009 0
0 0 0 847 255326 -2162 0
15 1 S116 810 256136 -1352 0
15 1 S116 882 257018 -470 0
15 2 S116 873 257891 403 0
15 2 S116 795 258686 1198 0
15 2 S116 862 259548 2060 0
15 2 S116 907 260455 2967 0
15 2 S116 953 261408 3920 0
15 2 S116 886 262294 4806 0
15 2 S116 848 263142 5654 0
15 2 S116 891 264033 6545 0
0 0 0 897 264930 -9120 0
0 0 0 805 265735 -8315 0
0 0 0 828 266563 -7487 0
0 0 0 812 267375 -6675 0
0 0 0 761 268136 -5914 0
0 0 0 797 268933 -5117 0
0 0 0 808 269741 -4309 0
0 0 0 794 270535 -3515 0
0 0 0 805 271340 -2710 0
16 1 S116 831 272171 -1879 0
16 1 S116 801 272972 -1078 0
16 1 S116 792 273764 -286 0
16 2 S116 822 274586 536 0
16 2 S116 792 275378 1328 0
16 2 S116 809 276187 2137 0
16 2 S116 852 277039 2989 0
16 2 S116 827 277866 3816 0
16 2 S116 780 278646 4596 0
16 2 S116 821 279467 5417 0
16 2 S116 808 280275 6225 0
16 2 S116 765 281040 6990 0
0 0 0 820 281860 -8122 0
0 0 0 847 282707 -7275 0
0 0 0 772 283479 -6503 0
0 0 0 804 284283 -5699 0
0 0 0 821 285104 -4878 0
0 0 0 844 285948 -4034 0
0 0 0 793 286741 -3241 0
0 0 0 854 287595 -2387 0
17 1 S106 857 288452 -1530 0
17 1 S106 795 289247 -735 0
17 2 S106 845 290092 110 0
17 2 S106 831 290923 941 0
17 2 S106 797 291720 1738 0
17 2 S106 865 292585 2603 0
17 2 S106 948 293533 3551 0
17 2 S106 867 294400 4418 0
17 2 S106 866 295266 5284 0
17 2 S106 895 296161 6179 0
0 0 0 857 297018 -11117 0
0 0 0 834 297852 -10283 0
0 0 0 852 298704 -9431 0
0 0 0 798 299502 -8633 0
0 0 0 819 300321 -7814 0
0 0 0 811 301132 -7003 0
0 0 0 795 301927 -6208 0
0 0 0 810 302737 -5398 0
0 0 0 822 303559 -4576 0
0 0 0 823 304382 -3753 0
0 0 0 789 305171 -2964 0
0 0 0 850 306021 -2114 0
18 1 S102 846 306867 -1268 0
18 1 S102 792 307659 -476 0
18 2 S102 861 308520 385 0
18 2 S102 855 309375 1240 0
18 2 S102 805 310180 2045 0
18 2 S102 854 311034 2899 0
18 2 S102 901 311935 3800 0
18 2 S102 891 312826 4691 0
18 2 S102 862 313688 5553 0
18 2 S102 835 314523 6388 0
0 0 0 874 315397 -7808 0
0 0 0 852 316249 -6956 0
0 0 0 793 317042 -6163 0
0 0 0 833 317875 -5330 0
0 0 0 857 318732 -4473 0
0 0 0 808 319540 -3665 0
0 0 0 838 320378 -2827 0
19 1 S106 854 321232 -1973 0
19 1 S106 805 322037 -1168 0
19 1 S106 853 322890 -315 0
19 2 S106 846 323736 531 0
19 2 S106 801 324537 1332 0
19 2 S106 851 325388 2183 0
19 2 S106 885 326273 3068 0
19 2 S106 832 327105 3900 0
19 2 S106 805 327910 4705 0
19 2 S106 857 328767 5562 0
19 2 S106 864 329631 6426 0
0 0 0 798 330429 -10648 0
0 0 0 856 331285 -9792 0
0 0 0 829 332114 -8963 0
0 0 0 749 332863 -8214 0
0 0 0 754 333617 -7460 0
0 0 0 744 334361 -6716 0
0 0 0 805 335166 -5911 0
0 0 0 826 335992 -5085 0
0 0 0 854 336846 -4231 0
0 0 0 863 337709 -3368 0
0 0 0 872 338581 -2496 0
20 1 S112 799 339380 -1697 0
20 1 S112 798 340178 -899 0
20 1 S112 782 340960 -117 0
20 2 S112 746 341706 629 0
20 2 S112 724 342430 1353 0
20 2 S112 759 343189 2112 0
20 2 S112 797 343986 2909 0
20 2 S112 799 344785 3708 0
20 2 S112 793 345578 4501 0
20 2 S112 786 346364 5287 0
20 2 S112 806 347170 6093 0
20 2 S112 846 348016 6939 0
0 0 0 858 348874 -9311 0
0 0 0 800 349674 -8511 0
0 0 0 844 350518 -7667 0
0 0 0 817 351335 -6850 0
0 0 0 808 352143 -6042 0
0 0 0 847 352990 -5195 0
0 0 0 830 353820 -4365 0
0 0 0 835 354655 -3530 0
0 0 0 848 355503 -2682 0
21 1 S106 825 356328 -1857 0
21 1 S106 810 357138 -1047 0
21 1 S106 831 357969 -216 0
21 2 S106 828 358797 612 0
21 2 S106 807 359604 1419 0
21 2 S106 830 360434 2249 0
21 2 S106 813 361247 3062 0
21 2 S106 793 362040 3855 0
21 2 S106 822 362862 4677 0
21 2 S106 799 363661 5476 0
21 2 S106 799 364460 6275 0
0 0 0 841 365301 -12513 0
0 0 0 845 366146 -11668 0
0 0 0 801 366947 -10867 0
0 0 0 867 367814 -10000 0
0 0 0 813 368627 -9187 0
0 0 0 840 369467 -8347 0
0 0 0 809 370276 -7538 0
0 0 0 768 371044 -6770 0
0 0 0 798 371842 -5972 0
0 0 0 774 372616 -5198 0
0 0 0 769 373385 -4429 0
0 0 0 805 374190 -3624 0
0 0 0 773 374963 -2851 0
0 0 0 788 375751 -2063 0
22 1 S116 825 376576 -1238 0
22 1 S116 819 377395 -419 0
22 2 S116 791 378186 372 0
22 2 S116 867 379053 1239 0
22 2 S116 878 379931 2117 0
22 2 S116 855 380786 2972 0
22 2 S116 823 381609 3795 0
22 2 S116 781 382390 4576 0
22 2 S116 821 383211 5397 0
22 2 S116 844 384055 6241 0
0 0 0 852 384907 -10116 0
0 0 0 825 385732 -9291 0
0 0 0 864 386596 -8427 0
0 0 0 812 387408 -7615 0
0 0 0 820 388228 -6795 0
0 0 0 810 389038 -5985 0
0 0 0 743 389781 -5242 0
0 0 0 730 390511 -4512 0
0 0 0 750 391261 -3762 0
0 0 0 772 392033 -2990 0
0 0 0 790 392823 -2200 0
23 1 S112 762 393585 -1438 0
23 1 S112 831 394416 -607 0
23 2 S112 820 395236 213 0
23 2 S112 789 396025 1002 0
23 2 S112 880 396905 1882 0
23 2 S112 876 397781 2758 0
23 2 S112 856 398637 3614 0
23 2 S112 860 399497 4474 0
23 2 S112 856 400353 5330 0
23 2 S112 801 401154 6131 0
23 2 S112 833 401987 6964 0
0 0 0 857 402844 -8293 0
0 0 0 812 403656 -7481 0
0 0 0 840 404496 -6641 0
0 0 0 799 405295 -5842 0
0 0 0 763 406058 -5079 0
0 0 0 724 406782 -4355 0
0 0 0 722 407504 -3633 0
0 0 0 742 408246 -2891 0
0 0 0 764 409010 -2127 0
24 1 S106 797 409807 -1330 0
24 1 S106 753 410560 -577 0
24 2 S106 806 411366 229 0
24 2 S106 811 412177 1040 0
24 2 S106 763 412940 1803 0
24 2 S106 805 413745 2608 0
24 2 S106 835 414580 3443 0
24 2 S106 781 415361 4224 0
24 2 S106 818 416179 5042 0
24 2 S106 841 417020 5883 0
24 2 S106 808 417828 6691 0
0 0 0 841 418669 -8300 0
0 0 0 877 419546 -7423 0
0 0 0 812 420358 -6611 0
0 0 0 828 421186 -5783 0
0 0 0 844 422030 -4939 0
0 0 0 821 422851 -4118 0
0 0 0 821 423672 -3297 0
0 0 0 848 424520 -2449 0
25 1 S102 864 425384 -1585 0
25 1 S102 842 426226 -743 0
25 2 S102 896 427122 153 0
25 2 S102 866 427988 1019 0
25 2 S102 828 428816 1847 0
25 2 S102 870 429686 2717 0
25 2 S102 882 430568 3599 0
25 2 S102 854 431422 4453 0
25 2 S102 844 432266 5297 0
25 2 S102 895 433161 6192 0
0 0 0 908 434069 -7522 0
0 0 0 909 434978 -6613 0
0 0 0 846 435824 -5767 0
0 0 0 842 436666 -4925 0
0 0 0 847 437513 -4078 0
0 0 0 791 438304 -3287 0
0 0 0 812 439116 -2475 0
26 1 S116 815 439931 -1660 0
26 1 S116 830 440761 -830 0
26 2 S116 840 441601 10 0
26 2 S116 910 442511 920 0
26 2 S116 910 443421 1830 0
26 2 S116 858 444279 2688 0
26 2 S116 924 445203 3612 0
26 2 S116 909 446112 4521 0
26 2 S116 853 446965 5374 0
26 2 S116 891 447856 6265 0
0 0 0 888 448744 -6972 0
0 0 0 828 449572 -6144 0
0 0 0 865 450437 -5279 0
0 0 0 851 451288 -4428 0
0 0 0 795 452083 -3633 0
0 0 0 860 452943 -2773 0
27 1 S106 865 453808 -1908 0
27 1 S106 820 454628 -1088 0
27 1 S106 878 455506 -210 0
27 2 S106 886 456392 676 0
27 2 S106 833 457225 1509 0
27 2 S106 884 458109 2393 0
27 2 S106 898 459007 3291 0
27 2 S106 841 459848 4132 0
27 2 S106 852 460700 4984 0
27 2 S106 886 461586 5870 0
27 2 S106 882 462468 6752 0
0 0 0 847 463315 -6244 0
0 0 0 895 464210 -5349 0
0 0 0 877 465087 -4472 0
0 0 0 822 465909 -3650 0
0 0 0 896 466805 -2754 0
28 1 S102 892 467697 -1862 0
28 1 S102 842 468539 -1020 0
28 1 S102 944 469483 -76 0
28 2 S102 947 470430 871 0
28 2 S102 887 471317 1758 0
28 2 S102 919 472236 2677 0
28 2 S102 944 473180 3621 0
28 2 S102 859 474039 4480 0
28 2 S102 886 474925 5366 0
28 2 S102 893 475818 6259 0
0 0 0 830 476648 -11380 0
0 0 0 866 477514 -10514 0
0 0 0 875 478389 -9639 0
0 0 0 818 479207 -8821 0
0 0 0 854 480061 -7967 0
0 0 0 829 480890 -7138 0
0 0 0 833 481723 -6305 0
0 0 0 863 482586 -5442 0
0 0 0 828 483414 -4614 0
0 0 0 829 484243 -3785 0
0 0 0 857 485100 -2928 0
0 0 0 826 485926 -2102 0
29 1 S112 855 486781 -1247 0
29 1 S112 872 487653 -375 0
29 2 S112 829 488482 454 0
29 2 S112 877 489359 1331 0
29 2 S112 899 490258 2230 0
29 2 S112 891 491149 3121 0
29 2 S112 859 492008 3980 0
29 2 S112 837 492845 4817 0
29 2 S112 876 493721 5693 0
29 2 S112 868 494589 6561 0
0 0 0 849 495438 -6383 0
0 0 0 901 496339 -5482 0
0 0 0 830 497169 -4652 0
0 0 0 804 497973 -3848 0
0 0 0 839 498812 -3009 0
0 0 0 882 499694 -2127 0
30 1 S112 823 500517 -1304 0
30 1 S112 865 501382 -439 0
30 2 S112 850 502232 411 0
30 2 S112 812 503044 1223 0
30 2 S112 874 503918 2097 0
30 2 S112 866 504784 2963 0
30 2 S112 809 505593 3772 0
30 2 S112 860 506453 4632 0
30 2 S112 882 507335 5514 0
30 2 S112 843 508178 6357 0
0 0 0 888 509066 -8836 0
0 0 0 929 509995 -7907 0
0 0 0 833 510828 -7074 0
0 0 0 866 511694 -6208 0
0 0 0 866 512560 -5342 0
0 0 0 816 513376 -4526 0
0 0 0 854 514230 -3672 0
0 0 0 855 515085 -2817 0
31 1 S106 826 515911 -1991 0
31 1 S106 872 516783 -1119 0
31 1 S106 875 517658 -244 0
31 2 S106 827 518485 583 0
31 2 S106 900 519385 1483 0
31 2 S106 892 520277 2375 0
31 2 S106 819 521096 3194 0
31 2 S106 871 521967 4065 0
31 2 S106 903 522870 4968 0
31 2 S106 852 523722 5820 0
31 2 S106 871 524593 6691 0
0 0 0 896 525489 -8461 0
0 0 0 838 526327 -7623 0
0 0 0 848 527175 -6775 0
0 0 0 853 528028 -5922 0
0 0 0 825 528853 -5097 0
0 0 0 856 529709 -4241 0
0 0 0 877 530586 -3364 0
0 0 0 857 531443 -2507 0
32 1 S102 844 532287 -1663 0
32 1 S102 872 533159 -791 0
32 2 S102 838 533997 47 0
32 2 S102 855 534852 902 0
32 2 S102 896 535748 1798 0
32 2 S102 865 536613 2663 0
32 2 S102 821 537434 3484 0
32 2 S102 855 538289 4339 0
32 2 S102 858 539147 5197 0
32 2 S102 832 539979 6029 0
32 2 S102 838 540817 6867 0
0 0 0 879 541696 -10125 0
0 0 0 883 542579 -9242 0
0 0 0 831 543410 -8411 0
0 0 0 848 544258 -7563 0
0 0 0 874 545132 -6689 0
0 0 0 841 545973 -5848 0
0 0 0 825 546798 -5023 0
0 0 0 850 547648 -4173 0
0 0 0 855 548503 -3318 0
0 0 0 808 549311 -2510 0
33 1 S112 859 550170 -1651 0
33 1 S112 844 551014 -807 0
33 1 S112 799 551813 -8 0
33 2 S112 836 552649 828 0
33 2 S112 864 553513 1692 0
33 2 S112 889 554402 2581 0
33 2 S112 881 555283 3462 0
33 2 S112 875 556158 4337 0
33 2 S112 808 556966 5145 0
33 2 S112 849 557815 5994 0
33 2 S112 867 558682 6861 0
0 0 0 857 559539 -10054 0
0 0 0 800 560339 -9254 0
0 0 0 828 561167 -8426 0
0 0 0 813 561980 -7613 0
0 0 0 784 562764 -6829 0
0 0 0 833 563597 -5996 0
0 0 0 876 564473 -5120 0
0 0 0 830 565303 -4290 0
0 0 0 835 566138 -3455 0
0 0 0 863 567001 -2592 0
34 1 S106 836 567837 -1756 0
34 1 S106 828 568665 -928 0
34 1 S106 836 569501 -92 0
34 2 S106 799 570300 707 0
34 2 S106 784 571084 1491 0
34 2 S106 805 571889 2296 0
34 2 S106 844 572733 3140 0
34 2 S106 848 573581 3988 0
34 2 S106 808 574389 4796 0
34 2 S106 854 575243 5650 0
34 2 S106 856 576099 6506 0
0 0 0 816 576915 -9754 0
0 0 0 855 577770 -8899 0
0 0 0 820 578590 -8079 0
0 0 0 771 579361 -7308 0
0 0 0 810 580171 -6498 0
0 0 0 801 580972 -5697 0
0 0 0 772 581744 -4925 0
0 0 0 794 582538 -4131 0
0 0 0 808 583346 -3323 0
0 0 0 782 584128 -2541 0
35 1 S102 805 584933 -1736 0
35 1 S102 833 585766 -903 0
35 1 S102 808 586574 -95 0
35 2 S102 811 587385 716 0
35 2 S102 850 588235 1566 0
35 2 S102 855 589090 2421 0
35 2 S102 812 589902 3233 0
35 2 S102 848 590750 4081 0
35 2 S102 844 591594 4925 0
35 2 S102 816 592410 5741 0
35 2 S102 842 593252 6583 0
0 0 0 846 594098 -6182 0
0 0 0 823 594921 -5359 0
0 0 0 761 595682 -4598 0
0 0 0 748 596430 -3850 0
0 0 0 759 597189 -3091 0
0 0 0 789 597978 -2302 0
36 1 S106 781 598759 -1521 0
36 1 S106 727 599486 -794 0
36 1 S106 723 600209 -71 0
36 2 S106 769 600978 698 0
36 2 S106 755 601733 1453 0
36 2 S106 765 602498 2218 0
36 2 S106 806 603304 3024 0
36 2 S106 796 604100 3820 0
36 2 S106 780 604880 4600 0
36 2 S106 811 605691 5411 0
36 2 S106 804 606495 6215 0
36 2 S106 770 607265 6985 0
0 0 0 797 608062 -8001 0
0 0 0 791 608853 -7210 0
0 0 0 756 609609 -6454 0
0 0 0 771 610380 -5683 0
0 0 0 771 611151 -4912 0
0 0 0 759 611910 -4153 0
0 0 0 791 612701 -3362 0
0 0 0 804 613505 -2558 0
37 1 S116 810 614315 -1748 0
37 1 S116 797 615112 -951 0
37 1 S116 817 615929 -134 0
37 2 S116 808 616737 674 0
37 2 S116 798 617535 1472 0
37 2 S116 840 618375 2312 0
37 2 S116 837 619212 3149 0
37 2 S116 789 620001 3938 0
37 2 S116 815 620816 4753 0
37 2 S116 819 621635 5572 0
37 2 S116 825 622460 6397 0
0 0 0 791 623251 -10484 0
0 0 0 836 624087 -9648 0
0 0 0 813 624900 -8835 0
0 0 0 782 625682 -8053 0
0 0 0 805 626487 -7248 0
0 0 0 802 627289 -6446 0
0 0 0 783 628072 -5663 0
0 0 0 809 628881 -4854 0
0 0 0 805 629686 -4049 0
0 0 0 817 630503 -3232 0
0 0 0 854 631357 -2378 0
38 1 S102 841 632198 -1537 0
38 1 S102 827 633025 -710 0
38 2 S102 878 633903 168 0
38 2 S102 845 634748 1013 0
38 2 S102 818 635566 1831 0
38 2 S102 843 636409 2674 0
38 2 S102 868 637277 3542 0
38 2 S102 872 638149 4414 0
38 2 S102 814 638963 5228 0
38 2 S102 852 639815 6080 0
38 2 S102 862 640677 6942 0
0 0 0 854 641531 -7987 0
0 0 0 823 642354 -7164 0
0 0 0 836 643190 -6328 0
0 0 0 795 643985 -5533 0
0 0 0 823 644808 -4710 0
0 0 0 845 645653 -3865 0
0 0 0 815 646468 -3050 0
0 0 0 841 647309 -2209 0
39 1 S116 865 648174 -1344 0
39 1 S116 836 649010 -508 0
39 2 S116 831 649841 323 0
39 2 S116 831 650672 1154 0
39 2 S116 852 651524 2006 0
39 2 S116 803 652327 2809 0
39 2 S116 806 653133 3615 0
39 2 S116 838 653971 4453 0
39 2 S116 880 654851 5333 0
39 2 S116 865 655716 6198 0
0 0 0 937 656653 -8366 0
0 0 0 955 657608 -7411 0
0 0 0 828 658436 -6583 0
0 0 0 825 659261 -5758 0
0 0 0 844 660105 -4914 0
0 0 0 849 660954 -4065 0
0 0 0 820 661774 -3245 0
0 0 0 799 662573 -2446 0
40 1 S112 754 663327 -1692 0
40 1 S112 761 664088 -931 0
40 1 S112 758 664846 -173 0
40 2 S112 756 665602 583 0
40 2 S112 748 666350 1331 0
40 2 S112 800 667150 2131 0
40 2 S112 799 667949 2930 0
40 2 S112 763 668712 3693 0
40 2 S112 786 669498 4479 0
40 2 S112 796 670294 5275 0
40 2 S112 771 671065 6046 0
40 2 S112 783 671848 6829 0
0 0 0 800 672648 -186719 0
0 0 0 777 673425 -185942 0
0 0 0 750 674175 -185192 0
0 0 0 771 674946 -184421 0
0 0 0 804 675750 -183617 0
0 0 0 838 676588 -182779 0
0 0 0 808 677396 -181971 0
0 0 0 810 678206 -181161 0
0 0 0 766 678972 -180395 0
0 0 0 763 679735 -179632 0
0 0 0 720 680455 -178912 0
0 0 0 693 681148 -178219 1
0 0 0 674 681822 -177545 1
0 0 0 673 682495 -176872 1
0 0 0 679 683174 -176193 1
0 0 0 664 683838 -175529 1
0 0 0 688 684526 -174841 1
0 0 0 885 685411 -173956 0
0 0 0 862 686273 -173094 0
0 0 0 869 687142 -172225 0
0 0 0 874 688016 -171351 0
0 0 0 854 688870 -170497 0
0 0 0 813 689683 -169684 0
0 0 0 778 690461 -168906 0
0 0 0 754 691215 -168152 0
0 0 0 729 691944 -167423 0
0 0 0 718 692662 -166705 0
0 0 0 753 693415 -165952 0
0 0 0 790 694205 -165162 0
0 0 0 786 694991 -164376 0
0 0 0 820 695811 -163556 0
0 0 0 814 696625 -162742 0
0 0 0 862 697487 -161880 0
0 0 0 908 698395 -160972 0
0 0 0 859 699254 -160113 0
0 0 0 913 700167 -159200 0
0 0 0 912 701079 -158288 0
0 0 0 865 701944 -157423 0
0 0 0 894 702838 -156529 0
0 0 0 891 703729 -155638 0
0 0 0 833 704562 -154805 0
0 0 0 838 705400 -153967 0
0 0 0 833 706233 -153134 0
0 0 0 827 707060 -152307 0
0 0 0 780 707840 -151527 0
0 0 0 782 708622 -150745 0
0 0 0 789 709411 -149956 0
0 0 0 788 710199 -149168 0
0 0 0 802 711001 -148366 0
0 0 0 824 711825 -147542 0
0 0 0 806 712631 -146736 0
0 0 0 799 713430 -145937 0
0 0 0 777 714207 -145160 0
0 0 0 757 714964 -144403 0
0 0 0 775 715739 -143628 0
0 0 0 780 716519 -142848 0
0 0 0 778 717297 -142070 0
0 0 0 757 718054 -141313 0
0 0 0 782 718836 -140531 0
0 0 0 805 719641 -139726 0
0 0 0 855 720496 -138871 0
0 0 0 815 721311 -138056 0
0 0 0 864 722175 -137192 0
0 0 0 888 723063 -136304 0
0 0 0 866 723929 -135438 0
0 0 0 881 724810 -134557 0
0 0 0 868 725678 -133689 0
0 0 0 863 726541 -132826 0
0 0 0 884 727425 -131942 0
0 0 0 853 728278 -131089 0
0 0 0 844 729122 -130245 0
0 0 0 849 729971 -129396 0
0 0 0 826 730797 -128570 0
0 0 0 817 731614 -127753 0
0 0 0 822 732436 -126931 0
0 0 0 808 733244 -126123 0
0 0 0 812 734056 -125311 0
0 0 0 797 734853 -124514 0
0 0 0 767 735620 -123747 0
0 0 0 786 736406 -122961 0
0 0 0 790 737196 -122171 0
0 0 0 749 737945 -121422 0
0 0 0 773 738718 -120649 0
0 0 0 774 739492 -119875 0
0 0 0 755 740247 -119120 0
0 0 0 794 741041 -118326 0
0 0 0 780 741821 -117546 0
0 0 0 771 742592 -116775 0
0 0 0 803 743395 -115972 0
0 0 0 799 744194 -115173 0
0 0 0 801 744995 -114372 0
0 0 0 818 745813 -113554 0
0 0 0 781 746594 -112773 0
0 0 0 762 747356 -112011 0
0 0 0 780 748136 -111231 0
0 0 0 766 748902 -110465 0
0 0 0 760 749662 -109705 0
0 0 0 847 750509 -108858 0
0 0 0 842 751351 -108016 0
0 0 0 830 752181 -107186 0
0 0 0 823 753004 -106363 0
0 0 0 745 753749 -105618 0
0 0 0 736 754485 -104882 0
0 0 0 712 755197 -104170 0
0 0 0 713 755910 -103457 0
0 0 0 739 756649 -102718 0
0 0 0 789 757438 -101929 0
0 0 0 825 758263 -101104 0
0 0 0 801 759064 -100303 0
0 0 0 804 759868 -99499 0
0 0 0 869 760737 -98630 0
0 0 0 908 761645 -97722 0
0 0 0 847 762492 -96875 0
0 0 0 901 763393 -95974 0
0 0 0 906 764299 -95068 0
0 0 0 866 765165 -94202 0
0 0 0 841 766006 -93361 0
0 0 0 862 766868 -92499 0
0 0 0 873 767741 -91626 0
0 0 0 854 768595 -90772 0
0 0 0 914 769509 -89858 0
0 0 0 925 770434 -88933 0
0 0 0 874 771308 -88059 0
0 0 0 923 772231 -87136 0
0 0 0 961 773192 -86175 0
0 0 0 911 774103 -85264 0
0 0 0 940 775043 -84324 0
0 0 0 943 775986 -83381 0
0 0 0 880 776866 -82501 0
0 0 0 876 777742 -81625 0
0 0 0 855 778597 -80770 0
0 0 0 847 779444 -79923 0
0 0 0 880 780324 -79043 0
0 0 0 888 781212 -78155 0
0 0 0 863 782075 -77292 0
0 0 0 914 782989 -76378 0
0 0 0 878 783867 -75500 0
0 0 0 863 784730 -74637 0
0 0 0 921 785651 -73716 0
0 0 0 849 786500 -72867 0
0 0 0 874 787374 -71993 0
0 0 0 894 788268 -71099 0
0 0 0 833 789101 -70266 0
0 0 0 922 790023 -69344 0
0 0 0 952 790975 -68392 0
0 0 0 876 791851 -67516 0
0 0 0 932 792783 -66584 0
0 0 0 930 793713 -65654 0
0 0 0 880 794593 -64774 0
0 0 0 936 795529 -63838 0
0 0 0 909 796438 -62929 0
0 0 0 880 797318 -62049 0
0 0 0 909 798227 -61140 0
0 0 0 844 799071 -60296 0
0 0 0 864 799935 -59432 0
0 0 0 893 800828 -58539 0
0 0 0 828 801656 -57711 0
0 0 0 899 802555 -56812 0
0 0 0 946 803501 -55866 0
0 0 0 859 804360 -55007 0
0 0 0 924 805284 -54083 0
0 0 0 910 806194 -53173 0
0 0 0 838 807032 -52335 0
0 0 0 883 807915 -51452 0
0 0 0 880 808795 -50572 0
0 0 0 835 809630 -49737 0
0 0 0 875 810505 -48862 0
0 0 0 872 811377 -47990 0
0 0 0 836 812213 -47154 0
0 0 0 894 813107 -46260 0
0 0 0 905 814012 -45355 0
0 0 0 817 814829 -44538 0
0 0 0 844 815673 -43694 0
0 0 0 839 816512 -42855 0
0 0 0 794 817306 -42061 0
0 0 0 825 818131 -41236 0
0 0 0 840 818971 -40396 0
0 0 0 783 819754 -39613 0
0 0 0 774 820528 -38839 0
0 0 0 712 821240 -38127 0
0 0 0 715 821955 -37412 0
0 0 0 719 822674 -36693 0
0 0 0 788 823462 -35905 0
0 0 0 814 824276 -35091 0
0 0 0 748 825024 -34343 0
0 0 0 722 825746 -33621 0
0 0 0 724 826470 -32897 0
0 0 0 725 827195 -32172 0
0 0 0 698 827893 -31474 1
0 0 0 697 828590 -30777 1
0 0 0 707 829297 -30070 0
0 0 0 707 830004 -29363 0
0 0 0 701 830705 -28662 0
0 0 0 693 831398 -27969 1
0 0 0 708 832106 -27261 0
0 0 0 717 832823 -26544 0
0 0 0 747 833570 -25797 0
0 0 0 750 834320 -25047 0
0 0 0 895 835215 -24152 0
0 0 0 916 836131 -23236 0
0 0 0 866 836997 -22370 0
0 0 0 914 837911 -21456 0
0 0 0 926 838837 -20530 0
0 0 0 882 839719 -19648 0
0 0 0 899 840618 -18749 0
0 0 0 880 841498 -17869 0
0 0 0 810 842308 -17059 0
0 0 0 841 843149 -16218 0
0 0 0 857 844006 -15361 0
0 0 0 831 844837 -14530 0
0 0 0 856 845693 -13674 0
0 0 0 889 846582 -12785 0
0 0 0 840 847422 -11945 0
0 0 0 885 848307 -11060 0
0 0 0 892 849199 -10168 0
0 0 0 849 850048 -9319 0
0 0 0 889 850937 -8430 0
0 0 0 877 851814 -7553 0
0 0 0 802 852616 -6751 0
0 0 0 864 853480 -5887 0
0 0 0 845 854325 -5042 0
0 0 0 808 855133 -4234 0
0 0 0 796 855929 -3438 0
0 0 0 757 856686 -2681 0
41 1 S102 723 857409 -1958 0
41 1 S102 732 858141 -1226 0
41 1 S102 752 858893 -474 0
41 2 S102 749 859642 275 0
41 2 S102 842 860484 1117 0
41 2 S102 826 861310 1943 0
41 2 S102 747 862057 2690 0
41 2 S102 773 862830 3463 0
41 2 S102 797 863627 4260 0
41 2 S102 846 864473 5106 0
41 2 S102 912 865385 6018 0
41 2 S102 896 866281 6914 0
0 0 0 872 867153 -5908 0
0 0 0 815 867968 -5093 0
0 0 0 791 868759 -4302 0
0 0 0 797 869556 -3505 0
0 0 0 796 870352 -2709 0
42 1 S112 752 871104 -1957 0
42 1 S112 792 871896 -1165 0
42 1 S112 823 872719 -342 0
42 2 S112 803 873522 461 0
42 2 S112 814 874336 1275 0
42 2 S112 926 875262 2201 0
42 2 S112 985 876247 3186 1
42 2 S112 899 877146 4085 0
42 2 S112 904 878050 4989 0
42 2 S112 986 879036 5975 1
42 2 S112 853 879889 6828 0
0 0 0 903 880792 -9610 0
0 0 0 915 881707 -8695 0
0 0 0 810 882517 -7885 0
0 0 0 919 883436 -6966 0
0 0 0 853 884289 -6113 0
0 0 0 799 885088 -5314 0
0 0 0 892 885980 -4422 0
0 0 0 892 886872 -3530 0
0 0 0 827 887699 -2703 0
43 1 S116 901 888600 -1802 0
43 1 S116 845 889445 -957 0
43 1 S116 829 890274 -128 0
43 2 S116 886 891160 758 0
43 2 S116 877 892037 1635 0
43 2 S116 852 892889 2487 0
43 2 S116 920 893809 3407 0
43 2 S116 900 894709 4307 0
43 2 S116 859 895568 5166 0
43 2 S116 937 896505 6103 0
43 2 S116 912 897417 7015 0
0 0 0 885 898302 -6374 0
0 0 0 938 899240 -5436 0
0 0 0 809 900049 -4627 0
0 0 0 836 900885 -3791 0
0 0 0 824 901709 -2967 0
0 0 0 782 902491 -2185 0
44 1 S102 832 903323 -1353 0
44 1 S102 818 904141 -535 0
44 2 S102 829 904970 294 0
44 2 S102 908 905878 1202 0
44 2 S102 860 906738 2062 0
44 2 S102 852 907590 2914 0
44 2 S102 845 908435 3759 0
44 2 S102 850 909285 4609 0
44 2 S102 789 910074 5398 0
44 2 S102 807 910881 6205 0
0 0 0 858 911739 -8836 0
0 0 0 837 912576 -7999 0
0 0 0 851 913427 -7148 0
0 0 0 846 914273 -6302 0
0 0 0 768 915041 -5534 0
0 0 0 810 915851 -4724 0
0 0 0 818 916669 -3906 0
0 0 0 766 917435 -3140 0
0 0 0 757 918192 -2383 0
45 1 S116 791 918983 -1592 0
45 1 S116 790 919773 -802 0
45 2 S116 833 920606 31 0
45 2 S116 881 921487 912 0
45 2 S116 920 922407 1832 0
45 2 S116 850 923257 2682 0
45 2 S116 949 924206 3631 0
45 2 S116 908 925114 4539 0
45 2 S116 872 925986 5411 0
45 2 S116 810 926796 6221 0
0 0 0 915 927711 -11597 0
0 0 0 937 928648 -10660 0
0 0 0 802 929450 -9858 0
0 0 0 866 930316 -8992 0
0 0 0 885 931201 -8107 0
0 0 0 809 932010 -7298 0
0 0 0 849 932859 -6449 0
0 0 0 891 933750 -5558 0
0 0 0 817 934567 -4741 0
0 0 0 848 935415 -3893 0
0 0 0 888 936303 -3005 0
0 0 0 794 937097 -2211 0
46 1 S102 863 937960 -1348 0
46 1 S102 870 938830 -478 0
46 2 S102 801 939631 323 0
46 2 S102 908 940539 1231 0
46 2 S102 921 941460 2152 0
46 2 S102 832 942292 2984 0
46 2 S102 935 943227 3919 0
46 2 S102 914 944141 4833 0
46 2 S102 821 944962 5654 0
46 2 S102 905 945867 6559 0
0 0 0 894 946761 -7899 0
0 0 0 791 947552 -7108 0
0 0 0 811 948363 -6297 0
0 0 0 789 949152 -5508 0
0 0 0 781 949933 -4727 0
0 0 0 798 950731 -3929 0
0 0 0 834 951565 -3095 0
0 0 0 827 952392 -2268 0
47 1 S112 832 953224 -1436 0
47 1 S112 901 954125 -535 0
47 2 S112 829 954954 294 0
47 2 S112 860 955814 1154 0
47 2 S112 958 956772 2112 0
47 2 S112 875 957647 2987 0
47 2 S112 919 958566 3906 0
47 2 S112 986 959552 4892 1
47 2 S112 905 960457 5797 0
47 2 S112 898 961355 6695 0
0 0 0 973 962328 -11215 0
0 0 0 868 963196 -10347 0
0 0 0 899 964095 -9448 0
0 0 0 877 964972 -8571 0
0 0 0 785 965757 -7786 0
0 0 0 732 966489 -7054 0
0 0 0 840 967329 -6214 0
0 0 0 950 968279 -5264 0
0 0 0 842 969121 -4422 0
0 0 0 921 970042 -3501 0
0 0 0 982 971024 -2519 1
48 1 S116 839 971863 -1680 0
48 1 S116 922 972785 -758 0
48 2 S116 918 973703 160 0
48 2 S116 836 974539 996 0
48 2 S116 945 975484 1941 0
48 2 S116 925 976409 2866 0
48 2 S116 821 977230 3687 0
48 2 S116 901 978131 4588 0
48 2 S116 900 979031 5488 0
48 2 S116 836 979867 6324 0
0 0 0 937 980804 -7311 0
0 0 0 974 981778 -6337 0
0 0 0 826 982604 -5511 0
0 0 0 774 983378 -4737 0
0 0 0 852 984230 -3885 0
0 0 0 987 985217 -2898 1
0 0 0 893 986110 -2005 0
49 1 S112 934 987044 -1071 0
49 1 S112 964 988008 -107 0
49 2 S112 912 988920 805 0
49 2 S112 870 989790 1675 0
49 2 S112 891 990681 2566 0
49 2 S112 882 991563 3448 0
49 2 S112 846 992409 4294 0
49 2 S112 901 993310 5195 0
49 2 S112 938 994248 6133 0
0 0 0 955 995203 -11414 0
0 0 0 890 996093 -10524 0
0 0 0 937 997030 -9587 0
0 0 0 931 997961 -8656 0
0 0 0 846 998807 -7810 0
0 0 0 906 999713 -6904 0
0 0 0 912 1000625 -5992 0
0 0 0 847 1001472 -5145 0
0 0 0 898 1002370 -4247 0
0 0 0 935 1003305 -3312 0
0 0 0 885 1004190 -2427 0
50 1 S106 918 1005108 -1509 0
50 1 S106 902 1006010 -607 0
50 2 S106 854 1006864 247 0
50 2 S106 903 1007767 1150 0
50 2 S106 902 1008669 2052 0
50 2 S106 853 1009522 2905 0
50 2 S106 860 1010382 3765 0
50 2 S106 877 1011259 4642 0
50 2 S106 837 1012096 5479 0
50 2 S106 842 1012938 6321 0
0 0 0 888 1013826 -6634 0
0 0 0 875 1014701 -5759 0
0 0 0 865 1015566 -4894 0
0 0 0 871 1016437 -4023 0
0 0 0 791 1017228 -3232 0
0 0 0 846 1018074 -2386 0
51 1 S112 925 1018999 -1461 0
51 1 S112 860 1019859 -601 0
51 2 S112 911 1020770 310 0
51 2 S112 904 1021674 1214 0
51 2 S112 830 1022504 2044 0
51 2 S112 916 1023420 2960 0
51 2 S112 994 1024414 3954 1
51 2 S112 899 1025313 4853 0
51 2 S112 902 1026215 5755 0
51 2 S112 951 1027166 6706 0
0 0 0 904 1028070 -6647 0
0 0 0 846 1028916 -5801 0
0 0 0 830 1029746 -4971 0
0 0 0 824 1030570 -4147 0
0 0 0 806 1031376 -3341 0
0 0 0 820 1032196 -2521 0
52 1 S116 876 1033072 -1645 0
52 1 S116 882 1033954 -763 0
52 2 S116 832 1034786 69 0
52 2 S116 923 1035709 992 0
52 2 S116 914 1036623 1906 0
52 2 S116 818 1037441 2724 0
52 2 S116 858 1038299 3582 0
52 2 S116 842 1039141 4424 0
52 2 S116 794 1039935 5218 0
52 2 S116 816 1040751 6034 0
52 2 S116 836 1041587 6870 0
0 0 0 808 1042395 -9100 0
0 0 0 769 1043164 -8331 0
0 0 0 824 1043988 -7507 0
0 0 0 811 1044799 -6696 0
0 0 0 747 1045546 -5949 0
0 0 0 762 1046308 -5187 0
0 0 0 797 1047105 -4390 0
0 0 0 808 1047913 -3582 0
0 0 0 762 1048675 -2820 0
53 1 S106 823 1049498 -1997 0
53 1 S106 841 1050339 -1156 0
53 1 S106 791 1051130 -365 0
53 2 S106 836 1051966 471 0
53 2 S106 840 1052806 1311 0
53 2 S106 810 1053616 2121 0
53 2 S106 906 1054522 3027 0
53 2 S106 906 1055428 3933 0
53 2 S106 837 1056265 4770 0
53 2 S106 925 1057190 5695 0
53 2 S106 880 1058070 6575 0
0 0 0 865 1058935 -6535 0
0 0 0 930 1059865 -5605 0
0 0 0 831 1060696 -4774 0
0 0 0 880 1061576 -3894 0
0 0 0 887 1062463 -3007 0
0 0 0 825 1063288 -2182 0
54 1 S102 924 1064212 -1258 0
54 1 S102 876 1065088 -382 0
54 2 S102 853 1065941 471 0
54 2 S102 896 1066837 1367 0
54 2 S102 857 1067694 2224 0
54 2 S102 898 1068592 3122 0
54 2 S102 937 1069529 4059 0
54 2 S102 894 1070423 4953 0
54 2 S102 877 1071300 5830 0
54 2 S102 905 1072205 6735 0
0 0 0 868 1073073 -10003 0
0 0 0 851 1073924 -9152 0
0 0 0 848 1074772 -8304 0
0 0 0 810 1075582 -7494 0
0 0 0 813 1076395 -6681 0
0 0 0 830 1077225 -5851 0
0 0 0 827 1078052 -5024 0
0 0 0 805 1078857 -4219 0
0 0 0 848 1079705 -3371 0
0 0 0 826 1080531 -2545 0
55 1 S106 816 1081347 -1729 0
55 1 S106 843 1082190 -886 0
55 1 S106 818 1083008 -68 0
55 2 S106 828 1083836 760 0
55 2 S106 856 1084692 1616 0
55 2 S106 836 1085528 2452 0
55 2 S106 829 1086357 3281 0
55 2 S106 858 1087215 4139 0
55 2 S106 849 1088064 4988 0
55 2 S106 830 1088894 5818 0
55 2 S106 874 1089768 6692 0
0 0 0 842 1090610 -6210 0
0 0 0 841 1091451 -5369 0
0 0 0 851 1092302 -4518 0
0 0 0 801 1093103 -3717 0
0 0 0 788 1093891 -2929 0
0 0 0 816 1094707 -2113 0
56 1 S116 749 1095456 -1364 0
56 1 S116 722 1096178 -642 0
56 2 S116 697 1096875 55 1
56 2 S116 687 1097562 742 1
56 2 S116 710 1098272 1452 0
56 2 S116 698 1098970 2150 1
56 2 S116 707 1099677 2857 0
56 2 S116 730 1100407 3587 0
56 2 S116 742 1101149 4329 0
56 2 S116 738 1101887 5067 0
56 2 S116 724 1102611 5791 0
56 2 S116 733 1103344 6524 0
0 0 0 797 1104141 -6903 0
0 0 0 832 1104973 -6071 0
0 0 0 761 1105734 -5310 0
0 0 0 812 1106546 -4498 0
0 0 0 769 1107315 -3729 0
0 0 0 768 1108083 -2961 0
0 0 0 792 1108875 -2169 0
57 1 S106 743 1109618 -1426 0
57 1 S106 798 1110416 -628 0
57 2 S106 811 1111227 183 0
57 2 S106 771 1111998 954 0
57 2 S106 826 1112824 1780 0
57 2 S106 843 1113667 2623 0
57 2 S106 788 1114455 3411 0
57 2 S106 846 1115301 4257 0
57 2 S106 854 1116155 5111 0
57 2 S106 798 1116953 5909 0
57 2 S106 867 1117820 6776 0
0 0 0 870 1118690 -8087 0
0 0 0 803 1119493 -7284 0
0 0 0 810 1120303 -6474 0
0 0 0 754 1121057 -5720 0
0 0 0 808 1121865 -4912 0
0 0 0 808 1122673 -4104 0
0 0 0 779 1123452 -3325 0
0 0 0 851 1124303 -2474 0
58 1 S102 853 1125156 -1621 0
58 1 S102 787 1125943 -834 0
58 2 S102 869 1126812 35 0
58 2 S102 852 1127664 887 0
58 2 S102 799 1128463 1686 0
58 2 S102 872 1129335 2558 0
58 2 S102 864 1130199 3422 0
58 2 S102 845 1131044 4267 0
58 2 S102 800 1131844 5067 0
58 2 S102 866 1132710 5933 0
58 2 S102 870 1133580 6803 0
0 0 0 814 1134394 -7353 0
0 0 0 866 1135260 -6487 0
0 0 0 822 1136082 -5665 0
0 0 0 826 1136908 -4839 0
0 0 0 806 1137714 -4033 0
0 0 0 754 1138468 -3279 0
0 0 0 760 1139228 -2519 0
59 1 S112 767 1139995 -1752 0
59 1 S112 753 1140748 -999 0
59 1 S112 721 1141469 -278 0
59 2 S112 738 1142207 460 0
59 2 S112 776 1142983 1236 0
59 2 S112 800 1143783 2036 0
59 2 S112 768 1144551 2804 0
59 2 S112 804 1145355 3608 0
59 2 S112 854 1146209 4462 0
59 2 S112 839 1147048 5301 0
59 2 S112 847 1147895 6148 0
59 2 S112 873 1148768 7021 0
0 0 0 834 1149602 -8110 0
0 0 0 803 1150405 -7307 0
0 0 0 817 1151222 -6490 0
0 0 0 783 1152005 -5707 0
0 0 0 811 1152816 -4896 0
0 0 0 821 1153637 -4075 0
0 0 0 793 1154430 -3282 0
0 0 0 827 1155257 -2455 0
60 1 S102 841 1156098 -1614 0
60 1 S102 810 1156908 -804 0
60 2 S102 846 1157754 42 0
60 2 S102 864 1158618 906 0
60 2 S102 823 1159441 1729 0
60 2 S102 861 1160302 2590 0
60 2 S102 828 1161130 3418 0
60 2 S102 817 1161947 4235 0
60 2 S102 874 1162821 5109 0
60 2 S102 880 1163701 5989 0
60 2 S102 843 1164544 6832 0
0 0 0 889 1165433 -11577 0
0 0 0 837 1166270 -10740 0
0 0 0 816 1167086 -9924 0
0 0 0 874 1167960 -9050 0
0 0 0 826 1168786 -8224 0
0 0 0 821 1169607 -7403 0
0 0 0 850 1170457 -6553 0
0 0 0 851 1171308 -5702 0
0 0 0 824 1172132 -4878 0
0 0 0 865 1172997 -4013 0
0 0 0 854 1173851 -3159 0
0 0 0 835 1174686 -2324 0
61 1 S106 858 1175544 -1466 0
61 1 S106 828 1176372 -638 0
61 2 S106 814 1177186 176 0
61 2 S106 828 1178014 1004 0
61 2 S106 829 1178843 1833 0
61 2 S106 830 1179673 2663 0
61 2 S106 904 1180577 3567 0
61 2 S106 902 1181479 4469 0
61 2 S106 844 1182323 5313 0
61 2 S106 912 1183235 6225 0
0 0 0 887 1184122 -7079 0
0 0 0 835 1184957 -6244 0
0 0 0 854 1185811 -5390 0
0 0 0 811 1186622 -4579 0
0 0 0 813 1187435 -3766 0
0 0 0 820 1188255 -2946 0
0 0 0 798 1189053 -2148 0
62 1 S112 821 1189874 -1327 0
62 1 S112 834 1190708 -493 0
62 2 S112 807 1191515 314 0
62 2 S112 878 1192393 1192 0
62 2 S112 923 1193316 2115 0
62 2 S112 856 1194172 2971 0
62 2 S112 897 1195069 3868 0
62 2 S112 911 1195980 4779 0
62 2 S112 892 1196872 5671 0
62 2 S112 858 1197730 6529 0
0 0 0 899 1198629 -11256 0
0 0 0 856 1199485 -10400 0
0 0 0 849 1200334 -9551 0
0 0 0 860 1201194 -8691 0
0 0 0 787 1201981 -7904 0
0 0 0 821 1202802 -7083 0
0 0 0 831 1203633 -6252 0
0 0 0 805 1204438 -5447 0
0 0 0 839 1205277 -4608 0
0 0 0 860 1206137 -3748 0
0 0 0 821 1206958 -2927 0
0 0 0 874 1207832 -2053 0
63 1 S102 858 1208690 -1195 0
63 1 S102 812 1209502 -383 0
63 2 S102 866 1210368 483 0
63 2 S102 859 1211227 1342 0
63 2 S102 812 1212039 2154 0
63 2 S102 851 1212890 3005 0
63 2 S102 879 1213769 3884 0
63 2 S102 836 1214605 4720 0
63 2 S102 866 1215471 5586 0
63 2 S102 894 1216365 6480 0
0 0 0 840 1217205 -8943 0
0 0 0 871 1218076 -8072 0
0 0 0 879 1218955 -7193 0
0 0 0 819 1219774 -6374 0
0 0 0 855 1220629 -5519 0
0 0 0 860 1221489 -4659 0
0 0 0 824 1222313 -3835 0
0 0 0 861 1223174 -2974 0
0 0 0 854 1224028 -2120 0
64 1 S112 823 1224851 -1297 0
64 1 S112 861 1225712 -436 0
64 2 S112 851 1226563 415 0
64 2 S112 826 1227389 1241 0
64 2 S112 885 1228274 2126 0
64 2 S112 897 1229171 3023 0
64 2 S112 866 1230037 3889 0
64 2 S112 927 1230964 4816 0
64 2 S112 892 1231856 5708 0
64 2 S112 845 1232701 6553 0
0 0 0 881 1233582 -5646 0
0 0 0 864 1234446 -4782 0
0 0 0 798 1235244 -3984 0
0 0 0 830 1236074 -3154 0
0 0 0 843 1236917 -2311 0
65 1 S106 779 1237696 -1532 0
65 1 S106 832 1238528 -700 0
65 2 S106 824 1239352 124 0
65 2 S106 778 1240130 902 0
65 2 S106 826 1240956 1728 0
65 2 S106 872 1241828 2600 0
65 2 S106 808 1242636 3408 0
65 2 S106 810 1243446 4218 0
65 2 S106 868 1244314 5086 0
65 2 S106 819 1245133 5905 0
65 2 S106 804 1245937 6709 0
0 0 0 869 1246806 -6779 0
0 0 0 817 1247623 -5962 0
0 0 0 764 1248387 -5198 0
0 0 0 785 1249172 -4413 0
0 0 0 765 1249937 -3648 0
0 0 0 744 1250681 -2904 0
0 0 0 755 1251436 -2149 0
66 1 S116 752 1252188 -1397 0
66 1 S116 746 1252934 -651 0
66 2 S116 732 1253666 81 0
66 2 S116 776 1254442 857 0
66 2 S116 857 1255299 1714 0
66 2 S116 846 1256145 2560 0
66 2 S116 793 1256938 3353 0
66 2 S116 773 1257711 4126 0
66 2 S116 792 1258503 4918 0
66 2 S116 843 1259346 5761 0
66 2 S116 860 1260206 6621 0
0 0 0 814 1261020 -10503 0
0 0 0 881 1261901 -9622 0
0 0 0 782 1262683 -8840 0
0 0 0 753 1263436 -8087 0
0 0 0 717 1264153 -7370 0
0 0 0 713 1264866 -6657 0
0 0 0 717 1265583 -5940 0
0 0 0 691 1266274 -5249 1
0 0 0 725 1266999 -4524 0
0 0 0 748 1267747 -3776 0
0 0 0 773 1268520 -3003 0
0 0 0 775 1269295 -2228 0
67 1 S102 850 1270145 -1378 0
67 1 S102 888 1271033 -490 0
67 2 S102 786 1271819 296 0
67 2 S102 834 1272653 1130 0
67 2 S102 837 1273490 1967 0
67 2 S102 787 1274277 2754 0
67 2 S102 786 1275063 3540 0
67 2 S102 849 1275912 4389 0
67 2 S102 860 1276772 5249 0
67 2 S102 788 1277560 6037 0
67 2 S102 839 1278399 6876 0
0 0 0 873 1279272 -6276 0
0 0 0 760 1280032 -5516 0
0 0 0 729 1280761 -4787 0
0 0 0 813 1281574 -3974 0
0 0 0 957 1282531 -3017 0
0 0 0 807 1283338 -2210 0
68 1 S106 803 1284141 -1407 0
68 1 S106 883 1285024 -524 0
68 2 S106 918 1285942 394 0
68 2 S106 938 1286880 1332 0
68 2 S106 934 1287814 2266 0
68 2 S106 898 1288712 3164 0
68 2 S106 882 1289594 4046 0
68 2 S106 885 1290479 4931 0
68 2 S106 854 1291333 5785 0
68 2 S106 852 1292185 6637 0
0 0 0 871 1293056 -10132 0
0 0 0 892 1293948 -9240 0
0 0 0 807 1294755 -8433 0
0 0 0 842 1295597 -7591 0
0 0 0 836 1296433 -6755 0
0 0 0 826 1297259 -5929 0
0 0 0 843 1298102 -5086 0
0 0 0 865 1298967 -4221 0
0 0 0 848 1299815 -3373 0
0 0 0 848 1300663 -2525 0
69 1 S102 861 1301524 -1664 0
69 1 S102 860 1302384 -804 0
69 2 S102 815 1303199 11 0
69 2 S102 856 1304055 867 0
69 2 S102 833 1304888 1700 0
69 2 S102 803 1305691 2503 0
69 2 S102 815 1306506 3318 0
69 2 S102 816 1307322 4134 0
69 2 S102 778 1308100 4912 0
69 2 S102 786 1308886 5698 0
69 2 S102 806 1309692 6504 0
0 0 0 818 1310510 -10616 0
0 0 0 788 1311298 -9828 0
0 0 0 839 1312137 -8989 0
0 0 0 793 1312930 -8196 0
0 0 0 820 1313750 -7376 0
0 0 0 818 1314568 -6558 0
0 0 0 754 1315322 -5804 0
0 0 0 787 1316109 -5017 0
0 0 0 772 1316881 -4245 0
0 0 0 738 1317619 -3507 0
0 0 0 802 1318421 -2705 0
70 1 S112 797 1319218 -1908 0
70 1 S112 751 1319969 -1157 0
70 1 S112 796 1320765 -361 0
70 2 S112 805 1321570 444 0
70 2 S112 794 1322364 1238 0
70 2 S112 840 1323204 2078 0
70 2 S112 869 1324073 2947 0
70 2 S112 846 1324919 3793 0
70 2 S112 813 1325732 4606 0
70 2 S112 843 1326575 5449 0
70 2 S112 836 1327411 6285 0
0 0 0 788 1328199 -11826 0
0 0 0 847 1329046 -10979 0
0 0 0 799 1329845 -10180 0
0 0 0 756 1330601 -9424 0
0 0 0 790 1331391 -8634 0
0 0 0 767 1332158 -7867 0
0 0 0 742 1332900 -7125 0
0 0 0 793 1333693 -6332 0
0 0 0 755 1334448 -5577 0
0 0 0 779 1335227 -4798 0
0 0 0 783 1336010 -4015 0
0 0 0 764 1336774 -3251 0
0 0 0 778 1337552 -2473 0
71 1 S116 826 1338378 -1647 0
71 1 S116 792 1339170 -855 0
71 1 S116 826 1339996 -29 0
71 2 S116 842 1340838 813 0
71 2 S116 813 1341651 1626 0
71 2 S116 822 1342473 2448 0
71 2 S116 852 1343325 3300 0
71 2 S116 855 1344180 4155 0
71 2 S116 820 1345000 4975 0
71 2 S116 850 1345850 5825 0
71 2 S116 842 1346692 6667 0
0 0 0 816 1347508 -8698 0
0 0 0 793 1348301 -7905 0
0 0 0 810 1349111 -7095 0
0 0 0 753 1349864 -6342 0
0 0 0 727 1350591 -5615 0
0 0 0 739 1351330 -4876 0
0 0 0 743 1352073 -4133 0
0 0 0 789 1352862 -3344 0
0 0 0 807 1353669 -2537 0
72 1 S102 803 1354472 -1734 0
72 1 S102 879 1355351 -855 0
72 2 S102 865 1356216 10 0
72 2 S102 814 1357030 824 0
72 2 S102 856 1357886 1680 0
72 2 S102 839 1358725 2519 0
72 2 S102 815 1359540 3334 0
72 2 S102 837 1360377 4171 0
72 2 S102 834 1361211 5005 0
72 2 S102 823 1362034 5828 0
72 2 S102 864 1362898 6692 0
0 0 0 860 1363758 -6175 0
0 0 0 818 1364576 -5357 0
0 0 0 849 1365425 -4508 0
0 0 0 839 1366264 -3669 0
0 0 0 831 1367095 -2838 0
73 1 S116 857 1367952 -1981 0
73 1 S116 870 1368822 -1111 0
73 1 S116 836 1369658 -275 0
73 2 S116 899 1370557 624 0
73 2 S116 913 1371470 1537 0
73 2 S116 869 1372339 2406 0
73 2 S116 885 1373224 3291 0
73 2 S116 921 1374145 4212 0
73 2 S116 887 1375032 5099 0
73 2 S116 847 1375879 5946 0
73 2 S116 891 1376770 6837 0
0 0 0 884 1377654 -8675 0
0 0 0 824 1378478 -7851 0
0 0 0 870 1379348 -6981 0
0 0 0 834 1380182 -6147 0
0 0 0 820 1381002 -5327 0
0 0 0 861 1381863 -4466 0
0 0 0 864 1382727 -3602 0
0 0 0 829 1383556 -2773 0
74 1 S106 894 1384450 -1879 0
74 1 S106 870 1385320 -1009 0
74 1 S106 819 1386139 -190 0
74 2 S106 844 1386983 654 0
74 2 S106 862 1387845 1516 0
74 2 S106 822 1388667 2338 0
74 2 S106 867 1389534 3205 0
74 2 S106 840 1390374 4045 0
74 2 S106 821 1391195 4866 0
74 2 S106 853 1392048 5719 0
74 2 S106 857 1392905 6576 0
0 0 0 824 1393729 -6675 0
0 0 0 879 1394608 -5796 0
0 0 0 857 1395465 -4939 0
0 0 0 814 1396279 -4125 0
0 0 0 831 1397110 -3294 0
0 0 0 828 1397938 -2466 0
75 1 S112 791 1398729 -1675 0
75 1 S112 824 1399553 -851 0
75 1 S112 831 1400384 -20 0
75 2 S112 808 1401192 788 0
75 2 S112 865 1402057 1653 0
75 2 S112 884 1402941 2537 0
75 2 S112 835 1403776 3372 0
75 2 S112 853 1404629 4225 0
75 2 S112 889 1405518 5114 0
75 2 S112 881 1406399 5995 0
75 2 S112 846 1407245 6841 0
0 0 0 893 1408138 -6357 0
0 0 0 864 1409002 -5493 0
0 0 0 808 1409810 -4685 0
0 0 0 822 1410632 -3863 0
0 0 0 810 1411442 -3053 0
0 0 0 776 1412218 -2277 0
76 1 S116 802 1413020 -1475 0
76 1 S116 806 1413826 -669 0
76 2 S116 773 1414599 104 0
76 2 S116 804 1415403 908 0
76 2 S116 831 1416234 1739 0
76 2 S116 807 1417041 2546 0
76 2 S116 814 1417855 3360 0
76 2 S116 850 1418705 4210 0
76 2 S116 850 1419555 5060 0
76 2 S116 823 1420378 5883 0
76 2 S116 894 1421272 6777 0
0 0 0 887 1422159 -6163 0
0 0 0 816 1422975 -5347 0
0 0 0 860 1423835 -4487 0
0 0 0 821 1424656 -3666 0
0 0 0 809 1425465 -2857 0
77 1 S106 858 1426323 -1999 0
77 1 S106 828 1427151 -1171 0
77 1 S106 846 1427997 -325 0
77 2 S106 870 1428867 545 0
77 2 S106 866 1429733 1411 0
77 2 S106 847 1430580 2258 0
77 2 S106 892 1431472 3150 0
77 2 S106 888 1432360 4038 0
77 2 S106 830 1433190 4868 0
77 2 S106 883 1434073 5751 0
77 2 S106 887 1434960 6638 0
0 0 0 841 1435801 -8270 0
0 0 0 900 1436701 -7370 0
0 0 0 876 1437577 -6494 0
0 0 0 857 1438434 -5637 0
0 0 0 894 1439328 -4743 0
0 0 0 859 1440187 -3884 0
0 0 0 866 1441053 -3018 0
0 0 0 903 1441956 -2115 0
78 1 S112 852 1442808 -1263 0
78 1 S112 909 1443717 -354 0
78 2 S112 921 1444638 567 0
78 2 S112 859 1445497 1426 0
78 2 S112 912 1446409 2338 0
78 2 S112 918 1447327 3256 0
78 2 S112 859 1448186 4115 0
78 2 S112 921 1449107 5036 0
78 2 S112 922 1450029 5958 0
78 2 S112 865 1450894 6823 0
0 0 0 922 1451816 -11436 0
0 0 0 891 1452707 -10545 0
0 0 0 856 1453563 -9689 0
0 0 0 894 1454457 -8795 0
0 0 0 814 1455271 -7981 0
0 0 0 829 1456100 -7152 0
0 0 0 843 1456943 -6309 0
0 0 0 809 1457752 -5500 0
0 0 0 835 1458587 -4665 0
0 0 0 844 1459431 -3821 0
0 0 0 823 1460254 -2998 0
0 0 0 858 1461112 -2140 0
79 1 S102 865 1461977 -1275 0
79 1 S102 816 1462793 -459 0
79 2 S102 868 1463661 409 0
79 2 S102 879 1464540 1288 0
79 2 S102 819 1465359 2107 0
79 2 S102 861 1466220 2968 0
79 2 S102 867 1467087 3835 0
79 2 S102 869 1467956 4704 0
79 2 S102 958 1468914 5662 0
79 2 S102 991 1469905 6653 1
0 0 0 935 1470840 -9554 0
0 0 0 941 1471781 -8613 0
0 0 0 903 1472684 -7710 0
0 0 0 847 1473531 -6863 0
0 0 0 842 1474373 -6021 0
0 0 0 800 1475173 -5221 0
0 0 0 859 1476032 -4362 0
0 0 0 934 1476966 -3428 0
0 0 0 928 1477894 -2500 0
80 1 S116 937 1478831 -1563 0
80 1 S116 981 1479812 -582 1
80 2 S116 893 1480705 311 0
80 2 S116 893 1481598 1204 0
80 2 S116 927 1482525 2131 0
80 2 S116 864 1483389 2995 0
80 2 S116 822 1484211 3817 0
80 2 S116 849 1485060 4666 0
80 2 S116 844 1485904 5510 0
80 2 S116 800 1486704 6310 0
