T_0109
BeatCount Mean SD BeatCountNoOutliers MeanNoOutliers SDNoOutliers
1353 1105,22690317812 135,115870011402 1312 1117,97027439024 116,51179911514

Trial TrialStatus Trialtype IBI AbsPosition RelPosition Outlier
0 0 0 1001 1854 -13926 0
0 0 0 1007 2861 -12919 0
0 0 0 1078 3939 -11841 0
0 0 0 930 4869 -10911 0
0 0 0 1010 5879 -9901 0
0 0 0 819 6698 -9082 0
0 0 0 813 7511 -8269 0
0 0 0 1124 8635 -7145 0
0 0 0 996 9631 -6149 0
0 0 0 1112 10743 -5037 0
0 0 0 1151 11894 -3886 0
0 0 0 1051 12945 -2835 0
1 1 S112 1047 13992 -1788 0
1 1 S112 1146 15138 -642 0
1 2 S112 1053 16191 411 0
1 2 S112 1012 17203 1423 0
1 2 S112 1112 18315 2535 0
1 2 S112 1101 19416 3636 0
1 2 S112 964 20380 4600 0
1 2 S112 1091 21471 5691 0
1 2 S112 1162 22633 6853 0
0 0 0 972 23605 -11091 0
0 0 0 1129 24734 -9962 0
0 0 0 1183 25917 -8779 0
0 0 0 1137 27054 -7642 0
0 0 0 1213 28267 -6429 0
0 0 0 1056 29323 -5373 0
0 0 0 1215 30538 -4158 0
0 0 0 1244 31782 -2914 0
2 1 S102 1100 32882 -1814 0
2 1 S102 1221 34103 -593 0
2 2 S102 1197 35300 604 0
2 2 S102 1201 36501 1805 0
2 2 S102 1255 37756 3060 0
2 2 S102 1114 38870 4174 0
2 2 S102 1207 40077 5381 0
2 2 S102 1227 41304 6608 0
0 0 0 1142 42446 -8364 0
0 0 0 1237 43683 -7127 0
0 0 0 1185 44868 -5942 0
0 0 0 1239 46107 -4703 0
0 0 0 1197 47304 -3506 0
0 0 0 1075 48379 -2431 0
3 1 S116 1294 49673 -1137 0
3 2 S116 1235 50908 98 0
3 2 S116 1136 52044 1234 0
3 2 S116 1272 53316 2506 0
3 2 S116 1158 54474 3664 0
3 2 S116 1145 55619 4809 0
3 2 S116 1261 56880 6070 0
0 0 0 1048 57928 -11317 0
0 0 0 996 58924 -10321 0
0 0 0 1234 60158 -9087 0
0 0 0 1159 61317 -7928 0
0 0 0 1090 62407 -6838 0
0 0 0 1195 63602 -5643 0
0 0 0 1192 64794 -4451 0
0 0 0 944 65738 -3507 0
0 0 0 1209 66947 -2298 0
4 1 S106 1246 68193 -1052 0
4 2 S106 1149 69342 97 0
4 2 S106 1217 70559 1314 0
4 2 S106 1255 71814 2569 0
4 2 S106 1142 72956 3711 0
4 2 S106 1116 74072 4827 0
4 2 S106 1215 75287 6042 0
0 0 0 1160 76447 -7188 0
0 0 0 1147 77594 -6041 0
0 0 0 1268 78862 -4773 0
0 0 0 1150 80012 -3623 0
0 0 0 1184 81196 -2439 0
5 1 S116 1242 82438 -1197 0
5 1 S116 1179 83617 -18 0
5 2 S116 1235 84852 1217 0
5 2 S116 1279 86131 2496 0
5 2 S116 1117 87248 3613 0
5 2 S116 1262 88510 4875 0
5 2 S116 1259 89769 6134 0
0 0 0 1072 90841 -9671 0
0 0 0 1259 92100 -8412 0
0 0 0 1191 93291 -7221 0
0 0 0 1147 94438 -6074 0
0 0 0 1233 95671 -4841 0
0 0 0 1109 96780 -3732 0
0 0 0 907 97687 -2825 0
6 1 S106 1034 98721 -1791 0
6 1 S106 1217 99938 -574 0
6 2 S106 1219 101157 645 0
6 2 S106 1240 102397 1885 0
6 2 S106 1277 103674 3162 0
6 2 S106 1243 104917 4405 0
6 2 S106 1178 106095 5583 0
6 2 S106 1290 107385 6873 0
0 0 0 1270 108655 -9214 0
0 0 0 1256 109911 -7958 0
0 0 0 1337 111248 -6621 0
0 0 0 1257 112505 -5364 0
0 0 0 1191 113696 -4173 0
0 0 0 1334 115030 -2839 0
7 1 S102 1251 116281 -1588 0
7 1 S102 1147 117428 -441 0
7 2 S102 1279 118707 838 0
7 2 S102 1372 120079 2210 0
7 2 S102 1172 121251 3382 0
7 2 S102 1295 122546 4677 0
7 2 S102 1299 123845 5976 0
0 0 0 1236 125081 -8936 0
0 0 0 1261 126342 -7675 0
0 0 0 1205 127547 -6470 0
0 0 0 1171 128718 -5299 0
0 0 0 955 129673 -4344 0
0 0 0 833 130506 -3511 0
0 0 0 1278 131784 -2233 0
8 1 S112 1137 132921 -1096 0
8 2 S112 1219 134140 123 0
8 2 S112 1121 135261 1244 0
8 2 S112 905 136166 2149 0
8 2 S112 767 136933 2916 0
8 2 S112 1152 138085 4068 0
8 2 S112 1084 139169 5152 0
8 2 S112 1080 140249 6232 0
0 0 0 1069 141318 -7122 0
0 0 0 1036 142354 -6086 0
0 0 0 1077 143431 -5009 0
0 0 0 1034 144465 -3975 0
0 0 0 972 145437 -3003 0
9 1 S116 1064 146501 -1939 0
9 1 S116 1109 147610 -830 0
9 2 S116 1114 148724 284 0
9 2 S116 1097 149821 1381 0
9 2 S116 1177 150998 2558 0
9 2 S116 1201 152199 3759 0
9 2 S116 1101 153300 4860 0
9 2 S116 1222 154522 6082 0
0 0 0 1270 155792 -11829 0
0 0 0 1194 156986 -10635 0
0 0 0 1167 158153 -9468 0
0 0 0 1264 159417 -8204 0
0 0 0 1083 160500 -7121 0
0 0 0 1222 161722 -5899 0
0 0 0 1357 163079 -4542 0
0 0 0 1152 164231 -3390 0
0 0 0 1251 165482 -2139 0
10 1 S102 1332 166814 -807 0
10 2 S102 1193 168007 386 0
10 2 S102 1252 169259 1638 0
10 2 S102 1251 170510 2889 0
10 2 S102 1013 171523 3902 0
10 2 S102 1119 172642 5021 0
10 2 S102 1303 173945 6324 0
0 0 0 1253 175198 -10112 0
0 0 0 1139 176337 -8973 0
0 0 0 1130 177467 -7843 0
0 0 0 1169 178636 -6674 0
0 0 0 1145 179781 -5529 0
0 0 0 1101 180882 -4428 0
0 0 0 1073 181955 -3355 0
0 0 0 869 182824 -2486 0
11 1 S112 745 183569 -1741 1
11 1 S112 1150 184719 -591 0
11 2 S112 1286 186005 695 0
11 2 S112 1325 187330 2020 0
11 2 S112 1220 188550 3240 0
11 2 S112 1151 189701 4391 0
11 2 S112 1237 190938 5628 0
11 2 S112 1176 192114 6804 0
0 0 0 1131 193245 -6074 0
0 0 0 1194 194439 -4880 0
0 0 0 1138 195577 -3742 0
0 0 0 1130 196707 -2612 0
12 1 S116 1158 197865 -1454 0
12 1 S116 1074 198939 -380 0
12 2 S116 1209 200148 829 0
12 2 S116 1329 201477 2158 0
12 2 S116 1191 202668 3349 0
12 2 S116 1185 203853 4534 0
12 2 S116 1247 205100 5781 0
12 2 S116 1150 206250 6931 0
0 0 0 1206 207456 -9784 0
0 0 0 1305 208761 -8479 0
0 0 0 1154 209915 -7325 0
0 0 0 1277 211192 -6048 0
0 0 0 1273 212465 -4775 0
0 0 0 1228 213693 -3547 0
0 0 0 1286 214979 -2261 0
13 1 S112 1189 216168 -1072 0
13 2 S112 1212 217380 140 0
13 2 S112 1326 218706 1466 0
13 2 S112 1239 219945 2705 0
13 2 S112 1249 221194 3954 0
13 2 S112 1178 222372 5132 0
13 2 S112 1027 223399 6159 0
0 0 0 1280 224679 -10847 0
0 0 0 1344 226023 -9503 0
0 0 0 1138 227161 -8365 0
0 0 0 1296 228457 -7069 0
0 0 0 1266 229723 -5803 0
0 0 0 1153 230876 -4650 0
0 0 0 1288 232164 -3362 0
0 0 0 1275 233439 -2087 0
14 1 S106 1210 234649 -877 0
14 2 S106 1327 235976 450 0
14 2 S106 1241 237217 1691 0
14 2 S106 1252 238469 2943 0
14 2 S106 1266 239735 4209 0
14 2 S106 1067 240802 5276 0
14 2 S106 879 241681 6155 0
0 0 0 1257 242938 -10261 0
0 0 0 1272 244210 -8989 0
0 0 0 1165 245375 -7824 0
0 0 0 1308 246683 -6516 0
0 0 0 1217 247900 -5299 0
0 0 0 1104 249004 -4195 0
0 0 0 1173 250177 -3022 0
15 1 S116 1148 251325 -1874 0
15 1 S116 1113 252438 -761 0
15 2 S116 1199 253637 438 0
15 2 S116 1224 254861 1662 0
15 2 S116 1169 256030 2831 0
15 2 S116 1221 257251 4052 0
15 2 S116 1191 258442 5243 0
15 2 S116 1089 259531 6332 0
0 0 0 1231 260762 -8236 0
0 0 0 1152 261914 -7084 0
0 0 0 1160 263074 -5924 0
0 0 0 1262 264336 -4662 0
0 0 0 1122 265458 -3540 0
0 0 0 1184 266642 -2356 0
16 1 S116 1259 267901 -1097 0
16 2 S116 1146 269047 49 0
16 2 S116 1177 270224 1226 0
16 2 S116 1331 271555 2557 0
16 2 S116 1268 272823 3825 0
16 2 S116 1216 274039 5041 0
16 2 S116 1257 275296 6298 0
0 0 0 1099 276395 -9364 0
0 0 0 1292 277687 -8072 0
0 0 0 1258 278945 -6814 0
0 0 0 1226 280171 -5588 0
0 0 0 1245 281416 -4343 0
0 0 0 1026 282442 -3317 0
0 0 0 1190 283632 -2127 0
17 1 S106 1224 284856 -903 0
17 2 S106 1096 285952 193 0
17 2 S106 1320 287272 1513 0
17 2 S106 1277 288549 2790 0
17 2 S106 1096 289645 3886 0
17 2 S106 1198 290843 5084 0
17 2 S106 1204 292047 6288 0
0 0 0 1045 293092 -10522 0
0 0 0 1143 294235 -9379 0
0 0 0 1235 295470 -8144 0
0 0 0 1133 296603 -7011 0
0 0 0 1221 297824 -5790 0
0 0 0 1203 299027 -4587 0
0 0 0 1104 300131 -3483 0
0 0 0 1174 301305 -2309 0
18 1 S102 1214 302519 -1095 0
18 1 S102 1094 303613 -1 0
18 2 S102 1211 304824 1210 0
18 2 S102 1213 306037 2423 0
18 2 S102 1111 307148 3534 0
18 2 S102 896 308044 4430 0
18 2 S102 1073 309117 5503 0
18 2 S102 1274 310391 6777 0
0 0 0 1305 311696 -7170 0
0 0 0 1225 312921 -5945 0
0 0 0 1217 314138 -4728 0
0 0 0 1214 315352 -3514 0
0 0 0 1116 316468 -2398 0
19 1 S106 1113 317581 -1285 0
19 1 S106 1186 318767 -99 0
19 2 S106 1201 319968 1102 0
19 2 S106 1170 321138 2272 0
19 2 S106 1212 322350 3484 0
19 2 S106 1135 323485 4619 0
19 2 S106 1107 324592 5726 0
19 2 S106 1240 325832 6966 0
0 0 0 1143 326975 -10823 0
0 0 0 1195 328170 -9628 0
0 0 0 1212 329382 -8416 0
0 0 0 1081 330463 -7335 0
0 0 0 1144 331607 -6191 0
0 0 0 1191 332798 -5000 0
0 0 0 1121 333919 -3879 0
0 0 0 1031 334950 -2848 0
20 1 S112 1171 336121 -1677 0
20 1 S112 1132 337253 -545 0
20 2 S112 1073 338326 528 0
20 2 S112 1257 339583 1785 0
20 2 S112 1091 340674 2876 0
20 2 S112 1181 341855 4057 0
20 2 S112 1244 343099 5301 0
20 2 S112 1234 344333 6535 0
0 0 0 1179 345512 -9627 0
0 0 0 1218 346730 -8409 0
0 0 0 1185 347915 -7224 0
0 0 0 1151 349066 -6073 0
0 0 0 1097 350163 -4976 0
0 0 0 947 351110 -4029 0
0 0 0 1095 352205 -2934 0
21 1 S106 1144 353349 -1790 0
21 1 S106 909 354258 -881 0
21 1 S106 750 355008 -131 1
21 2 S106 859 355867 728 0
21 2 S106 846 356713 1574 0
21 2 S106 795 357508 2369 0
21 2 S106 1141 358649 3510 0
21 2 S106 1111 359760 4621 0
21 2 S106 993 360753 5614 0
21 2 S106 1094 361847 6708 0
0 0 0 1146 362993 -10631 0
0 0 0 1057 364050 -9574 0
0 0 0 1115 365165 -8459 0
0 0 0 1153 366318 -7306 0
0 0 0 997 367315 -6309 0
0 0 0 1194 368509 -5115 0
0 0 0 1143 369652 -3972 0
0 0 0 1025 370677 -2947 0
22 1 S116 1232 371909 -1715 0
22 1 S116 1196 373105 -519 0
22 2 S116 1096 374201 577 0
22 2 S116 1254 375455 1831 0
22 2 S116 1184 376639 3015 0
22 2 S116 960 377599 3975 0
22 2 S116 1124 378723 5099 0
22 2 S116 1296 380019 6395 0
0 0 0 1119 381138 -9910 0
0 0 0 1152 382290 -8758 0
0 0 0 1153 383443 -7605 0
0 0 0 1120 384563 -6485 0
0 0 0 1158 385721 -5327 0
0 0 0 1011 386732 -4316 0
0 0 0 1128 387860 -3188 0
23 1 S112 1311 389171 -1877 0
23 1 S112 1210 390381 -667 0
23 2 S112 1162 391543 495 0
23 2 S112 1254 392797 1749 0
23 2 S112 1316 394113 3065 0
23 2 S112 1219 395332 4284 0
23 2 S112 1171 396503 5455 0
23 2 S112 1289 397792 6744 0
0 0 0 1258 399050 -8875 0
0 0 0 1214 400264 -7661 0
0 0 0 1319 401583 -6342 0
0 0 0 1160 402743 -5182 0
0 0 0 1277 404020 -3905 0
0 0 0 1234 405254 -2671 0
24 1 S106 1179 406433 -1492 0
24 1 S106 1238 407671 -254 0
24 2 S106 1136 408807 882 0
24 2 S106 1023 409830 1905 0
24 2 S106 1226 411056 3131 0
24 2 S106 1321 412377 4452 0
24 2 S106 1254 413631 5706 0
24 2 S106 1220 414851 6926 0
0 0 0 1273 416124 -7467 0
0 0 0 1139 417263 -6328 0
0 0 0 1153 418416 -5175 0
0 0 0 1239 419655 -3936 0
0 0 0 1130 420785 -2806 0
25 1 S102 1125 421910 -1681 0
25 1 S102 1242 423152 -439 0
25 2 S102 1232 424384 793 0
25 2 S102 1200 425584 1993 0
25 2 S102 1263 426847 3256 0
25 2 S102 1191 428038 4447 0
25 2 S102 1194 429232 5641 0
25 2 S102 1268 430500 6909 0
0 0 0 1182 431682 -5968 0
0 0 0 1255 432937 -4713 0
0 0 0 1187 434124 -3526 0
0 0 0 1125 435249 -2401 0
26 1 S116 1281 436530 -1120 0
26 2 S116 1260 437790 140 0
26 2 S116 1196 438986 1336 0
26 2 S116 1232 440218 2568 0
26 2 S116 910 441128 3478 0
26 2 S116 731 441859 4209 1
26 2 S116 783 442642 4992 0
26 2 S116 1253 443895 6245 0
0 0 0 1138 445033 -6990 0
0 0 0 897 445930 -6093 0
0 0 0 815 446745 -5278 0
0 0 0 814 447559 -4464 0
0 0 0 1329 448888 -3135 0
27 1 S106 1263 450151 -1872 0
27 1 S106 1155 451306 -717 0
27 2 S106 1042 452348 325 0
27 2 S106 1133 453481 1458 0
27 2 S106 1168 454649 2626 0
27 2 S106 1097 455746 3723 0
27 2 S106 993 456739 4716 0
27 2 S106 961 457700 5677 0
27 2 S106 844 458544 6521 0
0 0 0 755 459299 -7313 1
0 0 0 760 460059 -6553 0
0 0 0 1261 461320 -5292 0
0 0 0 1302 462622 -3990 0
0 0 0 1240 463862 -2750 0
28 1 S102 1197 465059 -1553 0
28 1 S102 1170 466229 -383 0
28 2 S102 1197 467426 814 0
28 2 S102 1220 468646 2034 0
28 2 S102 1200 469846 3234 0
28 2 S102 1198 471044 4432 0
28 2 S102 1079 472123 5511 0
28 2 S102 1130 473253 6641 0
0 0 0 1231 474484 -9668 0
0 0 0 1185 475669 -8483 0
0 0 0 1156 476825 -7327 0
0 0 0 1249 478074 -6078 0
0 0 0 1194 479268 -4884 0
0 0 0 1118 480386 -3766 0
0 0 0 1237 481623 -2529 0
29 1 S112 1253 482876 -1276 0
29 1 S112 1192 484068 -84 0
29 2 S112 1251 485319 1167 0
29 2 S112 1224 486543 2391 0
29 2 S112 1104 487647 3495 0
29 2 S112 1175 488822 4670 0
29 2 S112 1249 490071 5919 0
29 2 S112 1105 491176 7024 0
0 0 0 1222 492398 -7056 0
0 0 0 1222 493620 -5834 0
0 0 0 1203 494823 -4631 0
0 0 0 1176 495999 -3455 0
0 0 0 939 496938 -2516 0
30 1 S112 820 497758 -1696 0
30 1 S112 759 498517 -937 0
30 2 S112 1327 499844 390 0
30 2 S112 1311 501155 1701 0
30 2 S112 1259 502414 2960 0
30 2 S112 1109 503523 4069 0
30 2 S112 1184 504707 5253 0
30 2 S112 1111 505818 6364 0
0 0 0 1109 506927 -9106 0
0 0 0 1221 508148 -7885 0
0 0 0 1160 509308 -6725 0
0 0 0 1125 510433 -5600 0
0 0 0 1225 511658 -4375 0
0 0 0 1161 512819 -3214 0
0 0 0 1168 513987 -2046 0
31 1 S106 1260 515247 -786 0
31 2 S106 1203 516450 417 0
31 2 S106 1203 517653 1620 0
31 2 S106 1225 518878 2845 0
31 2 S106 1020 519898 3865 0
31 2 S106 1118 521016 4983 0
31 2 S106 1227 522243 6210 0
0 0 0 1160 523403 -9539 0
0 0 0 1131 524534 -8408 0
0 0 0 1215 525749 -7193 0
0 0 0 1189 526938 -6004 0
0 0 0 1082 528020 -4922 0
0 0 0 1161 529181 -3761 0
0 0 0 1184 530365 -2577 0
32 1 S102 1092 531457 -1485 0
32 1 S102 1180 532637 -305 0
32 2 S102 1131 533768 826 0
32 2 S102 1143 534911 1969 0
32 2 S102 1177 536088 3146 0
32 2 S102 1048 537136 4194 0
32 2 S102 1116 538252 5310 0
32 2 S102 1220 539472 6530 0
0 0 0 1146 540618 -10561 0
0 0 0 1138 541756 -9423 0
0 0 0 1168 542924 -8255 0
0 0 0 1015 543939 -7240 0
0 0 0 1107 545046 -6133 0
0 0 0 1128 546174 -5005 0
0 0 0 1006 547180 -3999 0
0 0 0 1124 548304 -2875 0
33 1 S112 1219 549523 -1656 0
33 1 S112 1098 550621 -558 0
33 2 S112 1170 551791 612 0
33 2 S112 1233 553024 1845 0
33 2 S112 1128 554152 2973 0
33 2 S112 1107 555259 4080 0
33 2 S112 1243 556502 5323 0
33 2 S112 1099 557601 6422 0
0 0 0 1193 558794 -10969 0
0 0 0 1225 560019 -9744 0
0 0 0 1107 561126 -8637 0
0 0 0 1182 562308 -7455 0
0 0 0 1157 563465 -6298 0
0 0 0 1050 564515 -5248 0
0 0 0 1192 565707 -4056 0
0 0 0 1120 566827 -2936 0
34 1 S106 1132 567959 -1804 0
34 1 S106 1326 569285 -478 0
34 2 S106 1176 570461 698 0
34 2 S106 1222 571683 1920 0
34 2 S106 1236 572919 3156 0
34 2 S106 970 573889 4126 0
34 2 S106 969 574858 5095 0
34 2 S106 1240 576098 6335 0
0 0 0 1212 577310 -8335 0
0 0 0 1160 578470 -7175 0
0 0 0 1212 579682 -5963 0
0 0 0 1048 580730 -4915 0
0 0 0 951 581681 -3964 0
0 0 0 802 582483 -3162 0
35 1 S102 1223 583706 -1939 0
35 1 S102 1172 584878 -767 0
35 2 S102 1042 585920 275 0
35 2 S102 1201 587121 1476 0
35 2 S102 1153 588274 2629 0
35 2 S102 1088 589362 3717 0
35 2 S102 1132 590494 4849 0
35 2 S102 1177 591671 6026 0
0 0 0 1143 592814 -8116 0
0 0 0 1177 593991 -6939 0
0 0 0 1176 595167 -5763 0
0 0 0 1110 596277 -4653 0
0 0 0 1203 597480 -3450 0
0 0 0 990 598470 -2460 0
36 1 S106 1111 599581 -1349 0
36 1 S106 1234 600815 -115 0
36 2 S106 1099 601914 984 0
36 2 S106 1135 603049 2119 0
36 2 S106 1185 604234 3304 0
36 2 S106 1055 605289 4359 0
36 2 S106 975 606264 5334 0
36 2 S106 1178 607442 6512 0
0 0 0 1190 608632 -7915 0
0 0 0 1145 609777 -6770 0
0 0 0 1236 611013 -5534 0
0 0 0 1097 612110 -4437 0
0 0 0 1124 613234 -3313 0
0 0 0 1191 614425 -2122 0
37 1 S116 1091 615516 -1031 0
37 2 S116 1131 616647 100 0
37 2 S116 1255 617902 1355 0
37 2 S116 1069 618971 2424 0
37 2 S116 1119 620090 3543 0
37 2 S116 1188 621278 4731 0
37 2 S116 1107 622385 5838 0
37 2 S116 1150 623535 6988 0
0 0 0 1258 624793 -9709 0
0 0 0 1146 625939 -8563 0
0 0 0 1145 627084 -7418 0
0 0 0 976 628060 -6442 0
0 0 0 863 628923 -5579 0
0 0 0 1072 629995 -4507 0
0 0 0 1130 631125 -3377 0
0 0 0 1114 632239 -2263 0
38 1 S102 1081 633320 -1182 0
38 1 S102 1136 634456 -46 0
38 2 S102 1025 635481 979 0
38 2 S102 827 636308 1806 0
38 2 S102 813 637121 2619 0
38 2 S102 1123 638244 3742 0
38 2 S102 1192 639436 4934 0
38 2 S102 1078 640514 6012 0
0 0 0 1155 641669 -8980 0
0 0 0 1205 642874 -7775 0
0 0 0 1083 643957 -6692 0
0 0 0 1138 645095 -5554 0
0 0 0 1157 646252 -4397 0
0 0 0 1025 647277 -3372 0
0 0 0 1148 648425 -2224 0
39 1 S116 1184 649609 -1040 0
39 2 S116 1045 650654 5 0
39 2 S116 1050 651704 1055 0
39 2 S116 1031 652735 2086 0
39 2 S116 1176 653911 3262 0
39 2 S116 988 654899 4250 0
39 2 S116 1163 656062 5413 0
39 2 S116 1151 657213 6564 0
0 0 0 1034 658247 -6228 0
0 0 0 1190 659437 -5038 0
0 0 0 1134 660571 -3904 0
0 0 0 1021 661592 -2883 0
40 1 S112 1152 662744 -1731 0
40 1 S112 1112 663856 -619 0
40 2 S112 953 664809 334 0
40 2 S112 838 665647 1172 0
40 2 S112 1273 666920 2445 0
40 2 S112 1198 668118 3643 0
40 2 S112 1184 669302 4827 0
40 2 S112 1265 670567 6092 0
0 0 0 1170 671737 -186639 0
0 0 0 1100 672837 -185539 0
0 0 0 1199 674036 -184340 0
0 0 0 1187 675223 -183153 0
0 0 0 1108 676331 -182045 0
0 0 0 1263 677594 -180782 0
0 0 0 1261 678855 -179521 0
0 0 0 1132 679987 -178389 0
0 0 0 1228 681215 -177161 0
0 0 0 1250 682465 -175911 0
0 0 0 1044 683509 -174867 0
0 0 0 1006 684515 -173861 0
0 0 0 1073 685588 -172788 0
0 0 0 1123 686711 -171665 0
0 0 0 1303 688014 -170362 0
0 0 0 1234 689248 -169128 0
0 0 0 1159 690407 -167969 0
0 0 0 1119 691526 -166850 0
0 0 0 1081 692607 -165769 0
0 0 0 975 693582 -164794 0
0 0 0 853 694435 -163941 0
0 0 0 793 695228 -163148 0
0 0 0 763 695991 -162385 0
0 0 0 755 696746 -161630 1
0 0 0 895 697641 -160735 0
0 0 0 969 698610 -159766 0
0 0 0 943 699553 -158823 0
0 0 0 1002 700555 -157821 0
0 0 0 1066 701621 -156755 0
0 0 0 1061 702682 -155694 0
0 0 0 927 703609 -154767 0
0 0 0 743 704352 -154024 1
0 0 0 688 705040 -153336 1
0 0 0 683 705723 -152653 1
0 0 0 840 706563 -151813 0
0 0 0 963 707526 -150850 0
0 0 0 868 708394 -149982 0
0 0 0 955 709349 -149027 0
0 0 0 1100 710449 -147927 0
0 0 0 1013 711462 -146914 0
0 0 0 806 712268 -146108 0
0 0 0 800 713068 -145308 0
0 0 0 842 713910 -144466 0
0 0 0 735 714645 -143731 1
0 0 0 727 715372 -143004 1
0 0 0 776 716148 -142228 0
0 0 0 838 716986 -141390 0
0 0 0 1138 718124 -140252 0
0 0 0 1222 719346 -139030 0
0 0 0 1118 720464 -137912 0
0 0 0 1076 721540 -136836 0
0 0 0 1064 722604 -135772 0
0 0 0 1118 723722 -134654 0
0 0 0 1038 724760 -133616 0
0 0 0 936 725696 -132680 0
0 0 0 979 726675 -131701 0
0 0 0 1143 727818 -130558 0
0 0 0 1238 729056 -129320 0
0 0 0 1188 730244 -128132 0
0 0 0 1153 731397 -126979 0
0 0 0 1053 732450 -125926 0
0 0 0 1155 733605 -124771 0
0 0 0 1241 734846 -123530 0
0 0 0 1221 736067 -122309 0
0 0 0 1203 737270 -121106 0
0 0 0 1130 738400 -119976 0
0 0 0 1148 739548 -118828 0
0 0 0 1206 740754 -117622 0
0 0 0 1087 741841 -116535 0
0 0 0 1231 743072 -115304 0
0 0 0 1264 744336 -114040 0
0 0 0 1222 745558 -112818 0
0 0 0 1265 746823 -111553 0
0 0 0 1240 748063 -110313 0
0 0 0 1097 749160 -109216 0
0 0 0 1223 750383 -107993 0
0 0 0 1263 751646 -106730 0
0 0 0 1203 752849 -105527 0
0 0 0 914 753763 -104613 0
0 0 0 862 754625 -103751 0
0 0 0 1221 755846 -102530 0
0 0 0 1038 756884 -101492 0
0 0 0 1172 758056 -100320 0
0 0 0 1077 759133 -99243 0
0 0 0 1126 760259 -98117 0
0 0 0 1172 761431 -96945 0
0 0 0 1105 762536 -95840 0
0 0 0 1006 763542 -94834 0
0 0 0 1094 764636 -93740 0
0 0 0 1196 765832 -92544 0
0 0 0 1194 767026 -91350 0
0 0 0 1173 768199 -90177 0
0 0 0 1153 769352 -89024 0
0 0 0 1080 770432 -87944 0
0 0 0 1222 771654 -86722 0
0 0 0 1237 772891 -85485 0
0 0 0 1092 773983 -84393 0
0 0 0 1053 775036 -83340 0
0 0 0 1006 776042 -82334 0
0 0 0 778 776820 -81556 0
0 0 0 694 777514 -80862 1
0 0 0 915 778429 -79947 0
0 0 0 988 779417 -78959 0
0 0 0 1068 780485 -77891 0
0 0 0 1139 781624 -76752 0
0 0 0 894 782518 -75858 0
0 0 0 932 783450 -74926 0
0 0 0 1106 784556 -73820 0
0 0 0 1017 785573 -72803 0
0 0 0 906 786479 -71897 0
0 0 0 1010 787489 -70887 0
0 0 0 1195 788684 -69692 0
0 0 0 999 789683 -68693 0
0 0 0 943 790626 -67750 0
0 0 0 1160 791786 -66590 0
0 0 0 1038 792824 -65552 0
0 0 0 826 793650 -64726 0
0 0 0 731 794381 -63995 1
0 0 0 676 795057 -63319 1
0 0 0 692 795749 -62627 1
0 0 0 981 796730 -61646 0
0 0 0 1069 797799 -60577 0
0 0 0 795 798594 -59782 0
0 0 0 684 799278 -59098 1
0 0 0 626 799904 -58472 1
0 0 0 596 800500 -57876 1
0 0 0 591 801091 -57285 1
0 0 0 1162 802253 -56123 0
0 0 0 1142 803395 -54981 0
0 0 0 1133 804528 -53848 0
0 0 0 1074 805602 -52774 0
0 0 0 976 806578 -51798 0
0 0 0 879 807457 -50919 0
0 0 0 900 808357 -50019 0
0 0 0 995 809352 -49024 0
0 0 0 937 810289 -48087 0
0 0 0 757 811046 -47330 0
0 0 0 712 811758 -46618 1
0 0 0 1068 812826 -45550 0
0 0 0 1022 813848 -44528 0
0 0 0 1046 814894 -43482 0
0 0 0 1116 816010 -42366 0
0 0 0 1150 817160 -41216 0
0 0 0 1136 818296 -40080 0
0 0 0 988 819284 -39092 0
0 0 0 1117 820401 -37975 0
0 0 0 1208 821609 -36767 0
0 0 0 1122 822731 -35645 0
0 0 0 1048 823779 -34597 0
0 0 0 1145 824924 -33452 0
0 0 0 1174 826098 -32278 0
0 0 0 1053 827151 -31225 0
0 0 0 1089 828240 -30136 0
0 0 0 1181 829421 -28955 0
0 0 0 1172 830593 -27783 0
0 0 0 1108 831701 -26675 0
0 0 0 1144 832845 -25531 0
0 0 0 1160 834005 -24371 0
0 0 0 1007 835012 -23364 0
0 0 0 1058 836070 -22306 0
0 0 0 1176 837246 -21130 0
0 0 0 922 838168 -20208 0
0 0 0 1015 839183 -19193 0
0 0 0 1017 840200 -18176 0
0 0 0 830 841030 -17346 0
0 0 0 907 841937 -16439 0
0 0 0 1067 843004 -15372 0
0 0 0 888 843892 -14484 0
0 0 0 1041 844933 -13443 0
0 0 0 1019 845952 -12424 0
0 0 0 905 846857 -11519 0
0 0 0 1129 847986 -10390 0
0 0 0 1161 849147 -9229 0
0 0 0 1066 850213 -8163 0
0 0 0 1115 851328 -7048 0
0 0 0 1142 852470 -5906 0
0 0 0 991 853461 -4915 0
0 0 0 1000 854461 -3915 0
0 0 0 1114 855575 -2801 0
41 1 S102 1068 856643 -1733 0
41 1 S102 1011 857654 -722 0
41 2 S102 1013 858667 291 0
41 2 S102 1016 859683 1307 0
41 2 S102 967 860650 2274 0
41 2 S102 847 861497 3121 0
41 2 S102 865 862362 3986 0
41 2 S102 981 863343 4967 0
41 2 S102 1046 864389 6013 0
41 2 S102 937 865326 6950 0
0 0 0 1083 866409 -5661 0
0 0 0 1172 867581 -4489 0
0 0 0 1018 868599 -3471 0
0 0 0 1055 869654 -2416 0
42 1 S112 1114 870768 -1302 0
42 1 S112 995 871763 -307 0
42 2 S112 1091 872854 784 0
42 2 S112 1193 874047 1977 0
42 2 S112 1147 875194 3124 0
42 2 S112 1094 876288 4218 0
42 2 S112 1196 877484 5414 0
42 2 S112 999 878483 6413 0
0 0 0 994 879477 -8492 0
0 0 0 1170 880647 -7322 0
0 0 0 1093 881740 -6229 0
0 0 0 1024 882764 -5205 0
0 0 0 1167 883931 -4038 0
0 0 0 1084 885015 -2954 0
43 1 S116 1037 886052 -1917 0
43 1 S116 1036 887088 -881 0
43 2 S116 906 887994 25 0
43 2 S116 1208 889202 1233 0
43 2 S116 1081 890283 2314 0
43 2 S116 1104 891387 3418 0
43 2 S116 1155 892542 4573 0
43 2 S116 1047 893589 5620 0
43 2 S116 806 894395 6426 0
0 0 0 685 895080 -7643 1
0 0 0 670 895750 -6973 1
0 0 0 1211 896961 -5762 0
0 0 0 1267 898228 -4495 0
0 0 0 1126 899354 -3369 0
0 0 0 981 900335 -2388 0
44 1 S102 1147 901482 -1241 0
44 1 S102 1188 902670 -53 0
44 2 S102 1119 903789 1066 0
44 2 S102 1158 904947 2224 0
44 2 S102 1186 906133 3410 0
44 2 S102 1171 907304 4581 0
44 2 S102 1058 908362 5639 0
44 2 S102 1014 909376 6653 0
0 0 0 1136 910512 -8491 0
0 0 0 1226 911738 -7265 0
0 0 0 1095 912833 -6170 0
0 0 0 1182 914015 -4988 0
0 0 0 1140 915155 -3848 0
0 0 0 1023 916178 -2825 0
45 1 S116 827 917005 -1998 0
45 1 S116 1136 918141 -862 0
45 2 S116 1059 919200 197 0
45 2 S116 1149 920349 1346 0
45 2 S116 1191 921540 2537 0
45 2 S116 1042 922582 3579 0
45 2 S116 1009 923591 4588 0
45 2 S116 1162 924753 5750 0
45 2 S116 1186 925939 6936 0
0 0 0 1188 927127 -11223 0
0 0 0 1065 928192 -10158 0
0 0 0 1091 929283 -9067 0
0 0 0 1163 930446 -7904 0
0 0 0 1074 931520 -6830 0
0 0 0 1051 932571 -5779 0
0 0 0 1216 933787 -4563 0
0 0 0 1198 934985 -3365 0
0 0 0 1093 936078 -2272 0
46 1 S102 1135 937213 -1137 0
46 2 S102 1242 938455 105 0
46 2 S102 1141 939596 1246 0
46 2 S102 1174 940770 2420 0
46 2 S102 1291 942061 3711 0
46 2 S102 1212 943273 4923 0
46 2 S102 1175 944448 6098 0
0 0 0 1271 945719 -9442 0
0 0 0 1183 946902 -8259 0
0 0 0 1196 948098 -7063 0
0 0 0 1242 949340 -5821 0
0 0 0 1087 950427 -4734 0
0 0 0 1217 951644 -3517 0
0 0 0 1162 952806 -2355 0
47 1 S112 1134 953940 -1221 0
47 2 S112 1234 955174 13 0
47 2 S112 1216 956390 1229 0
47 2 S112 1218 957608 2447 0
47 2 S112 1251 958859 3698 0
47 2 S112 1073 959932 4771 0
47 2 S112 1112 961044 5883 0
0 0 0 1154 962198 -11464 0
0 0 0 1071 963269 -10393 0
0 0 0 1080 964349 -9313 0
0 0 0 1084 965433 -8229 0
0 0 0 918 966351 -7311 0
0 0 0 958 967309 -6353 0
0 0 0 1171 968480 -5182 0
0 0 0 1030 969510 -4152 0
0 0 0 1105 970615 -3047 0
48 1 S116 1202 971817 -1845 0
48 1 S116 1038 972855 -807 0
48 2 S116 1114 973969 307 0
48 2 S116 1180 975149 1487 0
48 2 S116 1166 976315 2653 0
48 2 S116 1100 977415 3753 0
48 2 S116 890 978305 4643 0
48 2 S116 711 979016 5354 1
48 2 S116 687 979703 6041 1
0 0 0 1260 980963 -6990 0
0 0 0 1269 982232 -5721 0
0 0 0 1099 983331 -4622 0
0 0 0 1066 984397 -3556 0
0 0 0 1176 985573 -2380 0
49 1 S112 1215 986788 -1165 0
49 1 S112 1159 987947 -6 0
49 2 S112 1110 989057 1104 0
49 2 S112 1176 990233 2280 0
49 2 S112 1171 991404 3451 0
49 2 S112 1121 992525 4572 0
49 2 S112 1161 993686 5733 0
49 2 S112 1185 994871 6918 0
0 0 0 1184 996055 -10698 0
0 0 0 1110 997165 -9588 0
0 0 0 1108 998273 -8480 0
0 0 0 1221 999494 -7259 0
0 0 0 1164 1000658 -6095 0
0 0 0 1014 1001672 -5081 0
0 0 0 1197 1002869 -3884 0
0 0 0 1001 1003870 -2883 0
0 0 0 824 1004694 -2059 0
50 1 S106 1162 1005856 -897 0
50 2 S106 1186 1007042 289 0
50 2 S106 1241 1008283 1530 0
50 2 S106 1140 1009423 2670 0
50 2 S106 1013 1010436 3683 0
50 2 S106 1107 1011543 4790 0
50 2 S106 1161 1012704 5951 0
50 2 S106 979 1013683 6930 0
0 0 0 1083 1014766 -5896 0
0 0 0 1173 1015939 -4723 0
0 0 0 1058 1016997 -3665 0
0 0 0 1102 1018099 -2563 0
51 1 S112 1200 1019299 -1363 0
51 1 S112 1117 1020416 -246 0
51 2 S112 1132 1021548 886 0
51 2 S112 1228 1022776 2114 0
51 2 S112 1101 1023877 3215 0
51 2 S112 1006 1024883 4221 0
51 2 S112 1203 1026086 5424 0
51 2 S112 1214 1027300 6638 0
0 0 0 1136 1028436 -6997 0
0 0 0 1134 1029570 -5863 0
0 0 0 1168 1030738 -4695 0
0 0 0 999 1031737 -3696 0
0 0 0 1024 1032761 -2672 0
52 1 S116 855 1033616 -1817 0
52 1 S116 836 1034452 -981 0
52 1 S116 798 1035250 -183 0
52 2 S116 717 1035967 534 1
52 2 S116 658 1036625 1192 1
52 2 S116 739 1037364 1931 1
52 2 S116 891 1038255 2822 0
52 2 S116 807 1039062 3629 0
52 2 S116 726 1039788 4355 1
52 2 S116 662 1040450 5017 1
52 2 S116 647 1041097 5664 1
52 2 S116 704 1041801 6368 1
0 0 0 1052 1042853 -9026 0
0 0 0 991 1043844 -8035 0
0 0 0 858 1044702 -7177 0
0 0 0 913 1045615 -6264 0
0 0 0 1024 1046639 -5240 0
0 0 0 1018 1047657 -4222 0
0 0 0 932 1048589 -3290 0
0 0 0 997 1049586 -2293 0
53 1 S106 1146 1050732 -1147 0
53 1 S106 1064 1051796 -83 0
53 2 S106 1123 1052919 1040 0
53 2 S106 1158 1054077 2198 0
53 2 S106 1004 1055081 3202 0
53 2 S106 868 1055949 4070 0
53 2 S106 831 1056780 4901 0
53 2 S106 756 1057536 5657 1
53 2 S106 790 1058326 6447 0
0 0 0 1254 1059580 -6324 0
0 0 0 1294 1060874 -5030 0
0 0 0 1197 1062071 -3833 0
0 0 0 1125 1063196 -2708 0
54 1 S102 1136 1064332 -1572 0
54 1 S102 984 1065316 -588 0
54 2 S102 1001 1066317 413 0
54 2 S102 1216 1067533 1629 0
54 2 S102 1173 1068706 2802 0
54 2 S102 1020 1069726 3822 0
54 2 S102 1145 1070871 4967 0
54 2 S102 1235 1072106 6202 0
0 0 0 1078 1073184 -10343 0
0 0 0 1092 1074276 -9251 0
0 0 0 1263 1075539 -7988 0
0 0 0 1235 1076774 -6753 0
0 0 0 1242 1078016 -5511 0
0 0 0 1258 1079274 -4253 0
0 0 0 1185 1080459 -3068 0
55 1 S106 1114 1081573 -1954 0
55 1 S106 1220 1082793 -734 0
55 2 S106 1258 1084051 524 0
55 2 S106 1173 1085224 1697 0
55 2 S106 1101 1086325 2798 0
55 2 S106 1183 1087508 3981 0
55 2 S106 1148 1088656 5129 0
55 2 S106 1032 1089688 6161 0
0 0 0 1124 1090812 -6326 0
0 0 0 1250 1092062 -5076 0
0 0 0 1130 1093192 -3946 0
0 0 0 1137 1094329 -2809 0
56 1 S116 1233 1095562 -1576 0
56 1 S116 1059 1096621 -517 0
56 2 S116 1035 1097656 518 0
56 2 S116 1171 1098827 1689 0
56 2 S116 1141 1099968 2830 0
56 2 S116 1116 1101084 3946 0
56 2 S116 1080 1102164 5026 0
56 2 S116 1058 1103222 6084 0
56 2 S116 802 1104024 6886 0
0 0 0 781 1104805 -7519 0
0 0 0 1228 1106033 -6291 0
0 0 0 1123 1107156 -5168 0
0 0 0 1186 1108342 -3982 0
0 0 0 970 1109312 -3012 0
0 0 0 860 1110172 -2152 0
57 1 S106 871 1111043 -1281 0
57 1 S106 816 1111859 -465 0
57 2 S106 761 1112620 296 0
57 2 S106 1203 1113823 1499 0
57 2 S106 1228 1115051 2727 0
57 2 S106 1130 1116181 3857 0
57 2 S106 1031 1117212 4888 0
57 2 S106 1148 1118360 6036 0
0 0 0 1116 1119476 -8432 0
0 0 0 1082 1120558 -7350 0
0 0 0 1226 1121784 -6124 0
0 0 0 1110 1122894 -5014 0
0 0 0 1046 1123940 -3968 0
0 0 0 1248 1125188 -2720 0
58 1 S102 1344 1126532 -1376 0
58 1 S102 1191 1127723 -185 0
58 2 S102 1278 1129001 1093 0
58 2 S102 1152 1130153 2245 0
58 2 S102 1161 1131314 3406 0
58 2 S102 1204 1132518 4610 0
58 2 S102 1205 1133723 5815 0
58 2 S102 1151 1134874 6966 0
0 0 0 1212 1136086 -5880 0
0 0 0 1104 1137190 -4776 0
0 0 0 1020 1138210 -3756 0
0 0 0 1132 1139342 -2624 0
59 1 S112 1002 1140344 -1622 0
59 1 S112 980 1141324 -642 0
59 2 S112 1167 1142491 525 0
59 2 S112 1170 1143661 1695 0
59 2 S112 1186 1144847 2881 0
59 2 S112 1180 1146027 4061 0
59 2 S112 1059 1147086 5120 0
59 2 S112 976 1148062 6096 0
0 0 0 1161 1149223 -8294 0
0 0 0 1145 1150368 -7149 0
0 0 0 1121 1151489 -6028 0
0 0 0 1154 1152643 -4874 0
0 0 0 1016 1153659 -3858 0
0 0 0 1137 1154796 -2721 0
60 1 S102 1150 1155946 -1571 0
60 1 S102 1051 1156997 -520 0
60 2 S102 1152 1158149 632 0
60 2 S102 1244 1159393 1876 0
60 2 S102 1091 1160484 2967 0
60 2 S102 1130 1161614 4097 0
60 2 S102 1214 1162828 5311 0
60 2 S102 1102 1163930 6413 0
0 0 0 954 1164884 -10836 0
0 0 0 1039 1165923 -9797 0
0 0 0 1220 1167143 -8577 0
0 0 0 1072 1168215 -7505 0
0 0 0 996 1169211 -6509 0
0 0 0 794 1170005 -5715 0
0 0 0 805 1170810 -4910 0
0 0 0 1152 1171962 -3758 0
0 0 0 1007 1172969 -2751 0
61 1 S106 1127 1174096 -1624 0
61 1 S106 1149 1175245 -475 0
61 2 S106 1056 1176301 581 0
61 2 S106 1103 1177404 1684 0
61 2 S106 1135 1178539 2819 0
61 2 S106 1038 1179577 3857 0
61 2 S106 1135 1180712 4992 0
61 2 S106 1182 1181894 6174 0
0 0 0 1091 1182985 -7092 0
0 0 0 1198 1184183 -5894 0
0 0 0 1154 1185337 -4740 0
0 0 0 1167 1186504 -3573 0
0 0 0 1189 1187693 -2384 0
62 1 S112 1138 1188831 -1246 0
62 2 S112 1267 1190098 21 0
62 2 S112 1224 1191322 1245 0
62 2 S112 1172 1192494 2417 0
62 2 S112 1255 1193749 3672 0
62 2 S112 1155 1194904 4827 0
62 2 S112 1110 1196014 5937 0
0 0 0 1238 1197252 -10862 0
0 0 0 1082 1198334 -9780 0
0 0 0 1184 1199518 -8596 0
0 0 0 1194 1200712 -7402 0
0 0 0 1076 1201788 -6326 0
0 0 0 1216 1203004 -5110 0
0 0 0 1155 1204159 -3955 0
0 0 0 1094 1205253 -2861 0
63 1 S102 1205 1206458 -1656 0
63 1 S102 1231 1207689 -425 0
63 2 S102 1081 1208770 656 0
63 2 S102 1168 1209938 1824 0
63 2 S102 1225 1211163 3049 0
63 2 S102 1090 1212253 4139 0
63 2 S102 1127 1213380 5266 0
63 2 S102 1227 1214607 6493 0
0 0 0 1119 1215726 -7872 0
0 0 0 1213 1216939 -6659 0
0 0 0 1164 1218103 -5495 0
0 0 0 1032 1219135 -4463 0
0 0 0 1158 1220293 -3305 0
0 0 0 1243 1221536 -2062 0
64 1 S112 1128 1222664 -934 0
64 2 S112 1224 1223888 290 0
64 2 S112 1229 1225117 1519 0
64 2 S112 1068 1226185 2587 0
64 2 S112 1107 1227292 3694 0
64 2 S112 1150 1228442 4844 0
64 2 S112 1029 1229471 5873 0
64 2 S112 1017 1230488 6890 0
0 0 0 1088 1231576 -5649 0
0 0 0 973 1232549 -4676 0
0 0 0 1021 1233570 -3655 0
0 0 0 1109 1234679 -2546 0
65 1 S106 941 1235620 -1605 0
65 1 S106 932 1236552 -673 0
65 2 S106 1168 1237720 495 0
65 2 S106 1132 1238852 1627 0
65 2 S106 999 1239851 2626 0
65 2 S106 1207 1241058 3833 0
65 2 S106 985 1242043 4818 0
65 2 S106 1053 1243096 5871 0
65 2 S106 1142 1244238 7013 0
0 0 0 1167 1245405 -6907 0
0 0 0 1093 1246498 -5814 0
0 0 0 1134 1247632 -4680 0
0 0 0 1036 1248668 -3644 0
0 0 0 830 1249498 -2814 0
0 0 0 705 1250203 -2109 1
66 1 S116 644 1250847 -1465 1
66 1 S116 667 1251514 -798 1
66 2 S116 1191 1252705 393 0
66 2 S116 1165 1253870 1558 0
66 2 S116 1169 1255039 2727 0
66 2 S116 1133 1256172 3860 0
66 2 S116 1082 1257254 4942 0
66 2 S116 1045 1258299 5987 0
0 0 0 1043 1259342 -11902 0
0 0 0 1027 1260369 -10875 0
0 0 0 1023 1261392 -9852 0
0 0 0 978 1262370 -8874 0
0 0 0 1042 1263412 -7832 0
0 0 0 1063 1264475 -6769 0
0 0 0 950 1265425 -5819 0
0 0 0 1115 1266540 -4704 0
0 0 0 939 1267479 -3765 0
0 0 0 827 1268306 -2938 0
67 1 S102 1203 1269509 -1735 0
67 1 S102 1107 1270616 -628 0
67 2 S102 1039 1271655 411 0
67 2 S102 1148 1272803 1559 0
67 2 S102 1171 1273974 2730 0
67 2 S102 1050 1275024 3780 0
67 2 S102 1091 1276115 4871 0
67 2 S102 1114 1277229 5985 0
67 2 S102 1001 1278230 6986 0
0 0 0 974 1279204 -5469 0
0 0 0 1177 1280381 -4292 0
0 0 0 975 1281356 -3317 0
0 0 0 965 1282321 -2352 0
68 1 S106 1209 1283530 -1143 0
68 2 S106 1161 1284691 18 0
68 2 S106 1105 1285796 1123 0
68 2 S106 1153 1286949 2276 0
68 2 S106 1092 1288041 3368 0
68 2 S106 1018 1289059 4386 0
68 2 S106 1136 1290195 5522 0
68 2 S106 1017 1291212 6539 0
0 0 0 990 1292202 -11420 0
0 0 0 1139 1293341 -10281 0
0 0 0 1147 1294488 -9134 0
0 0 0 1028 1295516 -8106 0
0 0 0 934 1296450 -7172 0
0 0 0 880 1297330 -6292 0
0 0 0 774 1298104 -5518 0
0 0 0 962 1299066 -4556 0
0 0 0 1021 1300087 -3535 0
0 0 0 1017 1301104 -2518 0
69 1 S102 911 1302015 -1607 0
69 1 S102 776 1302791 -831 0
69 1 S102 691 1303482 -140 1
69 2 S102 663 1304145 523 1
69 2 S102 721 1304866 1244 1
69 2 S102 846 1305712 2090 0
69 2 S102 827 1306539 2917 0
69 2 S102 872 1307411 3789 0
69 2 S102 1039 1308450 4828 0
69 2 S102 1154 1309604 5982 0
0 0 0 1090 1310694 -9423 0
0 0 0 953 1311647 -8470 0
0 0 0 1069 1312716 -7401 0
0 0 0 1143 1313859 -6258 0
0 0 0 1011 1314870 -5247 0
0 0 0 1154 1316024 -4093 0
0 0 0 1192 1317216 -2901 0
70 1 S112 1085 1318301 -1816 0
70 1 S112 1126 1319427 -690 0
70 2 S112 1250 1320677 560 0
70 2 S112 1194 1321871 1754 0
70 2 S112 1166 1323037 2920 0
70 2 S112 1138 1324175 4058 0
70 2 S112 968 1325143 5026 0
70 2 S112 1151 1326294 6177 0
0 0 0 1178 1327472 -11180 0
0 0 0 1042 1328514 -10138 0
0 0 0 1182 1329696 -8956 0
0 0 0 1140 1330836 -7816 0
0 0 0 1046 1331882 -6770 0
0 0 0 1141 1333023 -5629 0
0 0 0 1163 1334186 -4466 0
0 0 0 1083 1335269 -3383 0
0 0 0 1161 1336430 -2222 0
71 1 S116 1146 1337576 -1076 0
71 2 S116 1085 1338661 9 0
71 2 S116 1225 1339886 1234 0
71 2 S116 1203 1341089 2437 0
71 2 S116 1077 1342166 3514 0
71 2 S116 1001 1343167 4515 0
71 2 S116 1199 1344366 5714 0
71 2 S116 1171 1345537 6885 0
0 0 0 1113 1346650 -8481 0
0 0 0 1030 1347680 -7451 0
0 0 0 1156 1348836 -6295 0
0 0 0 1033 1349869 -5262 0
0 0 0 926 1350795 -4336 0
0 0 0 1124 1351919 -3212 0
0 0 0 1202 1353121 -2010 0
72 1 S102 1007 1354128 -1003 0
72 2 S102 1109 1355237 106 0
72 2 S102 1256 1356493 1362 0
72 2 S102 1071 1357564 2433 0
72 2 S102 1020 1358584 3453 0
72 2 S102 1130 1359714 4583 0
72 2 S102 1210 1360924 5793 0
72 2 S102 1080 1362004 6873 0
0 0 0 1142 1363146 -7403 0
0 0 0 1104 1364250 -6299 0
0 0 0 1059 1365309 -5240 0
0 0 0 994 1366303 -4246 0
0 0 0 1015 1367318 -3231 0
0 0 0 962 1368280 -2269 0
73 1 S116 1147 1369427 -1122 0
73 1 S116 1083 1370510 -39 0
73 2 S116 938 1371448 899 0
73 2 S116 1029 1372477 1928 0
73 2 S116 1052 1373529 2980 0
73 2 S116 1059 1374588 4039 0
73 2 S116 878 1375466 4917 0
73 2 S116 821 1376287 5738 0
73 2 S116 921 1377208 6659 0
0 0 0 996 1378204 -8558 0
0 0 0 833 1379037 -7725 0
0 0 0 919 1379956 -6806 0
0 0 0 1260 1381216 -5546 0
0 0 0 1155 1382371 -4391 0
0 0 0 1108 1383479 -3283 0
0 0 0 1158 1384637 -2125 0
74 1 S106 1169 1385806 -956 0
74 2 S106 1042 1386848 86 0
74 2 S106 1133 1387981 1219 0
74 2 S106 1120 1389101 2339 0
74 2 S106 1078 1390179 3417 0
74 2 S106 987 1391166 4404 0
74 2 S106 920 1392086 5324 0
74 2 S106 828 1392914 6152 0
74 2 S106 746 1393660 6898 1
0 0 0 712 1394372 -6250 1
0 0 0 677 1395049 -5573 1
0 0 0 693 1395742 -4880 1
0 0 0 818 1396560 -4062 0
0 0 0 1177 1397737 -2885 0
75 1 S112 1177 1398914 -1708 0
75 1 S112 1176 1400090 -532 0
75 2 S112 1101 1401191 569 0
75 2 S112 1028 1402219 1597 0
75 2 S112 1078 1403297 2675 0
75 2 S112 1063 1404360 3738 0
75 2 S112 1005 1405365 4743 0
75 2 S112 1092 1406457 5835 0
0 0 0 1199 1407656 -7953 0
0 0 0 1119 1408775 -6834 0
0 0 0 1131 1409906 -5703 0
0 0 0 1215 1411121 -4488 0
0 0 0 1101 1412222 -3387 0
0 0 0 1072 1413294 -2315 0
76 1 S116 1227 1414521 -1088 0
76 2 S116 1222 1415743 134 0
76 2 S116 1119 1416862 1253 0
76 2 S116 1256 1418118 2509 0
76 2 S116 1074 1419192 3583 0
76 2 S116 1013 1420205 4596 0
76 2 S116 1172 1421377 5768 0
76 2 S116 1226 1422603 6994 0
0 0 0 1178 1423781 -6798 0
0 0 0 1157 1424938 -5641 0
0 0 0 1187 1426125 -4454 0
0 0 0 1024 1427149 -3430 0
0 0 0 1000 1428149 -2430 0
77 1 S106 787 1428936 -1643 0
77 1 S106 872 1429808 -771 0
77 2 S106 1231 1431039 460 0
77 2 S106 1106 1432145 1566 0
77 2 S106 1144 1433289 2710 0
77 2 S106 1104 1434393 3814 0
77 2 S106 991 1435384 4805 0
77 2 S106 1054 1436438 5859 0
77 2 S106 1042 1437480 6901 0
0 0 0 851 1438331 -8379 0
0 0 0 1115 1439446 -7264 0
0 0 0 1273 1440719 -5991 0
0 0 0 1135 1441854 -4856 0
0 0 0 1128 1442982 -3728 0
0 0 0 1206 1444188 -2522 0
78 1 S112 1216 1445404 -1306 0
78 1 S112 1110 1446514 -196 0
78 2 S112 1153 1447667 957 0
78 2 S112 1201 1448868 2158 0
78 2 S112 1138 1450006 3296 0
78 2 S112 1199 1451205 4495 0
78 2 S112 1166 1452371 5661 0
78 2 S112 1091 1453462 6752 0
0 0 0 1226 1454688 -9694 0
0 0 0 1173 1455861 -8521 0
0 0 0 1134 1456995 -7387 0
0 0 0 1219 1458214 -6168 0
0 0 0 1130 1459344 -5038 0
0 0 0 1138 1460482 -3900 0
0 0 0 1236 1461718 -2664 0
79 1 S102 1191 1462909 -1473 0
79 1 S102 1165 1464074 -308 0
79 2 S102 1216 1465290 908 0
79 2 S102 1201 1466491 2109 0
79 2 S102 1021 1467512 3130 0
79 2 S102 1159 1468671 4289 0
79 2 S102 1160 1469831 5449 0
79 2 S102 1062 1470893 6511 0
0 0 0 1224 1472117 -7965 0
0 0 0 1092 1473209 -6873 0
0 0 0 1113 1474322 -5760 0
0 0 0 1181 1475503 -4579 0
0 0 0 1038 1476541 -3541 0
0 0 0 1073 1477614 -2468 0
80 1 S116 1192 1478806 -1276 0
80 1 S116 1057 1479863 -219 0
80 2 S116 1057 1480920 838 0
80 2 S116 1227 1482147 2065 0
80 2 S116 1044 1483191 3109 0
80 2 S116 928 1484119 4037 0
80 2 S116 1117 1485236 5154 0
80 2 S116 1185 1486421 6339 0
