T_0138
BeatCount Mean SD BeatCountNoOutliers MeanNoOutliers SDNoOutliers
1875 842,242133333333 51,2527067846863 1846 844,632177681473 47,4295951001793

Trial TrialStatus Trialtype IBI AbsPosition RelPosition Outlier
0 0 0 773 902 -14963 0
0 0 0 754 1656 -14209 0
0 0 0 716 2372 -13493 0
0 0 0 718 3090 -12775 0
0 0 0 726 3816 -12049 0
0 0 0 746 4562 -11303 0
0 0 0 775 5337 -10528 0
0 0 0 798 6135 -9730 0
0 0 0 759 6894 -8971 0
0 0 0 750 7644 -8221 0
0 0 0 761 8405 -7460 0
0 0 0 762 9167 -6698 0
0 0 0 734 9901 -5964 0
0 0 0 745 10646 -5219 0
0 0 0 736 11382 -4483 0
0 0 0 724 12106 -3759 0
0 0 0 713 12819 -3046 0
0 0 0 724 13543 -2322 0
1 1 S112 722 14265 -1600 0
1 1 S112 728 14993 -872 0
1 1 S112 756 15749 -116 0
1 2 S112 744 16493 628 0
1 2 S112 758 17251 1386 0
1 2 S112 791 18042 2177 0
1 2 S112 797 18839 2974 0
1 2 S112 819 19658 3793 0
1 2 S112 786 20444 4579 0
1 2 S112 781 21225 5360 0
1 2 S112 808 22033 6168 0
1 2 S112 828 22861 6996 0
0 0 0 846 23707 -11372 0
0 0 0 815 24522 -10557 0
0 0 0 796 25318 -9761 0
0 0 0 812 26130 -8949 0
0 0 0 824 26954 -8125 0
0 0 0 843 27797 -7282 0
0 0 0 821 28618 -6461 0
0 0 0 771 29389 -5690 0
0 0 0 796 30185 -4894 0
0 0 0 804 30989 -4090 0
0 0 0 838 31827 -3252 0
0 0 0 845 32672 -2407 0
2 1 S102 804 33476 -1603 0
2 1 S102 797 34273 -806 0
2 2 S102 817 35090 11 0
2 2 S102 836 35926 847 0
2 2 S102 851 36777 1698 0
2 2 S102 804 37581 2502 0
2 2 S102 790 38371 3292 0
2 2 S102 822 39193 4114 0
2 2 S102 855 40048 4969 0
2 2 S102 876 40924 5845 0
2 2 S102 846 41770 6691 0
0 0 0 830 42600 -9688 0
0 0 0 862 43462 -8826 0
0 0 0 891 44353 -7935 0
0 0 0 898 45251 -7037 0
0 0 0 840 46091 -6197 0
0 0 0 810 46901 -5387 0
0 0 0 821 47722 -4566 0
0 0 0 842 48564 -3724 0
0 0 0 860 49424 -2864 0
0 0 0 836 50260 -2028 0
3 1 S116 797 51057 -1231 0
3 1 S116 837 51894 -394 0
3 2 S116 857 52751 463 0
3 2 S116 894 53645 1357 0
3 2 S116 912 54557 2269 0
3 2 S116 851 55408 3120 0
3 2 S116 868 56276 3988 0
3 2 S116 898 57174 4886 0
3 2 S116 906 58080 5792 0
3 2 S116 870 58950 6662 0
0 0 0 799 59749 -11322 0
0 0 0 836 60585 -10486 0
0 0 0 837 61422 -9649 0
0 0 0 844 62266 -8805 0
0 0 0 814 63080 -7991 0
0 0 0 792 63872 -7199 0
0 0 0 811 64683 -6388 0
0 0 0 846 65529 -5542 0
0 0 0 866 66395 -4676 0
0 0 0 833 67228 -3843 0
0 0 0 832 68060 -3011 0
0 0 0 863 68923 -2148 0
4 1 S106 875 69798 -1273 0
4 1 S106 895 70693 -378 0
4 2 S106 875 71568 497 0
4 2 S106 832 72400 1329 0
4 2 S106 850 73250 2179 0
4 2 S106 872 74122 3051 0
4 2 S106 909 75031 3960 0
4 2 S106 881 75912 4841 0
4 2 S106 885 76797 5726 0
4 2 S106 915 77712 6641 0
0 0 0 933 78645 -7396 0
0 0 0 889 79534 -6507 0
0 0 0 852 80386 -5655 0
0 0 0 885 81271 -4770 0
0 0 0 885 82156 -3885 0
0 0 0 864 83020 -3021 0
0 0 0 827 83847 -2194 0
5 1 S116 865 84712 -1329 0
5 1 S116 890 85602 -439 0
5 2 S116 888 86490 449 0
5 2 S116 836 87326 1285 0
5 2 S116 816 88142 2101 0
5 2 S116 847 88989 2948 0
5 2 S116 864 89853 3812 0
5 2 S116 895 90748 4707 0
5 2 S116 863 91611 5570 0
5 2 S116 841 92452 6411 0
0 0 0 888 93340 -10059 0
0 0 0 903 94243 -9156 0
0 0 0 832 95075 -8324 0
0 0 0 858 95933 -7466 0
0 0 0 870 96803 -6596 0
0 0 0 886 97689 -5710 0
0 0 0 844 98533 -4866 0
0 0 0 829 99362 -4037 0
0 0 0 851 100213 -3186 0
0 0 0 866 101079 -2320 0
6 1 S106 858 101937 -1462 0
6 1 S106 817 102754 -645 0
6 2 S106 853 103607 208 0
6 2 S106 880 104487 1088 0
6 2 S106 913 105400 2001 0
6 2 S106 891 106291 2892 0
6 2 S106 853 107144 3745 0
6 2 S106 886 108030 4631 0
6 2 S106 897 108927 5528 0
6 2 S106 902 109829 6430 0
0 0 0 863 110692 -11026 0
0 0 0 845 111537 -10181 0
0 0 0 871 112408 -9310 0
0 0 0 902 113310 -8408 0
0 0 0 893 114203 -7515 0
0 0 0 847 115050 -6668 0
0 0 0 894 115944 -5774 0
0 0 0 930 116874 -4844 0
0 0 0 944 117818 -3900 0
0 0 0 889 118707 -3011 0
0 0 0 873 119580 -2138 0
7 1 S102 885 120465 -1253 0
7 1 S102 902 121367 -351 0
7 2 S102 898 122265 547 0
7 2 S102 847 123112 1394 0
7 2 S102 846 123958 2240 0
7 2 S102 862 124820 3102 0
7 2 S102 898 125718 4000 0
7 2 S102 901 126619 4901 0
7 2 S102 851 127470 5752 0
7 2 S102 847 128317 6599 0
0 0 0 860 129177 -8954 0
0 0 0 898 130075 -8056 0
0 0 0 877 130952 -7179 0
0 0 0 828 131780 -6351 0
0 0 0 851 132631 -5500 0
0 0 0 872 133503 -4628 0
0 0 0 893 134396 -3735 0
0 0 0 831 135227 -2904 0
0 0 0 844 136071 -2060 0
8 1 S112 855 136926 -1205 0
8 1 S112 874 137800 -331 0
8 2 S112 860 138660 529 0
8 2 S112 841 139501 1370 0
8 2 S112 886 140387 2256 0
8 2 S112 900 141287 3156 0
8 2 S112 915 142202 4071 0
8 2 S112 886 143088 4957 0
8 2 S112 865 143953 5822 0
8 2 S112 901 144854 6723 0
0 0 0 901 145755 -8292 0
0 0 0 875 146630 -7417 0
0 0 0 825 147455 -6592 0
0 0 0 847 148302 -5745 0
0 0 0 865 149167 -4880 0
0 0 0 884 150051 -3996 0
0 0 0 860 150911 -3136 0
0 0 0 828 151739 -2308 0
9 1 S116 858 152597 -1450 0
9 1 S116 895 153492 -555 0
9 2 S116 907 154399 352 0
9 2 S116 867 155266 1219 0
9 2 S116 867 156133 2086 0
9 2 S116 883 157016 2969 0
9 2 S116 896 157912 3865 0
9 2 S116 899 158811 4764 0
9 2 S116 828 159639 5592 0
9 2 S116 813 160452 6405 0
0 0 0 835 161287 -12239 0
0 0 0 870 162157 -11369 0
0 0 0 884 163041 -10485 0
0 0 0 880 163921 -9605 0
0 0 0 861 164782 -8744 0
0 0 0 895 165677 -7849 0
0 0 0 911 166588 -6938 0
0 0 0 870 167458 -6068 0
0 0 0 820 168278 -5248 0
0 0 0 830 169108 -4418 0
0 0 0 838 169946 -3580 0
0 0 0 842 170788 -2738 0
10 1 S102 806 171594 -1932 0
10 1 S102 855 172449 -1077 0
10 1 S102 887 173336 -190 0
10 2 S102 932 174268 742 0
10 2 S102 887 175155 1629 0
10 2 S102 858 176013 2487 0
10 2 S102 892 176905 3379 0
10 2 S102 903 177808 4282 0
10 2 S102 885 178693 5167 0
10 2 S102 830 179523 5997 0
10 2 S102 857 180380 6854 0
0 0 0 863 181243 -11498 0
0 0 0 864 182107 -10634 0
0 0 0 818 182925 -9816 0
0 0 0 843 183768 -8973 0
0 0 0 845 184613 -8128 0
0 0 0 858 185471 -7270 0
0 0 0 812 186283 -6458 0
0 0 0 835 187118 -5623 0
0 0 0 847 187965 -4776 0
0 0 0 870 188835 -3906 0
0 0 0 869 189704 -3037 0
0 0 0 834 190538 -2203 0
11 1 S112 878 191416 -1325 0
11 1 S112 897 192313 -428 0
11 2 S112 908 193221 480 0
11 2 S112 863 194084 1343 0
11 2 S112 843 194927 2186 0
11 2 S112 858 195785 3044 0
11 2 S112 866 196651 3910 0
11 2 S112 852 197503 4762 0
11 2 S112 809 198312 5571 0
11 2 S112 841 199153 6412 0
0 0 0 850 200003 -8521 0
0 0 0 877 200880 -7644 0
0 0 0 844 201724 -6800 0
0 0 0 867 202591 -5933 0
0 0 0 909 203500 -5024 0
0 0 0 910 204410 -4114 0
0 0 0 845 205255 -3269 0
0 0 0 851 206106 -2418 0
12 1 S116 859 206965 -1559 0
12 1 S116 858 207823 -701 0
12 2 S116 814 208637 113 0
12 2 S116 824 209461 937 0
12 2 S116 851 210312 1788 0
12 2 S116 886 211198 2674 0
12 2 S116 855 212053 3529 0
12 2 S116 890 212943 4419 0
12 2 S116 936 213879 5355 0
12 2 S116 945 214824 6300 0
0 0 0 873 215697 -12505 0
0 0 0 853 216550 -11652 0
0 0 0 869 217419 -10783 0
0 0 0 860 218279 -9923 0
0 0 0 808 219087 -9115 0
0 0 0 813 219900 -8302 0
0 0 0 809 220709 -7493 0
0 0 0 822 221531 -6671 0
0 0 0 821 222352 -5850 0
0 0 0 814 223166 -5036 0
0 0 0 852 224018 -4184 0
0 0 0 866 224884 -3318 0
0 0 0 847 225731 -2471 0
13 1 S112 813 226544 -1658 0
13 1 S112 851 227395 -807 0
13 2 S112 874 228269 67 0
13 2 S112 888 229157 955 0
13 2 S112 861 230018 1816 0
13 2 S112 900 230918 2716 0
13 2 S112 906 231824 3622 0
13 2 S112 881 232705 4503 0
13 2 S112 837 233542 5340 0
13 2 S112 864 234406 6204 0
0 0 0 875 235281 -12666 0
0 0 0 890 236171 -11776 0
0 0 0 834 237005 -10942 0
0 0 0 848 237853 -10094 0
0 0 0 848 238701 -9246 0
0 0 0 869 239570 -8377 0
0 0 0 878 240448 -7499 0
0 0 0 832 241280 -6667 0
0 0 0 873 242153 -5794 0
0 0 0 882 243035 -4912 0
0 0 0 890 243925 -4022 0
0 0 0 849 244774 -3173 0
0 0 0 830 245604 -2343 0
14 1 S106 849 246453 -1494 0
14 1 S106 860 247313 -634 0
14 2 S106 860 248173 226 0
14 2 S106 826 248999 1052 0
14 2 S106 834 249833 1886 0
14 2 S106 858 250691 2744 0
14 2 S106 867 251558 3611 0
14 2 S106 878 252436 4489 0
14 2 S106 841 253277 5330 0
14 2 S106 848 254125 6178 0
0 0 0 885 255010 -12732 0
0 0 0 907 255917 -11825 0
0 0 0 883 256800 -10942 0
0 0 0 855 257655 -10087 0
0 0 0 910 258565 -9177 0
0 0 0 933 259498 -8244 0
0 0 0 884 260382 -7360 0
0 0 0 830 261212 -6530 0
0 0 0 859 262071 -5671 0
0 0 0 897 262968 -4774 0
0 0 0 912 263880 -3862 0
0 0 0 856 264736 -3006 0
0 0 0 859 265595 -2147 0
15 1 S116 882 266477 -1265 0
15 1 S116 905 267382 -360 0
15 2 S116 878 268260 518 0
15 2 S116 831 269091 1349 0
15 2 S116 866 269957 2215 0
15 2 S116 889 270846 3104 0
15 2 S116 913 271759 4017 0
15 2 S116 868 272627 4885 0
15 2 S116 862 273489 5747 0
15 2 S116 885 274374 6632 0
0 0 0 925 275299 -10083 0
0 0 0 887 276186 -9196 0
0 0 0 839 277025 -8357 0
0 0 0 867 277892 -7490 0
0 0 0 870 278762 -6620 0
0 0 0 861 279623 -5759 0
0 0 0 803 280426 -4956 0
0 0 0 816 281242 -4140 0
0 0 0 831 282073 -3309 0
0 0 0 869 282942 -2440 0
16 1 S116 847 283789 -1593 0
16 1 S116 819 284608 -774 0
16 2 S116 884 285492 110 0
16 2 S116 941 286433 1051 0
16 2 S116 971 287404 2022 0
16 2 S116 893 288297 2915 0
16 2 S116 840 289137 3755 0
16 2 S116 852 289989 4607 0
16 2 S116 860 290849 5467 0
16 2 S116 853 291702 6320 0
0 0 0 796 292498 -9578 0
0 0 0 820 293318 -8758 0
0 0 0 818 294136 -7940 0
0 0 0 827 294963 -7113 0
0 0 0 786 295749 -6327 0
0 0 0 823 296572 -5504 0
0 0 0 845 297417 -4659 0
0 0 0 882 298299 -3777 0
0 0 0 887 299186 -2890 0
0 0 0 839 300025 -2051 0
17 1 S106 893 300918 -1158 0
17 1 S106 914 301832 -244 0
17 2 S106 897 302729 653 0
17 2 S106 868 303597 1521 0
17 2 S106 901 304498 2422 0
17 2 S106 897 305395 3319 0
17 2 S106 864 306259 4183 0
17 2 S106 819 307078 5002 0
17 2 S106 843 307921 5845 0
17 2 S106 857 308778 6702 0
0 0 0 868 309646 -11247 0
0 0 0 839 310485 -10408 0
0 0 0 880 311365 -9528 0
0 0 0 893 312258 -8635 0
0 0 0 931 313189 -7704 0
0 0 0 910 314099 -6794 0
0 0 0 897 314996 -5897 0
0 0 0 920 315916 -4977 0
0 0 0 931 316847 -4046 0
0 0 0 880 317727 -3166 0
0 0 0 861 318588 -2305 0
18 1 S102 874 319462 -1431 0
18 1 S102 897 320359 -534 0
18 2 S102 910 321269 376 0
18 2 S102 891 322160 1267 0
18 2 S102 842 323002 2109 0
18 2 S102 873 323875 2982 0
18 2 S102 900 324775 3882 0
18 2 S102 924 325699 4806 0
18 2 S102 930 326629 5736 0
18 2 S102 856 327485 6592 0
0 0 0 863 328348 -7764 0
0 0 0 887 329235 -6877 0
0 0 0 897 330132 -5980 0
0 0 0 879 331011 -5101 0
0 0 0 812 331823 -4289 0
0 0 0 825 332648 -3464 0
0 0 0 808 333456 -2656 0
19 1 S106 780 334236 -1876 0
19 1 S106 762 334998 -1114 0
19 1 S106 754 335752 -360 0
19 2 S106 767 336519 407 0
19 2 S106 782 337301 1189 0
19 2 S106 768 338069 1957 0
19 2 S106 812 338881 2769 0
19 2 S106 839 339720 3608 0
19 2 S106 860 340580 4468 0
19 2 S106 852 341432 5320 0
19 2 S106 801 342233 6121 0
19 2 S106 807 343040 6928 0
0 0 0 824 343864 -12125 0
0 0 0 835 344699 -11290 0
0 0 0 838 345537 -10452 0
0 0 0 797 346334 -9655 0
0 0 0 825 347159 -8830 0
0 0 0 853 348012 -7977 0
0 0 0 886 348898 -7091 0
0 0 0 861 349759 -6230 0
0 0 0 828 350587 -5402 0
0 0 0 855 351442 -4547 0
0 0 0 883 352325 -3664 0
0 0 0 880 353205 -2784 0
20 1 S112 814 354019 -1970 0
20 1 S112 854 354873 -1116 0
20 1 S112 873 355746 -243 0
20 2 S112 884 356630 641 0
20 2 S112 860 357490 1501 0
20 2 S112 865 358355 2366 0
20 2 S112 904 359259 3270 0
20 2 S112 929 360188 4199 0
20 2 S112 858 361046 5057 0
20 2 S112 860 361906 5917 0
20 2 S112 881 362787 6798 0
0 0 0 894 363681 -9169 0
0 0 0 869 364550 -8300 0
0 0 0 830 365380 -7470 0
0 0 0 869 366249 -6601 0
0 0 0 894 367143 -5707 0
0 0 0 900 368043 -4807 0
0 0 0 833 368876 -3974 0
0 0 0 854 369730 -3120 0
0 0 0 879 370609 -2241 0
21 1 S106 905 371514 -1336 0
21 1 S106 892 372406 -444 0
21 2 S106 844 373250 400 0
21 2 S106 875 374125 1275 0
21 2 S106 882 375007 2157 0
21 2 S106 902 375909 3059 0
21 2 S106 868 376777 3927 0
21 2 S106 838 377615 4765 0
21 2 S106 889 378504 5654 0
21 2 S106 906 379410 6560 0
0 0 0 905 380315 -12081 0
0 0 0 848 381163 -11233 0
0 0 0 811 381974 -10422 0
0 0 0 855 382829 -9567 0
0 0 0 879 383708 -8688 0
0 0 0 912 384620 -7776 0
0 0 0 897 385517 -6879 0
0 0 0 867 386384 -6012 0
0 0 0 913 387297 -5099 0
0 0 0 914 388211 -4185 0
0 0 0 902 389113 -3283 0
0 0 0 846 389959 -2437 0
22 1 S116 865 390824 -1572 0
22 1 S116 878 391702 -694 0
22 2 S116 908 392610 214 0
22 2 S116 909 393519 1123 0
22 2 S116 861 394380 1984 0
22 2 S116 913 395293 2897 0
22 2 S116 903 396196 3800 0
22 2 S116 894 397090 4694 0
22 2 S116 827 397917 5521 0
22 2 S116 806 398723 6327 0
0 0 0 811 399534 -10120 0
0 0 0 829 400363 -9291 0
0 0 0 792 401155 -8499 0
0 0 0 795 401950 -7704 0
0 0 0 829 402779 -6875 0
0 0 0 854 403633 -6021 0
0 0 0 849 404482 -5172 0
0 0 0 808 405290 -4364 0
0 0 0 875 406165 -3489 0
0 0 0 882 407047 -2607 0
23 1 S112 864 407911 -1743 0
23 1 S112 816 408727 -927 0
23 1 S112 850 409577 -77 0
23 2 S112 859 410436 782 0
23 2 S112 878 411314 1660 0
23 2 S112 831 412145 2491 0
23 2 S112 810 412955 3301 0
23 2 S112 826 413781 4127 0
23 2 S112 840 414621 4967 0
23 2 S112 860 415481 5827 0
23 2 S112 838 416319 6665 0
0 0 0 845 417164 -10677 0
0 0 0 888 418052 -9789 0
0 0 0 920 418972 -8869 0
0 0 0 882 419854 -7987 0
0 0 0 841 420695 -7146 0
0 0 0 879 421574 -6267 0
0 0 0 878 422452 -5389 0
0 0 0 839 423291 -4550 0
0 0 0 800 424091 -3750 0
0 0 0 822 424913 -2928 0
0 0 0 840 425753 -2088 0
24 1 S106 865 426618 -1223 0
24 1 S106 840 427458 -383 0
24 2 S106 821 428279 438 0
24 2 S106 868 429147 1306 0
24 2 S106 898 430045 2204 0
24 2 S106 915 430960 3119 0
24 2 S106 870 431830 3989 0
24 2 S106 875 432705 4864 0
24 2 S106 903 433608 5767 0
24 2 S106 918 434526 6685 0
0 0 0 866 435392 -9840 0
0 0 0 863 436255 -8977 0
0 0 0 885 437140 -8092 0
0 0 0 924 438064 -7168 0
0 0 0 898 438962 -6270 0
0 0 0 839 439801 -5431 0
0 0 0 877 440678 -4554 0
0 0 0 893 441571 -3661 0
0 0 0 890 442461 -2771 0
25 1 S102 847 443308 -1924 0
25 1 S102 897 444205 -1027 0
25 1 S102 900 445105 -127 0
25 2 S102 924 446029 797 0
25 2 S102 859 446888 1656 0
25 2 S102 863 447751 2519 0
25 2 S102 878 448629 3397 0
25 2 S102 895 449524 4292 0
25 2 S102 886 450410 5178 0
25 2 S102 829 451239 6007 0
25 2 S102 828 452067 6835 0
0 0 0 842 452909 -7890 0
0 0 0 863 453772 -7027 0
0 0 0 905 454677 -6122 0
0 0 0 852 455529 -5270 0
0 0 0 909 456438 -4361 0
0 0 0 913 457351 -3448 0
0 0 0 862 458213 -2586 0
26 1 S116 815 459028 -1771 0
26 1 S116 848 459876 -923 0
26 1 S116 847 460723 -76 0
26 2 S116 844 461567 768 0
26 2 S116 815 462382 1583 0
26 2 S116 847 463229 2430 0
26 2 S116 868 464097 3298 0
26 2 S116 882 464979 4180 0
26 2 S116 846 465825 5026 0
26 2 S116 834 466659 5860 0
26 2 S116 876 467535 6736 0
0 0 0 885 468420 -8112 0
0 0 0 876 469296 -7236 0
0 0 0 834 470130 -6402 0
0 0 0 862 470992 -5540 0
0 0 0 876 471868 -4664 0
0 0 0 844 472712 -3820 0
0 0 0 790 473502 -3030 0
0 0 0 829 474331 -2201 0
27 1 S106 843 475174 -1358 0
27 1 S106 874 476048 -484 0
27 2 S106 842 476890 358 0
27 2 S106 853 477743 1211 0
27 2 S106 895 478638 2106 0
27 2 S106 921 479559 3027 0
27 2 S106 917 480476 3944 0
27 2 S106 858 481334 4802 0
27 2 S106 911 482245 5713 0
27 2 S106 930 483175 6643 0
0 0 0 926 484101 -7401 0
0 0 0 871 484972 -6530 0
0 0 0 899 485871 -5631 0
0 0 0 905 486776 -4726 0
0 0 0 875 487651 -3851 0
0 0 0 812 488463 -3039 0
0 0 0 845 489308 -2194 0
28 1 S102 871 490179 -1323 0
28 1 S102 895 491074 -428 0
28 2 S102 904 491978 476 0
28 2 S102 854 492832 1330 0
28 2 S102 891 493723 2221 0
28 2 S102 913 494636 3134 0
28 2 S102 920 495556 4054 0
28 2 S102 849 496405 4903 0
28 2 S102 826 497231 5729 0
28 2 S102 842 498073 6571 0
0 0 0 853 498926 -12039 0
0 0 0 865 499791 -11174 0
0 0 0 817 500608 -10357 0
0 0 0 844 501452 -9513 0
0 0 0 864 502316 -8649 0
0 0 0 861 503177 -7788 0
0 0 0 837 504014 -6951 0
0 0 0 827 504841 -6124 0
0 0 0 868 505709 -5256 0
0 0 0 888 506597 -4368 0
0 0 0 875 507472 -3493 0
0 0 0 815 508287 -2678 0
29 1 S112 817 509104 -1861 0
29 1 S112 826 509930 -1035 0
29 1 S112 833 510763 -202 0
29 2 S112 820 511583 618 0
29 2 S112 787 512370 1405 0
29 2 S112 811 513181 2216 0
29 2 S112 809 513990 3025 0
29 2 S112 819 514809 3844 0
29 2 S112 791 515600 4635 0
29 2 S112 758 516358 5393 0
29 2 S112 785 517143 6178 0
29 2 S112 781 517924 6959 0
0 0 0 786 518710 -8850 0
0 0 0 761 519471 -8089 0
0 0 0 751 520222 -7338 0
0 0 0 784 521006 -6554 0
0 0 0 808 521814 -5746 0
0 0 0 851 522665 -4895 0
0 0 0 861 523526 -4034 0
0 0 0 829 524355 -3205 0
0 0 0 878 525233 -2327 0
30 1 S112 889 526122 -1438 0
30 1 S112 857 526979 -581 0
30 2 S112 825 527804 244 0
30 2 S112 842 528646 1086 0
30 2 S112 840 529486 1926 0
30 2 S112 820 530306 2746 0
30 2 S112 763 531069 3509 0
30 2 S112 771 531840 4280 0
30 2 S112 791 532631 5071 0
30 2 S112 805 533436 5876 0
30 2 S112 853 534289 6729 0
0 0 0 836 535125 -10175 0
0 0 0 848 535973 -9327 0
0 0 0 888 536861 -8439 0
0 0 0 908 537769 -7531 0
0 0 0 898 538667 -6633 0
0 0 0 823 539490 -5810 0
0 0 0 844 540334 -4966 0
0 0 0 850 541184 -4116 0
0 0 0 837 542021 -3279 0
0 0 0 790 542811 -2489 0
31 1 S106 793 543604 -1696 0
31 1 S106 804 544408 -892 0
31 1 S106 815 545223 -77 0
31 2 S106 820 546043 743 0
31 2 S106 786 546829 1529 0
31 2 S106 829 547658 2358 0
31 2 S106 834 548492 3192 0
31 2 S106 829 549321 4021 0
31 2 S106 790 550111 4811 0
31 2 S106 823 550934 5634 0
31 2 S106 826 551760 6460 0
0 0 0 855 552615 -9379 0
0 0 0 833 553448 -8546 0
0 0 0 809 554257 -7737 0
0 0 0 836 555093 -6901 0
0 0 0 865 555958 -6036 0
0 0 0 862 556820 -5174 0
0 0 0 846 557666 -4328 0
0 0 0 906 558572 -3422 0
0 0 0 937 559509 -2485 0
32 1 S102 882 560391 -1603 0
32 1 S102 869 561260 -734 0
32 2 S102 911 562171 177 0
32 2 S102 924 563095 1101 0
32 2 S102 879 563974 1980 0
32 2 S102 829 564803 2809 0
32 2 S102 863 565666 3672 0
32 2 S102 871 566537 4543 0
32 2 S102 900 567437 5443 0
32 2 S102 853 568290 6296 0
0 0 0 848 569138 -11971 0
0 0 0 901 570039 -11070 0
0 0 0 937 570976 -10133 0
0 0 0 910 571886 -9223 0
0 0 0 845 572731 -8378 0
0 0 0 865 573596 -7513 0
0 0 0 858 574454 -6655 0
0 0 0 848 575302 -5807 0
0 0 0 794 576096 -5013 0
0 0 0 825 576921 -4188 0
0 0 0 820 577741 -3368 0
0 0 0 845 578586 -2523 0
33 1 S112 846 579432 -1677 0
33 1 S112 827 580259 -850 0
33 2 S112 881 581140 31 0
33 2 S112 941 582081 972 0
33 2 S112 960 583041 1932 0
33 2 S112 957 583998 2889 0
33 2 S112 860 584858 3749 0
33 2 S112 893 585751 4642 0
33 2 S112 907 586658 5549 0
33 2 S112 838 587496 6387 0
0 0 0 782 588278 -12079 0
0 0 0 802 589080 -11277 0
0 0 0 810 589890 -10467 0
0 0 0 829 590719 -9638 0
0 0 0 834 591553 -8804 0
0 0 0 801 592354 -8003 0
0 0 0 843 593197 -7160 0
0 0 0 871 594068 -6289 0
0 0 0 893 594961 -5396 0
0 0 0 860 595821 -4536 0
0 0 0 914 596735 -3622 0
0 0 0 906 597641 -2716 0
34 1 S106 878 598519 -1838 0
34 1 S106 826 599345 -1012 0
34 1 S106 857 600202 -155 0
34 2 S106 861 601063 706 0
34 2 S106 876 601939 1582 0
34 2 S106 842 602781 2424 0
34 2 S106 827 603608 3251 0
34 2 S106 870 604478 4121 0
34 2 S106 907 605385 5028 0
34 2 S106 928 606313 5956 0
34 2 S106 859 607172 6815 0
0 0 0 883 608055 -9676 0
0 0 0 900 608955 -8776 0
0 0 0 906 609861 -7870 0
0 0 0 854 610715 -7016 0
0 0 0 859 611574 -6157 0
0 0 0 858 612432 -5299 0
0 0 0 877 613309 -4422 0
0 0 0 870 614179 -3552 0
0 0 0 864 615043 -2688 0
35 1 S102 884 615927 -1804 0
35 1 S102 917 616844 -887 0
35 2 S102 909 617753 22 0
35 2 S102 866 618619 888 0
35 2 S102 874 619493 1762 0
35 2 S102 875 620368 2637 0
35 2 S102 885 621253 3522 0
35 2 S102 840 622093 4362 0
35 2 S102 833 622926 5195 0
35 2 S102 856 623782 6051 0
35 2 S102 888 624670 6939 0
0 0 0 856 625526 -7109 0
0 0 0 831 626357 -6278 0
0 0 0 883 627240 -5395 0
0 0 0 884 628124 -4511 0
0 0 0 862 628986 -3649 0
0 0 0 818 629804 -2831 0
36 1 S106 852 630656 -1979 0
36 1 S106 873 631529 -1106 0
36 1 S106 881 632410 -225 0
36 2 S106 839 633249 614 0
36 2 S106 842 634091 1456 0
36 2 S106 879 634970 2335 0
36 2 S106 906 635876 3241 0
36 2 S106 914 636790 4155 0
36 2 S106 854 637644 5009 0
36 2 S106 909 638553 5918 0
36 2 S106 928 639481 6846 0
0 0 0 929 640410 -10611 0
0 0 0 865 641275 -9746 0
0 0 0 871 642146 -8875 0
0 0 0 881 643027 -7994 0
0 0 0 894 643921 -7100 0
0 0 0 836 644757 -6264 0
0 0 0 842 645599 -5422 0
0 0 0 848 646447 -4574 0
0 0 0 874 647321 -3700 0
0 0 0 852 648173 -2848 0
0 0 0 843 649016 -2005 0
37 1 S116 902 649918 -1103 0
37 1 S116 941 650859 -162 0
37 2 S116 930 651789 768 0
37 2 S116 860 652649 1628 0
37 2 S116 893 653542 2521 0
37 2 S116 900 654442 3421 0
37 2 S116 889 655331 4310 0
37 2 S116 829 656160 5139 0
37 2 S116 838 656998 5977 0
37 2 S116 850 657848 6827 0
0 0 0 874 658722 -11115 0
0 0 0 849 659571 -10266 0
0 0 0 812 660383 -9454 0
0 0 0 853 661236 -8601 0
0 0 0 858 662094 -7743 0
0 0 0 843 662937 -6900 0
0 0 0 839 663776 -6061 0
0 0 0 895 664671 -5166 0
0 0 0 905 665576 -4261 0
0 0 0 850 666426 -3411 0
0 0 0 846 667272 -2565 0
38 1 S102 854 668126 -1711 0
38 1 S102 849 668975 -862 0
38 1 S102 842 669817 -20 0
38 2 S102 789 670606 769 0
38 2 S102 811 671417 1580 0
38 2 S102 807 672224 2387 0
38 2 S102 820 673044 3207 0
38 2 S102 823 673867 4030 0
38 2 S102 779 674646 4809 0
38 2 S102 816 675462 5625 0
38 2 S102 834 676296 6459 0
0 0 0 865 677161 -9470 0
0 0 0 866 678027 -8604 0
0 0 0 822 678849 -7782 0
0 0 0 875 679724 -6907 0
0 0 0 892 680616 -6015 0
0 0 0 901 681517 -5114 0
0 0 0 852 682369 -4262 0
0 0 0 893 683262 -3369 0
0 0 0 916 684178 -2453 0
39 1 S116 926 685104 -1527 0
39 1 S116 880 685984 -647 0
39 2 S116 830 686814 183 0
39 2 S116 855 687669 1038 0
39 2 S116 867 688536 1905 0
39 2 S116 894 689430 2799 0
39 2 S116 863 690293 3662 0
39 2 S116 808 691101 4470 0
39 2 S116 842 691943 5312 0
39 2 S116 860 692803 6172 0
0 0 0 884 693687 -8760 0
0 0 0 867 694554 -7893 0
0 0 0 812 695366 -7081 0
0 0 0 853 696219 -6228 0
0 0 0 858 697077 -5370 0
0 0 0 869 697946 -4501 0
0 0 0 822 698768 -3679 0
0 0 0 803 699571 -2876 0
0 0 0 833 700404 -2043 0
40 1 S112 849 701253 -1194 0
40 1 S112 861 702114 -333 0
40 2 S112 822 702936 489 0
40 2 S112 838 703774 1327 0
40 2 S112 855 704629 2182 0
40 2 S112 860 705489 3042 0
40 2 S112 835 706324 3877 0
40 2 S112 822 707146 4699 0
40 2 S112 866 708012 5565 0
40 2 S112 875 708887 6440 0
0 0 0 856 709743 -188612 0
0 0 0 792 710535 -187820 0
0 0 0 824 711359 -186996 0
0 0 0 820 712179 -186176 0
0 0 0 827 713006 -185349 0
0 0 0 816 713822 -184533 0
0 0 0 780 714602 -183753 0
0 0 0 772 715374 -182981 0
0 0 0 731 716105 -182250 0
0 0 0 769 716874 -181481 0
0 0 0 829 717703 -180652 0
0 0 0 825 718528 -179827 0
0 0 0 844 719372 -178983 0
0 0 0 835 720207 -178148 0
0 0 0 818 721025 -177330 0
0 0 0 790 721815 -176540 0
0 0 0 759 722574 -175781 0
0 0 0 740 723314 -175041 0
0 0 0 711 724025 -174330 0
0 0 0 695 724720 -173635 1
0 0 0 680 725400 -172955 1
0 0 0 670 726070 -172285 1
0 0 0 662 726732 -171623 1
0 0 0 652 727384 -170971 1
0 0 0 647 728031 -170324 1
0 0 0 645 728676 -169679 1
0 0 0 646 729322 -169033 1
0 0 0 644 729966 -168389 1
0 0 0 644 730610 -167745 1
0 0 0 655 731265 -167090 1
0 0 0 693 731958 -166397 1
0 0 0 743 732701 -165654 0
0 0 0 810 733511 -164844 0
0 0 0 881 734392 -163963 0
0 0 0 910 735302 -163053 0
0 0 0 914 736216 -162139 0
0 0 0 902 737118 -161237 0
0 0 0 890 738008 -160347 0
0 0 0 838 738846 -159509 0
0 0 0 789 739635 -158720 0
0 0 0 797 740432 -157923 0
0 0 0 806 741238 -157117 0
0 0 0 828 742066 -156289 0
0 0 0 868 742934 -155421 0
0 0 0 877 743811 -154544 0
0 0 0 824 744635 -153720 0
0 0 0 790 745425 -152930 0
0 0 0 819 746244 -152111 0
0 0 0 837 747081 -151274 0
0 0 0 840 747921 -150434 0
0 0 0 790 748711 -149644 0
0 0 0 782 749493 -148862 0
0 0 0 779 750272 -148083 0
0 0 0 796 751068 -147287 0
0 0 0 834 751902 -146453 0
0 0 0 811 752713 -145642 0
0 0 0 816 753529 -144826 0
0 0 0 851 754380 -143975 0
0 0 0 871 755251 -143104 0
0 0 0 871 756122 -142233 0
0 0 0 812 756934 -141421 0
0 0 0 814 757748 -140607 0
0 0 0 795 758543 -139812 0
0 0 0 793 759336 -139019 0
0 0 0 778 760114 -138241 0
0 0 0 759 760873 -137482 0
0 0 0 717 761590 -136765 0
0 0 0 728 762318 -136037 0
0 0 0 728 763046 -135309 0
0 0 0 726 763772 -134583 0
0 0 0 732 764504 -133851 0
0 0 0 749 765253 -133102 0
0 0 0 756 766009 -132346 0
0 0 0 739 766748 -131607 0
0 0 0 737 767485 -130870 0
0 0 0 719 768204 -130151 0
0 0 0 715 768919 -129436 0
0 0 0 698 769617 -128738 1
0 0 0 696 770313 -128042 1
0 0 0 689 771002 -127353 1
0 0 0 687 771689 -126666 1
0 0 0 687 772376 -125979 1
0 0 0 693 773069 -125286 1
0 0 0 693 773762 -124593 1
0 0 0 707 774469 -123886 1
0 0 0 714 775183 -123172 0
0 0 0 723 775906 -122449 0
0 0 0 728 776634 -121721 0
0 0 0 772 777406 -120949 0
0 0 0 795 778201 -120154 0
0 0 0 838 779039 -119316 0
0 0 0 869 779908 -118447 0
0 0 0 808 780716 -117639 0
0 0 0 826 781542 -116813 0
0 0 0 836 782378 -115977 0
0 0 0 852 783230 -115125 0
0 0 0 849 784079 -114276 0
0 0 0 853 784932 -113423 0
0 0 0 800 785732 -112623 0
0 0 0 755 786487 -111868 0
0 0 0 761 787248 -111107 0
0 0 0 743 787991 -110364 0
0 0 0 759 788750 -109605 0
0 0 0 772 789522 -108833 0
0 0 0 758 790280 -108075 0
0 0 0 733 791013 -107342 0
0 0 0 777 791790 -106565 0
0 0 0 898 792688 -105667 0
0 0 0 820 793508 -104847 0
0 0 0 799 794307 -104048 0
0 0 0 791 795098 -103257 0
0 0 0 795 795893 -102462 0
0 0 0 800 796693 -101662 0
0 0 0 817 797510 -100845 0
0 0 0 820 798330 -100025 0
0 0 0 776 799106 -99249 0
0 0 0 777 799883 -98472 0
0 0 0 750 800633 -97722 0
0 0 0 732 801365 -96990 0
0 0 0 722 802087 -96268 0
0 0 0 700 802787 -95568 1
0 0 0 689 803476 -94879 1
0 0 0 703 804179 -94176 1
0 0 0 719 804898 -93457 0
0 0 0 748 805646 -92709 0
0 0 0 777 806423 -91932 0
0 0 0 809 807232 -91123 0
0 0 0 828 808060 -90295 0
0 0 0 820 808880 -89475 0
0 0 0 893 809773 -88582 0
0 0 0 930 810703 -87652 0
0 0 0 947 811650 -86705 0
0 0 0 871 812521 -85834 0
0 0 0 805 813326 -85029 0
0 0 0 803 814129 -84226 0
0 0 0 768 814897 -83458 0
0 0 0 763 815660 -82695 0
0 0 0 754 816414 -81941 0
0 0 0 736 817150 -81205 0
0 0 0 712 817862 -80493 0
0 0 0 716 818578 -79777 0
0 0 0 719 819297 -79058 0
0 0 0 740 820037 -78318 0
0 0 0 762 820799 -77556 0
0 0 0 770 821569 -76786 0
0 0 0 767 822336 -76019 0
0 0 0 760 823096 -75259 0
0 0 0 767 823863 -74492 0
0 0 0 756 824619 -73736 0
0 0 0 748 825367 -72988 0
0 0 0 744 826111 -72244 0
0 0 0 747 826858 -71497 0
0 0 0 724 827582 -70773 0
0 0 0 730 828312 -70043 0
0 0 0 740 829052 -69303 0
0 0 0 750 829802 -68553 0
0 0 0 774 830576 -67779 0
0 0 0 790 831366 -66989 0
0 0 0 764 832130 -66225 0
0 0 0 732 832862 -65493 0
0 0 0 728 833590 -64765 0
0 0 0 741 834331 -64024 0
0 0 0 743 835074 -63281 0
0 0 0 774 835848 -62507 0
0 0 0 751 836599 -61756 0
0 0 0 723 837322 -61033 0
0 0 0 720 838042 -60313 0
0 0 0 707 838749 -59606 1
0 0 0 696 839445 -58910 1
0 0 0 684 840129 -58226 1
0 0 0 683 840812 -57543 1
0 0 0 685 841497 -56858 1
0 0 0 714 842211 -56144 0
0 0 0 801 843012 -55343 0
0 0 0 835 843847 -54508 0
0 0 0 837 844684 -53671 0
0 0 0 840 845524 -52831 0
0 0 0 830 846354 -52001 0
0 0 0 821 847175 -51180 0
0 0 0 822 847997 -50358 0
0 0 0 805 848802 -49553 0
0 0 0 788 849590 -48765 0
0 0 0 758 850348 -48007 0
0 0 0 776 851124 -47231 0
0 0 0 793 851917 -46438 0
0 0 0 818 852735 -45620 0
0 0 0 835 853570 -44785 0
0 0 0 850 854420 -43935 0
0 0 0 887 855307 -43048 0
0 0 0 915 856222 -42133 0
0 0 0 943 857165 -41190 0
0 0 0 874 858039 -40316 0
0 0 0 890 858929 -39426 0
0 0 0 885 859814 -38541 0
0 0 0 891 860705 -37650 0
0 0 0 870 861575 -36780 0
0 0 0 832 862407 -35948 0
0 0 0 861 863268 -35087 0
0 0 0 896 864164 -34191 0
0 0 0 954 865118 -33237 0
0 0 0 942 866060 -32295 0
0 0 0 877 866937 -31418 0
0 0 0 897 867834 -30521 0
0 0 0 906 868740 -29615 0
0 0 0 913 869653 -28702 0
0 0 0 852 870505 -27850 0
0 0 0 825 871330 -27025 0
0 0 0 851 872181 -26174 0
0 0 0 852 873033 -25322 0
0 0 0 804 873837 -24518 0
0 0 0 832 874669 -23686 0
0 0 0 856 875525 -22830 0
0 0 0 889 876414 -21941 0
0 0 0 885 877299 -21056 0
0 0 0 836 878135 -20220 0
0 0 0 877 879012 -19343 0
0 0 0 888 879900 -18455 0
0 0 0 893 880793 -17562 0
0 0 0 840 881633 -16722 0
0 0 0 785 882418 -15937 0
0 0 0 790 883208 -15147 0
0 0 0 777 883985 -14370 0
0 0 0 774 884759 -13596 0
0 0 0 811 885570 -12785 0
0 0 0 818 886388 -11967 0
0 0 0 780 887168 -11187 0
0 0 0 801 887969 -10386 0
0 0 0 811 888780 -9575 0
0 0 0 830 889610 -8745 0
0 0 0 798 890408 -7947 0
0 0 0 779 891187 -7168 0
0 0 0 766 891953 -6402 0
0 0 0 741 892694 -5661 0
0 0 0 727 893421 -4934 0
0 0 0 715 894136 -4219 0
0 0 0 720 894856 -3499 0
0 0 0 719 895575 -2780 0
0 0 0 712 896287 -2068 0
41 1 S102 722 897009 -1346 0
41 1 S102 741 897750 -605 0
41 2 S102 735 898485 130 0
41 2 S102 771 899256 901 0
41 2 S102 806 900062 1707 0
41 2 S102 825 900887 2532 0
41 2 S102 810 901697 3342 0
41 2 S102 804 902501 4146 0
41 2 S102 819 903320 4965 0
41 2 S102 828 904148 5793 0
41 2 S102 823 904971 6616 0
0 0 0 816 905787 -7589 0
0 0 0 797 906584 -6792 0
0 0 0 858 907442 -5934 0
0 0 0 873 908315 -5061 0
0 0 0 901 909216 -4160 0
0 0 0 830 910046 -3330 0
0 0 0 809 910855 -2521 0
42 1 S112 821 911676 -1700 0
42 1 S112 806 912482 -894 0
42 1 S112 811 913293 -83 0
42 2 S112 876 914169 793 0
42 2 S112 899 915068 1692 0
42 2 S112 881 915949 2573 0
42 2 S112 817 916766 3390 0
42 2 S112 849 917615 4239 0
42 2 S112 849 918464 5088 0
42 2 S112 873 919337 5961 0
42 2 S112 866 920203 6827 0
0 0 0 816 921019 -10328 0
0 0 0 857 921876 -9471 0
0 0 0 875 922751 -8596 0
0 0 0 900 923651 -7696 0
0 0 0 859 924510 -6837 0
0 0 0 880 925390 -5957 0
0 0 0 915 926305 -5042 0
0 0 0 907 927212 -4135 0
0 0 0 837 928049 -3298 0
0 0 0 872 928921 -2426 0
43 1 S116 877 929798 -1549 0
43 1 S116 903 930701 -646 0
43 2 S116 844 931545 198 0
43 2 S116 871 932416 1069 0
43 2 S116 912 933328 1981 0
43 2 S116 948 934276 2929 0
43 2 S116 892 935168 3821 0
43 2 S116 845 936013 4666 0
43 2 S116 897 936910 5563 0
43 2 S116 914 937824 6477 0
0 0 0 885 938709 -8188 0
0 0 0 844 939553 -7344 0
0 0 0 880 940433 -6464 0
0 0 0 878 941311 -5586 0
0 0 0 892 942203 -4694 0
0 0 0 822 943025 -3872 0
0 0 0 829 943854 -3043 0
0 0 0 831 944685 -2212 0
44 1 S102 857 945542 -1355 0
44 1 S102 873 946415 -482 0
44 2 S102 839 947254 357 0
44 2 S102 878 948132 1235 0
44 2 S102 889 949021 2124 0
44 2 S102 899 949920 3023 0
44 2 S102 876 950796 3899 0
44 2 S102 838 951634 4737 0
44 2 S102 884 952518 5621 0
44 2 S102 908 953426 6529 0
0 0 0 908 954334 -10070 0
0 0 0 858 955192 -9212 0
0 0 0 879 956071 -8333 0
0 0 0 883 956954 -7450 0
0 0 0 907 957861 -6543 0
0 0 0 865 958726 -5678 0
0 0 0 813 959539 -4865 0
0 0 0 834 960373 -4031 0
0 0 0 832 961205 -3199 0
0 0 0 811 962016 -2388 0
45 1 S116 787 962803 -1601 0
45 1 S116 818 963621 -783 0
45 2 S116 835 964456 52 0
45 2 S116 883 965339 935 0
45 2 S116 872 966211 1807 0
45 2 S116 836 967047 2643 0
45 2 S116 884 967931 3527 0
45 2 S116 910 968841 4437 0
45 2 S116 882 969723 5319 0
45 2 S116 833 970556 6152 0
45 2 S116 857 971413 7009 0
0 0 0 858 972271 -11994 0
0 0 0 851 973122 -11143 0
0 0 0 816 973938 -10327 0
0 0 0 826 974764 -9501 0
0 0 0 841 975605 -8660 0
0 0 0 853 976458 -7807 0
0 0 0 822 977280 -6985 0
0 0 0 824 978104 -6161 0
0 0 0 869 978973 -5292 0
0 0 0 896 979869 -4396 0
0 0 0 898 980767 -3498 0
0 0 0 839 981606 -2659 0
46 1 S102 873 982479 -1786 0
46 1 S102 895 983374 -891 0
46 2 S102 917 984291 26 0
46 2 S102 875 985166 901 0
46 2 S102 835 986001 1736 0
46 2 S102 867 986868 2603 0
46 2 S102 880 987748 3483 0
46 2 S102 902 988650 4385 0
46 2 S102 835 989485 5220 0
46 2 S102 860 990345 6080 0
46 2 S102 880 991225 6960 0
0 0 0 905 992130 -9758 0
0 0 0 894 993024 -8864 0
0 0 0 847 993871 -8017 0
0 0 0 897 994768 -7120 0
0 0 0 901 995669 -6219 0
0 0 0 891 996560 -5328 0
0 0 0 816 997376 -4512 0
0 0 0 839 998215 -3673 0
0 0 0 850 999065 -2823 0
47 1 S112 848 999913 -1975 0
47 1 S112 814 1000727 -1161 0
47 1 S112 814 1001541 -347 0
47 2 S112 834 1002375 487 0
47 2 S112 851 1003226 1338 0
47 2 S112 883 1004109 2221 0
47 2 S112 837 1004946 3058 0
47 2 S112 848 1005794 3906 0
47 2 S112 877 1006671 4783 0
47 2 S112 895 1007566 5678 0
47 2 S112 858 1008424 6536 0
0 0 0 822 1009246 -12139 0
0 0 0 863 1010109 -11276 0
0 0 0 871 1010980 -10405 0
0 0 0 872 1011852 -9533 0
0 0 0 820 1012672 -8713 0
0 0 0 845 1013517 -7868 0
0 0 0 848 1014365 -7020 0
0 0 0 852 1015217 -6168 0
0 0 0 805 1016022 -5363 0
0 0 0 816 1016838 -4547 0
0 0 0 832 1017670 -3715 0
0 0 0 864 1018534 -2851 0
48 1 S116 876 1019410 -1975 0
48 1 S116 851 1020261 -1124 0
48 1 S116 936 1021197 -188 0
48 2 S116 964 1022161 776 0
48 2 S116 926 1023087 1702 0
48 2 S116 885 1023972 2587 0
48 2 S116 893 1024865 3480 0
48 2 S116 890 1025755 4370 0
48 2 S116 833 1026588 5203 0
48 2 S116 828 1027416 6031 0
48 2 S116 842 1028258 6873 0
0 0 0 862 1029120 -7583 0
0 0 0 836 1029956 -6747 0
0 0 0 832 1030788 -5915 0
0 0 0 869 1031657 -5046 0
0 0 0 895 1032552 -4151 0
0 0 0 847 1033399 -3304 0
0 0 0 867 1034266 -2437 0
49 1 S112 870 1035136 -1567 0
49 1 S112 863 1035999 -704 0
49 2 S112 802 1036801 98 0
49 2 S112 821 1037622 919 0
49 2 S112 826 1038448 1745 0
49 2 S112 827 1039275 2572 0
49 2 S112 796 1040071 3368 0
49 2 S112 770 1040841 4138 0
49 2 S112 789 1041630 4927 0
49 2 S112 794 1042424 5721 0
49 2 S112 813 1043237 6534 0
0 0 0 811 1044048 -11870 0
0 0 0 805 1044853 -11065 0
0 0 0 868 1045721 -10197 0
0 0 0 877 1046598 -9320 0
0 0 0 874 1047472 -8446 0
0 0 0 813 1048285 -7633 0
0 0 0 836 1049121 -6797 0
0 0 0 837 1049958 -5960 0
0 0 0 836 1050794 -5124 0
0 0 0 809 1051603 -4315 0
0 0 0 809 1052412 -3506 0
0 0 0 848 1053260 -2658 0
50 1 S106 871 1054131 -1787 0
50 1 S106 890 1055021 -897 0
50 1 S106 854 1055875 -43 0
50 2 S106 908 1056783 865 0
50 2 S106 922 1057705 1787 0
50 2 S106 932 1058637 2719 0
50 2 S106 876 1059513 3595 0
50 2 S106 841 1060354 4436 0
50 2 S106 870 1061224 5306 0
50 2 S106 856 1062080 6162 0
50 2 S106 861 1062941 7023 0
0 0 0 805 1063746 -8419 0
0 0 0 845 1064591 -7574 0
0 0 0 860 1065451 -6714 0
0 0 0 911 1066362 -5803 0
0 0 0 886 1067248 -4917 0
0 0 0 875 1068123 -4042 0
0 0 0 926 1069049 -3116 0
0 0 0 963 1070012 -2153 0
51 1 S112 900 1070912 -1253 0
51 1 S112 849 1071761 -404 0
51 2 S112 866 1072627 462 0
51 2 S112 862 1073489 1324 0
51 2 S112 852 1074341 2176 0
51 2 S112 801 1075142 2977 0
51 2 S112 783 1075925 3760 0
51 2 S112 792 1076717 4552 0
51 2 S112 800 1077517 5352 0
51 2 S112 830 1078347 6182 0
0 0 0 850 1079197 -8203 0
0 0 0 816 1080013 -7387 0
0 0 0 867 1080880 -6520 0
0 0 0 887 1081767 -5633 0
0 0 0 905 1082672 -4728 0
0 0 0 841 1083513 -3887 0
0 0 0 839 1084352 -3048 0
0 0 0 850 1085202 -2198 0
52 1 S116 861 1086063 -1337 0
52 1 S116 838 1086901 -499 0
52 2 S116 830 1087731 331 0
52 2 S116 869 1088600 1200 0
52 2 S116 893 1089493 2093 0
52 2 S116 889 1090382 2982 0
52 2 S116 837 1091219 3819 0
52 2 S116 879 1092098 4698 0
52 2 S116 900 1092998 5598 0
52 2 S116 886 1093884 6484 0
0 0 0 838 1094722 -9953 0
0 0 0 868 1095590 -9085 0
0 0 0 876 1096466 -8209 0
0 0 0 894 1097360 -7315 0
0 0 0 829 1098189 -6486 0
0 0 0 863 1099052 -5623 0
0 0 0 868 1099920 -4755 0
0 0 0 847 1100767 -3908 0
0 0 0 867 1101634 -3041 0
0 0 0 908 1102542 -2133 0
53 1 S106 938 1103480 -1195 0
53 1 S106 881 1104361 -314 0
53 2 S106 875 1105236 561 0
53 2 S106 878 1106114 1439 0
53 2 S106 883 1106997 2322 0
53 2 S106 869 1107866 3191 0
53 2 S106 822 1108688 4013 0
53 2 S106 836 1109524 4849 0
53 2 S106 838 1110362 5687 0
53 2 S106 859 1111221 6546 0
0 0 0 845 1112066 -6983 0
0 0 0 853 1112919 -6130 0
0 0 0 891 1113810 -5239 0
0 0 0 906 1114716 -4333 0
0 0 0 840 1115556 -3493 0
0 0 0 840 1116396 -2653 0
54 1 S102 842 1117238 -1811 0
54 1 S102 850 1118088 -961 0
54 1 S102 824 1118912 -137 0
54 2 S102 806 1119718 669 0
54 2 S102 842 1120560 1511 0
54 2 S102 856 1121416 2367 0
54 2 S102 875 1122291 3242 0
54 2 S102 839 1123130 4081 0
54 2 S102 876 1124006 4957 0
54 2 S102 881 1124887 5838 0
54 2 S102 887 1125774 6725 0
0 0 0 876 1126650 -11945 0
0 0 0 809 1127459 -11136 0
0 0 0 842 1128301 -10294 0
0 0 0 851 1129152 -9443 0
0 0 0 858 1130010 -8585 0
0 0 0 819 1130829 -7766 0
0 0 0 791 1131620 -6975 0
0 0 0 811 1132431 -6164 0
0 0 0 813 1133244 -5351 0
0 0 0 845 1134089 -4506 0
0 0 0 846 1134935 -3660 0
0 0 0 822 1135757 -2838 0
55 1 S106 877 1136634 -1961 0
55 1 S106 899 1137533 -1062 0
55 1 S106 894 1138427 -168 0
55 2 S106 835 1139262 667 0
55 2 S106 836 1140098 1503 0
55 2 S106 840 1140938 2343 0
55 2 S106 845 1141783 3188 0
55 2 S106 830 1142613 4018 0
55 2 S106 777 1143390 4795 0
55 2 S106 797 1144187 5592 0
55 2 S106 795 1144982 6387 0
0 0 0 807 1145789 -7378 0
0 0 0 794 1146583 -6584 0
0 0 0 781 1147364 -5803 0
0 0 0 832 1148196 -4971 0
0 0 0 840 1149036 -4131 0
0 0 0 866 1149902 -3265 0
0 0 0 814 1150716 -2451 0
56 1 S116 795 1151511 -1656 0
56 1 S116 817 1152328 -839 0
56 1 S116 825 1153153 -14 0
56 2 S116 818 1153971 804 0
56 2 S116 808 1154779 1612 0
56 2 S116 859 1155638 2471 0
56 2 S116 863 1156501 3334 0
56 2 S116 844 1157345 4178 0
56 2 S116 796 1158141 4974 0
56 2 S116 815 1158956 5789 0
56 2 S116 824 1159780 6613 0
0 0 0 840 1160620 -7849 0
0 0 0 796 1161416 -7053 0
0 0 0 840 1162256 -6213 0
0 0 0 836 1163092 -5377 0
0 0 0 825 1163917 -4552 0
0 0 0 794 1164711 -3758 0
0 0 0 818 1165529 -2940 0
0 0 0 815 1166344 -2125 0
57 1 S106 823 1167167 -1302 0
57 1 S106 805 1167972 -497 0
57 2 S106 831 1168803 334 0
57 2 S106 838 1169641 1172 0
57 2 S106 825 1170466 1997 0
57 2 S106 798 1171264 2795 0
57 2 S106 828 1172092 3623 0
57 2 S106 841 1172933 4464 0
57 2 S106 831 1173764 5295 0
57 2 S106 810 1174574 6105 0
57 2 S106 841 1175415 6946 0
0 0 0 844 1176259 -9502 0
0 0 0 859 1177118 -8643 0
0 0 0 823 1177941 -7820 0
0 0 0 832 1178773 -6988 0
0 0 0 836 1179609 -6152 0
0 0 0 832 1180441 -5320 0
0 0 0 837 1181278 -4483 0
0 0 0 802 1182080 -3681 0
0 0 0 848 1182928 -2833 0
58 1 S102 874 1183802 -1959 0
58 1 S102 877 1184679 -1082 0
58 1 S102 834 1185513 -248 0
58 2 S102 843 1186356 595 0
58 2 S102 864 1187220 1459 0
58 2 S102 870 1188090 2329 0
58 2 S102 848 1188938 3177 0
58 2 S102 805 1189743 3982 0
58 2 S102 834 1190577 4816 0
58 2 S102 854 1191431 5670 0
58 2 S102 876 1192307 6546 0
0 0 0 836 1193143 -8533 0
0 0 0 808 1193951 -7725 0
0 0 0 854 1194805 -6871 0
0 0 0 862 1195667 -6009 0
0 0 0 882 1196549 -5127 0
0 0 0 825 1197374 -4302 0
0 0 0 837 1198211 -3465 0
0 0 0 837 1199048 -2628 0
59 1 S112 836 1199884 -1792 0
59 1 S112 797 1200681 -995 0
59 1 S112 773 1201454 -222 0
59 2 S112 808 1202262 586 0
59 2 S112 824 1203086 1410 0
59 2 S112 847 1203933 2257 0
59 2 S112 805 1204738 3062 0
59 2 S112 813 1205551 3875 0
59 2 S112 843 1206394 4718 0
59 2 S112 864 1207258 5582 0
59 2 S112 836 1208094 6418 0
0 0 0 802 1208896 -9873 0
0 0 0 828 1209724 -9045 0
0 0 0 825 1210549 -8220 0
0 0 0 829 1211378 -7391 0
0 0 0 778 1212156 -6613 0
0 0 0 776 1212932 -5837 0
0 0 0 737 1213669 -5100 0
0 0 0 747 1214416 -4353 0
0 0 0 757 1215173 -3596 0
0 0 0 794 1215967 -2802 0
60 1 S102 858 1216825 -1944 0
60 1 S102 911 1217736 -1033 0
60 1 S102 872 1218608 -161 0
60 2 S102 908 1219516 747 0
60 2 S102 905 1220421 1652 0
60 2 S102 848 1221269 2500 0
60 2 S102 813 1222082 3313 0
60 2 S102 817 1222899 4130 0
60 2 S102 805 1223704 4935 0
60 2 S102 790 1224494 5725 0
60 2 S102 769 1225263 6494 0
0 0 0 773 1226036 -12146 0
0 0 0 785 1226821 -11361 0
0 0 0 829 1227650 -10532 0
0 0 0 874 1228524 -9658 0
0 0 0 837 1229361 -8821 0
0 0 0 885 1230246 -7936 0
0 0 0 895 1231141 -7041 0
0 0 0 903 1232044 -6138 0
0 0 0 856 1232900 -5282 0
0 0 0 888 1233788 -4394 0
0 0 0 901 1234689 -3493 0
0 0 0 885 1235574 -2608 0
61 1 S106 842 1236416 -1766 0
61 1 S106 808 1237224 -958 0
61 1 S106 825 1238049 -133 0
61 2 S106 847 1238896 714 0
61 2 S106 874 1239770 1588 0
61 2 S106 840 1240610 2428 0
61 2 S106 855 1241465 3283 0
61 2 S106 920 1242385 4203 0
61 2 S106 967 1243352 5170 0
61 2 S106 911 1244263 6081 0
61 2 S106 849 1245112 6930 0
0 0 0 886 1245998 -7022 0
0 0 0 880 1246878 -6142 0
0 0 0 851 1247729 -5291 0
0 0 0 787 1248516 -4504 0
0 0 0 785 1249301 -3719 0
0 0 0 777 1250078 -2942 0
0 0 0 769 1250847 -2173 0
62 1 S112 743 1251590 -1430 0
62 1 S112 738 1252328 -692 0
62 2 S112 763 1253091 71 0
62 2 S112 802 1253893 873 0
62 2 S112 839 1254732 1712 0
62 2 S112 807 1255539 2519 0
62 2 S112 840 1256379 3359 0
62 2 S112 879 1257258 4238 0
62 2 S112 910 1258168 5148 0
62 2 S112 872 1259040 6020 0
62 2 S112 857 1259897 6877 0
0 0 0 884 1260781 -11569 0
0 0 0 892 1261673 -10677 0
0 0 0 860 1262533 -9817 0
0 0 0 806 1263339 -9011 0
0 0 0 834 1264173 -8177 0
0 0 0 828 1265001 -7349 0
0 0 0 788 1265789 -6561 0
0 0 0 834 1266623 -5727 0
0 0 0 884 1267507 -4843 0
0 0 0 941 1268448 -3902 0
0 0 0 910 1269358 -2992 0
0 0 0 907 1270265 -2085 0
63 1 S102 956 1271221 -1129 0
63 1 S102 972 1272193 -157 0
63 2 S102 932 1273125 775 0
63 2 S102 884 1274009 1659 0
63 2 S102 905 1274914 2564 0
63 2 S102 906 1275820 3470 0
63 2 S102 894 1276714 4364 0
63 2 S102 836 1277550 5200 0
63 2 S102 842 1278392 6042 0
63 2 S102 851 1279243 6893 0
0 0 0 886 1280129 -9761 0
0 0 0 887 1281016 -8874 0
0 0 0 845 1281861 -8029 0
0 0 0 908 1282769 -7121 0
0 0 0 911 1283680 -6210 0
0 0 0 860 1284540 -5350 0
0 0 0 834 1285374 -4516 0
0 0 0 836 1286210 -3680 0
0 0 0 769 1286979 -2911 0
0 0 0 749 1287728 -2162 0
64 1 S112 747 1288475 -1415 0
64 1 S112 756 1289231 -659 0
64 2 S112 783 1290014 124 0
64 2 S112 830 1290844 954 0
64 2 S112 884 1291728 1838 0
64 2 S112 896 1292624 2734 0
64 2 S112 861 1293485 3595 0
64 2 S112 872 1294357 4467 0
64 2 S112 882 1295239 5349 0
64 2 S112 866 1296105 6215 0
0 0 0 832 1296937 -7808 0
0 0 0 818 1297755 -6990 0
0 0 0 811 1298566 -6179 0
0 0 0 792 1299358 -5387 0
0 0 0 775 1300133 -4612 0
0 0 0 743 1300876 -3869 0
0 0 0 747 1301623 -3122 0
0 0 0 738 1302361 -2384 0
65 1 S106 712 1303073 -1672 0
65 1 S106 739 1303812 -933 0
65 1 S106 811 1304623 -122 0
65 2 S106 787 1305410 665 0
65 2 S106 829 1306239 1494 0
65 2 S106 872 1307111 2366 0
65 2 S106 899 1308010 3265 0
65 2 S106 879 1308889 4144 0
65 2 S106 835 1309724 4979 0
65 2 S106 858 1310582 5837 0
65 2 S106 858 1311440 6695 0
0 0 0 843 1312283 -7963 0
0 0 0 815 1313098 -7148 0
0 0 0 788 1313886 -6360 0
0 0 0 813 1314699 -5547 0
0 0 0 828 1315527 -4719 0
0 0 0 812 1316339 -3907 0
0 0 0 773 1317112 -3134 0
0 0 0 762 1317874 -2372 0
66 1 S116 771 1318645 -1601 0
66 1 S116 764 1319409 -837 0
66 1 S116 737 1320146 -100 0
66 2 S116 747 1320893 647 0
66 2 S116 746 1321639 1393 0
66 2 S116 755 1322394 2148 0
66 2 S116 760 1323154 2908 0
66 2 S116 740 1323894 3648 0
66 2 S116 715 1324609 4363 0
66 2 S116 713 1325322 5076 0
66 2 S116 715 1326037 5791 0
66 2 S116 738 1326775 6529 0
0 0 0 785 1327560 -11767 0
0 0 0 825 1328385 -10942 0
0 0 0 793 1329178 -10149 0
0 0 0 839 1330017 -9310 0
0 0 0 852 1330869 -8458 0
0 0 0 839 1331708 -7619 0
0 0 0 816 1332524 -6803 0
0 0 0 860 1333384 -5943 0
0 0 0 862 1334246 -5081 0
0 0 0 851 1335097 -4230 0
0 0 0 800 1335897 -3430 0
0 0 0 802 1336699 -2628 0
67 1 S102 797 1337496 -1831 0
67 1 S102 810 1338306 -1021 0
67 1 S102 820 1339126 -201 0
67 2 S102 830 1339956 629 0
67 2 S102 899 1340855 1528 0
67 2 S102 905 1341760 2433 0
67 2 S102 916 1342676 3349 0
67 2 S102 855 1343531 4204 0
67 2 S102 916 1344447 5120 0
67 2 S102 933 1345380 6053 0
67 2 S102 919 1346299 6972 0
0 0 0 862 1347161 -7899 0
0 0 0 880 1348041 -7019 0
0 0 0 888 1348929 -6131 0
0 0 0 894 1349823 -5237 0
0 0 0 835 1350658 -4402 0
0 0 0 816 1351474 -3586 0
0 0 0 839 1352313 -2747 0
68 1 S106 848 1353161 -1899 0
68 1 S106 820 1353981 -1079 0
68 1 S106 803 1354784 -276 0
68 2 S106 839 1355623 563 0
68 2 S106 869 1356492 1432 0
68 2 S106 887 1357379 2319 0
68 2 S106 836 1358215 3155 0
68 2 S106 909 1359124 4064 0
68 2 S106 938 1360062 5002 0
68 2 S106 926 1360988 5928 0
68 2 S106 845 1361833 6773 0
0 0 0 869 1362702 -11971 0
0 0 0 867 1363569 -11104 0
0 0 0 852 1364421 -10252 0
0 0 0 798 1365219 -9454 0
0 0 0 819 1366038 -8635 0
0 0 0 816 1366854 -7819 0
0 0 0 830 1367684 -6989 0
0 0 0 822 1368506 -6167 0
0 0 0 849 1369355 -5318 0
0 0 0 896 1370251 -4422 0
0 0 0 932 1371183 -3490 0
0 0 0 901 1372084 -2589 0
69 1 S102 905 1372989 -1684 0
69 1 S102 943 1373932 -741 0
69 2 S102 949 1374881 208 0
69 2 S102 870 1375751 1078 0
69 2 S102 879 1376630 1957 0
69 2 S102 884 1377514 2841 0
69 2 S102 884 1378398 3725 0
69 2 S102 869 1379267 4594 0
69 2 S102 838 1380105 5432 0
69 2 S102 881 1380986 6313 0
0 0 0 934 1381920 -9779 0
0 0 0 983 1382903 -8796 1
0 0 0 875 1383778 -7921 0
0 0 0 915 1384693 -7006 0
0 0 0 908 1385601 -6098 0
0 0 0 829 1386430 -5269 0
0 0 0 838 1387268 -4431 0
0 0 0 838 1388106 -3593 0
0 0 0 854 1388960 -2739 0
70 1 S112 842 1389802 -1897 0
70 1 S112 819 1390621 -1078 0
70 1 S112 855 1391476 -223 0
70 2 S112 886 1392362 663 0
70 2 S112 909 1393271 1572 0
70 2 S112 853 1394124 2425 0
70 2 S112 848 1394972 3273 0
70 2 S112 874 1395846 4147 0
70 2 S112 894 1396740 5041 0
70 2 S112 870 1397610 5911 0
70 2 S112 856 1398466 6767 0
0 0 0 896 1399362 -11236 0
0 0 0 900 1400262 -10336 0
0 0 0 884 1401146 -9452 0
0 0 0 815 1401961 -8637 0
0 0 0 830 1402791 -7807 0
0 0 0 819 1403610 -6988 0
0 0 0 849 1404459 -6139 0
0 0 0 813 1405272 -5326 0
0 0 0 775 1406047 -4551 0
0 0 0 768 1406815 -3783 0
0 0 0 801 1407616 -2982 0
0 0 0 834 1408450 -2148 0
71 1 S116 889 1409339 -1259 0
71 1 S116 915 1410254 -344 0
71 2 S116 862 1411116 518 0
71 2 S116 906 1412022 1424 0
71 2 S116 903 1412925 2327 0
71 2 S116 886 1413811 3213 0
71 2 S116 822 1414633 4035 0
71 2 S116 832 1415465 4867 0
71 2 S116 810 1416275 5677 0
71 2 S116 801 1417076 6478 0
0 0 0 793 1417869 -10303 0
0 0 0 776 1418645 -9527 0
0 0 0 812 1419457 -8715 0
0 0 0 814 1420271 -7901 0
0 0 0 827 1421098 -7074 0
0 0 0 800 1421898 -6274 0
0 0 0 805 1422703 -5469 0
0 0 0 832 1423535 -4637 0
0 0 0 850 1424385 -3787 0
0 0 0 855 1425240 -2932 0
0 0 0 840 1426080 -2092 0
72 1 S102 893 1426973 -1199 0
72 1 S102 908 1427881 -291 0
72 2 S102 859 1428740 568 0
72 2 S102 891 1429631 1459 0
72 2 S102 892 1430523 2351 0
72 2 S102 873 1431396 3224 0
72 2 S102 828 1432224 4052 0
72 2 S102 811 1433035 4863 0
72 2 S102 825 1433860 5688 0
72 2 S102 857 1434717 6545 0
0 0 0 876 1435593 -7748 0
0 0 0 845 1436438 -6903 0
0 0 0 819 1437257 -6084 0
0 0 0 867 1438124 -5217 0
0 0 0 876 1439000 -4341 0
0 0 0 837 1439837 -3504 0
0 0 0 792 1440629 -2712 0
73 1 S116 838 1441467 -1874 0
73 1 S116 847 1442314 -1027 0
73 1 S116 877 1443191 -150 0
73 2 S116 873 1444064 723 0
73 2 S116 844 1444908 1567 0
73 2 S116 873 1445781 2440 0
73 2 S116 872 1446653 3312 0
73 2 S116 870 1447523 4182 0
73 2 S116 846 1448369 5028 0
73 2 S116 798 1449167 5826 0
73 2 S116 837 1450004 6663 0
0 0 0 832 1450836 -9730 0
0 0 0 783 1451619 -8947 0
0 0 0 751 1452370 -8196 0
0 0 0 784 1453154 -7412 0
0 0 0 785 1453939 -6627 0
0 0 0 814 1454753 -5813 0
0 0 0 840 1455593 -4973 0
0 0 0 845 1456438 -4128 0
0 0 0 768 1457206 -3360 0
0 0 0 795 1458001 -2565 0
74 1 S106 809 1458810 -1756 0
74 1 S106 830 1459640 -926 0
74 1 S106 819 1460459 -107 0
74 2 S106 810 1461269 703 0
74 2 S106 829 1462098 1532 0
74 2 S106 827 1462925 2359 0
74 2 S106 819 1463744 3178 0
74 2 S106 799 1464543 3977 0
74 2 S106 766 1465309 4743 0
74 2 S106 797 1466106 5540 0
74 2 S106 802 1466908 6342 0
0 0 0 822 1467730 -6961 0
0 0 0 832 1468562 -6129 0
0 0 0 826 1469388 -5303 0
0 0 0 874 1470262 -4429 0
0 0 0 890 1471152 -3539 0
0 0 0 831 1471983 -2708 0
75 1 S112 876 1472859 -1832 0
75 1 S112 882 1473741 -950 0
75 1 S112 884 1474625 -66 0
75 2 S112 845 1475470 779 0
75 2 S112 903 1476373 1682 0
75 2 S112 909 1477282 2591 0
75 2 S112 932 1478214 3523 0
75 2 S112 905 1479119 4428 0
75 2 S112 863 1479982 5291 0
75 2 S112 911 1480893 6202 0
0 0 0 945 1481838 -7823 0
0 0 0 956 1482794 -6867 0
0 0 0 874 1483668 -5993 0
0 0 0 838 1484506 -5155 0
0 0 0 842 1485348 -4313 0
0 0 0 846 1486194 -3467 0
0 0 0 806 1487000 -2661 0
76 1 S116 788 1487788 -1873 0
76 1 S116 815 1488603 -1058 0
76 1 S116 826 1489429 -232 0
76 2 S116 845 1490274 613 0
76 2 S116 802 1491076 1415 0
76 2 S116 837 1491913 2252 0
76 2 S116 851 1492764 3103 0
76 2 S116 863 1493627 3966 0
76 2 S116 819 1494446 4785 0
76 2 S116 768 1495214 5553 0
76 2 S116 783 1495997 6336 0
0 0 0 790 1496787 -8972 0
0 0 0 804 1497591 -8168 0
0 0 0 829 1498420 -7339 0
0 0 0 835 1499255 -6504 0
0 0 0 805 1500060 -5699 0
0 0 0 779 1500839 -4920 0
0 0 0 797 1501636 -4123 0
0 0 0 799 1502435 -3324 0
0 0 0 824 1503259 -2500 0
77 1 S106 805 1504064 -1695 0
77 1 S106 799 1504863 -896 0
77 1 S106 822 1505685 -74 0
77 2 S106 831 1506516 757 0
77 2 S106 839 1507355 1596 0
77 2 S106 820 1508175 2416 0
77 2 S106 817 1508992 3233 0
77 2 S106 852 1509844 4085 0
77 2 S106 881 1510725 4966 0
77 2 S106 886 1511611 5852 0
77 2 S106 854 1512465 6706 0
0 0 0 887 1513352 -10627 0
0 0 0 897 1514249 -9730 0
0 0 0 900 1515149 -8830 0
0 0 0 850 1515999 -7980 0
0 0 0 837 1516836 -7143 0
0 0 0 866 1517702 -6277 0
0 0 0 863 1518565 -5414 0
0 0 0 809 1519374 -4605 0
0 0 0 808 1520182 -3797 0
0 0 0 825 1521007 -2972 0
0 0 0 852 1521859 -2120 0
78 1 S112 880 1522739 -1240 0
78 1 S112 849 1523588 -391 0
78 2 S112 858 1524446 467 0
78 2 S112 917 1525363 1384 0
78 2 S112 927 1526290 2311 0
78 2 S112 879 1527169 3190 0
78 2 S112 835 1528004 4025 0
78 2 S112 853 1528857 4878 0
78 2 S112 848 1529705 5726 0
78 2 S112 825 1530530 6551 0
0 0 0 786 1531316 -12259 0
0 0 0 783 1532099 -11476 0
0 0 0 786 1532885 -10690 0
0 0 0 781 1533666 -9909 0
0 0 0 790 1534456 -9119 0
0 0 0 756 1535212 -8363 0
0 0 0 741 1535953 -7622 0
0 0 0 774 1536727 -6848 0
0 0 0 788 1537515 -6060 0
0 0 0 817 1538332 -5243 0
0 0 0 790 1539122 -4453 0
0 0 0 816 1539938 -3637 0
0 0 0 866 1540804 -2771 0
79 1 S102 896 1541700 -1875 0
79 1 S102 892 1542592 -983 0
79 1 S102 848 1543440 -135 0
79 2 S102 897 1544337 762 0
79 2 S102 902 1545239 1664 0
79 2 S102 881 1546120 2545 0
79 2 S102 825 1546945 3370 0
79 2 S102 842 1547787 4212 0
79 2 S102 850 1548637 5062 0
79 2 S102 856 1549493 5918 0
79 2 S102 844 1550337 6762 0
0 0 0 811 1551148 -9718 0
0 0 0 847 1551995 -8871 0
0 0 0 857 1552852 -8014 0
0 0 0 876 1553728 -7138 0
0 0 0 827 1554555 -6311 0
0 0 0 767 1555322 -5544 0
0 0 0 765 1556087 -4779 0
0 0 0 786 1556873 -3993 0
0 0 0 785 1557658 -3208 0
0 0 0 819 1558477 -2389 0
80 1 S116 812 1559289 -1577 0
80 1 S116 838 1560127 -739 0
80 2 S116 853 1560980 114 0
80 2 S116 880 1561860 994 0
80 2 S116 856 1562716 1850 0
80 2 S116 876 1563592 2726 0
80 2 S116 906 1564498 3632 0
80 2 S116 906 1565404 4538 0
80 2 S116 842 1566246 5380 0
80 2 S116 848 1567094 6228 0
