T_0170
BeatCount Mean SD BeatCountNoOutliers MeanNoOutliers SDNoOutliers
1625 940,443076923077 76,3939708591599 1593 944,805398618958 68,5859061584988

Trial TrialStatus Trialtype IBI AbsPosition RelPosition Outlier
0 0 0 906 1817 -13799 0
0 0 0 893 2710 -12906 0
0 0 0 929 3639 -11977 0
0 0 0 957 4596 -11020 0
0 0 0 891 5487 -10129 0
0 0 0 950 6437 -9179 0
0 0 0 1001 7438 -8178 0
0 0 0 989 8427 -7189 0
0 0 0 917 9344 -6272 0
0 0 0 961 10305 -5311 0
0 0 0 1014 11319 -4297 0
0 0 0 986 12305 -3311 0
0 0 0 929 13234 -2382 0
1 1 S112 994 14228 -1388 0
1 1 S112 1024 15252 -364 0
1 2 S112 985 16237 621 0
1 2 S112 934 17171 1555 0
1 2 S112 977 18148 2532 0
1 2 S112 1034 19182 3566 0
1 2 S112 947 20129 4513 0
1 2 S112 993 21122 5506 0
1 2 S112 1021 22143 6527 0
0 0 0 1013 23156 -11409 0
0 0 0 916 24072 -10493 0
0 0 0 960 25032 -9533 0
0 0 0 984 26016 -8549 0
0 0 0 883 26899 -7666 0
0 0 0 869 27768 -6797 0
0 0 0 778 28546 -6019 0
0 0 0 765 29311 -5254 0
0 0 0 810 30121 -4444 0
0 0 0 783 30904 -3661 0
0 0 0 822 31726 -2839 0
2 1 S102 898 32624 -1941 0
2 1 S102 919 33543 -1022 0
2 1 S102 860 34403 -162 0
2 2 S102 796 35199 634 0
2 2 S102 811 36010 1445 0
2 2 S102 827 36837 2272 0
2 2 S102 826 37663 3098 0
2 2 S102 788 38451 3886 0
2 2 S102 861 39312 4747 0
2 2 S102 958 40270 5705 0
2 2 S102 1008 41278 6713 0
0 0 0 940 42218 -7814 0
0 0 0 1021 43239 -6793 0
0 0 0 1036 44275 -5757 0
0 0 0 940 45215 -4817 0
0 0 0 961 46176 -3856 0
0 0 0 984 47160 -2872 0
3 1 S116 959 48119 -1913 0
3 1 S116 895 49014 -1018 0
3 1 S116 976 49990 -42 0
3 2 S116 1025 51015 983 0
3 2 S116 975 51990 1958 0
3 2 S116 982 52972 2940 0
3 2 S116 1027 53999 3967 0
3 2 S116 1032 55031 4999 0
3 2 S116 1002 56033 6001 0
3 2 S116 1005 57038 7006 0
0 0 0 934 57972 -11573 0
0 0 0 978 58950 -10595 0
0 0 0 1041 59991 -9554 0
0 0 0 953 60944 -8601 0
0 0 0 983 61927 -7618 0
0 0 0 1016 62943 -6602 0
0 0 0 949 63892 -5653 0
0 0 0 951 64843 -4702 0
0 0 0 989 65832 -3713 0
0 0 0 974 66806 -2739 0
4 1 S106 902 67708 -1837 0
4 1 S106 953 68661 -884 0
4 2 S106 973 69634 89 0
4 2 S106 895 70529 984 0
4 2 S106 937 71466 1921 0
4 2 S106 980 72446 2901 0
4 2 S106 955 73401 3856 0
4 2 S106 897 74298 4753 0
4 2 S106 958 75256 5711 0
4 2 S106 1001 76257 6712 0
0 0 0 940 77197 -6042 0
0 0 0 948 78145 -5094 0
0 0 0 1000 79145 -4094 0
0 0 0 953 80098 -3141 0
0 0 0 904 81002 -2237 0
5 1 S116 984 81986 -1253 0
5 1 S116 1033 83019 -220 0
5 2 S116 984 84003 764 0
5 2 S116 954 84957 1718 0
5 2 S116 1022 85979 2740 0
5 2 S116 1053 87032 3793 0
5 2 S116 959 87991 4752 0
5 2 S116 990 88981 5742 0
5 2 S116 1034 90015 6776 0
0 0 0 994 91009 -8875 0
0 0 0 957 91966 -7918 0
0 0 0 1007 92973 -6911 0
0 0 0 975 93948 -5936 0
0 0 0 911 94859 -5025 0
0 0 0 936 95795 -4089 0
0 0 0 978 96773 -3111 0
0 0 0 955 97728 -2156 0
6 1 S106 908 98636 -1248 0
6 1 S106 960 99596 -288 0
6 2 S106 978 100574 690 0
6 2 S106 960 101534 1650 0
6 2 S106 880 102414 2530 0
6 2 S106 823 103237 3353 0
6 2 S106 784 104021 4137 0
6 2 S106 749 104770 4886 0
6 2 S106 755 105525 5641 0
6 2 S106 858 106383 6499 0
0 0 0 973 107356 -11029 0
0 0 0 939 108295 -10090 0
0 0 0 972 109267 -9118 0
0 0 0 988 110255 -8130 0
0 0 0 895 111150 -7235 0
0 0 0 849 111999 -6386 0
0 0 0 841 112840 -5545 0
0 0 0 840 113680 -4705 0
0 0 0 820 114500 -3885 0
0 0 0 819 115319 -3066 0
0 0 0 913 116232 -2153 0
7 1 S102 990 117222 -1163 0
7 1 S102 1000 118222 -163 0
7 2 S102 962 119184 799 0
7 2 S102 1022 120206 1821 0
7 2 S102 1025 121231 2846 0
7 2 S102 957 122188 3803 0
7 2 S102 881 123069 4684 0
7 2 S102 894 123963 5578 0
7 2 S102 940 124903 6518 0
0 0 0 920 125823 -8593 0
0 0 0 900 126723 -7693 0
0 0 0 928 127651 -6765 0
0 0 0 833 128484 -5932 0
0 0 0 778 129262 -5154 0
0 0 0 784 130046 -4370 0
0 0 0 759 130805 -3611 0
0 0 0 782 131587 -2829 0
8 1 S112 848 132435 -1981 0
8 1 S112 932 133367 -1049 0
8 1 S112 883 134250 -166 0
8 2 S112 876 135126 710 0
8 2 S112 953 136079 1663 0
8 2 S112 1012 137091 2675 0
8 2 S112 990 138081 3665 0
8 2 S112 942 139023 4607 0
8 2 S112 981 140004 5588 0
8 2 S112 1020 141024 6608 0
0 0 0 978 142002 -7584 0
0 0 0 961 142963 -6623 0
0 0 0 1007 143970 -5616 0
0 0 0 1000 144970 -4616 0
0 0 0 925 145895 -3691 0
0 0 0 973 146868 -2718 0
9 1 S116 997 147865 -1721 0
9 1 S116 915 148780 -806 0
9 2 S116 937 149717 131 0
9 2 S116 977 150694 1108 0
9 2 S116 971 151665 2079 0
9 2 S116 907 152572 2986 0
9 2 S116 976 153548 3962 0
9 2 S116 1028 154576 4990 0
9 2 S116 982 155558 5972 0
9 2 S116 914 156472 6886 0
0 0 0 968 157440 -10283 0
0 0 0 1016 158456 -9267 0
0 0 0 1004 159460 -8263 0
0 0 0 956 160416 -7307 0
0 0 0 1020 161436 -6287 0
0 0 0 1026 162462 -5261 0
0 0 0 934 163396 -4327 0
0 0 0 932 164328 -3395 0
0 0 0 921 165249 -2474 0
10 1 S102 884 166133 -1590 0
10 1 S102 843 166976 -747 0
10 2 S102 892 167868 145 0
10 2 S102 963 168831 1108 0
10 2 S102 973 169804 2081 0
10 2 S102 925 170729 3006 0
10 2 S102 980 171709 3986 0
10 2 S102 978 172687 4964 0
10 2 S102 914 173601 5878 0
10 2 S102 880 174481 6758 0
0 0 0 892 175373 -10271 0
0 0 0 926 176299 -9345 0
0 0 0 907 177206 -8438 0
0 0 0 859 178065 -7579 0
0 0 0 929 178994 -6650 0
0 0 0 946 179940 -5704 0
0 0 0 886 180826 -4818 0
0 0 0 932 181758 -3886 0
0 0 0 973 182731 -2913 0
11 1 S112 943 183674 -1970 0
11 1 S112 885 184559 -1085 0
11 1 S112 924 185483 -161 0
11 2 S112 953 186436 792 0
11 2 S112 916 187352 1708 0
11 2 S112 932 188284 2640 0
11 2 S112 998 189282 3638 0
11 2 S112 1000 190282 4638 0
11 2 S112 920 191202 5558 0
11 2 S112 964 192166 6522 0
0 0 0 1014 193180 -8396 0
0 0 0 989 194169 -7407 0
0 0 0 921 195090 -6486 0
0 0 0 986 196076 -5500 0
0 0 0 1003 197079 -4497 0
0 0 0 932 198011 -3565 0
0 0 0 934 198945 -2631 0
12 1 S116 975 199920 -1656 0
12 1 S116 946 200866 -710 0
12 2 S116 892 201758 182 0
12 2 S116 950 202708 1132 0
12 2 S116 1046 203754 2178 0
12 2 S116 1054 204808 3232 0
12 2 S116 976 205784 4208 0
12 2 S116 1016 206800 5224 0
12 2 S116 1048 207848 6272 0
0 0 0 1009 208857 -12033 0
0 0 0 959 209816 -11074 0
0 0 0 978 210794 -10096 0
0 0 0 979 211773 -9117 0
0 0 0 906 212679 -8211 0
0 0 0 927 213606 -7284 0
0 0 0 972 214578 -6312 0
0 0 0 982 215560 -5330 0
0 0 0 949 216509 -4381 0
0 0 0 1023 217532 -3358 0
0 0 0 1031 218563 -2327 0
13 1 S112 946 219509 -1381 0
13 1 S112 950 220459 -431 0
13 2 S112 973 221432 542 0
13 2 S112 968 222400 1510 0
13 2 S112 905 223305 2415 0
13 2 S112 935 224240 3350 0
13 2 S112 981 225221 4331 0
13 2 S112 991 226212 5322 0
13 2 S112 948 227160 6270 0
0 0 0 999 228159 -11845 0
0 0 0 1020 229179 -10825 0
0 0 0 1015 230194 -9810 0
0 0 0 929 231123 -8881 0
0 0 0 952 232075 -7929 0
0 0 0 949 233024 -6980 0
0 0 0 886 233910 -6094 0
0 0 0 934 234844 -5160 0
0 0 0 977 235821 -4183 0
0 0 0 928 236749 -3255 0
0 0 0 955 237704 -2300 0
14 1 S106 995 238699 -1305 0
14 1 S106 989 239688 -316 0
14 2 S106 915 240603 599 0
14 2 S106 953 241556 1552 0
14 2 S106 1001 242557 2553 0
14 2 S106 980 243537 3533 0
14 2 S106 918 244455 4451 0
14 2 S106 957 245412 5408 0
14 2 S106 982 246394 6390 0
0 0 0 972 247366 -10692 0
0 0 0 888 248254 -9804 0
0 0 0 931 249185 -8873 0
0 0 0 929 250114 -7944 0
0 0 0 880 250994 -7064 0
0 0 0 901 251895 -6163 0
0 0 0 935 252830 -5228 0
0 0 0 928 253758 -4300 0
0 0 0 865 254623 -3435 0
0 0 0 903 255526 -2532 0
15 1 S116 946 256472 -1586 0
15 1 S116 948 257420 -638 0
15 2 S116 889 258309 251 0
15 2 S116 929 259238 1180 0
15 2 S116 975 260213 2155 0
15 2 S116 1004 261217 3159 0
15 2 S116 923 262140 4082 0
15 2 S116 941 263081 5023 0
15 2 S116 995 264076 6018 0
0 0 0 1020 265096 -10486 0
0 0 0 937 266033 -9549 0
0 0 0 966 266999 -8583 0
0 0 0 959 267958 -7624 0
0 0 0 907 268865 -6717 0
0 0 0 895 269760 -5822 0
0 0 0 825 270585 -4997 0
0 0 0 777 271362 -4220 0
0 0 0 789 272151 -3431 0
0 0 0 782 272933 -2649 0
16 1 S116 872 273805 -1777 0
16 1 S116 943 274748 -834 0
16 2 S116 902 275650 68 0
16 2 S116 857 276507 925 0
16 2 S116 918 277425 1843 0
16 2 S116 983 278408 2826 0
16 2 S116 912 279320 3738 0
16 2 S116 938 280258 4676 0
16 2 S116 1020 281278 5696 0
16 2 S116 1076 282354 6772 0
0 0 0 1005 283359 -8569 0
0 0 0 962 284321 -7607 0
0 0 0 974 285295 -6633 0
0 0 0 933 286228 -5700 0
0 0 0 886 287114 -4814 0
0 0 0 961 288075 -3853 0
0 0 0 986 289061 -2867 0
17 1 S106 921 289982 -1946 0
17 1 S106 950 290932 -996 0
17 2 S106 1010 291942 14 0
17 2 S106 1019 292961 1033 0
17 2 S106 930 293891 1963 0
17 2 S106 970 294861 2933 0
17 2 S106 992 295853 3925 0
17 2 S106 959 296812 4884 0
17 2 S106 904 297716 5788 0
17 2 S106 991 298707 6779 0
0 0 0 1035 299742 -9776 0
0 0 0 984 300726 -8792 0
0 0 0 996 301722 -7796 0
0 0 0 1006 302728 -6790 0
0 0 0 944 303672 -5846 0
0 0 0 919 304591 -4927 0
0 0 0 954 305545 -3973 0
0 0 0 942 306487 -3031 0
0 0 0 871 307358 -2160 0
18 1 S102 894 308252 -1266 0
18 1 S102 915 309167 -351 0
18 2 S102 915 310082 564 0
18 2 S102 870 310952 1434 0
18 2 S102 943 311895 2377 0
18 2 S102 995 312890 3372 0
18 2 S102 939 313829 4311 0
18 2 S102 936 314765 5247 0
18 2 S102 978 315743 6225 0
0 0 0 985 316728 -7213 0
0 0 0 919 317647 -6294 0
0 0 0 896 318543 -5398 0
0 0 0 899 319442 -4499 0
0 0 0 915 320357 -3584 0
0 0 0 869 321226 -2715 0
19 1 S106 936 322162 -1779 0
19 1 S106 1017 323179 -762 0
19 2 S106 981 324160 219 0
19 2 S106 965 325125 1184 0
19 2 S106 997 326122 2181 0
19 2 S106 990 327112 3171 0
19 2 S106 906 328018 4077 0
19 2 S106 898 328916 4975 0
19 2 S106 897 329813 5872 0
19 2 S106 892 330705 6764 0
0 0 0 833 331538 -11916 0
0 0 0 942 332480 -10974 0
0 0 0 1083 333563 -9891 0
0 0 0 1029 334592 -8862 0
0 0 0 942 335534 -7920 0
0 0 0 999 336533 -6921 0
0 0 0 980 337513 -5941 0
0 0 0 894 338407 -5047 0
0 0 0 921 339328 -4126 0
0 0 0 922 340250 -3204 0
0 0 0 865 341115 -2339 0
20 1 S112 872 341987 -1467 0
20 1 S112 922 342909 -545 0
20 2 S112 946 343855 401 0
20 2 S112 898 344753 1299 0
20 2 S112 959 345712 2258 0
20 2 S112 1040 346752 3298 0
20 2 S112 998 347750 4296 0
20 2 S112 919 348669 5215 0
20 2 S112 989 349658 6204 0
0 0 0 1014 350672 -10272 0
0 0 0 953 351625 -9319 0
0 0 0 961 352586 -8358 0
0 0 0 994 353580 -7364 0
0 0 0 946 354526 -6418 0
0 0 0 888 355414 -5530 0
0 0 0 930 356344 -4600 0
0 0 0 957 357301 -3643 0
0 0 0 884 358185 -2759 0
21 1 S106 903 359088 -1856 0
21 1 S106 932 360020 -924 0
21 2 S106 950 360970 26 0
21 2 S106 903 361873 929 0
21 2 S106 975 362848 1904 0
21 2 S106 1023 363871 2927 0
21 2 S106 962 364833 3889 0
21 2 S106 974 365807 4863 0
21 2 S106 999 366806 5862 0
21 2 S106 971 367777 6833 0
0 0 0 879 368656 -10624 0
0 0 0 866 369522 -9758 0
0 0 0 858 370380 -8900 0
0 0 0 838 371218 -8062 0
0 0 0 798 372016 -7264 0
0 0 0 872 372888 -6392 0
0 0 0 960 373848 -5432 0
0 0 0 930 374778 -4502 0
0 0 0 962 375740 -3540 0
0 0 0 1033 376773 -2507 0
22 1 S116 967 377740 -1540 0
22 1 S116 892 378632 -648 0
22 2 S116 935 379567 287 0
22 2 S116 946 380513 1233 0
22 2 S116 955 381468 2188 0
22 2 S116 951 382419 3139 0
22 2 S116 933 383352 4072 0
22 2 S116 899 384251 4971 0
22 2 S116 979 385230 5950 0
22 2 S116 1067 386297 7017 0
0 0 0 1041 387338 -8437 0
0 0 0 929 388267 -7508 0
0 0 0 963 389230 -6545 0
0 0 0 858 390088 -5687 0
0 0 0 819 390907 -4868 0
0 0 0 819 391726 -4049 0
0 0 0 789 392515 -3260 0
0 0 0 891 393406 -2369 0
23 1 S112 1001 394407 -1368 0
23 1 S112 974 395381 -394 0
23 2 S112 886 396267 492 0
23 2 S112 952 397219 1444 0
23 2 S112 1009 398228 2453 0
23 2 S112 971 399199 3424 0
23 2 S112 923 400122 4347 0
23 2 S112 990 401112 5337 0
23 2 S112 1040 402152 6377 0
0 0 0 971 403123 -10192 0
0 0 0 965 404088 -9227 0
0 0 0 1022 405110 -8205 0
0 0 0 964 406074 -7241 0
0 0 0 925 406999 -6316 0
0 0 0 962 407961 -5354 0
0 0 0 973 408934 -4381 0
0 0 0 910 409844 -3471 0
0 0 0 974 410818 -2497 0
24 1 S106 971 411789 -1526 0
24 1 S106 913 412702 -613 0
24 2 S106 918 413620 305 0
24 2 S106 956 414576 1261 0
24 2 S106 967 415543 2228 0
24 2 S106 896 416439 3124 0
24 2 S106 928 417367 4052 0
24 2 S106 965 418332 5017 0
24 2 S106 967 419299 5984 0
24 2 S106 900 420199 6884 0
0 0 0 927 421126 -7955 0
0 0 0 965 422091 -6990 0
0 0 0 949 423040 -6041 0
0 0 0 872 423912 -5169 0
0 0 0 946 424858 -4223 0
0 0 0 1000 425858 -3223 0
0 0 0 954 426812 -2269 0
25 1 S102 962 427774 -1307 0
25 1 S102 978 428752 -329 0
25 2 S102 948 429700 619 0
25 2 S102 896 430596 1515 0
25 2 S102 988 431584 2503 0
25 2 S102 1034 432618 3537 0
25 2 S102 958 433576 4495 0
25 2 S102 948 434524 5443 0
25 2 S102 970 435494 6413 0
0 0 0 946 436440 -7578 0
0 0 0 873 437313 -6705 0
0 0 0 925 438238 -5780 0
0 0 0 948 439186 -4832 0
0 0 0 916 440102 -3916 0
0 0 0 884 440986 -3032 0
0 0 0 990 441976 -2042 0
26 1 S116 1040 443016 -1002 0
26 1 S116 982 443998 -20 0
26 2 S116 965 444963 945 0
26 2 S116 997 445960 1942 0
26 2 S116 1007 446967 2949 0
26 2 S116 916 447883 3865 0
26 2 S116 957 448840 4822 0
26 2 S116 971 449811 5793 0
26 2 S116 977 450788 6770 0
0 0 0 914 451702 -8215 0
0 0 0 995 452697 -7220 0
0 0 0 1034 453731 -6186 0
0 0 0 972 454703 -5214 0
0 0 0 977 455680 -4237 0
0 0 0 995 456675 -3242 0
0 0 0 944 457619 -2298 0
27 1 S106 925 458544 -1373 0
27 1 S106 988 459532 -385 0
27 2 S106 992 460524 607 0
27 2 S106 911 461435 1518 0
27 2 S106 961 462396 2479 0
27 2 S106 996 463392 3475 0
27 2 S106 946 464338 4421 0
27 2 S106 927 465265 5348 0
27 2 S106 984 466249 6332 0
0 0 0 999 467248 -8700 0
0 0 0 929 468177 -7771 0
0 0 0 978 469155 -6793 0
0 0 0 983 470138 -5810 0
0 0 0 924 471062 -4886 0
0 0 0 940 472002 -3946 0
0 0 0 948 472950 -2998 0
0 0 0 897 473847 -2101 0
28 1 S102 882 474729 -1219 0
28 1 S102 919 475648 -300 0
28 2 S102 947 476595 647 0
28 2 S102 899 477494 1546 0
28 2 S102 930 478424 2476 0
28 2 S102 986 479410 3462 0
28 2 S102 948 480358 4410 0
28 2 S102 888 481246 5298 0
28 2 S102 920 482166 6218 0
0 0 0 941 483107 -11409 0
0 0 0 910 484017 -10499 0
0 0 0 875 484892 -9624 0
0 0 0 894 485786 -8730 0
0 0 0 908 486694 -7822 0
0 0 0 872 487566 -6950 0
0 0 0 885 488451 -6065 0
0 0 0 914 489365 -5151 0
0 0 0 919 490284 -4232 0
0 0 0 865 491149 -3367 0
0 0 0 911 492060 -2456 0
29 1 S112 973 493033 -1483 0
29 1 S112 987 494020 -496 0
29 2 S112 916 494936 420 0
29 2 S112 945 495881 1365 0
29 2 S112 954 496835 2319 0
29 2 S112 943 497778 3262 0
29 2 S112 884 498662 4146 0
29 2 S112 951 499613 5097 0
29 2 S112 1004 500617 6101 0
0 0 0 940 501557 -8294 0
0 0 0 944 502501 -7350 0
0 0 0 968 503469 -6382 0
0 0 0 934 504403 -5448 0
0 0 0 878 505281 -4570 0
0 0 0 830 506111 -3740 0
0 0 0 794 506905 -2946 0
0 0 0 811 507716 -2135 0
30 1 S112 796 508512 -1339 0
30 1 S112 834 509346 -505 0
30 2 S112 929 510275 424 0
30 2 S112 985 511260 1409 0
30 2 S112 946 512206 2355 0
30 2 S112 991 513197 3346 0
30 2 S112 990 514187 4336 0
30 2 S112 940 515127 5276 0
30 2 S112 858 515985 6134 0
30 2 S112 858 516843 6992 0
0 0 0 867 517710 -8686 0
0 0 0 867 518577 -7819 0
0 0 0 815 519392 -7004 0
0 0 0 881 520273 -6123 0
0 0 0 962 521235 -5161 0
0 0 0 995 522230 -4166 0
0 0 0 919 523149 -3247 0
0 0 0 967 524116 -2280 0
31 1 S106 995 525111 -1285 0
31 1 S106 918 526029 -367 0
31 2 S106 954 526983 587 0
31 2 S106 1041 528024 1628 0
31 2 S106 979 529003 2607 0
31 2 S106 901 529904 3508 0
31 2 S106 948 530852 4456 0
31 2 S106 988 531840 5444 0
31 2 S106 956 532796 6400 0
0 0 0 951 533747 -10189 0
0 0 0 1027 534774 -9162 0
0 0 0 1038 535812 -8124 0
0 0 0 936 536748 -7188 0
0 0 0 951 537699 -6237 0
0 0 0 946 538645 -5291 0
0 0 0 887 539532 -4404 0
0 0 0 889 540421 -3515 0
0 0 0 917 541338 -2598 0
32 1 S102 960 542298 -1638 0
32 1 S102 910 543208 -728 0
32 2 S102 967 544175 239 0
32 2 S102 1020 545195 1259 0
32 2 S102 986 546181 2245 0
32 2 S102 923 547104 3168 0
32 2 S102 971 548075 4139 0
32 2 S102 976 549051 5115 0
32 2 S102 917 549968 6032 0
32 2 S102 837 550805 6869 0
0 0 0 810 551615 -11718 0
0 0 0 781 552396 -10937 0
0 0 0 753 553149 -10184 0
0 0 0 767 553916 -9417 0
0 0 0 758 554674 -8659 0
0 0 0 789 555463 -7870 0
0 0 0 777 556240 -7093 0
0 0 0 770 557010 -6323 0
0 0 0 798 557808 -5525 0
0 0 0 809 558617 -4716 0
0 0 0 862 559479 -3854 0
0 0 0 907 560386 -2947 0
0 0 0 864 561250 -2083 0
33 1 S112 780 562030 -1303 0
33 1 S112 779 562809 -524 0
33 2 S112 757 563566 233 0
33 2 S112 784 564350 1017 0
33 2 S112 791 565141 1808 0
33 2 S112 806 565947 2614 0
33 2 S112 1012 566959 3626 0
33 2 S112 1119 568078 4745 0
33 2 S112 1052 569130 5797 0
33 2 S112 1065 570195 6862 0
0 0 0 1134 571329 -11467 0
0 0 0 1039 572368 -10428 0
0 0 0 1002 573370 -9426 0
0 0 0 1047 574417 -8379 0
0 0 0 937 575354 -7442 0
0 0 0 846 576200 -6596 0
0 0 0 806 577006 -5790 0
0 0 0 752 577758 -5038 0
0 0 0 821 578579 -4217 0
0 0 0 948 579527 -3269 0
0 0 0 974 580501 -2295 0
34 1 S106 986 581487 -1309 0
34 1 S106 1117 582604 -192 0
34 2 S106 1101 583705 909 0
34 2 S106 985 584690 1894 0
34 2 S106 1008 585698 2902 0
34 2 S106 1011 586709 3913 0
34 2 S106 938 587647 4851 0
34 2 S106 951 588598 5802 0
34 2 S106 1005 589603 6807 0
0 0 0 1071 590674 -8817 0
0 0 0 963 591637 -7854 0
0 0 0 992 592629 -6862 0
0 0 0 974 593603 -5888 0
0 0 0 903 594506 -4985 0
0 0 0 900 595406 -4085 0
0 0 0 950 596356 -3135 0
0 0 0 854 597210 -2281 0
35 1 S102 839 598049 -1442 0
35 1 S102 843 598892 -599 0
35 2 S102 830 599722 231 0
35 2 S102 968 600690 1199 0
35 2 S102 1018 601708 2217 0
35 2 S102 947 602655 3164 0
35 2 S102 959 603614 4123 0
35 2 S102 1006 604620 5129 0
35 2 S102 1001 605621 6130 0
0 0 0 905 606526 -8233 0
0 0 0 990 607516 -7243 0
0 0 0 1047 608563 -6196 0
0 0 0 984 609547 -5212 0
0 0 0 965 610512 -4247 0
0 0 0 1032 611544 -3215 0
0 0 0 1042 612586 -2173 0
36 1 S106 942 613528 -1231 0
36 1 S106 1014 614542 -217 0
36 2 S106 1036 615578 819 0
36 2 S106 948 616526 1767 0
36 2 S106 965 617491 2732 0
36 2 S106 996 618487 3728 0
36 2 S106 992 619479 4720 0
36 2 S106 912 620391 5632 0
36 2 S106 972 621363 6604 0
0 0 0 1021 622384 -8689 0
0 0 0 985 623369 -7704 0
0 0 0 968 624337 -6736 0
0 0 0 968 625305 -5768 0
0 0 0 916 626221 -4852 0
0 0 0 864 627085 -3988 0
0 0 0 879 627964 -3109 0
0 0 0 920 628884 -2189 0
37 1 S116 928 629812 -1261 0
37 1 S116 891 630703 -370 0
37 2 S116 964 631667 594 0
37 2 S116 1015 632682 1609 0
37 2 S116 956 633638 2565 0
37 2 S116 932 634570 3497 0
37 2 S116 968 635538 4465 0
37 2 S116 986 636524 5451 0
37 2 S116 914 637438 6365 0
0 0 0 920 638358 -11863 0
0 0 0 979 639337 -10884 0
0 0 0 991 640328 -9893 0
0 0 0 919 641247 -8974 0
0 0 0 959 642206 -8015 0
0 0 0 946 643152 -7069 0
0 0 0 900 644052 -6169 0
0 0 0 923 644975 -5246 0
0 0 0 965 645940 -4281 0
0 0 0 948 646888 -3333 0
0 0 0 881 647769 -2452 0
38 1 S102 920 648689 -1532 0
38 1 S102 941 649630 -591 0
38 2 S102 954 650584 363 0
38 2 S102 881 651465 1244 0
38 2 S102 919 652384 2163 0
38 2 S102 949 653333 3112 0
38 2 S102 949 654282 4061 0
38 2 S102 884 655166 4945 0
38 2 S102 930 656096 5875 0
38 2 S102 981 657077 6856 0
0 0 0 979 658056 -10086 0
0 0 0 914 658970 -9172 0
0 0 0 948 659918 -8224 0
0 0 0 972 660890 -7252 0
0 0 0 959 661849 -6293 0
0 0 0 874 662723 -5419 0
0 0 0 926 663649 -4493 0
0 0 0 962 664611 -3531 0
0 0 0 903 665514 -2628 0
39 1 S116 876 666390 -1752 0
39 1 S116 845 667235 -907 0
39 1 S116 824 668059 -83 0
39 2 S116 858 668917 775 0
39 2 S116 873 669790 1648 0
39 2 S116 852 670642 2500 0
39 2 S116 916 671558 3416 0
39 2 S116 997 672555 4413 0
39 2 S116 1011 673566 5424 0
39 2 S116 922 674488 6346 0
0 0 0 924 675412 -8380 0
0 0 0 911 676323 -7469 0
0 0 0 900 677223 -6569 0
0 0 0 813 678036 -5756 0
0 0 0 770 678806 -4986 0
0 0 0 771 679577 -4215 0
0 0 0 745 680322 -3470 0
0 0 0 717 681039 -2753 1
0 0 0 716 681755 -2037 1
40 1 S112 721 682476 -1316 1
40 1 S112 767 683243 -549 0
40 2 S112 895 684138 346 0
40 2 S112 1052 685190 1398 0
40 2 S112 993 686183 2391 0
40 2 S112 990 687173 3381 0
40 2 S112 1026 688199 4407 0
40 2 S112 1001 689200 5408 0
40 2 S112 917 690117 6325 0
0 0 0 924 691041 -186934 0
0 0 0 967 692008 -185967 0
0 0 0 981 692989 -184986 0
0 0 0 895 693884 -184091 0
0 0 0 814 694698 -183277 0
0 0 0 771 695469 -182506 0
0 0 0 709 696178 -181797 1
0 0 0 762 696940 -181035 0
0 0 0 763 697703 -180272 0
0 0 0 771 698474 -179501 0
0 0 0 749 699223 -178752 0
0 0 0 777 700000 -177975 0
0 0 0 781 700781 -177194 0
0 0 0 772 701553 -176422 0
0 0 0 752 702305 -175670 0
0 0 0 742 703047 -174928 1
0 0 0 722 703769 -174206 1
0 0 0 699 704468 -173507 1
0 0 0 675 705143 -172832 1
0 0 0 642 705785 -172190 1
0 0 0 635 706420 -171555 1
0 0 0 626 707046 -170929 1
0 0 0 616 707662 -170313 1
0 0 0 616 708278 -169697 1
0 0 0 617 708895 -169080 1
0 0 0 626 709521 -168454 1
0 0 0 639 710160 -167815 1
0 0 0 659 710819 -167156 1
0 0 0 698 711517 -166458 1
0 0 0 694 712211 -165764 1
0 0 0 722 712933 -165042 1
0 0 0 821 713754 -164221 0
0 0 0 969 714723 -163252 0
0 0 0 1060 715783 -162192 0
0 0 0 954 716737 -161238 0
0 0 0 994 717731 -160244 0
0 0 0 987 718718 -159257 0
0 0 0 957 719675 -158300 0
0 0 0 842 720517 -157458 0
0 0 0 879 721396 -156579 0
0 0 0 1006 722402 -155573 0
0 0 0 1059 723461 -154514 0
0 0 0 948 724409 -153566 0
0 0 0 997 725406 -152569 0
0 0 0 1025 726431 -151544 0
0 0 0 996 727427 -150548 0
0 0 0 953 728380 -149595 0
0 0 0 972 729352 -148623 0
0 0 0 958 730310 -147665 0
0 0 0 895 731205 -146770 0
0 0 0 908 732113 -145862 0
0 0 0 916 733029 -144946 0
0 0 0 964 733993 -143982 0
0 0 0 856 734849 -143126 0
0 0 0 870 735719 -142256 0
0 0 0 830 736549 -141426 0
0 0 0 792 737341 -140634 0
0 0 0 753 738094 -139881 0
0 0 0 734 738828 -139147 1
0 0 0 720 739548 -138427 1
0 0 0 726 740274 -137701 1
0 0 0 750 741024 -136951 0
0 0 0 751 741775 -136200 0
0 0 0 750 742525 -135450 0
0 0 0 728 743253 -134722 1
0 0 0 747 744000 -133975 0
0 0 0 759 744759 -133216 0
0 0 0 800 745559 -132416 0
0 0 0 809 746368 -131607 0
0 0 0 844 747212 -130763 0
0 0 0 928 748140 -129835 0
0 0 0 1012 749152 -128823 0
0 0 0 912 750064 -127911 0
0 0 0 908 750972 -127003 0
0 0 0 908 751880 -126095 0
0 0 0 932 752812 -125163 0
0 0 0 868 753680 -124295 0
0 0 0 879 754559 -123416 0
0 0 0 919 755478 -122497 0
0 0 0 963 756441 -121534 0
0 0 0 902 757343 -120632 0
0 0 0 929 758272 -119703 0
0 0 0 931 759203 -118772 0
0 0 0 918 760121 -117854 0
0 0 0 853 760974 -117001 0
0 0 0 890 761864 -116111 0
0 0 0 903 762767 -115208 0
0 0 0 936 763703 -114272 0
0 0 0 857 764560 -113415 0
0 0 0 898 765458 -112517 0
0 0 0 931 766389 -111586 0
0 0 0 936 767325 -110650 0
0 0 0 863 768188 -109787 0
0 0 0 879 769067 -108908 0
0 0 0 867 769934 -108041 0
0 0 0 867 770801 -107174 0
0 0 0 847 771648 -106327 0
0 0 0 825 772473 -105502 0
0 0 0 866 773339 -104636 0
0 0 0 902 774241 -103734 0
0 0 0 850 775091 -102884 0
0 0 0 826 775917 -102058 0
0 0 0 932 776849 -101126 0
0 0 0 1040 777889 -100086 0
0 0 0 1022 778911 -99064 0
0 0 0 929 779840 -98135 0
0 0 0 913 780753 -97222 0
0 0 0 901 781654 -96321 0
0 0 0 917 782571 -95404 0
0 0 0 841 783412 -94563 0
0 0 0 881 784293 -93682 0
0 0 0 902 785195 -92780 0
0 0 0 935 786130 -91845 0
0 0 0 861 786991 -90984 0
0 0 0 900 787891 -90084 0
0 0 0 925 788816 -89159 0
0 0 0 912 789728 -88247 0
0 0 0 865 790593 -87382 0
0 0 0 828 791421 -86554 0
0 0 0 887 792308 -85667 0
0 0 0 936 793244 -84731 0
0 0 0 978 794222 -83753 0
0 0 0 903 795125 -82850 0
0 0 0 967 796092 -81883 0
0 0 0 997 797089 -80886 0
0 0 0 977 798066 -79909 0
0 0 0 887 798953 -79022 0
0 0 0 912 799865 -78110 0
0 0 0 914 800779 -77196 0
0 0 0 914 801693 -76282 0
0 0 0 873 802566 -75409 0
0 0 0 884 803450 -74525 0
0 0 0 915 804365 -73610 0
0 0 0 926 805291 -72684 0
0 0 0 870 806161 -71814 0
0 0 0 927 807088 -70887 0
0 0 0 945 808033 -69942 0
0 0 0 940 808973 -69002 0
0 0 0 866 809839 -68136 0
0 0 0 880 810719 -67256 0
0 0 0 884 811603 -66372 0
0 0 0 882 812485 -65490 0
0 0 0 824 813309 -64666 0
0 0 0 880 814189 -63786 0
0 0 0 937 815126 -62849 0
0 0 0 947 816073 -61902 0
0 0 0 873 816946 -61029 0
0 0 0 918 817864 -60111 0
0 0 0 944 818808 -59167 0
0 0 0 894 819702 -58273 0
0 0 0 829 820531 -57444 0
0 0 0 814 821345 -56630 0
0 0 0 823 822168 -55807 0
0 0 0 894 823062 -54913 0
0 0 0 880 823942 -54033 0
0 0 0 837 824779 -53196 0
0 0 0 897 825676 -52299 0
0 0 0 901 826577 -51398 0
0 0 0 955 827532 -50443 0
0 0 0 881 828413 -49562 0
0 0 0 917 829330 -48645 0
0 0 0 947 830277 -47698 0
0 0 0 963 831240 -46735 0
0 0 0 876 832116 -45859 0
0 0 0 915 833031 -44944 0
0 0 0 931 833962 -44013 0
0 0 0 914 834876 -43099 0
0 0 0 843 835719 -42256 0
0 0 0 879 836598 -41377 0
0 0 0 924 837522 -40453 0
0 0 0 953 838475 -39500 0
0 0 0 928 839403 -38572 0
0 0 0 1017 840420 -37555 0
0 0 0 1035 841455 -36520 0
0 0 0 1025 842480 -35495 0
0 0 0 953 843433 -34542 0
0 0 0 996 844429 -33546 0
0 0 0 990 845419 -32556 0
0 0 0 993 846412 -31563 0
0 0 0 975 847387 -30588 0
0 0 0 1054 848441 -29534 0
0 0 0 1027 849468 -28507 0
0 0 0 875 850343 -27632 0
0 0 0 798 851141 -26834 0
0 0 0 758 851899 -26076 0
0 0 0 746 852645 -25330 0
0 0 0 763 853408 -24567 0
0 0 0 804 854212 -23763 0
0 0 0 813 855025 -22950 0
0 0 0 793 855818 -22157 0
0 0 0 769 856587 -21388 0
0 0 0 732 857319 -20656 1
0 0 0 741 858060 -19915 1
0 0 0 738 858798 -19177 1
0 0 0 749 859547 -18428 0
0 0 0 740 860287 -17688 1
0 0 0 721 861008 -16967 1
0 0 0 741 861749 -16226 1
0 0 0 764 862513 -15462 0
0 0 0 790 863303 -14672 0
0 0 0 819 864122 -13853 0
0 0 0 798 864920 -13055 0
0 0 0 816 865736 -12239 0
0 0 0 879 866615 -11360 0
0 0 0 947 867562 -10413 0
0 0 0 866 868428 -9547 0
0 0 0 850 869278 -8697 0
0 0 0 813 870091 -7884 0
0 0 0 940 871031 -6944 0
0 0 0 903 871934 -6041 0
0 0 0 935 872869 -5106 0
0 0 0 1052 873921 -4054 0
0 0 0 1031 874952 -3023 0
0 0 0 909 875861 -2114 0
41 1 S102 944 876805 -1170 0
41 1 S102 988 877793 -182 0
41 2 S102 1024 878817 842 0
41 2 S102 940 879757 1782 0
41 2 S102 989 880746 2771 0
41 2 S102 1026 881772 3797 0
41 2 S102 970 882742 4767 0
41 2 S102 971 883713 5738 0
41 2 S102 1010 884723 6748 0
0 0 0 1002 885725 -7187 0
0 0 0 915 886640 -6272 0
0 0 0 982 887622 -5290 0
0 0 0 997 888619 -4293 0
0 0 0 963 889582 -3330 0
0 0 0 938 890520 -2392 0
42 1 S112 950 891470 -1442 0
42 1 S112 982 892452 -460 0
42 2 S112 893 893345 433 0
42 2 S112 926 894271 1359 0
42 2 S112 1014 895285 2373 0
42 2 S112 1059 896344 3432 0
42 2 S112 964 897308 4396 0
42 2 S112 1048 898356 5444 0
42 2 S112 1061 899417 6505 0
0 0 0 1009 900426 -9794 0
0 0 0 1004 901430 -8790 0
0 0 0 1027 902457 -7763 0
0 0 0 1036 903493 -6727 0
0 0 0 918 904411 -5809 0
0 0 0 980 905391 -4829 0
0 0 0 1016 906407 -3813 0
0 0 0 939 907346 -2874 0
43 1 S116 952 908298 -1922 0
43 1 S116 1012 909310 -910 0
43 2 S116 1049 910359 139 0
43 2 S116 941 911300 1080 0
43 2 S116 994 912294 2074 0
43 2 S116 1051 913345 3125 0
43 2 S116 1065 914410 4190 0
43 2 S116 1005 915415 5195 0
43 2 S116 1016 916431 6211 0
0 0 0 1065 917496 -7561 0
0 0 0 1061 918557 -6500 0
0 0 0 944 919501 -5556 0
0 0 0 993 920494 -4563 0
0 0 0 1012 921506 -3551 0
0 0 0 959 922465 -2592 0
44 1 S102 978 923443 -1614 0
44 1 S102 1018 924461 -596 0
44 2 S102 1023 925484 427 0
44 2 S102 926 926410 1353 0
44 2 S102 962 927372 2315 0
44 2 S102 1000 928372 3315 0
44 2 S102 977 929349 4292 0
44 2 S102 901 930250 5193 0
44 2 S102 945 931195 6138 0
0 0 0 1017 932212 -9772 0
0 0 0 988 933200 -8784 0
0 0 0 940 934140 -7844 0
0 0 0 973 935113 -6871 0
0 0 0 987 936100 -5884 0
0 0 0 918 937018 -4966 0
0 0 0 914 937932 -4052 0
0 0 0 954 938886 -3098 0
0 0 0 969 939855 -2129 0
45 1 S116 928 940783 -1201 0
45 1 S116 956 941739 -245 0
45 2 S116 1017 942756 772 0
45 2 S116 1032 943788 1804 0
45 2 S116 985 944773 2789 0
45 2 S116 985 945758 3774 0
45 2 S116 1026 946784 4800 0
45 2 S116 1044 947828 5844 0
45 2 S116 959 948787 6803 0
0 0 0 968 949755 -11145 0
0 0 0 982 950737 -10163 0
0 0 0 973 951710 -9190 0
0 0 0 895 952605 -8295 0
0 0 0 936 953541 -7359 0
0 0 0 954 954495 -6405 0
0 0 0 898 955393 -5507 0
0 0 0 921 956314 -4586 0
0 0 0 955 957269 -3631 0
0 0 0 978 958247 -2653 0
46 1 S102 903 959150 -1750 0
46 1 S102 967 960117 -783 0
46 2 S102 1014 961131 231 0
46 2 S102 978 962109 1209 0
46 2 S102 918 963027 2127 0
46 2 S102 948 963975 3075 0
46 2 S102 952 964927 4027 0
46 2 S102 919 965846 4946 0
46 2 S102 869 966715 5815 0
46 2 S102 917 967632 6732 0
0 0 0 940 968572 -9785 0
0 0 0 931 969503 -8854 0
0 0 0 936 970439 -7918 0
0 0 0 989 971428 -6929 0
0 0 0 927 972355 -6002 0
0 0 0 839 973194 -5163 0
0 0 0 810 974004 -4353 0
0 0 0 762 974766 -3591 0
0 0 0 791 975557 -2800 0
47 1 S112 801 976358 -1999 0
47 1 S112 861 977219 -1138 0
47 1 S112 833 978052 -305 0
47 2 S112 853 978905 548 0
47 2 S112 916 979821 1464 0
47 2 S112 963 980784 2427 0
47 2 S112 1014 981798 3441 0
47 2 S112 991 982789 4432 0
47 2 S112 982 983771 5414 0
47 2 S112 938 984709 6352 0
0 0 0 941 985650 -11772 0
0 0 0 940 986590 -10832 0
0 0 0 886 987476 -9946 0
0 0 0 852 988328 -9094 0
0 0 0 865 989193 -8229 0
0 0 0 893 990086 -7336 0
0 0 0 847 990933 -6489 0
0 0 0 831 991764 -5658 0
0 0 0 905 992669 -4753 0
0 0 0 937 993606 -3816 0
0 0 0 930 994536 -2886 0
48 1 S116 909 995445 -1977 0
48 1 S116 925 996370 -1052 0
48 1 S116 921 997291 -131 0
48 2 S116 880 998171 749 0
48 2 S116 874 999045 1623 0
48 2 S116 914 999959 2537 0
48 2 S116 980 1000939 3517 0
48 2 S116 900 1001839 4417 0
48 2 S116 910 1002749 5327 0
48 2 S116 968 1003717 6295 0
0 0 0 1031 1004748 -7976 0
0 0 0 961 1005709 -7015 0
0 0 0 943 1006652 -6072 0
0 0 0 967 1007619 -5105 0
0 0 0 922 1008541 -4183 0
0 0 0 839 1009380 -3344 0
0 0 0 819 1010199 -2525 0
49 1 S112 760 1010959 -1765 0
49 1 S112 804 1011763 -961 0
49 1 S112 875 1012638 -86 0
49 2 S112 978 1013616 892 0
49 2 S112 939 1014555 1831 0
49 2 S112 1059 1015614 2890 0
49 2 S112 1078 1016692 3968 0
49 2 S112 1019 1017711 4987 0
49 2 S112 980 1018691 5967 0
49 2 S112 1002 1019693 6969 0
0 0 0 1011 1020704 -10953 0
0 0 0 916 1021620 -10037 0
0 0 0 959 1022579 -9078 0
0 0 0 968 1023547 -8110 0
0 0 0 921 1024468 -7189 0
0 0 0 922 1025390 -6267 0
0 0 0 1010 1026400 -5257 0
0 0 0 1063 1027463 -4194 0
0 0 0 976 1028439 -3218 0
0 0 0 978 1029417 -2240 0
50 1 S106 1006 1030423 -1234 0
50 1 S106 961 1031384 -273 0
50 2 S106 929 1032313 656 0
50 2 S106 991 1033304 1647 0
50 2 S106 1051 1034355 2698 0
50 2 S106 983 1035338 3681 0
50 2 S106 963 1036301 4644 0
50 2 S106 1019 1037320 5663 0
50 2 S106 1015 1038335 6678 0
0 0 0 945 1039280 -6667 0
0 0 0 947 1040227 -5720 0
0 0 0 969 1041196 -4751 0
0 0 0 944 1042140 -3807 0
0 0 0 888 1043028 -2919 0
51 1 S112 931 1043959 -1988 0
51 1 S112 992 1044951 -996 0
51 1 S112 983 1045934 -13 0
51 2 S112 945 1046879 932 0
51 2 S112 999 1047878 1931 0
51 2 S112 1005 1048883 2936 0
51 2 S112 966 1049849 3902 0
51 2 S112 965 1050814 4867 0
51 2 S112 990 1051804 5857 0
51 2 S112 1003 1052807 6860 0
0 0 0 920 1053727 -6113 0
0 0 0 962 1054689 -5151 0
0 0 0 958 1055647 -4193 0
0 0 0 940 1056587 -3253 0
0 0 0 935 1057522 -2318 0
52 1 S116 985 1058507 -1333 0
52 1 S116 1008 1059515 -325 0
52 2 S116 941 1060456 616 0
52 2 S116 954 1061410 1570 0
52 2 S116 1008 1062418 2578 0
52 2 S116 1033 1063451 3611 0
52 2 S116 1038 1064489 4649 0
52 2 S116 998 1065487 5647 0
52 2 S116 1007 1066494 6654 0
0 0 0 1047 1067541 -9027 0
0 0 0 1050 1068591 -7977 0
0 0 0 945 1069536 -7032 0
0 0 0 944 1070480 -6088 0
0 0 0 952 1071432 -5136 0
0 0 0 913 1072345 -4223 0
0 0 0 841 1073186 -3382 0
0 0 0 829 1074015 -2553 0
53 1 S106 785 1074800 -1768 0
53 1 S106 842 1075642 -926 0
53 1 S106 909 1076551 -17 0
53 2 S106 956 1077507 939 0
53 2 S106 867 1078374 1806 0
53 2 S106 868 1079242 2674 0
53 2 S106 894 1080136 3568 0
53 2 S106 927 1081063 4495 0
53 2 S106 862 1081925 5357 0
53 2 S106 921 1082846 6278 0
0 0 0 990 1083836 -6226 0
0 0 0 1051 1084887 -5175 0
0 0 0 965 1085852 -4210 0
0 0 0 1012 1086864 -3198 0
0 0 0 1044 1087908 -2154 0
54 1 S102 1047 1088955 -1107 0
54 1 S102 961 1089916 -146 0
54 2 S102 1023 1090939 877 0
54 2 S102 1054 1091993 1931 0
54 2 S102 1010 1093003 2941 0
54 2 S102 969 1093972 3910 0
54 2 S102 1032 1095004 4942 0
54 2 S102 1039 1096043 5981 0
54 2 S102 959 1097002 6940 0
0 0 0 996 1097998 -9074 0
0 0 0 1057 1099055 -8017 0
0 0 0 1060 1100115 -6957 0
0 0 0 984 1101099 -5973 0
0 0 0 1024 1102123 -4949 0
0 0 0 1036 1103159 -3913 0
0 0 0 963 1104122 -2950 0
55 1 S106 971 1105093 -1979 0
55 1 S106 1018 1106111 -961 0
55 2 S106 1033 1107144 72 0
55 2 S106 952 1108096 1024 0
55 2 S106 978 1109074 2002 0
55 2 S106 1009 1110083 3011 0
55 2 S106 995 1111078 4006 0
55 2 S106 938 1112016 4944 0
55 2 S106 996 1113012 5940 0
55 2 S106 1051 1114063 6991 0
0 0 0 987 1115050 -7373 0
0 0 0 982 1116032 -6391 0
0 0 0 1028 1117060 -5363 0
0 0 0 1011 1118071 -4352 0
0 0 0 937 1119008 -3415 0
0 0 0 968 1119976 -2447 0
56 1 S116 981 1120957 -1466 0
56 1 S116 948 1121905 -518 0
56 2 S116 936 1122841 418 0
56 2 S116 978 1123819 1396 0
56 2 S116 1023 1124842 2419 0
56 2 S116 1010 1125852 3429 0
56 2 S116 967 1126819 4396 0
56 2 S116 1018 1127837 5414 0
56 2 S116 1008 1128845 6422 0
0 0 0 926 1129771 -6578 0
0 0 0 925 1130696 -5653 0
0 0 0 932 1131628 -4721 0
0 0 0 916 1132544 -3805 0
0 0 0 859 1133403 -2946 0
0 0 0 893 1134296 -2053 0
57 1 S106 940 1135236 -1113 0
57 1 S106 963 1136199 -150 0
57 2 S106 920 1137119 770 0
57 2 S106 999 1138118 1769 0
57 2 S106 1036 1139154 2805 0
57 2 S106 965 1140119 3770 0
57 2 S106 912 1141031 4682 0
57 2 S106 909 1141940 5591 0
57 2 S106 927 1142867 6518 0
0 0 0 886 1143753 -8429 0
0 0 0 888 1144641 -7541 0
0 0 0 954 1145595 -6587 0
0 0 0 1007 1146602 -5580 0
0 0 0 990 1147592 -4590 0
0 0 0 990 1148582 -3600 0
0 0 0 1080 1149662 -2520 0
58 1 S102 1059 1150721 -1461 0
58 1 S102 960 1151681 -501 0
58 2 S102 984 1152665 483 0
58 2 S102 1022 1153687 1505 0
58 2 S102 992 1154679 2497 0
58 2 S102 934 1155613 3431 0
58 2 S102 994 1156607 4425 0
58 2 S102 1038 1157645 5463 0
58 2 S102 1006 1158651 6469 0
0 0 0 956 1159607 -7014 0
0 0 0 1011 1160618 -6003 0
0 0 0 1028 1161646 -4975 0
0 0 0 940 1162586 -4035 0
0 0 0 953 1163539 -3082 0
0 0 0 977 1164516 -2105 0
59 1 S112 1010 1165526 -1095 0
59 1 S112 953 1166479 -142 0
59 2 S112 989 1167468 847 0
59 2 S112 1035 1168503 1882 0
59 2 S112 1035 1169538 2917 0
59 2 S112 965 1170503 3882 0
59 2 S112 1032 1171535 4914 0
59 2 S112 1039 1172574 5953 0
59 2 S112 975 1173549 6928 0
0 0 0 960 1174509 -9288 0
0 0 0 972 1175481 -8316 0
0 0 0 979 1176460 -7337 0
0 0 0 907 1177367 -6430 0
0 0 0 923 1178290 -5507 0
0 0 0 839 1179129 -4668 0
0 0 0 816 1179945 -3852 0
0 0 0 866 1180811 -2986 0
0 0 0 839 1181650 -2147 0
60 1 S102 910 1182560 -1237 0
60 1 S102 1008 1183568 -229 0
60 2 S102 1028 1184596 799 0
60 2 S102 940 1185536 1739 0
60 2 S102 955 1186491 2694 0
60 2 S102 963 1187454 3657 0
60 2 S102 973 1188427 4630 0
60 2 S102 905 1189332 5535 0
60 2 S102 986 1190318 6521 0
0 0 0 1044 1191362 -10522 0
0 0 0 1072 1192434 -9450 0
0 0 0 979 1193413 -8471 0
0 0 0 1022 1194435 -7449 0
0 0 0 1036 1195471 -6413 0
0 0 0 1010 1196481 -5403 0
0 0 0 945 1197426 -4458 0
0 0 0 972 1198398 -3486 0
0 0 0 992 1199390 -2494 0
61 1 S106 943 1200333 -1551 0
61 1 S106 963 1201296 -588 0
61 2 S106 1027 1202323 439 0
61 2 S106 1044 1203367 1483 0
61 2 S106 980 1204347 2463 0
61 2 S106 982 1205329 3445 0
61 2 S106 975 1206304 4420 0
61 2 S106 996 1207300 5416 0
61 2 S106 921 1208221 6337 0
0 0 0 972 1209193 -7943 0
0 0 0 1004 1210197 -6939 0
0 0 0 1009 1211206 -5930 0
0 0 0 934 1212140 -4996 0
0 0 0 978 1213118 -4018 0
0 0 0 955 1214073 -3063 0
0 0 0 916 1214989 -2147 0
62 1 S112 936 1215925 -1211 0
62 1 S112 972 1216897 -239 0
62 2 S112 987 1217884 748 0
62 2 S112 923 1218807 1671 0
62 2 S112 957 1219764 2628 0
62 2 S112 975 1220739 3603 0
62 2 S112 970 1221709 4573 0
62 2 S112 944 1222653 5517 0
62 2 S112 1011 1223664 6528 0
0 0 0 1018 1224682 -10292 0
0 0 0 956 1225638 -9336 0
0 0 0 935 1226573 -8401 0
0 0 0 949 1227522 -7452 0
0 0 0 925 1228447 -6527 0
0 0 0 878 1229325 -5649 0
0 0 0 928 1230253 -4721 0
0 0 0 966 1231219 -3755 0
0 0 0 932 1232151 -2823 0
63 1 S102 921 1233072 -1902 0
63 1 S102 976 1234048 -926 0
63 2 S102 991 1235039 65 0
63 2 S102 918 1235957 983 0
63 2 S102 933 1236890 1916 0
63 2 S102 955 1237845 2871 0
63 2 S102 968 1238813 3839 0
63 2 S102 898 1239711 4737 0
63 2 S102 980 1240691 5717 0
63 2 S102 1010 1241701 6727 0
0 0 0 1003 1242704 -9180 0
0 0 0 956 1243660 -8224 0
0 0 0 1021 1244681 -7203 0
0 0 0 1030 1245711 -6173 0
0 0 0 984 1246695 -5189 0
0 0 0 968 1247663 -4221 0
0 0 0 998 1248661 -3223 0
0 0 0 995 1249656 -2228 0
64 1 S112 930 1250586 -1298 0
64 1 S112 953 1251539 -345 0
64 2 S112 995 1252534 650 0
64 2 S112 1020 1253554 1670 0
64 2 S112 986 1254540 2656 0
64 2 S112 1010 1255550 3666 0
64 2 S112 1041 1256591 4707 0
64 2 S112 1033 1257624 5740 0
64 2 S112 955 1258579 6695 0
0 0 0 983 1259562 -6911 0
0 0 0 1020 1260582 -5891 0
0 0 0 998 1261580 -4893 0
0 0 0 920 1262500 -3973 0
0 0 0 956 1263456 -3017 0
0 0 0 1006 1264462 -2011 0
65 1 S106 942 1265404 -1069 0
65 1 S106 979 1266383 -90 0
65 2 S106 1002 1267385 912 0
65 2 S106 1012 1268397 1924 0
65 2 S106 953 1269350 2877 0
65 2 S106 1009 1270359 3886 0
65 2 S106 1029 1271388 4915 0
65 2 S106 987 1272375 5902 0
65 2 S106 973 1273348 6875 0
0 0 0 1009 1274357 -7136 0
0 0 0 991 1275348 -6145 0
0 0 0 909 1276257 -5236 0
0 0 0 939 1277196 -4297 0
0 0 0 960 1278156 -3337 0
0 0 0 955 1279111 -2382 0
66 1 S116 899 1280010 -1483 0
66 1 S116 965 1280975 -518 0
66 2 S116 984 1281959 466 0
66 2 S116 947 1282906 1413 0
66 2 S116 944 1283850 2357 0
66 2 S116 972 1284822 3329 0
66 2 S116 1024 1285846 4353 0
66 2 S116 1023 1286869 5376 0
66 2 S116 974 1287843 6350 0
0 0 0 942 1288785 -11641 0
0 0 0 987 1289772 -10654 0
0 0 0 958 1290730 -9696 0
0 0 0 913 1291643 -8783 0
0 0 0 909 1292552 -7874 0
0 0 0 861 1293413 -7013 0
0 0 0 803 1294216 -6210 0
0 0 0 807 1295023 -5403 0
0 0 0 789 1295812 -4614 0
0 0 0 874 1296686 -3740 0
0 0 0 936 1297622 -2804 0
67 1 S102 958 1298580 -1846 0
67 1 S102 872 1299452 -974 0
67 1 S102 876 1300328 -98 0
67 2 S102 895 1301223 797 0
67 2 S102 911 1302134 1708 0
67 2 S102 849 1302983 2557 0
67 2 S102 892 1303875 3449 0
67 2 S102 980 1304855 4429 0
67 2 S102 1021 1305876 5450 0
67 2 S102 946 1306822 6396 0
0 0 0 965 1307787 -6913 0
0 0 0 1002 1308789 -5911 0
0 0 0 1028 1309817 -4883 0
0 0 0 939 1310756 -3944 0
0 0 0 950 1311706 -2994 0
68 1 S106 995 1312701 -1999 0
68 1 S106 1031 1313732 -968 0
68 1 S106 964 1314696 -4 0
68 2 S106 1000 1315696 996 0
68 2 S106 1042 1316738 2038 0
68 2 S106 1051 1317789 3089 0
68 2 S106 953 1318742 4042 0
68 2 S106 1034 1319776 5076 0
68 2 S106 1065 1320841 6141 0
0 0 0 991 1321832 -11104 0
0 0 0 970 1322802 -10134 0
0 0 0 990 1323792 -9144 0
0 0 0 977 1324769 -8167 0
0 0 0 922 1325691 -7245 0
0 0 0 971 1326662 -6274 0
0 0 0 1031 1327693 -5243 0
0 0 0 1025 1328718 -4218 0
0 0 0 951 1329669 -3267 0
0 0 0 992 1330661 -2275 0
69 1 S102 1024 1331685 -1251 0
69 1 S102 1029 1332714 -222 0
69 2 S102 954 1333668 732 0
69 2 S102 992 1334660 1724 0
69 2 S102 1013 1335673 2737 0
69 2 S102 977 1336650 3714 0
69 2 S102 988 1337638 4702 0
69 2 S102 1031 1338669 5733 0
69 2 S102 1040 1339709 6773 0
0 0 0 954 1340663 -9117 0
0 0 0 986 1341649 -8131 0
0 0 0 1020 1342669 -7111 0
0 0 0 982 1343651 -6129 0
0 0 0 919 1344570 -5210 0
0 0 0 940 1345510 -4270 0
0 0 0 957 1346467 -3313 0
0 0 0 925 1347392 -2388 0
70 1 S112 881 1348273 -1507 0
70 1 S112 904 1349177 -603 0
70 2 S112 915 1350092 312 0
70 2 S112 899 1350991 1211 0
70 2 S112 880 1351871 2091 0
70 2 S112 953 1352824 3044 0
70 2 S112 987 1353811 4031 0
70 2 S112 970 1354781 5001 0
70 2 S112 955 1355736 5956 0
70 2 S112 1000 1356736 6956 0
0 0 0 1029 1357765 -10599 0
0 0 0 944 1358709 -9655 0
0 0 0 936 1359645 -8719 0
0 0 0 947 1360592 -7772 0
0 0 0 972 1361564 -6800 0
0 0 0 910 1362474 -5890 0
0 0 0 969 1363443 -4921 0
0 0 0 1018 1364461 -3903 0
0 0 0 1001 1365462 -2902 0
71 1 S116 968 1366430 -1934 0
71 1 S116 1015 1367445 -919 0
71 2 S116 1046 1368491 127 0
71 2 S116 991 1369482 1118 0
71 2 S116 994 1370476 2112 0
71 2 S116 1012 1371488 3124 0
71 2 S116 1009 1372497 4133 0
71 2 S116 978 1373475 5111 0
71 2 S116 983 1374458 6094 0
0 0 0 984 1375442 -9981 0
0 0 0 923 1376365 -9058 0
0 0 0 906 1377271 -8152 0
0 0 0 913 1378184 -7239 0
0 0 0 912 1379096 -6327 0
0 0 0 879 1379975 -5448 0
0 0 0 820 1380795 -4628 0
0 0 0 778 1381573 -3850 0
0 0 0 827 1382400 -3023 0
0 0 0 926 1383326 -2097 0
72 1 S102 999 1384325 -1098 0
72 1 S102 918 1385243 -180 0
72 2 S102 937 1386180 757 0
72 2 S102 936 1387116 1693 0
72 2 S102 930 1388046 2623 0
72 2 S102 853 1388899 3476 0
72 2 S102 888 1389787 4364 0
72 2 S102 920 1390707 5284 0
72 2 S102 972 1391679 6256 0
0 0 0 928 1392607 -8317 0
0 0 0 975 1393582 -7342 0
0 0 0 1010 1394592 -6332 0
0 0 0 1022 1395614 -5310 0
0 0 0 938 1396552 -4372 0
0 0 0 969 1397521 -3403 0
0 0 0 985 1398506 -2418 0
73 1 S116 937 1399443 -1481 0
73 1 S116 960 1400403 -521 0
73 2 S116 1003 1401406 482 0
73 2 S116 1018 1402424 1500 0
73 2 S116 1006 1403430 2506 0
73 2 S116 1018 1404448 3524 0
73 2 S116 930 1405378 4454 0
73 2 S116 960 1406338 5414 0
73 2 S116 981 1407319 6395 0
0 0 0 1012 1408331 -9503 0
0 0 0 1019 1409350 -8484 0
0 0 0 922 1410272 -7562 0
0 0 0 938 1411210 -6624 0
0 0 0 851 1412061 -5773 0
0 0 0 790 1412851 -4983 0
0 0 0 786 1413637 -4197 0
0 0 0 759 1414396 -3438 0
0 0 0 813 1415209 -2625 0
74 1 S106 880 1416089 -1745 0
74 1 S106 964 1417053 -781 0
74 2 S106 894 1417947 113 0
74 2 S106 921 1418868 1034 0
74 2 S106 938 1419806 1972 0
74 2 S106 901 1420707 2873 0
74 2 S106 813 1421520 3686 0
74 2 S106 825 1422345 4511 0
74 2 S106 866 1423211 5377 0
74 2 S106 974 1424185 6351 0
0 0 0 948 1425133 -7389 0
0 0 0 923 1426056 -6466 0
0 0 0 1001 1427057 -5465 0
0 0 0 1044 1428101 -4421 0
0 0 0 954 1429055 -3467 0
0 0 0 1018 1430073 -2449 0
75 1 S112 1026 1431099 -1423 0
75 1 S112 983 1432082 -440 0
75 2 S112 957 1433039 517 0
75 2 S112 1033 1434072 1550 0
75 2 S112 1136 1435208 2686 0
75 2 S112 1060 1436268 3746 0
75 2 S112 1073 1437341 4819 0
75 2 S112 1096 1438437 5915 0
75 2 S112 1046 1439483 6961 0
0 0 0 1004 1440487 -6459 0
0 0 0 1045 1441532 -5414 0
0 0 0 1035 1442567 -4379 0
0 0 0 949 1443516 -3430 0
0 0 0 987 1444503 -2443 0
76 1 S116 984 1445487 -1459 0
76 1 S116 923 1446410 -536 0
76 2 S116 864 1447274 328 0
76 2 S116 955 1448229 1283 0
76 2 S116 1195 1449424 2478 1
76 2 S116 1138 1450562 3616 1
76 2 S116 1013 1451575 4629 0
76 2 S116 1078 1452653 5707 0
76 2 S116 1100 1453753 6807 0
0 0 0 997 1454750 -6718 0
0 0 0 943 1455693 -5775 0
0 0 0 926 1456619 -4849 0
0 0 0 876 1457495 -3973 0
0 0 0 810 1458305 -3163 0
0 0 0 851 1459156 -2312 0
77 1 S106 956 1460112 -1356 0
77 1 S106 1045 1461157 -311 0
77 2 S106 997 1462154 686 0
77 2 S106 1046 1463200 1732 0
77 2 S106 1119 1464319 2851 0
77 2 S106 1025 1465344 3876 0
77 2 S106 998 1466342 4874 0
77 2 S106 1037 1467379 5911 0
77 2 S106 1037 1468416 6948 0
0 0 0 991 1469407 -9833 0
0 0 0 987 1470394 -8846 0
0 0 0 1041 1471435 -7805 0
0 0 0 1057 1472492 -6748 0
0 0 0 941 1473433 -5807 0
0 0 0 876 1474309 -4931 0
0 0 0 841 1475150 -4090 0
0 0 0 877 1476027 -3213 0
0 0 0 969 1476996 -2244 0
78 1 S112 898 1477894 -1346 0
78 1 S112 990 1478884 -356 0
78 2 S112 1083 1479967 727 0
78 2 S112 1085 1481052 1812 0
78 2 S112 986 1482038 2798 0
78 2 S112 1018 1483056 3816 0
78 2 S112 1031 1484087 4847 0
78 2 S112 1030 1485117 5877 0
78 2 S112 962 1486079 6839 0
0 0 0 1031 1487110 -10582 0
0 0 0 1041 1488151 -9541 0
0 0 0 996 1489147 -8545 0
0 0 0 934 1490081 -7611 0
0 0 0 986 1491067 -6625 0
0 0 0 1047 1492114 -5578 0
0 0 0 972 1493086 -4606 0
0 0 0 1016 1494102 -3590 0
0 0 0 1054 1495156 -2536 0
79 1 S102 1074 1496230 -1462 0
79 1 S102 977 1497207 -485 0
79 2 S102 1030 1498237 545 0
79 2 S102 1023 1499260 1568 0
79 2 S102 1000 1500260 2568 0
79 2 S102 1003 1501263 3571 0
79 2 S102 1089 1502352 4660 0
79 2 S102 1069 1503421 5729 0
79 2 S102 972 1504393 6701 0
0 0 0 989 1505382 -7828 0
0 0 0 1007 1506389 -6821 0
0 0 0 1009 1507398 -5812 0
0 0 0 934 1508332 -4878 0
0 0 0 980 1509312 -3898 0
0 0 0 1028 1510340 -2870 0
80 1 S116 1025 1511365 -1845 0
80 1 S116 977 1512342 -868 0
80 2 S116 1039 1513381 171 0
80 2 S116 1064 1514445 1235 0
80 2 S116 1061 1515506 2296 0
80 2 S116 994 1516500 3290 0
80 2 S116 955 1517455 4245 0
80 2 S116 977 1518432 5222 0
80 2 S116 1019 1519451 6241 0
