T_0137
BeatCount Mean SD BeatCountNoOutliers MeanNoOutliers SDNoOutliers
1405 1057,74448398577 106,458347825616 1356 1069,91297935103 86,9782758749133

Trial TrialStatus Trialtype IBI AbsPosition RelPosition Outlier
0 0 0 1001 1744 -12373 0
0 0 0 1081 2825 -11292 0
0 0 0 1051 3876 -10241 0
0 0 0 1051 4927 -9190 0
0 0 0 1079 6006 -8111 0
0 0 0 1055 7061 -7056 0
0 0 0 903 7964 -6153 0
0 0 0 819 8783 -5334 0
0 0 0 873 9656 -4461 0
0 0 0 923 10579 -3538 0
0 0 0 978 11557 -2560 0
1 1 S112 962 12519 -1598 0
1 1 S112 919 13438 -679 0
1 2 S112 874 14312 195 0
1 2 S112 915 15227 1110 0
1 2 S112 968 16195 2078 0
1 2 S112 1004 17199 3082 0
1 2 S112 1082 18281 4164 0
1 2 S112 1079 19360 5243 0
1 2 S112 1048 20408 6291 0
0 0 0 991 21399 -11302 0
0 0 0 991 22390 -10311 0
0 0 0 931 23321 -9380 0
0 0 0 916 24237 -8464 0
0 0 0 906 25143 -7558 0
0 0 0 967 26110 -6591 0
0 0 0 1012 27122 -5579 0
0 0 0 1063 28185 -4516 0
0 0 0 1129 29314 -3387 0
0 0 0 1108 30422 -2279 0
2 1 S102 1109 31531 -1170 0
2 1 S102 1106 32637 -64 0
2 2 S102 1090 33727 1026 0
2 2 S102 1043 34770 2069 0
2 2 S102 1029 35799 3098 0
2 2 S102 1055 36854 4153 0
2 2 S102 1095 37949 5248 0
2 2 S102 1109 39058 6357 0
0 0 0 1108 40166 -9163 0
0 0 0 1173 41339 -7990 0
0 0 0 1109 42448 -6881 0
0 0 0 1100 43548 -5781 0
0 0 0 1110 44658 -4671 0
0 0 0 1093 45751 -3578 0
0 0 0 1086 46837 -2492 0
3 1 S116 1112 47949 -1380 0
3 1 S116 1092 49041 -288 0
3 2 S116 1031 50072 743 0
3 2 S116 1060 51132 1803 0
3 2 S116 1082 52214 2885 0
3 2 S116 1061 53275 3946 0
3 2 S116 986 54261 4932 0
3 2 S116 1061 55322 5993 0
0 0 0 1122 56444 -11387 0
0 0 0 1111 57555 -10276 0
0 0 0 1134 58689 -9142 0
0 0 0 1051 59740 -8091 0
0 0 0 1023 60763 -7068 0
0 0 0 1028 61791 -6040 0
0 0 0 1037 62828 -5003 0
0 0 0 1009 63837 -3994 0
0 0 0 1047 64884 -2947 0
4 1 S106 1064 65948 -1883 0
4 1 S106 979 66927 -904 0
4 2 S106 1031 67958 127 0
4 2 S106 1072 69030 1199 0
4 2 S106 1080 70110 2279 0
4 2 S106 1084 71194 3363 0
4 2 S106 1085 72279 4448 0
4 2 S106 1046 73325 5494 0
4 2 S106 1056 74381 6550 0
0 0 0 1055 75436 -7017 0
0 0 0 997 76433 -6020 0
0 0 0 1025 77458 -4995 0
0 0 0 984 78442 -4011 0
0 0 0 986 79428 -3025 0
5 1 S116 1088 80516 -1937 0
5 1 S116 1185 81701 -752 0
5 2 S116 1123 82824 371 0
5 2 S116 1187 84011 1558 0
5 2 S116 1214 85225 2772 0
5 2 S116 1111 86336 3883 0
5 2 S116 1082 87418 4965 0
5 2 S116 1091 88509 6056 0
0 0 0 1033 89542 -9241 0
0 0 0 1011 90553 -8230 0
0 0 0 1016 91569 -7214 0
0 0 0 1012 92581 -6202 0
0 0 0 957 93538 -5245 0
0 0 0 1019 94557 -4226 0
0 0 0 1036 95593 -3190 0
0 0 0 933 96526 -2257 0
6 1 S106 1006 97532 -1251 0
6 1 S106 1036 98568 -215 0
6 2 S106 1079 99647 864 0
6 2 S106 1112 100759 1976 0
6 2 S106 1128 101887 3104 0
6 2 S106 1046 102933 4150 0
6 2 S106 1102 104035 5252 0
6 2 S106 1106 105141 6358 0
0 0 0 1080 106221 -10450 0
0 0 0 1102 107323 -9348 0
0 0 0 1087 108410 -8261 0
0 0 0 928 109338 -7333 0
0 0 0 856 110194 -6477 0
0 0 0 921 111115 -5556 0
0 0 0 1059 112174 -4497 0
0 0 0 1091 113265 -3406 0
0 0 0 1128 114393 -2278 0
7 1 S102 1198 115591 -1080 0
7 2 S102 1172 116763 92 0
7 2 S102 1116 117879 1208 0
7 2 S102 1131 119010 2339 0
7 2 S102 1111 120121 3450 0
7 2 S102 1045 121166 4495 0
7 2 S102 1077 122243 5572 0
7 2 S102 1114 123357 6686 0
0 0 0 1051 124408 -7996 0
0 0 0 1104 125512 -6892 0
0 0 0 1097 126609 -5795 0
0 0 0 1055 127664 -4740 0
0 0 0 1107 128771 -3633 0
0 0 0 1140 129911 -2493 0
8 1 S112 1114 131025 -1379 0
8 1 S112 1084 132109 -295 0
8 2 S112 1124 133233 829 0
8 2 S112 1172 134405 2001 0
8 2 S112 1109 135514 3110 0
8 2 S112 1144 136658 4254 0
8 2 S112 1179 137837 5433 0
8 2 S112 1143 138980 6576 0
0 0 0 1145 140125 -7150 0
0 0 0 1196 141321 -5954 0
0 0 0 1119 142440 -4835 0
0 0 0 1077 143517 -3758 0
0 0 0 1089 144606 -2669 0
9 1 S116 1053 145659 -1616 0
9 1 S116 1145 146804 -471 0
9 2 S116 1169 147973 698 0
9 2 S116 1164 149137 1862 0
9 2 S116 1177 150314 3039 0
9 2 S116 1146 151460 4185 0
9 2 S116 1097 152557 5282 0
9 2 S116 1107 153664 6389 0
0 0 0 1099 154763 -11080 0
0 0 0 1035 155798 -10045 0
0 0 0 1057 156855 -8988 0
0 0 0 1028 157883 -7960 0
0 0 0 1069 158952 -6891 0
0 0 0 1216 160168 -5675 0
0 0 0 1234 161402 -4441 0
0 0 0 1199 162601 -3242 0
0 0 0 1234 163835 -2008 0
10 1 S102 1175 165010 -833 0
10 2 S102 1126 166136 293 0
10 2 S102 1109 167245 1402 0
10 2 S102 1107 168352 2509 0
10 2 S102 1064 169416 3573 0
10 2 S102 1070 170486 4643 0
10 2 S102 1087 171573 5730 0
10 2 S102 1027 172600 6757 0
0 0 0 1100 173700 -10545 0
0 0 0 1131 174831 -9414 0
0 0 0 1051 175882 -8363 0
0 0 0 1067 176949 -7296 0
0 0 0 1041 177990 -6255 0
0 0 0 1092 179082 -5163 0
0 0 0 1188 180270 -3975 0
0 0 0 1174 181444 -2801 0
11 1 S112 1110 182554 -1691 0
11 1 S112 1144 183698 -547 0
11 2 S112 1117 184815 570 0
11 2 S112 1089 185904 1659 0
11 2 S112 1144 187048 2803 0
11 2 S112 1155 188203 3958 0
11 2 S112 1096 189299 5054 0
11 2 S112 1163 190462 6217 0
0 0 0 1192 191654 -6732 0
0 0 0 1149 192803 -5583 0
0 0 0 1161 193964 -4422 0
0 0 0 1124 195088 -3298 0
0 0 0 1082 196170 -2216 0
12 1 S116 1127 197297 -1089 0
12 2 S116 1126 198423 37 0
12 2 S116 1101 199524 1138 0
12 2 S116 1207 200731 2345 0
12 2 S116 1174 201905 3519 0
12 2 S116 1121 203026 4640 0
12 2 S116 1135 204161 5775 0
12 2 S116 1129 205290 6904 0
0 0 0 1072 206362 -10559 0
0 0 0 1106 207468 -9453 0
0 0 0 1120 208588 -8333 0
0 0 0 1035 209623 -7298 0
0 0 0 1094 210717 -6204 0
0 0 0 1163 211880 -5041 0
0 0 0 1131 213011 -3910 0
0 0 0 1194 214205 -2716 0
13 1 S112 1166 215371 -1550 0
13 1 S112 1091 216462 -459 0
13 2 S112 1106 217568 647 0
13 2 S112 1108 218676 1755 0
13 2 S112 1044 219720 2799 0
13 2 S112 1072 220792 3871 0
13 2 S112 1108 221900 4979 0
13 2 S112 1120 223020 6099 0
0 0 0 1064 224084 -11819 0
0 0 0 1110 225194 -10709 0
0 0 0 1106 226300 -9603 0
0 0 0 1091 227391 -8512 0
0 0 0 1035 228426 -7477 0
0 0 0 921 229347 -6556 0
0 0 0 861 230208 -5695 0
0 0 0 997 231205 -4698 0
0 0 0 1038 232243 -3660 0
0 0 0 1092 233335 -2568 0
14 1 S106 1034 234369 -1534 0
14 1 S106 1079 235448 -455 0
14 2 S106 1099 236547 644 0
14 2 S106 1054 237601 1698 0
14 2 S106 1049 238650 2747 0
14 2 S106 1057 239707 3804 0
14 2 S106 1074 240781 4878 0
14 2 S106 1041 241822 5919 0
14 2 S106 1100 242922 7019 0
0 0 0 1148 244070 -10335 0
0 0 0 1095 245165 -9240 0
0 0 0 1122 246287 -8118 0
0 0 0 1094 247381 -7024 0
0 0 0 1079 248460 -5945 0
0 0 0 1130 249590 -4815 0
0 0 0 1052 250642 -3763 0
0 0 0 928 251570 -2835 0
15 1 S116 897 252467 -1938 0
15 1 S116 1069 253536 -869 0
15 2 S116 1108 254644 239 0
15 2 S116 1111 255755 1350 0
15 2 S116 1170 256925 2520 0
15 2 S116 1208 258133 3728 0
15 2 S116 1144 259277 4872 0
15 2 S116 1135 260412 6007 0
0 0 0 1167 261579 -9537 0
0 0 0 1160 262739 -8377 0
0 0 0 1069 263808 -7308 0
0 0 0 1105 264913 -6203 0
0 0 0 1128 266041 -5075 0
0 0 0 1122 267163 -3953 0
0 0 0 1181 268344 -2772 0
16 1 S116 1169 269513 -1603 0
16 1 S116 1182 270695 -421 0
16 2 S116 1171 271866 750 0
16 2 S116 1055 272921 1805 0
16 2 S116 1069 273990 2874 0
16 2 S116 1038 275028 3912 0
16 2 S116 1026 276054 4938 0
16 2 S116 999 277053 5937 0
16 2 S116 1048 278101 6985 0
0 0 0 1071 279172 -8572 0
0 0 0 1042 280214 -7530 0
0 0 0 1128 281342 -6402 0
0 0 0 1071 282413 -5331 0
0 0 0 1067 283480 -4264 0
0 0 0 1101 284581 -3163 0
0 0 0 1087 285668 -2076 0
17 1 S106 1058 286726 -1018 0
17 2 S106 1100 287826 82 0
17 2 S106 1149 288975 1231 0
17 2 S106 1068 290043 2299 0
17 2 S106 1091 291134 3390 0
17 2 S106 1128 292262 4518 0
17 2 S106 1115 293377 5633 0
17 2 S106 1070 294447 6703 0
0 0 0 1129 295576 -10603 0
0 0 0 1155 296731 -9448 0
0 0 0 1100 297831 -8348 0
0 0 0 1112 298943 -7236 0
0 0 0 1092 300035 -6144 0
0 0 0 1109 301144 -5035 0
0 0 0 1121 302265 -3914 0
0 0 0 1054 303319 -2860 0
18 1 S102 1050 304369 -1810 0
18 1 S102 1097 305466 -713 0
18 2 S102 1112 306578 399 0
18 2 S102 1075 307653 1474 0
18 2 S102 1148 308801 2622 0
18 2 S102 1154 309955 3776 0
18 2 S102 1107 311062 4883 0
18 2 S102 1155 312217 6038 0
0 0 0 1168 313385 -7416 0
0 0 0 1089 314474 -6327 0
0 0 0 1141 315615 -5186 0
0 0 0 1080 316695 -4106 0
0 0 0 1021 317716 -3085 0
0 0 0 1051 318767 -2034 0
19 1 S106 1083 319850 -951 0
19 2 S106 1074 320924 123 0
19 2 S106 1165 322089 1288 0
19 2 S106 1194 323283 2482 0
19 2 S106 1130 324413 3612 0
19 2 S106 1155 325568 4767 0
19 2 S106 1128 326696 5895 0
19 2 S106 1070 327766 6965 0
0 0 0 1114 328880 -10356 0
0 0 0 1135 330015 -9221 0
0 0 0 1064 331079 -8157 0
0 0 0 1087 332166 -7070 0
0 0 0 1067 333233 -6003 0
0 0 0 1034 334267 -4969 0
0 0 0 1084 335351 -3885 0
0 0 0 1146 336497 -2739 0
20 1 S112 1157 337654 -1582 0
20 1 S112 1167 338821 -415 0
20 2 S112 1162 339983 747 0
20 2 S112 1114 341097 1861 0
20 2 S112 1107 342204 2968 0
20 2 S112 1149 343353 4117 0
20 2 S112 1118 344471 5235 0
20 2 S112 1045 345516 6280 0
0 0 0 1089 346605 -9342 0
0 0 0 1112 347717 -8230 0
0 0 0 1107 348824 -7123 0
0 0 0 1146 349970 -5977 0
0 0 0 1106 351076 -4871 0
0 0 0 1052 352128 -3819 0
0 0 0 1089 353217 -2730 0
21 1 S106 1093 354310 -1637 0
21 1 S106 1060 355370 -577 0
21 2 S106 1105 356475 528 0
21 2 S106 1136 357611 1664 0
21 2 S106 1093 358704 2757 0
21 2 S106 1128 359832 3885 0
21 2 S106 1148 360980 5033 0
21 2 S106 1114 362094 6147 0
0 0 0 1127 363221 -11278 0
0 0 0 1164 364385 -10114 0
0 0 0 1158 365543 -8956 0
0 0 0 1113 366656 -7843 0
0 0 0 1158 367814 -6685 0
0 0 0 1110 368924 -5575 0
0 0 0 1161 370085 -4414 0
0 0 0 1182 371267 -3232 0
0 0 0 1112 372379 -2120 0
22 1 S116 1107 373486 -1013 0
22 2 S116 1112 374598 99 0
22 2 S116 1094 375692 1193 0
22 2 S116 1156 376848 2349 0
22 2 S116 1212 378060 3561 0
22 2 S116 1204 379264 4765 0
22 2 S116 1168 380432 5933 0
0 0 0 1183 381615 -9761 0
0 0 0 1140 382755 -8621 0
0 0 0 1122 383877 -7499 0
0 0 0 1120 384997 -6379 0
0 0 0 1043 386040 -5336 0
0 0 0 1067 387107 -4269 0
0 0 0 1102 388209 -3167 0
0 0 0 1096 389305 -2071 0
23 1 S112 1063 390368 -1008 0
23 2 S112 1020 391388 12 0
23 2 S112 940 392328 952 0
23 2 S112 1068 393396 2020 0
23 2 S112 1048 394444 3068 0
23 2 S112 1072 395516 4140 0
23 2 S112 1097 396613 5237 0
23 2 S112 1120 397733 6357 0
0 0 0 1054 398787 -9499 0
0 0 0 1089 399876 -8410 0
0 0 0 1096 400972 -7314 0
0 0 0 1044 402016 -6270 0
0 0 0 1075 403091 -5195 0
0 0 0 1001 404092 -4194 0
0 0 0 907 404999 -3287 0
0 0 0 996 405995 -2291 0
24 1 S106 991 406986 -1300 0
24 1 S106 1018 408004 -282 0
24 2 S106 1096 409100 814 0
24 2 S106 1113 410213 1927 0
24 2 S106 1047 411260 2974 0
24 2 S106 1095 412355 4069 0
24 2 S106 1123 413478 5192 0
24 2 S106 1037 414515 6229 0
0 0 0 1060 415575 -8460 0
0 0 0 1077 416652 -7383 0
0 0 0 1053 417705 -6330 0
0 0 0 1056 418761 -5274 0
0 0 0 1115 419876 -4159 0
0 0 0 1198 421074 -2961 0
25 1 S102 1193 422267 -1768 0
25 1 S102 1251 423518 -517 0
25 2 S102 1218 424736 701 0
25 2 S102 1117 425853 1818 0
25 2 S102 1149 427002 2967 0
25 2 S102 1138 428140 4105 0
25 2 S102 1084 429224 5189 0
25 2 S102 1113 430337 6302 0
0 0 0 1142 431479 -6018 0
0 0 0 1118 432597 -4900 0
0 0 0 1159 433756 -3741 0
0 0 0 1172 434928 -2569 0
26 1 S116 1085 436013 -1484 0
26 1 S116 1115 437128 -369 0
26 2 S116 1116 438244 747 0
26 2 S116 1143 439387 1890 0
26 2 S116 1141 440528 3031 0
26 2 S116 1212 441740 4243 0
26 2 S116 1216 442956 5459 0
26 2 S116 1159 444115 6618 0
0 0 0 1191 445306 -6614 0
0 0 0 1130 446436 -5484 0
0 0 0 1102 447538 -4382 0
0 0 0 1111 448649 -3271 0
0 0 0 1054 449703 -2217 0
27 1 S106 1127 450830 -1090 0
27 2 S106 1148 451978 58 0
27 2 S106 1124 453102 1182 0
27 2 S106 1130 454232 2312 0
27 2 S106 1142 455374 3454 0
27 2 S106 1088 456462 4542 0
27 2 S106 1140 457602 5682 0
27 2 S106 1157 458759 6839 0
0 0 0 1122 459881 -6015 0
0 0 0 1149 461030 -4866 0
0 0 0 1069 462099 -3797 0
0 0 0 1038 463137 -2759 0
28 1 S102 1037 464174 -1722 0
28 1 S102 1049 465223 -673 0
28 2 S102 1054 466277 381 0
28 2 S102 1101 467378 1482 0
28 2 S102 1165 468543 2647 0
28 2 S102 1124 469667 3771 0
28 2 S102 1107 470774 4878 0
28 2 S102 1121 471895 5999 0
0 0 0 1113 473008 -10179 0
0 0 0 1074 474082 -9105 0
0 0 0 1084 475166 -8021 0
0 0 0 1068 476234 -6953 0
0 0 0 1012 477246 -5941 0
0 0 0 1057 478303 -4884 0
0 0 0 1090 479393 -3794 0
0 0 0 1117 480510 -2677 0
29 1 S112 1120 481630 -1557 0
29 1 S112 1168 482798 -389 0
29 2 S112 1173 483971 784 0
29 2 S112 1103 485074 1887 0
29 2 S112 1162 486236 3049 0
29 2 S112 1179 487415 4228 0
29 2 S112 1111 488526 5339 0
29 2 S112 1148 489674 6487 0
0 0 0 1174 490848 -6862 0
0 0 0 1125 491973 -5737 0
0 0 0 1155 493128 -4582 0
0 0 0 1080 494208 -3502 0
0 0 0 961 495169 -2541 0
30 1 S112 835 496004 -1706 0
30 1 S112 823 496827 -883 0
30 2 S112 884 497711 1 0
30 2 S112 1062 498773 1063 0
30 2 S112 1099 499872 2162 0
30 2 S112 1128 501000 3290 0
30 2 S112 1055 502055 4345 0
30 2 S112 1060 503115 5405 0
30 2 S112 1041 504156 6446 0
0 0 0 999 505155 -8039 0
0 0 0 965 506120 -7074 0
0 0 0 927 507047 -6147 0
0 0 0 866 507913 -5281 0
0 0 0 811 508724 -4470 0
0 0 0 765 509489 -3705 1
0 0 0 742 510231 -2963 1
0 0 0 802 511033 -2161 0
31 1 S106 824 511857 -1337 0
31 1 S106 834 512691 -503 0
31 2 S106 916 513607 413 0
31 2 S106 1008 514615 1421 0
31 2 S106 1138 515753 2559 0
31 2 S106 1187 516940 3746 0
31 2 S106 1147 518087 4893 0
31 2 S106 1133 519220 6026 0
0 0 0 1151 520371 -8622 0
0 0 0 1106 521477 -7516 0
0 0 0 1078 522555 -6438 0
0 0 0 1063 523618 -5375 0
0 0 0 1064 524682 -4311 0
0 0 0 1056 525738 -3255 0
0 0 0 1104 526842 -2151 0
32 1 S102 1169 528011 -982 0
32 2 S102 1105 529116 123 0
32 2 S102 1148 530264 1271 0
32 2 S102 1145 531409 2416 0
32 2 S102 1105 532514 3521 0
32 2 S102 1133 533647 4654 0
32 2 S102 1188 534835 5842 0
32 2 S102 1093 535928 6935 0
0 0 0 1154 537082 -9517 0
0 0 0 1207 538289 -8310 0
0 0 0 1104 539393 -7206 0
0 0 0 1152 540545 -6054 0
0 0 0 1149 541694 -4905 0
0 0 0 1108 542802 -3797 0
0 0 0 1111 543913 -2686 0
33 1 S112 1110 545023 -1576 0
33 1 S112 1048 546071 -528 0
33 2 S112 1109 547180 581 0
33 2 S112 1140 548320 1721 0
33 2 S112 1154 549474 2875 0
33 2 S112 1199 550673 4074 0
33 2 S112 1204 551877 5278 0
33 2 S112 1161 553038 6439 0
0 0 0 1163 554201 -11397 0
0 0 0 1170 555371 -10227 0
0 0 0 1117 556488 -9110 0
0 0 0 1122 557610 -7988 0
0 0 0 1082 558692 -6906 0
0 0 0 1059 559751 -5847 0
0 0 0 1114 560865 -4733 0
0 0 0 1167 562032 -3566 0
0 0 0 1102 563134 -2464 0
34 1 S106 1159 564293 -1305 0
34 1 S106 1136 565429 -169 0
34 2 S106 1102 566531 933 0
34 2 S106 1081 567612 2014 0
34 2 S106 1128 568740 3142 0
34 2 S106 1147 569887 4289 0
34 2 S106 1102 570989 5391 0
34 2 S106 1133 572122 6524 0
0 0 0 1131 573253 -7730 0
0 0 0 1060 574313 -6670 0
0 0 0 948 575261 -5722 0
0 0 0 926 576187 -4796 0
0 0 0 893 577080 -3903 0
0 0 0 933 578013 -2970 0
0 0 0 957 578970 -2013 0
35 1 S102 905 579875 -1108 0
35 1 S102 946 580821 -162 0
35 2 S102 1050 581871 888 0
35 2 S102 1039 582910 1927 0
35 2 S102 1041 583951 2968 0
35 2 S102 1027 584978 3995 0
35 2 S102 973 585951 4968 0
35 2 S102 992 586943 5960 0
35 2 S102 993 587936 6953 0
0 0 0 981 588917 -5627 0
0 0 0 1029 589946 -4598 0
0 0 0 1021 590967 -3577 0
0 0 0 900 591867 -2677 0
36 1 S106 881 592748 -1796 0
36 1 S106 997 593745 -799 0
36 2 S106 1006 594751 207 0
36 2 S106 1041 595792 1248 0
36 2 S106 1097 596889 2345 0
36 2 S106 1154 598043 3499 0
36 2 S106 1106 599149 4605 0
36 2 S106 1127 600276 5732 0
36 2 S106 1156 601432 6888 0
0 0 0 1086 602518 -8638 0
0 0 0 1099 603617 -7539 0
0 0 0 1160 604777 -6379 0
0 0 0 1053 605830 -5326 0
0 0 0 1101 606931 -4225 0
0 0 0 1144 608075 -3081 0
37 1 S116 1109 609184 -1972 0
37 1 S116 1119 610303 -853 0
37 2 S116 1181 611484 328 0
37 2 S116 1132 612616 1460 0
37 2 S116 1157 613773 2617 0
37 2 S116 1159 614932 3776 0
37 2 S116 1124 616056 4900 0
37 2 S116 1098 617154 5998 0
0 0 0 1105 618259 -11150 0
0 0 0 1120 619379 -10030 0
0 0 0 1076 620455 -8954 0
0 0 0 998 621453 -7956 0
0 0 0 992 622445 -6964 0
0 0 0 976 623421 -5988 0
0 0 0 1012 624433 -4976 0
0 0 0 1052 625485 -3924 0
0 0 0 1062 626547 -2862 0
38 1 S102 1078 627625 -1784 0
38 1 S102 1072 628697 -712 0
38 2 S102 1056 629753 344 0
38 2 S102 1026 630779 1370 0
38 2 S102 996 631775 2366 0
38 2 S102 995 632770 3361 0
38 2 S102 1045 633815 4406 0
38 2 S102 1045 634860 5451 0
38 2 S102 1058 635918 6509 0
0 0 0 1079 636997 -9388 0
0 0 0 1092 638089 -8296 0
0 0 0 1090 639179 -7206 0
0 0 0 1086 640265 -6120 0
0 0 0 1045 641310 -5075 0
0 0 0 1018 642328 -4057 0
0 0 0 1030 643358 -3027 0
39 1 S116 1051 644409 -1976 0
39 1 S116 1082 645491 -894 0
39 2 S116 1100 646591 206 0
39 2 S116 1118 647709 1324 0
39 2 S116 1134 648843 2458 0
39 2 S116 1105 649948 3563 0
39 2 S116 1124 651072 4687 0
39 2 S116 1120 652192 5807 0
39 2 S116 1063 653255 6870 0
0 0 0 1065 654320 -6273 0
0 0 0 1154 655474 -5119 0
0 0 0 1028 656502 -4091 0
0 0 0 981 657483 -3110 0
0 0 0 1029 658512 -2081 0
40 1 S112 1128 659640 -953 0
40 2 S112 1129 660769 176 0
40 2 S112 1169 661938 1345 0
40 2 S112 1123 663061 2468 0
40 2 S112 1036 664097 3504 0
40 2 S112 1043 665140 4547 0
40 2 S112 1040 666180 5587 0
40 2 S112 983 667163 6570 0
0 0 0 1007 668170 -186722 0
0 0 0 1005 669175 -185717 0
0 0 0 992 670167 -184725 0
0 0 0 1024 671191 -183701 0
0 0 0 1053 672244 -182648 0
0 0 0 1026 673270 -181622 0
0 0 0 868 674138 -180754 0
0 0 0 798 674936 -179956 0
0 0 0 766 675702 -179190 1
0 0 0 790 676492 -178400 0
0 0 0 823 677315 -177577 0
0 0 0 856 678171 -176721 0
0 0 0 821 678992 -175900 0
0 0 0 765 679757 -175135 1
0 0 0 743 680500 -174392 1
0 0 0 722 681222 -173670 1
0 0 0 704 681926 -172966 1
0 0 0 682 682608 -172284 1
0 0 0 650 683258 -171634 1
0 0 0 655 683913 -170979 1
0 0 0 633 684546 -170346 1
0 0 0 620 685166 -169726 1
0 0 0 616 685782 -169110 1
0 0 0 630 686412 -168480 1
0 0 0 689 687101 -167791 1
0 0 0 693 687794 -167098 1
0 0 0 664 688458 -166434 1
0 0 0 676 689134 -165758 1
0 0 0 687 689821 -165071 1
0 0 0 683 690504 -164388 1
0 0 0 706 691210 -163682 1
0 0 0 717 691927 -162965 1
0 0 0 712 692639 -162253 1
0 0 0 708 693347 -161545 1
0 0 0 807 694154 -160738 0
0 0 0 931 695085 -159807 0
0 0 0 992 696077 -158815 0
0 0 0 1034 697111 -157781 0
0 0 0 960 698071 -156821 0
0 0 0 839 698910 -155982 0
0 0 0 828 699738 -155154 0
0 0 0 850 700588 -154304 0
0 0 0 786 701374 -153518 0
0 0 0 775 702149 -152743 1
0 0 0 737 702886 -152006 1
0 0 0 708 703594 -151298 1
0 0 0 709 704303 -150589 1
0 0 0 704 705007 -149885 1
0 0 0 833 705840 -149052 0
0 0 0 902 706742 -148150 0
0 0 0 1006 707748 -147144 0
0 0 0 1017 708765 -146127 0
0 0 0 932 709697 -145195 0
0 0 0 919 710616 -144276 0
0 0 0 850 711466 -143426 0
0 0 0 753 712219 -142673 1
0 0 0 712 712931 -141961 1
0 0 0 676 713607 -141285 1
0 0 0 695 714302 -140590 1
0 0 0 830 715132 -139760 0
0 0 0 883 716015 -138877 0
0 0 0 992 717007 -137885 0
0 0 0 1082 718089 -136803 0
0 0 0 1121 719210 -135682 0
0 0 0 1109 720319 -134573 0
0 0 0 1022 721341 -133551 0
0 0 0 892 722233 -132659 0
0 0 0 826 723059 -131833 0
0 0 0 867 723926 -130966 0
0 0 0 1013 724939 -129953 0
0 0 0 1092 726031 -128861 0
0 0 0 1140 727171 -127721 0
0 0 0 1220 728391 -126501 0
0 0 0 1108 729499 -125393 0
0 0 0 1037 730536 -124356 0
0 0 0 1048 731584 -123308 0
0 0 0 1052 732636 -122256 0
0 0 0 1038 733674 -121218 0
0 0 0 1073 734747 -120145 0
0 0 0 1099 735846 -119046 0
0 0 0 1095 736941 -117951 0
0 0 0 1114 738055 -116837 0
0 0 0 1152 739207 -115685 0
0 0 0 1134 740341 -114551 0
0 0 0 1104 741445 -113447 0
0 0 0 1114 742559 -112333 0
0 0 0 1112 743671 -111221 0
0 0 0 1041 744712 -110180 0
0 0 0 1085 745797 -109095 0
0 0 0 1172 746969 -107923 0
0 0 0 1097 748066 -106826 0
0 0 0 1112 749178 -105714 0
0 0 0 1137 750315 -104577 0
0 0 0 1120 751435 -103457 0
0 0 0 1134 752569 -102323 0
0 0 0 1143 753712 -101180 0
0 0 0 1048 754760 -100132 0
0 0 0 1067 755827 -99065 0
0 0 0 1010 756837 -98055 0
0 0 0 1051 757888 -97004 0
0 0 0 1100 758988 -95904 0
0 0 0 1130 760118 -94774 0
0 0 0 1133 761251 -93641 0
0 0 0 1171 762422 -92470 0
0 0 0 1104 763526 -91366 0
0 0 0 1109 764635 -90257 0
0 0 0 1084 765719 -89173 0
0 0 0 985 766704 -88188 0
0 0 0 1031 767735 -87157 0
0 0 0 1101 768836 -86056 0
0 0 0 1121 769957 -84935 0
0 0 0 1105 771062 -83830 0
0 0 0 1141 772203 -82689 0
0 0 0 1150 773353 -81539 0
0 0 0 1087 774440 -80452 0
0 0 0 1103 775543 -79349 0
0 0 0 1089 776632 -78260 0
0 0 0 1059 777691 -77201 0
0 0 0 1109 778800 -76092 0
0 0 0 1121 779921 -74971 0
0 0 0 1111 781032 -73860 0
0 0 0 1131 782163 -72729 0
0 0 0 1132 783295 -71597 0
0 0 0 1115 784410 -70482 0
0 0 0 1093 785503 -69389 0
0 0 0 1056 786559 -68333 0
0 0 0 1031 787590 -67302 0
0 0 0 1065 788655 -66237 0
0 0 0 1071 789726 -65166 0
0 0 0 1041 790767 -64125 0
0 0 0 1091 791858 -63034 0
0 0 0 1113 792971 -61921 0
0 0 0 1078 794049 -60843 0
0 0 0 1094 795143 -59749 0
0 0 0 1019 796162 -58730 0
0 0 0 893 797055 -57837 0
0 0 0 816 797871 -57021 0
0 0 0 762 798633 -56259 1
0 0 0 779 799412 -55480 1
0 0 0 764 800176 -54716 1
0 0 0 1054 801230 -53662 0
0 0 0 1079 802309 -52583 0
0 0 0 1084 803393 -51499 0
0 0 0 1092 804485 -50407 0
0 0 0 1080 805565 -49327 0
0 0 0 1007 806572 -48320 0
0 0 0 965 807537 -47355 0
0 0 0 955 808492 -46400 0
0 0 0 930 809422 -45470 0
0 0 0 933 810355 -44537 0
0 0 0 922 811277 -43615 0
0 0 0 836 812113 -42779 0
0 0 0 752 812865 -42027 1
0 0 0 756 813621 -41271 1
0 0 0 759 814380 -40512 1
0 0 0 769 815149 -39743 1
0 0 0 757 815906 -38986 1
0 0 0 775 816681 -38211 1
0 0 0 775 817456 -37436 1
0 0 0 788 818244 -36648 0
0 0 0 893 819137 -35755 0
0 0 0 1050 820187 -34705 0
0 0 0 1123 821310 -33582 0
0 0 0 1096 822406 -32486 0
0 0 0 1082 823488 -31404 0
0 0 0 1021 824509 -30383 0
0 0 0 905 825414 -29478 0
0 0 0 928 826342 -28550 0
0 0 0 905 827247 -27645 0
0 0 0 890 828137 -26755 0
0 0 0 936 829073 -25819 0
0 0 0 1019 830092 -24800 0
0 0 0 986 831078 -23814 0
0 0 0 894 831972 -22920 0
0 0 0 947 832919 -21973 0
0 0 0 1033 833952 -20940 0
0 0 0 1082 835034 -19858 0
0 0 0 1127 836161 -18731 0
0 0 0 1169 837330 -17562 0
0 0 0 1162 838492 -16400 0
0 0 0 1067 839559 -15333 0
0 0 0 1062 840621 -14271 0
0 0 0 1056 841677 -13215 0
0 0 0 1063 842740 -12152 0
0 0 0 1062 843802 -11090 0
0 0 0 1028 844830 -10062 0
0 0 0 949 845779 -9113 0
0 0 0 958 846737 -8155 0
0 0 0 992 847729 -7163 0
0 0 0 1095 848824 -6068 0
0 0 0 1084 849908 -4984 0
0 0 0 1163 851071 -3821 0
0 0 0 1142 852213 -2679 0
41 1 S102 1107 853320 -1572 0
41 1 S102 1002 854322 -570 0
41 2 S102 889 855211 319 0
41 2 S102 860 856071 1179 0
41 2 S102 892 856963 2071 0
41 2 S102 887 857850 2958 0
41 2 S102 923 858773 3881 0
41 2 S102 987 859760 4868 0
41 2 S102 1092 860852 5960 0
41 2 S102 1069 861921 7029 0
0 0 0 1117 863038 -5249 0
0 0 0 1069 864107 -4180 0
0 0 0 1019 865126 -3161 0
0 0 0 1011 866137 -2150 0
42 1 S112 1018 867155 -1132 0
42 1 S112 989 868144 -143 0
42 2 S112 974 869118 831 0
42 2 S112 996 870114 1827 0
42 2 S112 1110 871224 2937 0
42 2 S112 1154 872378 4091 0
42 2 S112 1262 873640 5353 0
42 2 S112 1249 874889 6602 0
0 0 0 1176 876065 -8303 0
0 0 0 1195 877260 -7108 0
0 0 0 1096 878356 -6012 0
0 0 0 1007 879363 -5005 0
0 0 0 986 880349 -4019 0
0 0 0 1049 881398 -2970 0
43 1 S116 1066 882464 -1904 0
43 1 S116 1123 883587 -781 0
43 2 S116 1179 884766 398 0
43 2 S116 1186 885952 1584 0
43 2 S116 1133 887085 2717 0
43 2 S116 1179 888264 3896 0
43 2 S116 1193 889457 5089 0
43 2 S116 1170 890627 6259 0
0 0 0 1123 891750 -6793 0
0 0 0 1169 892919 -5624 0
0 0 0 1163 894082 -4461 0
0 0 0 1098 895180 -3363 0
0 0 0 1145 896325 -2218 0
44 1 S102 1167 897492 -1051 0
44 2 S102 1112 898604 61 0
44 2 S102 1156 899760 1217 0
44 2 S102 1123 900883 2340 0
44 2 S102 1052 901935 3392 0
44 2 S102 1074 903009 4466 0
44 2 S102 1083 904092 5549 0
44 2 S102 1059 905151 6608 0
0 0 0 1055 906206 -8351 0
0 0 0 1149 907355 -7202 0
0 0 0 1119 908474 -6083 0
0 0 0 1020 909494 -5063 0
0 0 0 1017 910511 -4046 0
0 0 0 1010 911521 -3036 0
0 0 0 894 912415 -2142 0
45 1 S116 909 913324 -1233 0
45 1 S116 1000 914324 -233 0
45 2 S116 1071 915395 838 0
45 2 S116 1081 916476 1919 0
45 2 S116 1098 917574 3017 0
45 2 S116 1109 918683 4126 0
45 2 S116 1110 919793 5236 0
45 2 S116 1066 920859 6302 0
0 0 0 1106 921965 -10596 0
0 0 0 1110 923075 -9486 0
0 0 0 1080 924155 -8406 0
0 0 0 1109 925264 -7297 0
0 0 0 1093 926357 -6204 0
0 0 0 1028 927385 -5176 0
0 0 0 1072 928457 -4104 0
0 0 0 1120 929577 -2984 0
46 1 S102 1102 930679 -1882 0
46 1 S102 1156 931835 -726 0
46 2 S102 1188 933023 462 0
46 2 S102 1105 934128 1567 0
46 2 S102 1010 935138 2577 0
46 2 S102 1005 936143 3582 0
46 2 S102 979 937122 4561 0
46 2 S102 904 938026 5465 0
46 2 S102 829 938855 6294 0
0 0 0 804 939659 -8553 0
0 0 0 764 940423 -7789 1
0 0 0 762 941185 -7027 1
0 0 0 818 942003 -6209 0
0 0 0 1009 943012 -5200 0
0 0 0 933 943945 -4267 0
0 0 0 916 944861 -3351 0
0 0 0 985 945846 -2366 0
47 1 S112 979 946825 -1387 0
47 1 S112 937 947762 -450 0
47 2 S112 931 948693 481 0
47 2 S112 916 949609 1397 0
47 2 S112 973 950582 2370 0
47 2 S112 1025 951607 3395 0
47 2 S112 995 952602 4390 0
47 2 S112 1074 953676 5464 0
47 2 S112 1129 954805 6593 0
0 0 0 1158 955963 -10535 0
0 0 0 1101 957064 -9434 0
0 0 0 1108 958172 -8326 0
0 0 0 977 959149 -7349 0
0 0 0 908 960057 -6441 0
0 0 0 909 960966 -5532 0
0 0 0 1041 962007 -4491 0
0 0 0 1097 963104 -3394 0
0 0 0 1085 964189 -2309 0
48 1 S116 1135 965324 -1174 0
48 1 S116 1169 966493 -5 0
48 2 S116 1112 967605 1107 0
48 2 S116 1119 968724 2226 0
48 2 S116 1170 969894 3396 0
48 2 S116 1137 971031 4533 0
48 2 S116 1075 972106 5608 0
48 2 S116 1123 973229 6731 0
0 0 0 1147 974376 -6611 0
0 0 0 1112 975488 -5499 0
0 0 0 1176 976664 -4323 0
0 0 0 1142 977806 -3181 0
0 0 0 1062 978868 -2119 0
49 1 S112 1077 979945 -1042 0
49 1 S112 1017 980962 -25 0
49 2 S112 996 981958 971 0
49 2 S112 1084 983042 2055 0
49 2 S112 1166 984208 3221 0
49 2 S112 1170 985378 4391 0
49 2 S112 1159 986537 5550 0
49 2 S112 1146 987683 6696 0
0 0 0 1115 988798 -10442 0
0 0 0 1104 989902 -9338 0
0 0 0 1091 990993 -8247 0
0 0 0 1027 992020 -7220 0
0 0 0 1034 993054 -6186 0
0 0 0 1069 994123 -5117 0
0 0 0 1069 995192 -4048 0
0 0 0 1036 996228 -3012 0
50 1 S106 1074 997302 -1938 0
50 1 S106 1084 998386 -854 0
50 2 S106 1095 999481 241 0
50 2 S106 1043 1000524 1284 0
50 2 S106 1074 1001598 2358 0
50 2 S106 1090 1002688 3448 0
50 2 S106 1093 1003781 4541 0
50 2 S106 1054 1004835 5595 0
50 2 S106 1109 1005944 6704 0
0 0 0 1118 1007062 -6303 0
0 0 0 1090 1008152 -5213 0
0 0 0 1093 1009245 -4120 0
0 0 0 1026 1010271 -3094 0
0 0 0 971 1011242 -2123 0
51 1 S112 945 1012187 -1178 0
51 1 S112 857 1013044 -321 0
51 2 S112 833 1013877 512 0
51 2 S112 966 1014843 1478 0
51 2 S112 1015 1015858 2493 0
51 2 S112 1079 1016937 3572 0
51 2 S112 1103 1018040 4675 0
51 2 S112 1122 1019162 5797 0
51 2 S112 1051 1020213 6848 0
0 0 0 1064 1021277 -6063 0
0 0 0 1051 1022328 -5012 0
0 0 0 898 1023226 -4114 0
0 0 0 860 1024086 -3254 0
0 0 0 783 1024869 -2471 1
52 1 S116 747 1025616 -1724 1
52 1 S116 796 1026412 -928 0
52 2 S116 1140 1027552 212 0
52 2 S116 1156 1028708 1368 0
52 2 S116 1210 1029918 2578 0
52 2 S116 1194 1031112 3772 0
52 2 S116 1189 1032301 4961 0
52 2 S116 1144 1033445 6105 0
0 0 0 1163 1034608 -9642 0
0 0 0 1154 1035762 -8488 0
0 0 0 1097 1036859 -7391 0
0 0 0 1106 1037965 -6285 0
0 0 0 1097 1039062 -5188 0
0 0 0 953 1040015 -4235 0
0 0 0 989 1041004 -3246 0
0 0 0 1039 1042043 -2207 0
53 1 S106 1130 1043173 -1077 0
53 2 S106 1169 1044342 92 0
53 2 S106 1013 1045355 1105 0
53 2 S106 1111 1046466 2216 0
53 2 S106 1185 1047651 3401 0
53 2 S106 1172 1048823 4573 0
53 2 S106 1088 1049911 5661 0
53 2 S106 1140 1051051 6801 0
0 0 0 1157 1052208 -6034 0
0 0 0 1143 1053351 -4891 0
0 0 0 1022 1054373 -3869 0
0 0 0 1023 1055396 -2846 0
54 1 S102 1039 1056435 -1807 0
54 1 S102 1064 1057499 -743 0
54 2 S102 1026 1058525 283 0
54 2 S102 1084 1059609 1367 0
54 2 S102 1118 1060727 2485 0
54 2 S102 1144 1061871 3629 0
54 2 S102 1114 1062985 4743 0
54 2 S102 1135 1064120 5878 0
0 0 0 1179 1065299 -10914 0
0 0 0 1185 1066484 -9729 0
0 0 0 1131 1067615 -8598 0
0 0 0 1128 1068743 -7470 0
0 0 0 1061 1069804 -6409 0
0 0 0 1019 1070823 -5390 0
0 0 0 1059 1071882 -4331 0
0 0 0 1087 1072969 -3244 0
0 0 0 1155 1074124 -2089 0
55 1 S106 1114 1075238 -975 0
55 2 S106 1142 1076380 167 0
55 2 S106 1114 1077494 1281 0
55 2 S106 1047 1078541 2328 0
55 2 S106 1063 1079604 3391 0
55 2 S106 1059 1080663 4450 0
55 2 S106 1068 1081731 5518 0
55 2 S106 1050 1082781 6568 0
0 0 0 1090 1083871 -6865 0
0 0 0 1130 1085001 -5735 0
0 0 0 1141 1086142 -4594 0
0 0 0 1119 1087261 -3475 0
0 0 0 1064 1088325 -2411 0
56 1 S116 1063 1089388 -1348 0
56 1 S116 1074 1090462 -274 0
56 2 S116 1121 1091583 847 0
56 2 S116 1068 1092651 1915 0
56 2 S116 1116 1093767 3031 0
56 2 S116 1171 1094938 4202 0
56 2 S116 1161 1096099 5363 0
56 2 S116 1129 1097228 6492 0
0 0 0 1184 1098412 -6747 0
0 0 0 1122 1099534 -5625 0
0 0 0 1101 1100635 -4524 0
0 0 0 1033 1101668 -3491 0
0 0 0 910 1102578 -2581 0
57 1 S106 935 1103513 -1646 0
57 1 S106 1076 1104589 -570 0
57 2 S106 1175 1105764 605 0
57 2 S106 1101 1106865 1706 0
57 2 S106 1130 1107995 2836 0
57 2 S106 1136 1109131 3972 0
57 2 S106 1061 1110192 5033 0
57 2 S106 1054 1111246 6087 0
0 0 0 1049 1112295 -8780 0
0 0 0 1072 1113367 -7708 0
0 0 0 1036 1114403 -6672 0
0 0 0 1047 1115450 -5625 0
0 0 0 956 1116406 -4669 0
0 0 0 916 1117322 -3753 0
0 0 0 1104 1118426 -2649 0
58 1 S102 1018 1119444 -1631 0
58 1 S102 927 1120371 -704 0
58 2 S102 813 1121184 109 0
58 2 S102 766 1121950 875 1
58 2 S102 762 1122712 1637 1
58 2 S102 878 1123590 2515 0
58 2 S102 1008 1124598 3523 0
58 2 S102 1105 1125703 4628 0
58 2 S102 1052 1126755 5680 0
58 2 S102 1054 1127809 6734 0
0 0 0 1038 1128847 -6037 0
0 0 0 1010 1129857 -5027 0
0 0 0 992 1130849 -4035 0
0 0 0 973 1131822 -3062 0
0 0 0 949 1132771 -2113 0
59 1 S112 910 1133681 -1203 0
59 1 S112 897 1134578 -306 0
59 2 S112 894 1135472 588 0
59 2 S112 908 1136380 1496 0
59 2 S112 967 1137347 2463 0
59 2 S112 999 1138346 3462 0
59 2 S112 1093 1139439 4555 0
59 2 S112 1099 1140538 5654 0
59 2 S112 1055 1141593 6709 0
0 0 0 1003 1142596 -8452 0
0 0 0 944 1143540 -7508 0
0 0 0 882 1144422 -6626 0
0 0 0 850 1145272 -5776 0
0 0 0 942 1146214 -4834 0
0 0 0 1011 1147225 -3823 0
0 0 0 1055 1148280 -2768 0
60 1 S102 1062 1149342 -1706 0
60 1 S102 1085 1150427 -621 0
60 2 S102 1101 1151528 480 0
60 2 S102 1095 1152623 1575 0
60 2 S102 1036 1153659 2611 0
60 2 S102 1036 1154695 3647 0
60 2 S102 1073 1155768 4720 0
60 2 S102 1148 1156916 5868 0
0 0 0 1164 1158080 -10774 0
0 0 0 1189 1159269 -9585 0
0 0 0 1203 1160472 -8382 0
0 0 0 965 1161437 -7417 0
0 0 0 903 1162340 -6514 0
0 0 0 933 1163273 -5581 0
0 0 0 979 1164252 -4602 0
0 0 0 1133 1165385 -3469 0
0 0 0 1204 1166589 -2265 0
61 1 S106 1233 1167822 -1032 0
61 2 S106 1213 1169035 181 0
61 2 S106 1135 1170170 1316 0
61 2 S106 1155 1171325 2471 0
61 2 S106 1151 1172476 3622 0
61 2 S106 1060 1173536 4682 0
61 2 S106 1087 1174623 5769 0
61 2 S106 1109 1175732 6878 0
0 0 0 1060 1176792 -5507 0
0 0 0 1097 1177889 -4410 0
0 0 0 1113 1179002 -3297 0
0 0 0 1082 1180084 -2215 0
62 1 S112 1158 1181242 -1057 0
62 2 S112 1186 1182428 129 0
62 2 S112 1141 1183569 1270 0
62 2 S112 1214 1184783 2484 0
62 2 S112 1179 1185962 3663 0
62 2 S112 1149 1187111 4812 0
62 2 S112 1200 1188311 6012 0
0 0 0 1184 1189495 -11570 0
0 0 0 1164 1190659 -10406 0
0 0 0 1193 1191852 -9213 0
0 0 0 1111 1192963 -8102 0
0 0 0 1028 1193991 -7074 0
0 0 0 1033 1195024 -6041 0
0 0 0 1082 1196106 -4959 0
0 0 0 1089 1197195 -3870 0
0 0 0 1156 1198351 -2714 0
63 1 S102 1192 1199543 -1522 0
63 1 S102 1153 1200696 -369 0
63 2 S102 1161 1201857 792 0
63 2 S102 1161 1203018 1953 0
63 2 S102 1113 1204131 3066 0
63 2 S102 1052 1205183 4118 0
63 2 S102 1044 1206227 5162 0
63 2 S102 961 1207188 6123 0
0 0 0 917 1208105 -8594 0
0 0 0 892 1208997 -7702 0
0 0 0 866 1209863 -6836 0
0 0 0 861 1210724 -5975 0
0 0 0 889 1211613 -5086 0
0 0 0 991 1212604 -4095 0
0 0 0 1071 1213675 -3024 0
0 0 0 966 1214641 -2058 0
64 1 S112 1098 1215739 -960 0
64 2 S112 1122 1216861 162 0
64 2 S112 1082 1217943 1244 0
64 2 S112 1049 1218992 2293 0
64 2 S112 1041 1220033 3334 0
64 2 S112 1025 1221058 4359 0
64 2 S112 994 1222052 5353 0
64 2 S112 974 1223026 6327 0
0 0 0 995 1224021 -6571 0
0 0 0 1009 1225030 -5562 0
0 0 0 1101 1226131 -4461 0
0 0 0 971 1227102 -3490 0
0 0 0 893 1227995 -2597 0
65 1 S106 868 1228863 -1729 0
65 1 S106 1032 1229895 -697 0
65 2 S106 1215 1231110 518 0
65 2 S106 1216 1232326 1734 0
65 2 S106 1223 1233549 2957 0
65 2 S106 1155 1234704 4112 0
65 2 S106 1143 1235847 5255 0
65 2 S106 1131 1236978 6386 0
0 0 0 1077 1238055 -6960 0
0 0 0 1071 1239126 -5889 0
0 0 0 1054 1240180 -4835 0
0 0 0 987 1241167 -3848 0
0 0 0 985 1242152 -2863 0
66 1 S116 999 1243151 -1864 0
66 1 S116 902 1244053 -962 0
66 1 S116 851 1244904 -111 0
66 2 S116 996 1245900 885 0
66 2 S116 1123 1247023 2008 0
66 2 S116 1184 1248207 3192 0
66 2 S116 1147 1249354 4339 0
66 2 S116 1192 1250546 5531 0
66 2 S116 1172 1251718 6703 0
0 0 0 1103 1252821 -10795 0
0 0 0 1111 1253932 -9684 0
0 0 0 1128 1255060 -8556 0
0 0 0 1086 1256146 -7470 0
0 0 0 1049 1257195 -6421 0
0 0 0 1079 1258274 -5342 0
0 0 0 1122 1259396 -4220 0
0 0 0 1110 1260506 -3110 0
67 1 S102 1162 1261668 -1948 0
67 1 S102 1160 1262828 -788 0
67 2 S102 1151 1263979 363 0
67 2 S102 1135 1265114 1498 0
67 2 S102 1130 1266244 2628 0
67 2 S102 1090 1267334 3718 0
67 2 S102 1026 1268360 4744 0
67 2 S102 1084 1269444 5828 0
67 2 S102 1092 1270536 6920 0
0 0 0 1124 1271660 -6081 0
0 0 0 1201 1272861 -4880 0
0 0 0 1168 1274029 -3712 0
0 0 0 1074 1275103 -2638 0
68 1 S106 1124 1276227 -1514 0
68 1 S106 1175 1277402 -339 0
68 2 S106 1118 1278520 779 0
68 2 S106 1101 1279621 1880 0
68 2 S106 1125 1280746 3005 0
68 2 S106 1139 1281885 4144 0
68 2 S106 1114 1282999 5258 0
68 2 S106 1158 1284157 6416 0
0 0 0 1181 1285338 -10556 0
0 0 0 1085 1286423 -9471 0
0 0 0 1118 1287541 -8353 0
0 0 0 1035 1288576 -7318 0
0 0 0 942 1289518 -6376 0
0 0 0 914 1290432 -5462 0
0 0 0 900 1291332 -4562 0
0 0 0 966 1292298 -3596 0
0 0 0 1073 1293371 -2523 0
69 1 S102 1129 1294500 -1394 0
69 1 S102 1133 1295633 -261 0
69 2 S102 1076 1296709 815 0
69 2 S102 1060 1297769 1875 0
69 2 S102 1027 1298796 2902 0
69 2 S102 974 1299770 3876 0
69 2 S102 943 1300713 4819 0
69 2 S102 913 1301626 5732 0
69 2 S102 878 1302504 6610 0
0 0 0 801 1303305 -8455 0
0 0 0 800 1304105 -7655 0
0 0 0 800 1304905 -6855 0
0 0 0 823 1305728 -6032 0
0 0 0 829 1306557 -5203 0
0 0 0 829 1307386 -4374 0
0 0 0 837 1308223 -3537 0
0 0 0 911 1309134 -2626 0
70 1 S112 1027 1310161 -1599 0
70 1 S112 956 1311117 -643 0
70 2 S112 964 1312081 321 0
70 2 S112 1019 1313100 1340 0
70 2 S112 1005 1314105 2345 0
70 2 S112 1066 1315171 3411 0
70 2 S112 1034 1316205 4445 0
70 2 S112 1043 1317248 5488 0
70 2 S112 1039 1318287 6527 0
0 0 0 1071 1319358 -11085 0
0 0 0 1104 1320462 -9981 0
0 0 0 1086 1321548 -8895 0
0 0 0 944 1322492 -7951 0
0 0 0 898 1323390 -7053 0
0 0 0 856 1324246 -6197 0
0 0 0 892 1325138 -5305 0
0 0 0 1048 1326186 -4257 0
0 0 0 1131 1327317 -3126 0
71 1 S116 1146 1328463 -1980 0
71 1 S116 1166 1329629 -814 0
71 2 S116 1184 1330813 370 0
71 2 S116 1131 1331944 1501 0
71 2 S116 1117 1333061 2618 0
71 2 S116 1096 1334157 3714 0
71 2 S116 1105 1335262 4819 0
71 2 S116 1089 1336351 5908 0
71 2 S116 1098 1337449 7006 0
0 0 0 1132 1338581 -8474 0
0 0 0 1128 1339709 -7346 0
0 0 0 1105 1340814 -6241 0
0 0 0 1119 1341933 -5122 0
0 0 0 1001 1342934 -4121 0
0 0 0 1033 1343967 -3088 0
0 0 0 1063 1345030 -2025 0
72 1 S102 1112 1346142 -913 0
72 2 S102 1163 1347305 250 0
72 2 S102 1200 1348505 1450 0
72 2 S102 1126 1349631 2576 0
72 2 S102 1108 1350739 3684 0
72 2 S102 1097 1351836 4781 0
72 2 S102 1058 1352894 5839 0
72 2 S102 1068 1353962 6907 0
0 0 0 1078 1355040 -6388 0
0 0 0 1153 1356193 -5235 0
0 0 0 1064 1357257 -4171 0
0 0 0 1020 1358277 -3151 0
0 0 0 1049 1359326 -2102 0
73 1 S116 1023 1360349 -1079 0
73 2 S116 1108 1361457 29 0
73 2 S116 1116 1362573 1145 0
73 2 S116 1122 1363695 2267 0
73 2 S116 1135 1364830 3402 0
73 2 S116 1169 1365999 4571 0
73 2 S116 1123 1367122 5694 0
73 2 S116 1094 1368216 6788 0
0 0 0 1103 1369319 -8920 0
0 0 0 1092 1370411 -7828 0
0 0 0 1065 1371476 -6763 0
0 0 0 1068 1372544 -5695 0
0 0 0 965 1373509 -4730 0
0 0 0 1002 1374511 -3728 0
0 0 0 882 1375393 -2846 0
74 1 S106 954 1376347 -1892 0
74 1 S106 1047 1377394 -845 0
74 2 S106 1107 1378501 262 0
74 2 S106 1216 1379717 1478 0
74 2 S106 1155 1380872 2633 0
74 2 S106 1133 1382005 3766 0
74 2 S106 1138 1383143 4904 0
74 2 S106 1104 1384247 6008 0
0 0 0 1069 1385316 -6633 0
0 0 0 1100 1386416 -5533 0
0 0 0 1075 1387491 -4458 0
0 0 0 963 1388454 -3495 0
0 0 0 957 1389411 -2538 0
75 1 S112 965 1390376 -1573 0
75 1 S112 1066 1391442 -507 0
75 2 S112 1079 1392521 572 0
75 2 S112 1166 1393687 1738 0
75 2 S112 1209 1394896 2947 0
75 2 S112 1146 1396042 4093 0
75 2 S112 1138 1397180 5231 0
75 2 S112 1122 1398302 6353 0
0 0 0 1064 1399366 -7139 0
0 0 0 1063 1400429 -6076 0
0 0 0 1090 1401519 -4986 0
0 0 0 1013 1402532 -3973 0
0 0 0 993 1403525 -2980 0
76 1 S116 1067 1404592 -1913 0
76 1 S116 1132 1405724 -781 0
76 2 S116 1140 1406864 359 0
76 2 S116 1150 1408014 1509 0
76 2 S116 1186 1409200 2695 0
76 2 S116 1148 1410348 3843 0
76 2 S116 1122 1411470 4965 0
76 2 S116 1145 1412615 6110 0
0 0 0 1119 1413734 -7559 0
0 0 0 1100 1414834 -6459 0
0 0 0 1131 1415965 -5328 0
0 0 0 1074 1417039 -4254 0
0 0 0 1052 1418091 -3202 0
0 0 0 1032 1419123 -2170 0
77 1 S106 1017 1420140 -1153 0
77 1 S106 1111 1421251 -42 0
77 2 S106 1149 1422400 1107 0
77 2 S106 1116 1423516 2223 0
77 2 S106 1107 1424623 3330 0
77 2 S106 1112 1425735 4442 0
77 2 S106 1063 1426798 5505 0
77 2 S106 1059 1427857 6564 0
0 0 0 1072 1428929 -8180 0
0 0 0 1081 1430010 -7099 0
0 0 0 1064 1431074 -6035 0
0 0 0 1099 1432173 -4936 0
0 0 0 1135 1433308 -3801 0
0 0 0 1096 1434404 -2705 0
78 1 S112 1112 1435516 -1593 0
78 1 S112 1107 1436623 -486 0
78 2 S112 1051 1437674 565 0
78 2 S112 1090 1438764 1655 0
78 2 S112 1081 1439845 2736 0
78 2 S112 1064 1440909 3800 0
78 2 S112 1075 1441984 4875 0
78 2 S112 1129 1443113 6004 0
0 0 0 1198 1444311 -11266 0
0 0 0 1142 1445453 -10124 0
0 0 0 1141 1446594 -8983 0
0 0 0 1099 1447693 -7884 0
0 0 0 1045 1448738 -6839 0
0 0 0 1075 1449813 -5764 0
0 0 0 1094 1450907 -4670 0
0 0 0 1032 1451939 -3638 0
0 0 0 1067 1453006 -2571 0
79 1 S102 1109 1454115 -1462 0
79 1 S102 1075 1455190 -387 0
79 2 S102 992 1456182 605 0
79 2 S102 1022 1457204 1627 0
79 2 S102 1016 1458220 2643 0
79 2 S102 1093 1459313 3736 0
79 2 S102 1096 1460409 4832 0
79 2 S102 1113 1461522 5945 0
0 0 0 1098 1462620 -8359 0
0 0 0 1063 1463683 -7296 0
0 0 0 1050 1464733 -6246 0
0 0 0 1000 1465733 -5246 0
0 0 0 896 1466629 -4350 0
0 0 0 858 1467487 -3492 0
0 0 0 923 1468410 -2569 0
80 1 S116 980 1469390 -1589 0
80 1 S116 1044 1470434 -545 0
80 2 S116 1072 1471506 527 0
80 2 S116 1143 1472649 1670 0
80 2 S116 1184 1473833 2854 0
80 2 S116 1143 1474976 3997 0
80 2 S116 1133 1476109 5130 0
80 2 S116 1120 1477229 6250 0
