T_0136
BeatCount Mean SD BeatCountNoOutliers MeanNoOutliers SDNoOutliers
1831 872,563626433643 60,1638034414939 1797 875,212576516416 55,4461868706392

Trial TrialStatus Trialtype IBI AbsPosition RelPosition Outlier
0 0 0 918 1378 -14515 0
0 0 0 839 2217 -13676 0
0 0 0 834 3051 -12842 0
0 0 0 842 3893 -12000 0
0 0 0 870 4763 -11130 0
0 0 0 850 5613 -10280 0
0 0 0 931 6544 -9349 0
0 0 0 1000 7544 -8349 0
0 0 0 998 8542 -7351 0
0 0 0 920 9462 -6431 0
0 0 0 908 10370 -5523 0
0 0 0 910 11280 -4613 0
0 0 0 944 12224 -3669 0
0 0 0 913 13137 -2756 0
1 1 S112 878 14015 -1878 0
1 1 S112 879 14894 -999 0
1 1 S112 898 15792 -101 0
1 2 S112 943 16735 842 0
1 2 S112 904 17639 1746 0
1 2 S112 852 18491 2598 0
1 2 S112 840 19331 3438 0
1 2 S112 857 20188 4295 0
1 2 S112 892 21080 5187 0
1 2 S112 932 22012 6119 0
1 2 S112 872 22884 6991 0
0 0 0 842 23726 -11448 0
0 0 0 852 24578 -10596 0
0 0 0 863 25441 -9733 0
0 0 0 818 26259 -8915 0
0 0 0 804 27063 -8111 0
0 0 0 841 27904 -7270 0
0 0 0 870 28774 -6400 0
0 0 0 869 29643 -5531 0
0 0 0 830 30473 -4701 0
0 0 0 834 31307 -3867 0
0 0 0 842 32149 -3025 0
0 0 0 840 32989 -2185 0
2 1 S102 816 33805 -1369 0
2 1 S102 801 34606 -568 0
2 2 S102 780 35386 212 0
2 2 S102 819 36205 1031 0
2 2 S102 854 37059 1885 0
2 2 S102 891 37950 2776 0
2 2 S102 858 38808 3634 0
2 2 S102 827 39635 4461 0
2 2 S102 855 40490 5316 0
2 2 S102 894 41384 6210 0
0 0 0 909 42293 -9675 0
0 0 0 878 43171 -8797 0
0 0 0 808 43979 -7989 0
0 0 0 801 44780 -7188 0
0 0 0 786 45566 -6402 0
0 0 0 800 46366 -5602 0
0 0 0 786 47152 -4816 0
0 0 0 759 47911 -4057 0
0 0 0 772 48683 -3285 0
0 0 0 801 49484 -2484 0
3 1 S116 836 50320 -1648 0
3 1 S116 813 51133 -835 0
3 1 S116 777 51910 -58 0
3 2 S116 736 52646 678 0
3 2 S116 712 53358 1390 1
3 2 S116 733 54091 2123 0
3 2 S116 784 54875 2907 0
3 2 S116 811 55686 3718 0
3 2 S116 782 56468 4500 0
3 2 S116 743 57211 5243 0
3 2 S116 746 57957 5989 0
3 2 S116 778 58735 6767 0
0 0 0 819 59554 -11910 0
0 0 0 826 60380 -11084 0
0 0 0 783 61163 -10301 0
0 0 0 790 61953 -9511 0
0 0 0 790 62743 -8721 0
0 0 0 802 63545 -7919 0
0 0 0 804 64349 -7115 0
0 0 0 778 65127 -6337 0
0 0 0 810 65937 -5527 0
0 0 0 867 66804 -4660 0
0 0 0 888 67692 -3772 0
0 0 0 876 68568 -2896 0
0 0 0 847 69415 -2049 0
4 1 S106 874 70289 -1175 0
4 1 S106 873 71162 -302 0
4 2 S106 875 72037 573 0
4 2 S106 863 72900 1436 0
4 2 S106 819 73719 2255 0
4 2 S106 812 74531 3067 0
4 2 S106 838 75369 3905 0
4 2 S106 884 76253 4789 0
4 2 S106 943 77196 5732 0
4 2 S106 945 78141 6677 0
0 0 0 906 79047 -8564 0
0 0 0 896 79943 -7668 0
0 0 0 882 80825 -6786 0
0 0 0 843 81668 -5943 0
0 0 0 798 82466 -5145 0
0 0 0 821 83287 -4324 0
0 0 0 901 84188 -3423 0
0 0 0 970 85158 -2453 0
5 1 S116 945 86103 -1508 0
5 1 S116 902 87005 -606 0
5 2 S116 951 87956 345 0
5 2 S116 999 88955 1344 0
5 2 S116 964 89919 2308 0
5 2 S116 852 90771 3160 0
5 2 S116 833 91604 3993 0
5 2 S116 854 92458 4847 0
5 2 S116 892 93350 5739 0
5 2 S116 902 94252 6641 0
0 0 0 841 95093 -11119 0
0 0 0 871 95964 -10248 0
0 0 0 895 96859 -9353 0
0 0 0 890 97749 -8463 0
0 0 0 841 98590 -7622 0
0 0 0 873 99463 -6749 0
0 0 0 871 100334 -5878 0
0 0 0 884 101218 -4994 0
0 0 0 858 102076 -4136 0
0 0 0 860 102936 -3276 0
0 0 0 901 103837 -2375 0
6 1 S106 917 104754 -1458 0
6 1 S106 891 105645 -567 0
6 2 S106 823 106468 256 0
6 2 S106 847 107315 1103 0
6 2 S106 920 108235 2023 0
6 2 S106 983 109218 3006 0
6 2 S106 953 110171 3959 0
6 2 S106 892 111063 4851 0
6 2 S106 932 111995 5783 0
6 2 S106 988 112983 6771 0
0 0 0 956 113939 -12333 0
0 0 0 872 114811 -11461 0
0 0 0 881 115692 -10580 0
0 0 0 877 116569 -9703 0
0 0 0 833 117402 -8870 0
0 0 0 858 118260 -8012 0
0 0 0 887 119147 -7125 0
0 0 0 916 120063 -6209 0
0 0 0 863 120926 -5346 0
0 0 0 908 121834 -4438 0
0 0 0 953 122787 -3485 0
0 0 0 966 123753 -2519 0
7 1 S102 899 124652 -1620 0
7 1 S102 906 125558 -714 0
7 2 S102 918 126476 204 0
7 2 S102 933 127409 1137 0
7 2 S102 910 128319 2047 0
7 2 S102 853 129172 2900 0
7 2 S102 892 130064 3792 0
7 2 S102 942 131006 4734 0
7 2 S102 966 131972 5700 0
7 2 S102 905 132877 6605 0
0 0 0 930 133807 -10105 0
0 0 0 969 134776 -9136 0
0 0 0 953 135729 -8183 0
0 0 0 882 136611 -7301 0
0 0 0 913 137524 -6388 0
0 0 0 925 138449 -5463 0
0 0 0 950 139399 -4513 0
0 0 0 956 140355 -3557 0
0 0 0 920 141275 -2637 0
8 1 S112 961 142236 -1676 0
8 1 S112 989 143225 -687 0
8 2 S112 1007 144232 320 0
8 2 S112 989 145221 1309 0
8 2 S112 976 146197 2285 0
8 2 S112 909 147106 3194 0
8 2 S112 882 147988 4076 0
8 2 S112 907 148895 4983 0
8 2 S112 931 149826 5914 0
8 2 S112 934 150760 6848 0
0 0 0 901 151661 -8514 0
0 0 0 853 152514 -7661 0
0 0 0 866 153380 -6795 0
0 0 0 845 154225 -5950 0
0 0 0 839 155064 -5111 0
0 0 0 803 155867 -4308 0
0 0 0 857 156724 -3451 0
0 0 0 923 157647 -2528 0
9 1 S116 966 158613 -1562 0
9 1 S116 900 159513 -662 0
9 2 S116 834 160347 172 0
9 2 S116 834 161181 1006 0
9 2 S116 888 162069 1894 0
9 2 S116 917 162986 2811 0
9 2 S116 870 163856 3681 0
9 2 S116 871 164727 4552 0
9 2 S116 890 165617 5442 0
9 2 S116 917 166534 6359 0
0 0 0 912 167446 -13336 0
0 0 0 875 168321 -12461 0
0 0 0 836 169157 -11625 0
0 0 0 834 169991 -10791 0
0 0 0 845 170836 -9946 0
0 0 0 816 171652 -9130 0
0 0 0 849 172501 -8281 0
0 0 0 889 173390 -7392 0
0 0 0 946 174336 -6446 0
0 0 0 918 175254 -5528 0
0 0 0 944 176198 -4584 0
0 0 0 1006 177204 -3578 0
0 0 0 1029 178233 -2549 1
10 1 S102 971 179204 -1578 0
10 1 S102 930 180134 -648 0
10 2 S102 954 181088 306 0
10 2 S102 980 182068 1286 0
10 2 S102 996 183064 2282 0
10 2 S102 916 183980 3198 0
10 2 S102 852 184832 4050 0
10 2 S102 873 185705 4923 0
10 2 S102 902 186607 5825 0
10 2 S102 925 187532 6750 0
0 0 0 951 188483 -10485 0
0 0 0 932 189415 -9553 0
0 0 0 930 190345 -8623 0
0 0 0 885 191230 -7738 0
0 0 0 792 192022 -6946 0
0 0 0 759 192781 -6187 0
0 0 0 730 193511 -5457 0
0 0 0 751 194262 -4706 0
0 0 0 778 195040 -3928 0
0 0 0 730 195770 -3198 0
0 0 0 730 196500 -2468 0
11 1 S112 820 197320 -1648 0
11 1 S112 806 198126 -842 0
11 2 S112 843 198969 1 0
11 2 S112 874 199843 875 0
11 2 S112 901 200744 1776 0
11 2 S112 856 201600 2632 0
11 2 S112 850 202450 3482 0
11 2 S112 898 203348 4380 0
11 2 S112 932 204280 5312 0
11 2 S112 899 205179 6211 0
0 0 0 825 206004 -7918 0
0 0 0 870 206874 -7048 0
0 0 0 898 207772 -6150 0
0 0 0 862 208634 -5288 0
0 0 0 846 209480 -4442 0
0 0 0 914 210394 -3528 0
0 0 0 934 211328 -2594 0
12 1 S116 874 212202 -1720 0
12 1 S116 904 213106 -816 0
12 2 S116 934 214040 118 0
12 2 S116 936 214976 1054 0
12 2 S116 889 215865 1943 0
12 2 S116 862 216727 2805 0
12 2 S116 900 217627 3705 0
12 2 S116 910 218537 4615 0
12 2 S116 923 219460 5538 0
12 2 S116 896 220356 6434 0
0 0 0 834 221190 -12162 0
0 0 0 840 222030 -11322 0
0 0 0 857 222887 -10465 0
0 0 0 893 223780 -9572 0
0 0 0 872 224652 -8700 0
0 0 0 933 225585 -7767 0
0 0 0 989 226574 -6778 0
0 0 0 961 227535 -5817 0
0 0 0 903 228438 -4914 0
0 0 0 967 229405 -3947 0
0 0 0 971 230376 -2976 0
0 0 0 945 231321 -2031 0
13 1 S112 870 232191 -1161 0
13 1 S112 854 233045 -307 0
13 2 S112 895 233940 588 0
13 2 S112 924 234864 1512 0
13 2 S112 925 235789 2437 0
13 2 S112 863 236652 3300 0
13 2 S112 885 237537 4185 0
13 2 S112 915 238452 5100 0
13 2 S112 938 239390 6038 0
13 2 S112 963 240353 7001 0
0 0 0 927 241280 -11618 0
0 0 0 883 242163 -10735 0
0 0 0 902 243065 -9833 0
0 0 0 933 243998 -8900 0
0 0 0 853 244851 -8047 0
0 0 0 845 245696 -7202 0
0 0 0 855 246551 -6347 0
0 0 0 862 247413 -5485 0
0 0 0 861 248274 -4624 0
0 0 0 850 249124 -3774 0
0 0 0 843 249967 -2931 0
0 0 0 886 250853 -2045 0
14 1 S106 960 251813 -1085 0
14 1 S106 981 252794 -104 0
14 2 S106 960 253754 856 0
14 2 S106 919 254673 1775 0
14 2 S106 839 255512 2614 0
14 2 S106 836 256348 3450 0
14 2 S106 848 257196 4298 0
14 2 S106 857 258053 5155 0
14 2 S106 869 258922 6024 0
14 2 S106 888 259810 6912 0
0 0 0 842 260652 -10830 0
0 0 0 810 261462 -10020 0
0 0 0 829 262291 -9191 0
0 0 0 825 263116 -8366 0
0 0 0 795 263911 -7571 0
0 0 0 776 264687 -6795 0
0 0 0 813 265500 -5982 0
0 0 0 994 266494 -4988 0
0 0 0 1043 267537 -3945 1
0 0 0 972 268509 -2973 0
0 0 0 968 269477 -2005 0
15 1 S116 1036 270513 -969 1
15 2 S116 1048 271561 79 1
15 2 S116 995 272556 1074 0
15 2 S116 924 273480 1998 0
15 2 S116 946 274426 2944 0
15 2 S116 938 275364 3882 0
15 2 S116 933 276297 4815 0
15 2 S116 913 277210 5728 0
15 2 S116 881 278091 6609 0
0 0 0 926 279017 -9989 0
0 0 0 945 279962 -9044 0
0 0 0 880 280842 -8164 0
0 0 0 839 281681 -7325 0
0 0 0 869 282550 -6456 0
0 0 0 881 283431 -5575 0
0 0 0 816 284247 -4759 0
0 0 0 773 285020 -3986 0
0 0 0 773 285793 -3213 0
0 0 0 863 286656 -2350 0
16 1 S116 1026 287682 -1324 0
16 1 S116 996 288678 -328 0
16 2 S116 982 289660 654 0
16 2 S116 931 290591 1585 0
16 2 S116 896 291487 2481 0
16 2 S116 909 292396 3390 0
16 2 S116 938 293334 4328 0
16 2 S116 906 294240 5234 0
16 2 S116 868 295108 6102 0
16 2 S116 864 295972 6966 0
0 0 0 882 296854 -10073 0
0 0 0 889 297743 -9184 0
0 0 0 852 298595 -8332 0
0 0 0 839 299434 -7493 0
0 0 0 832 300266 -6661 0
0 0 0 847 301113 -5814 0
0 0 0 815 301928 -4999 0
0 0 0 815 302743 -4184 0
0 0 0 818 303561 -3366 0
0 0 0 870 304431 -2496 0
17 1 S106 829 305260 -1667 0
17 1 S106 854 306114 -813 0
17 2 S106 909 307023 96 0
17 2 S106 961 307984 1057 0
17 2 S106 949 308933 2006 0
17 2 S106 908 309841 2914 0
17 2 S106 870 310711 3784 0
17 2 S106 883 311594 4667 0
17 2 S106 887 312481 5554 0
17 2 S106 909 313390 6463 0
0 0 0 915 314305 -11140 0
0 0 0 859 315164 -10281 0
0 0 0 890 316054 -9391 0
0 0 0 883 316937 -8508 0
0 0 0 871 317808 -7637 0
0 0 0 835 318643 -6802 0
0 0 0 852 319495 -5950 0
0 0 0 871 320366 -5079 0
0 0 0 920 321286 -4159 0
0 0 0 879 322165 -3280 0
0 0 0 857 323022 -2423 0
18 1 S102 904 323926 -1519 0
18 1 S102 921 324847 -598 0
18 2 S102 930 325777 332 0
18 2 S102 863 326640 1195 0
18 2 S102 862 327502 2057 0
18 2 S102 885 328387 2942 0
18 2 S102 889 329276 3831 0
18 2 S102 904 330180 4735 0
18 2 S102 856 331036 5591 0
18 2 S102 859 331895 6450 0
0 0 0 877 332772 -7328 0
0 0 0 923 333695 -6405 0
0 0 0 869 334564 -5536 0
0 0 0 825 335389 -4711 0
0 0 0 829 336218 -3882 0
0 0 0 839 337057 -3043 0
0 0 0 800 337857 -2243 0
19 1 S106 789 338646 -1454 0
19 1 S106 817 339463 -637 0
19 2 S106 910 340373 273 0
19 2 S106 913 341286 1186 0
19 2 S106 883 342169 2069 0
19 2 S106 915 343084 2984 0
19 2 S106 949 344033 3933 0
19 2 S106 921 344954 4854 0
19 2 S106 868 345822 5722 0
19 2 S106 856 346678 6578 0
0 0 0 887 347565 -13126 0
0 0 0 934 348499 -12192 0
0 0 0 872 349371 -11320 0
0 0 0 820 350191 -10500 0
0 0 0 843 351034 -9657 0
0 0 0 820 351854 -8837 0
0 0 0 839 352693 -7998 0
0 0 0 822 353515 -7176 0
0 0 0 877 354392 -6299 0
0 0 0 942 355334 -5357 0
0 0 0 995 356329 -4362 0
0 0 0 923 357252 -3439 0
0 0 0 971 358223 -2468 0
20 1 S112 977 359200 -1491 0
20 1 S112 967 360167 -524 0
20 2 S112 883 361050 359 0
20 2 S112 846 361896 1205 0
20 2 S112 851 362747 2056 0
20 2 S112 878 363625 2934 0
20 2 S112 899 364524 3833 0
20 2 S112 852 365376 4685 0
20 2 S112 887 366263 5572 0
20 2 S112 963 367226 6535 0
0 0 0 1004 368230 -10117 0
0 0 0 922 369152 -9195 0
0 0 0 916 370068 -8279 0
0 0 0 917 370985 -7362 0
0 0 0 864 371849 -6498 0
0 0 0 861 372710 -5637 0
0 0 0 879 373589 -4758 0
0 0 0 940 374529 -3818 0
0 0 0 872 375401 -2946 0
0 0 0 839 376240 -2107 0
21 1 S106 834 377074 -1273 0
21 1 S106 901 377975 -372 0
21 2 S106 957 378932 585 0
21 2 S106 940 379872 1525 0
21 2 S106 934 380806 2459 0
21 2 S106 946 381752 3405 0
21 2 S106 953 382705 4358 0
21 2 S106 907 383612 5265 0
21 2 S106 882 384494 6147 0
0 0 0 905 385399 -12726 0
0 0 0 920 386319 -11806 0
0 0 0 878 387197 -10928 0
0 0 0 827 388024 -10101 0
0 0 0 844 388868 -9257 0
0 0 0 818 389686 -8439 0
0 0 0 833 390519 -7606 0
0 0 0 806 391325 -6800 0
0 0 0 847 392172 -5953 0
0 0 0 876 393048 -5077 0
0 0 0 921 393969 -4156 0
0 0 0 904 394873 -3252 0
0 0 0 885 395758 -2367 0
22 1 S116 920 396678 -1447 0
22 1 S116 935 397613 -512 0
22 2 S116 921 398534 409 0
22 2 S116 856 399390 1265 0
22 2 S116 846 400236 2111 0
22 2 S116 854 401090 2965 0
22 2 S116 877 401967 3842 0
22 2 S116 889 402856 4731 0
22 2 S116 840 403696 5571 0
22 2 S116 878 404574 6449 0
0 0 0 924 405498 -11012 0
0 0 0 924 406422 -10088 0
0 0 0 838 407260 -9250 0
0 0 0 848 408108 -8402 0
0 0 0 864 408972 -7538 0
0 0 0 785 409757 -6753 0
0 0 0 758 410515 -5995 0
0 0 0 778 411293 -5217 0
0 0 0 794 412087 -4423 0
0 0 0 765 412852 -3658 0
0 0 0 790 413642 -2868 0
23 1 S112 899 414541 -1969 0
23 1 S112 967 415508 -1002 0
23 1 S112 1000 416508 -2 0
23 2 S112 956 417464 954 0
23 2 S112 916 418380 1870 0
23 2 S112 932 419312 2802 0
23 2 S112 920 420232 3722 0
23 2 S112 929 421161 4651 0
23 2 S112 917 422078 5568 0
23 2 S112 855 422933 6423 0
0 0 0 862 423795 -10852 0
0 0 0 866 424661 -9986 0
0 0 0 859 425520 -9127 0
0 0 0 797 426317 -8330 0
0 0 0 784 427101 -7546 0
0 0 0 815 427916 -6731 0
0 0 0 832 428748 -5899 0
0 0 0 815 429563 -5084 0
0 0 0 791 430354 -4293 0
0 0 0 782 431136 -3511 0
0 0 0 749 431885 -2762 0
0 0 0 731 432616 -2031 0
24 1 S106 774 433390 -1257 0
24 1 S106 822 434212 -435 0
24 2 S106 809 435021 374 0
24 2 S106 871 435892 1245 0
24 2 S106 922 436814 2167 0
24 2 S106 929 437743 3096 0
24 2 S106 902 438645 3998 0
24 2 S106 830 439475 4828 0
24 2 S106 847 440322 5675 0
24 2 S106 861 441183 6536 0
0 0 0 869 442052 -9157 0
0 0 0 866 442918 -8291 0
0 0 0 805 443723 -7486 0
0 0 0 836 444559 -6650 0
0 0 0 846 445405 -5804 0
0 0 0 877 446282 -4927 0
0 0 0 870 447152 -4057 0
0 0 0 866 448018 -3191 0
0 0 0 918 448936 -2273 0
25 1 S102 948 449884 -1325 0
25 1 S102 911 450795 -414 0
25 2 S102 859 451654 445 0
25 2 S102 848 452502 1293 0
25 2 S102 864 453366 2157 0
25 2 S102 907 454273 3064 0
25 2 S102 923 455196 3987 0
25 2 S102 944 456140 4931 0
25 2 S102 876 457016 5807 0
25 2 S102 859 457875 6666 0
0 0 0 866 458741 -8366 0
0 0 0 886 459627 -7480 0
0 0 0 898 460525 -6582 0
0 0 0 882 461407 -5700 0
0 0 0 842 462249 -4858 0
0 0 0 875 463124 -3983 0
0 0 0 913 464037 -3070 0
0 0 0 943 464980 -2127 0
26 1 S116 941 465921 -1186 0
26 1 S116 898 466819 -288 0
26 2 S116 908 467727 620 0
26 2 S116 925 468652 1545 0
26 2 S116 957 469609 2502 0
26 2 S116 964 470573 3466 0
26 2 S116 895 471468 4361 0
26 2 S116 840 472308 5201 0
26 2 S116 826 473134 6027 0
26 2 S116 868 474002 6895 0
0 0 0 925 474927 -8742 0
0 0 0 901 475828 -7841 0
0 0 0 832 476660 -7009 0
0 0 0 854 477514 -6155 0
0 0 0 906 478420 -5249 0
0 0 0 883 479303 -4366 0
0 0 0 831 480134 -3535 0
0 0 0 837 480971 -2698 0
27 1 S106 858 481829 -1840 0
27 1 S106 885 482714 -955 0
27 1 S106 906 483620 -49 0
27 2 S106 876 484496 827 0
27 2 S106 827 485323 1654 0
27 2 S106 832 486155 2486 0
27 2 S106 856 487011 3342 0
27 2 S106 886 487897 4228 0
27 2 S106 878 488775 5106 0
27 2 S106 820 489595 5926 0
27 2 S106 849 490444 6775 0
0 0 0 890 491334 -7869 0
0 0 0 928 492262 -6941 0
0 0 0 854 493116 -6087 0
0 0 0 866 493982 -5221 0
0 0 0 881 494863 -4340 0
0 0 0 892 495755 -3448 0
0 0 0 883 496638 -2565 0
28 1 S102 817 497455 -1748 0
28 1 S102 814 498269 -934 0
28 1 S102 822 499091 -112 0
28 2 S102 893 499984 781 0
28 2 S102 914 500898 1695 0
28 2 S102 868 501766 2563 0
28 2 S102 893 502659 3456 0
28 2 S102 951 503610 4407 0
28 2 S102 973 504583 5380 0
28 2 S102 943 505526 6323 0
0 0 0 856 506382 -11986 0
0 0 0 873 507255 -11113 0
0 0 0 869 508124 -10244 0
0 0 0 880 509004 -9364 0
0 0 0 836 509840 -8528 0
0 0 0 844 510684 -7684 0
0 0 0 870 511554 -6814 0
0 0 0 924 512478 -5890 0
0 0 0 912 513390 -4978 0
0 0 0 870 514260 -4108 0
0 0 0 892 515152 -3216 0
0 0 0 915 516067 -2301 0
29 1 S112 902 516969 -1399 0
29 1 S112 857 517826 -542 0
29 2 S112 875 518701 333 0
29 2 S112 930 519631 1263 0
29 2 S112 969 520600 2232 0
29 2 S112 932 521532 3164 0
29 2 S112 865 522397 4029 0
29 2 S112 885 523282 4914 0
29 2 S112 904 524186 5818 0
29 2 S112 894 525080 6712 0
0 0 0 875 525955 -7168 0
0 0 0 828 526783 -6340 0
0 0 0 869 527652 -5471 0
0 0 0 934 528586 -4537 0
0 0 0 979 529565 -3558 0
0 0 0 912 530477 -2646 0
30 1 S112 963 531440 -1683 0
30 1 S112 993 532433 -690 0
30 2 S112 1002 533435 312 0
30 2 S112 926 534361 1238 0
30 2 S112 930 535291 2168 0
30 2 S112 940 536231 3108 0
30 2 S112 941 537172 4049 0
30 2 S112 901 538073 4950 0
30 2 S112 837 538910 5787 0
30 2 S112 845 539755 6632 0
0 0 0 857 540612 -10299 0
0 0 0 884 541496 -9415 0
0 0 0 798 542294 -8617 0
0 0 0 802 543096 -7815 0
0 0 0 837 543933 -6978 0
0 0 0 889 544822 -6089 0
0 0 0 947 545769 -5142 0
0 0 0 877 546646 -4265 0
0 0 0 921 547567 -3344 0
0 0 0 952 548519 -2392 0
31 1 S106 947 549466 -1445 0
31 1 S106 858 550324 -587 0
31 2 S106 786 551110 199 0
31 2 S106 754 551864 953 0
31 2 S106 748 552612 1701 0
31 2 S106 815 553427 2516 0
31 2 S106 885 554312 3401 0
31 2 S106 894 555206 4295 0
31 2 S106 857 556063 5152 0
31 2 S106 881 556944 6033 0
31 2 S106 924 557868 6957 0
0 0 0 973 558841 -10373 0
0 0 0 912 559753 -9461 0
0 0 0 849 560602 -8612 0
0 0 0 851 561453 -7761 0
0 0 0 843 562296 -6918 0
0 0 0 809 563105 -6109 0
0 0 0 800 563905 -5309 0
0 0 0 781 564686 -4528 0
0 0 0 856 565542 -3672 0
0 0 0 965 566507 -2707 0
32 1 S102 951 567458 -1756 0
32 1 S102 908 568366 -848 0
32 2 S102 982 569348 134 0
32 2 S102 1022 570370 1156 0
32 2 S102 975 571345 2131 0
32 2 S102 900 572245 3031 0
32 2 S102 911 573156 3942 0
32 2 S102 926 574082 4868 0
32 2 S102 900 574982 5768 0
32 2 S102 856 575838 6624 0
0 0 0 836 576674 -11671 0
0 0 0 852 577526 -10819 0
0 0 0 846 578372 -9973 0
0 0 0 804 579176 -9169 0
0 0 0 836 580012 -8333 0
0 0 0 893 580905 -7440 0
0 0 0 930 581835 -6510 0
0 0 0 896 582731 -5614 0
0 0 0 912 583643 -4702 0
0 0 0 938 584581 -3764 0
0 0 0 945 585526 -2819 0
33 1 S112 925 586451 -1894 0
33 1 S112 880 587331 -1014 0
33 1 S112 927 588258 -87 0
33 2 S112 955 589213 868 0
33 2 S112 944 590157 1812 0
33 2 S112 880 591037 2692 0
33 2 S112 869 591906 3561 0
33 2 S112 874 592780 4435 0
33 2 S112 866 593646 5301 0
33 2 S112 883 594529 6184 0
0 0 0 876 595405 -12552 0
0 0 0 835 596240 -11717 0
0 0 0 886 597126 -10831 0
0 0 0 968 598094 -9863 0
0 0 0 937 599031 -8926 0
0 0 0 906 599937 -8020 0
0 0 0 937 600874 -7083 0
0 0 0 959 601833 -6124 0
0 0 0 878 602711 -5246 0
0 0 0 871 603582 -4375 0
0 0 0 881 604463 -3494 0
0 0 0 904 605367 -2590 0
34 1 S106 869 606236 -1721 0
34 1 S106 845 607081 -876 0
34 1 S106 875 607956 -1 0
34 2 S106 917 608873 916 0
34 2 S106 929 609802 1845 0
34 2 S106 884 610686 2729 0
34 2 S106 891 611577 3620 0
34 2 S106 951 612528 4571 0
34 2 S106 982 613510 5553 0
34 2 S106 915 614425 6468 0
0 0 0 870 615295 -10468 0
0 0 0 904 616199 -9564 0
0 0 0 907 617106 -8657 0
0 0 0 842 617948 -7815 0
0 0 0 879 618827 -6936 0
0 0 0 896 619723 -6040 0
0 0 0 915 620638 -5125 0
0 0 0 860 621498 -4265 0
0 0 0 883 622381 -3382 0
0 0 0 938 623319 -2444 0
35 1 S102 943 624262 -1501 0
35 1 S102 884 625146 -617 0
35 2 S102 852 625998 235 0
35 2 S102 890 626888 1125 0
35 2 S102 900 627788 2025 0
35 2 S102 894 628682 2919 0
35 2 S102 846 629528 3765 0
35 2 S102 844 630372 4609 0
35 2 S102 855 631227 5464 0
35 2 S102 887 632114 6351 0
0 0 0 882 632996 -8715 0
0 0 0 873 633869 -7842 0
0 0 0 920 634789 -6922 0
0 0 0 932 635721 -5990 0
0 0 0 910 636631 -5080 0
0 0 0 842 637473 -4238 0
0 0 0 836 638309 -3402 0
0 0 0 857 639166 -2545 0
36 1 S106 857 640023 -1688 0
36 1 S106 875 640898 -813 0
36 2 S106 960 641858 147 0
36 2 S106 991 642849 1138 0
36 2 S106 927 643776 2065 0
36 2 S106 887 644663 2952 0
36 2 S106 938 645601 3890 0
36 2 S106 962 646563 4852 0
36 2 S106 941 647504 5793 0
36 2 S106 887 648391 6680 0
0 0 0 910 649301 -10530 0
0 0 0 906 650207 -9624 0
0 0 0 850 651057 -8774 0
0 0 0 769 651826 -8005 0
0 0 0 738 652564 -7267 0
0 0 0 745 653309 -6522 0
0 0 0 858 654167 -5664 0
0 0 0 968 655135 -4696 0
0 0 0 948 656083 -3748 0
0 0 0 893 656976 -2855 0
37 1 S116 907 657883 -1948 0
37 1 S116 977 658860 -971 0
37 2 S116 1004 659864 33 0
37 2 S116 987 660851 1020 0
37 2 S116 944 661795 1964 0
37 2 S116 970 662765 2934 0
37 2 S116 968 663733 3902 0
37 2 S116 981 664714 4883 0
37 2 S116 958 665672 5841 0
37 2 S116 900 666572 6741 0
0 0 0 923 667495 -11667 0
0 0 0 910 668405 -10757 0
0 0 0 884 669289 -9873 0
0 0 0 842 670131 -9031 0
0 0 0 901 671032 -8130 0
0 0 0 945 671977 -7185 0
0 0 0 959 672936 -6226 0
0 0 0 957 673893 -5269 0
0 0 0 1011 674904 -4258 0
0 0 0 992 675896 -3266 0
0 0 0 932 676828 -2334 0
38 1 S102 897 677725 -1437 0
38 1 S102 941 678666 -496 0
38 2 S102 965 679631 469 0
38 2 S102 965 680596 1434 0
38 2 S102 903 681499 2337 0
38 2 S102 864 682363 3201 0
38 2 S102 888 683251 4089 0
38 2 S102 939 684190 5028 0
38 2 S102 957 685147 5985 0
38 2 S102 936 686083 6921 0
0 0 0 869 686952 -9269 0
0 0 0 898 687850 -8371 0
0 0 0 944 688794 -7427 0
0 0 0 944 689738 -6483 0
0 0 0 861 690599 -5622 0
0 0 0 879 691478 -4743 0
0 0 0 925 692403 -3818 0
0 0 0 991 693394 -2827 0
39 1 S116 976 694370 -1851 0
39 1 S116 898 695268 -953 0
39 1 S116 942 696210 -11 0
39 2 S116 986 697196 975 0
39 2 S116 1008 698204 1983 0
39 2 S116 941 699145 2924 0
39 2 S116 866 700011 3790 0
39 2 S116 866 700877 4656 0
39 2 S116 890 701767 5546 0
39 2 S116 932 702699 6478 0
0 0 0 908 703607 -7800 0
0 0 0 911 704518 -6889 0
0 0 0 912 705430 -5977 0
0 0 0 912 706342 -5065 0
0 0 0 861 707203 -4204 0
0 0 0 846 708049 -3358 0
0 0 0 837 708886 -2521 0
40 1 S112 882 709768 -1639 0
40 1 S112 892 710660 -747 0
40 2 S112 842 711502 95 0
40 2 S112 856 712358 951 0
40 2 S112 886 713244 1837 0
40 2 S112 911 714155 2748 0
40 2 S112 922 715077 3670 0
40 2 S112 860 715937 4530 0
40 2 S112 867 716804 5397 0
40 2 S112 869 717673 6266 0
0 0 0 899 718572 -188791 0
0 0 0 895 719467 -187896 0
0 0 0 841 720308 -187055 0
0 0 0 865 721173 -186190 0
0 0 0 860 722033 -185330 0
0 0 0 866 722899 -184464 0
0 0 0 849 723748 -183615 0
0 0 0 885 724633 -182730 0
0 0 0 941 725574 -181789 0
0 0 0 958 726532 -180831 0
0 0 0 915 727447 -179916 0
0 0 0 937 728384 -178979 0
0 0 0 973 729357 -178006 0
0 0 0 971 730328 -177035 0
0 0 0 957 731285 -176078 0
0 0 0 873 732158 -175205 0
0 0 0 871 733029 -174334 0
0 0 0 877 733906 -173457 0
0 0 0 892 734798 -172565 0
0 0 0 843 735641 -171722 0
0 0 0 801 736442 -170921 0
0 0 0 822 737264 -170099 0
0 0 0 857 738121 -169242 0
0 0 0 813 738934 -168429 0
0 0 0 795 739729 -167634 0
0 0 0 813 740542 -166821 0
0 0 0 850 741392 -165971 0
0 0 0 862 742254 -165109 0
0 0 0 839 743093 -164270 0
0 0 0 795 743888 -163475 0
0 0 0 750 744638 -162725 0
0 0 0 747 745385 -161978 0
0 0 0 792 746177 -161186 0
0 0 0 853 747030 -160333 0
0 0 0 872 747902 -159461 0
0 0 0 823 748725 -158638 0
0 0 0 761 749486 -157877 0
0 0 0 718 750204 -157159 0
0 0 0 712 750916 -156447 1
0 0 0 726 751642 -155721 0
0 0 0 873 752515 -154848 0
0 0 0 919 753434 -153929 0
0 0 0 929 754363 -153000 0
0 0 0 928 755291 -152072 0
0 0 0 844 756135 -151228 0
0 0 0 781 756916 -150447 0
0 0 0 757 757673 -149690 0
0 0 0 762 758435 -148928 0
0 0 0 785 759220 -148143 0
0 0 0 796 760016 -147347 0
0 0 0 789 760805 -146558 0
0 0 0 787 761592 -145771 0
0 0 0 808 762400 -144963 0
0 0 0 879 763279 -144084 0
0 0 0 887 764166 -143197 0
0 0 0 848 765014 -142349 0
0 0 0 876 765890 -141473 0
0 0 0 887 766777 -140586 0
0 0 0 860 767637 -139726 0
0 0 0 813 768450 -138913 0
0 0 0 804 769254 -138109 0
0 0 0 806 770060 -137303 0
0 0 0 803 770863 -136500 0
0 0 0 775 771638 -135725 0
0 0 0 770 772408 -134955 0
0 0 0 805 773213 -134150 0
0 0 0 745 773958 -133405 0
0 0 0 714 774672 -132691 1
0 0 0 717 775389 -131974 1
0 0 0 707 776096 -131267 1
0 0 0 698 776794 -130569 1
0 0 0 693 777487 -129876 1
0 0 0 672 778159 -129204 1
0 0 0 668 778827 -128536 1
0 0 0 697 779524 -127839 1
0 0 0 840 780364 -126999 0
0 0 0 866 781230 -126133 0
0 0 0 854 782084 -125279 0
0 0 0 904 782988 -124375 0
0 0 0 905 783893 -123470 0
0 0 0 898 784791 -122572 0
0 0 0 867 785658 -121705 0
0 0 0 812 786470 -120893 0
0 0 0 833 787303 -120060 0
0 0 0 904 788207 -119156 0
0 0 0 963 789170 -118193 0
0 0 0 932 790102 -117261 0
0 0 0 885 790987 -116376 0
0 0 0 840 791827 -115536 0
0 0 0 894 792721 -114642 0
0 0 0 924 793645 -113718 0
0 0 0 1006 794651 -112712 0
0 0 0 931 795582 -111781 0
0 0 0 848 796430 -110933 0
0 0 0 804 797234 -110129 0
0 0 0 858 798092 -109271 0
0 0 0 909 799001 -108362 0
0 0 0 942 799943 -107420 0
0 0 0 965 800908 -106455 0
0 0 0 954 801862 -105501 0
0 0 0 943 802805 -104558 0
0 0 0 878 803683 -103680 0
0 0 0 853 804536 -102827 0
0 0 0 856 805392 -101971 0
0 0 0 883 806275 -101088 0
0 0 0 878 807153 -100210 0
0 0 0 895 808048 -99315 0
0 0 0 875 808923 -98440 0
0 0 0 822 809745 -97618 0
0 0 0 826 810571 -96792 0
0 0 0 852 811423 -95940 0
0 0 0 872 812295 -95068 0
0 0 0 895 813190 -94173 0
0 0 0 882 814072 -93291 0
0 0 0 880 814952 -92411 0
0 0 0 881 815833 -91530 0
0 0 0 843 816676 -90687 0
0 0 0 814 817490 -89873 0
0 0 0 770 818260 -89103 0
0 0 0 756 819016 -88347 0
0 0 0 741 819757 -87606 0
0 0 0 762 820519 -86844 0
0 0 0 731 821250 -86113 0
0 0 0 732 821982 -85381 0
0 0 0 770 822752 -84611 0
0 0 0 839 823591 -83772 0
0 0 0 876 824467 -82896 0
0 0 0 832 825299 -82064 0
0 0 0 836 826135 -81228 0
0 0 0 857 826992 -80371 0
0 0 0 863 827855 -79508 0
0 0 0 823 828678 -78685 0
0 0 0 788 829466 -77897 0
0 0 0 797 830263 -77100 0
0 0 0 805 831068 -76295 0
0 0 0 804 831872 -75491 0
0 0 0 770 832642 -74721 0
0 0 0 775 833417 -73946 0
0 0 0 793 834210 -73153 0
0 0 0 809 835019 -72344 0
0 0 0 765 835784 -71579 0
0 0 0 734 836518 -70845 0
0 0 0 706 837224 -70139 1
0 0 0 693 837917 -69446 1
0 0 0 715 838632 -68731 1
0 0 0 714 839346 -68017 1
0 0 0 695 840041 -67322 1
0 0 0 697 840738 -66625 1
0 0 0 750 841488 -65875 0
0 0 0 821 842309 -65054 0
0 0 0 833 843142 -64221 0
0 0 0 791 843933 -63430 0
0 0 0 806 844739 -62624 0
0 0 0 818 845557 -61806 0
0 0 0 832 846389 -60974 0
0 0 0 836 847225 -60138 0
0 0 0 801 848026 -59337 0
0 0 0 819 848845 -58518 0
0 0 0 831 849676 -57687 0
0 0 0 830 850506 -56857 0
0 0 0 802 851308 -56055 0
0 0 0 846 852154 -55209 0
0 0 0 885 853039 -54324 0
0 0 0 924 853963 -53400 0
0 0 0 939 854902 -52461 0
0 0 0 941 855843 -51520 0
0 0 0 923 856766 -50597 0
0 0 0 871 857637 -49726 0
0 0 0 887 858524 -48839 0
0 0 0 894 859418 -47945 0
0 0 0 900 860318 -47045 0
0 0 0 885 861203 -46160 0
0 0 0 836 862039 -45324 0
0 0 0 834 862873 -44490 0
0 0 0 852 863725 -43638 0
0 0 0 881 864606 -42757 0
0 0 0 910 865516 -41847 0
0 0 0 891 866407 -40956 0
0 0 0 870 867277 -40086 0
0 0 0 894 868171 -39192 0
0 0 0 905 869076 -38287 0
0 0 0 834 869910 -37453 0
0 0 0 838 870748 -36615 0
0 0 0 847 871595 -35768 0
0 0 0 850 872445 -34918 0
0 0 0 808 873253 -34110 0
0 0 0 820 874073 -33290 0
0 0 0 849 874922 -32441 0
0 0 0 868 875790 -31573 0
0 0 0 823 876613 -30750 0
0 0 0 780 877393 -29970 0
0 0 0 776 878169 -29194 0
0 0 0 788 878957 -28406 0
0 0 0 775 879732 -27631 0
0 0 0 720 880452 -26911 0
0 0 0 691 881143 -26220 1
0 0 0 672 881815 -25548 1
0 0 0 657 882472 -24891 1
0 0 0 667 883139 -24224 1
0 0 0 753 883892 -23471 0
0 0 0 813 884705 -22658 0
0 0 0 789 885494 -21869 0
0 0 0 783 886277 -21086 0
0 0 0 778 887055 -20308 0
0 0 0 756 887811 -19552 0
0 0 0 728 888539 -18824 0
0 0 0 705 889244 -18119 1
0 0 0 703 889947 -17416 1
0 0 0 685 890632 -16731 1
0 0 0 671 891303 -16060 1
0 0 0 657 891960 -15403 1
0 0 0 658 892618 -14745 1
0 0 0 690 893308 -14055 1
0 0 0 739 894047 -13316 0
0 0 0 791 894838 -12525 0
0 0 0 840 895678 -11685 0
0 0 0 903 896581 -10782 0
0 0 0 905 897486 -9877 0
0 0 0 880 898366 -8997 0
0 0 0 785 899151 -8212 0
0 0 0 743 899894 -7469 0
0 0 0 739 900633 -6730 0
0 0 0 796 901429 -5934 0
0 0 0 843 902272 -5091 0
0 0 0 899 903171 -4192 0
0 0 0 922 904093 -3270 0
0 0 0 911 905004 -2359 0
41 1 S102 867 905871 -1492 0
41 1 S102 876 906747 -616 0
41 2 S102 927 907674 311 0
41 2 S102 961 908635 1272 0
41 2 S102 925 909560 2197 0
41 2 S102 886 910446 3083 0
41 2 S102 858 911304 3941 0
41 2 S102 871 912175 4812 0
41 2 S102 881 913056 5693 0
41 2 S102 890 913946 6583 0
0 0 0 873 914819 -8294 0
0 0 0 860 915679 -7434 0
0 0 0 785 916464 -6649 0
0 0 0 795 917259 -5854 0
0 0 0 838 918097 -5016 0
0 0 0 864 918961 -4152 0
0 0 0 885 919846 -3267 0
0 0 0 829 920675 -2438 0
42 1 S112 880 921555 -1558 0
42 1 S112 940 922495 -618 0
42 2 S112 942 923437 324 0
42 2 S112 943 924380 1267 0
42 2 S112 883 925263 2150 0
42 2 S112 848 926111 2998 0
42 2 S112 849 926960 3847 0
42 2 S112 867 927827 4714 0
42 2 S112 892 928719 5606 0
42 2 S112 902 929621 6508 0
0 0 0 841 930462 -10157 0
0 0 0 804 931266 -9353 0
0 0 0 806 932072 -8547 0
0 0 0 822 932894 -7725 0
0 0 0 812 933706 -6913 0
0 0 0 788 934494 -6125 0
0 0 0 779 935273 -5346 0
0 0 0 768 936041 -4578 0
0 0 0 762 936803 -3816 0
0 0 0 729 937532 -3087 0
0 0 0 710 938242 -2377 1
43 1 S116 693 938935 -1684 1
43 1 S116 682 939617 -1002 1
43 1 S116 718 940335 -284 0
43 2 S116 772 941107 488 0
43 2 S116 770 941877 1258 0
43 2 S116 772 942649 2030 0
43 2 S116 819 943468 2849 0
43 2 S116 845 944313 3694 0
43 2 S116 858 945171 4552 0
43 2 S116 815 945986 5367 0
43 2 S116 833 946819 6200 0
0 0 0 856 947675 -8611 0
0 0 0 858 948533 -7753 0
0 0 0 813 949346 -6940 0
0 0 0 791 950137 -6149 0
0 0 0 823 950960 -5326 0
0 0 0 858 951818 -4468 0
0 0 0 864 952682 -3604 0
0 0 0 854 953536 -2750 0
44 1 S102 923 954459 -1827 0
44 1 S102 939 955398 -888 0
44 2 S102 940 956338 52 0
44 2 S102 881 957219 933 0
44 2 S102 864 958083 1797 0
44 2 S102 868 958951 2665 0
44 2 S102 868 959819 3533 0
44 2 S102 844 960663 4377 0
44 2 S102 795 961458 5172 0
44 2 S102 813 962271 5985 0
44 2 S102 830 963101 6815 0
0 0 0 889 963990 -9471 0
0 0 0 842 964832 -8629 0
0 0 0 836 965668 -7793 0
0 0 0 871 966539 -6922 0
0 0 0 878 967417 -6044 0
0 0 0 854 968271 -5190 0
0 0 0 826 969097 -4364 0
0 0 0 862 969959 -3502 0
0 0 0 902 970861 -2600 0
45 1 S116 881 971742 -1719 0
45 1 S116 816 972558 -903 0
45 1 S116 812 973370 -91 0
45 2 S116 843 974213 752 0
45 2 S116 901 975114 1653 0
45 2 S116 864 975978 2517 0
45 2 S116 854 976832 3371 0
45 2 S116 897 977729 4268 0
45 2 S116 918 978647 5186 0
45 2 S116 901 979548 6087 0
45 2 S116 845 980393 6932 0
0 0 0 843 981236 -12285 0
0 0 0 859 982095 -11426 0
0 0 0 865 982960 -10561 0
0 0 0 810 983770 -9751 0
0 0 0 847 984617 -8904 0
0 0 0 851 985468 -8053 0
0 0 0 883 986351 -7170 0
0 0 0 831 987182 -6339 0
0 0 0 854 988036 -5485 0
0 0 0 872 988908 -4613 0
0 0 0 891 989799 -3722 0
0 0 0 841 990640 -2881 0
0 0 0 860 991500 -2021 0
46 1 S102 885 992385 -1136 0
46 1 S102 889 993274 -247 0
46 2 S102 836 994110 589 0
46 2 S102 825 994935 1414 0
46 2 S102 830 995765 2244 0
46 2 S102 852 996617 3096 0
46 2 S102 853 997470 3949 0
46 2 S102 834 998304 4783 0
46 2 S102 891 999195 5674 0
46 2 S102 917 1000112 6591 0
0 0 0 906 1001018 -10325 0
0 0 0 875 1001893 -9450 0
0 0 0 887 1002780 -8563 0
0 0 0 863 1003643 -7700 0
0 0 0 839 1004482 -6861 0
0 0 0 836 1005318 -6025 0
0 0 0 863 1006181 -5162 0
0 0 0 890 1007071 -4272 0
0 0 0 861 1007932 -3411 0
0 0 0 905 1008837 -2506 0
47 1 S112 973 1009810 -1533 0
47 1 S112 973 1010783 -560 0
47 2 S112 899 1011682 339 0
47 2 S112 909 1012591 1248 0
47 2 S112 929 1013520 2177 0
47 2 S112 931 1014451 3108 0
47 2 S112 874 1015325 3982 0
47 2 S112 874 1016199 4856 0
47 2 S112 893 1017092 5749 0
47 2 S112 929 1018021 6678 0
0 0 0 917 1018938 -13012 0
0 0 0 865 1019803 -12147 0
0 0 0 865 1020668 -11282 0
0 0 0 845 1021513 -10437 0
0 0 0 843 1022356 -9594 0
0 0 0 808 1023164 -8786 0
0 0 0 846 1024010 -7940 0
0 0 0 876 1024886 -7064 0
0 0 0 910 1025796 -6154 0
0 0 0 857 1026653 -5297 0
0 0 0 900 1027553 -4397 0
0 0 0 965 1028518 -3432 0
0 0 0 958 1029476 -2474 0
48 1 S116 897 1030373 -1577 0
48 1 S116 924 1031297 -653 0
48 2 S116 916 1032213 263 0
48 2 S116 908 1033121 1171 0
48 2 S116 817 1033938 1988 0
48 2 S116 805 1034743 2793 0
48 2 S116 818 1035561 3611 0
48 2 S116 853 1036414 4464 0
48 2 S116 854 1037268 5318 0
48 2 S116 836 1038104 6154 0
48 2 S116 860 1038964 7014 0
0 0 0 873 1039837 -7862 0
0 0 0 862 1040699 -7000 0
0 0 0 819 1041518 -6181 0
0 0 0 857 1042375 -5324 0
0 0 0 865 1043240 -4459 0
0 0 0 870 1044110 -3589 0
0 0 0 834 1044944 -2755 0
49 1 S112 828 1045772 -1927 0
49 1 S112 862 1046634 -1065 0
49 1 S112 896 1047530 -169 0
49 2 S112 881 1048411 712 0
49 2 S112 868 1049279 1580 0
49 2 S112 912 1050191 2492 0
49 2 S112 927 1051118 3419 0
49 2 S112 931 1052049 4350 0
49 2 S112 895 1052944 5245 0
49 2 S112 828 1053772 6073 0
49 2 S112 784 1054556 6857 0
0 0 0 802 1055358 -12948 0
0 0 0 858 1056216 -12090 0
0 0 0 952 1057168 -11138 0
0 0 0 908 1058076 -10230 0
0 0 0 882 1058958 -9348 0
0 0 0 950 1059908 -8398 0
0 0 0 943 1060851 -7455 0
0 0 0 894 1061745 -6561 0
0 0 0 847 1062592 -5714 0
0 0 0 878 1063470 -4836 0
0 0 0 901 1064371 -3935 0
0 0 0 889 1065260 -3046 0
0 0 0 853 1066113 -2193 0
50 1 S106 882 1066995 -1311 0
50 1 S106 910 1067905 -401 0
50 2 S106 922 1068827 521 0
50 2 S106 901 1069728 1422 0
50 2 S106 843 1070571 2265 0
50 2 S106 839 1071410 3104 0
50 2 S106 846 1072256 3950 0
50 2 S106 851 1073107 4801 0
50 2 S106 831 1073938 5632 0
50 2 S106 817 1074755 6449 0
0 0 0 860 1075615 -7678 0
0 0 0 913 1076528 -6765 0
0 0 0 847 1077375 -5918 0
0 0 0 840 1078215 -5078 0
0 0 0 844 1079059 -4234 0
0 0 0 850 1079909 -3384 0
0 0 0 827 1080736 -2557 0
51 1 S112 811 1081547 -1746 0
51 1 S112 850 1082397 -896 0
51 1 S112 869 1083266 -27 0
51 2 S112 852 1084118 825 0
51 2 S112 843 1084961 1668 0
51 2 S112 877 1085838 2545 0
51 2 S112 921 1086759 3466 0
51 2 S112 906 1087665 4372 0
51 2 S112 849 1088514 5221 0
51 2 S112 869 1089383 6090 0
51 2 S112 890 1090273 6980 0
0 0 0 880 1091153 -6580 0
0 0 0 811 1091964 -5769 0
0 0 0 781 1092745 -4988 0
0 0 0 781 1093526 -4207 0
0 0 0 833 1094359 -3374 0
0 0 0 907 1095266 -2467 0
52 1 S116 858 1096124 -1609 0
52 1 S116 855 1096979 -754 0
52 2 S116 882 1097861 128 0
52 2 S116 941 1098802 1069 0
52 2 S116 928 1099730 1997 0
52 2 S116 872 1100602 2869 0
52 2 S116 909 1101511 3778 0
52 2 S116 914 1102425 4692 0
52 2 S116 886 1103311 5578 0
52 2 S116 838 1104149 6416 0
0 0 0 838 1104987 -9142 0
0 0 0 862 1105849 -8280 0
0 0 0 840 1106689 -7440 0
0 0 0 798 1107487 -6642 0
0 0 0 816 1108303 -5826 0
0 0 0 838 1109141 -4988 0
0 0 0 861 1110002 -4127 0
0 0 0 831 1110833 -3296 0
0 0 0 778 1111611 -2518 0
53 1 S106 757 1112368 -1761 0
53 1 S106 745 1113113 -1016 0
53 1 S106 770 1113883 -246 0
53 2 S106 818 1114701 572 0
53 2 S106 836 1115537 1408 0
53 2 S106 792 1116329 2200 0
53 2 S106 813 1117142 3013 0
53 2 S106 829 1117971 3842 0
53 2 S106 825 1118796 4667 0
53 2 S106 813 1119609 5480 0
53 2 S106 775 1120384 6255 0
0 0 0 781 1121165 -7321 0
0 0 0 821 1121986 -6500 0
0 0 0 839 1122825 -5661 0
0 0 0 807 1123632 -4854 0
0 0 0 816 1124448 -4038 0
0 0 0 844 1125292 -3194 0
0 0 0 890 1126182 -2304 0
54 1 S102 916 1127098 -1388 0
54 1 S102 872 1127970 -516 0
54 2 S102 913 1128883 397 0
54 2 S102 932 1129815 1329 0
54 2 S102 927 1130742 2256 0
54 2 S102 872 1131614 3128 0
54 2 S102 834 1132448 3962 0
54 2 S102 846 1133294 4808 0
54 2 S102 866 1134160 5674 0
54 2 S102 856 1135016 6530 0
0 0 0 799 1135815 -11902 0
0 0 0 804 1136619 -11098 0
0 0 0 827 1137446 -10271 0
0 0 0 842 1138288 -9429 0
0 0 0 815 1139103 -8614 0
0 0 0 810 1139913 -7804 0
0 0 0 803 1140716 -7001 0
0 0 0 808 1141524 -6193 0
0 0 0 767 1142291 -5426 0
0 0 0 782 1143073 -4644 0
0 0 0 840 1143913 -3804 0
0 0 0 856 1144769 -2948 0
0 0 0 806 1145575 -2142 0
55 1 S106 856 1146431 -1286 0
55 1 S106 865 1147296 -421 0
55 2 S106 857 1148153 436 0
55 2 S106 837 1148990 1273 0
55 2 S106 846 1149836 2119 0
55 2 S106 859 1150695 2978 0
55 2 S106 851 1151546 3829 0
55 2 S106 820 1152366 4649 0
55 2 S106 819 1153185 5468 0
55 2 S106 821 1154006 6289 0
0 0 0 848 1154854 -7518 0
0 0 0 826 1155680 -6692 0
0 0 0 839 1156519 -5853 0
0 0 0 869 1157388 -4984 0
0 0 0 858 1158246 -4126 0
0 0 0 811 1159057 -3315 0
0 0 0 814 1159871 -2501 0
56 1 S116 870 1160741 -1631 0
56 1 S116 891 1161632 -740 0
56 2 S116 842 1162474 102 0
56 2 S116 853 1163327 955 0
56 2 S116 913 1164240 1868 0
56 2 S116 924 1165164 2792 0
56 2 S116 876 1166040 3668 0
56 2 S116 873 1166913 4541 0
56 2 S116 888 1167801 5429 0
56 2 S116 893 1168694 6322 0
0 0 0 866 1169560 -8114 0
0 0 0 847 1170407 -7267 0
0 0 0 860 1171267 -6407 0
0 0 0 870 1172137 -5537 0
0 0 0 854 1172991 -4683 0
0 0 0 869 1173860 -3814 0
0 0 0 919 1174779 -2895 0
57 1 S106 924 1175703 -1971 0
57 1 S106 912 1176615 -1059 0
57 1 S106 958 1177573 -101 0
57 2 S106 933 1178506 832 0
57 2 S106 922 1179428 1754 0
57 2 S106 895 1180323 2649 0
57 2 S106 918 1181241 3567 0
57 2 S106 932 1182173 4499 0
57 2 S106 919 1183092 5418 0
57 2 S106 856 1183948 6274 0
0 0 0 859 1184807 -10407 0
0 0 0 877 1185684 -9530 0
0 0 0 880 1186564 -8650 0
0 0 0 868 1187432 -7782 0
0 0 0 824 1188256 -6958 0
0 0 0 864 1189120 -6094 0
0 0 0 897 1190017 -5197 0
0 0 0 896 1190913 -4301 0
0 0 0 833 1191746 -3468 0
0 0 0 795 1192541 -2673 0
58 1 S102 795 1193336 -1878 0
58 1 S102 879 1194215 -999 0
58 1 S102 931 1195146 -68 0
58 2 S102 918 1196064 850 0
58 2 S102 876 1196940 1726 0
58 2 S102 833 1197773 2559 0
58 2 S102 848 1198621 3407 0
58 2 S102 867 1199488 4274 0
58 2 S102 874 1200362 5148 0
58 2 S102 819 1201181 5967 0
58 2 S102 819 1202000 6786 0
0 0 0 832 1202832 -7684 0
0 0 0 860 1203692 -6824 0
0 0 0 824 1204516 -6000 0
0 0 0 881 1205397 -5119 0
0 0 0 932 1206329 -4187 0
0 0 0 962 1207291 -3225 0
0 0 0 929 1208220 -2296 0
59 1 S112 941 1209161 -1355 0
59 1 S112 985 1210146 -370 0
59 2 S112 985 1211131 615 0
59 2 S112 931 1212062 1546 0
59 2 S112 885 1212947 2431 0
59 2 S112 910 1213857 3341 0
59 2 S112 929 1214786 4270 0
59 2 S112 911 1215697 5181 0
59 2 S112 875 1216572 6056 0
59 2 S112 915 1217487 6971 0
0 0 0 962 1218449 -9457 0
0 0 0 925 1219374 -8532 0
0 0 0 879 1220253 -7653 0
0 0 0 913 1221166 -6740 0
0 0 0 912 1222078 -5828 0
0 0 0 891 1222969 -4937 0
0 0 0 856 1223825 -4081 0
0 0 0 890 1224715 -3191 0
0 0 0 904 1225619 -2287 0
60 1 S102 883 1226502 -1404 0
60 1 S102 874 1227376 -530 0
60 2 S102 898 1228274 368 0
60 2 S102 913 1229187 1281 0
60 2 S102 867 1230054 2148 0
60 2 S102 867 1230921 3015 0
60 2 S102 888 1231809 3903 0
60 2 S102 890 1232699 4793 0
60 2 S102 867 1233566 5660 0
60 2 S102 828 1234394 6488 0
0 0 0 865 1235259 -12326 0
0 0 0 909 1236168 -11417 0
0 0 0 860 1237028 -10557 0
0 0 0 819 1237847 -9738 0
0 0 0 850 1238697 -8888 0
0 0 0 846 1239543 -8042 0
0 0 0 819 1240362 -7223 0
0 0 0 806 1241168 -6417 0
0 0 0 818 1241986 -5599 0
0 0 0 789 1242775 -4810 0
0 0 0 748 1243523 -4062 0
0 0 0 768 1244291 -3294 0
0 0 0 764 1245055 -2530 0
61 1 S106 834 1245889 -1696 0
61 1 S106 932 1246821 -764 0
61 2 S106 951 1247772 187 0
61 2 S106 896 1248668 1083 0
61 2 S106 925 1249593 2008 0
61 2 S106 937 1250530 2945 0
61 2 S106 910 1251440 3855 0
61 2 S106 850 1252290 4705 0
61 2 S106 846 1253136 5551 0
61 2 S106 905 1254041 6456 0
0 0 0 958 1254999 -9181 0
0 0 0 952 1255951 -8229 0
0 0 0 863 1256814 -7366 0
0 0 0 866 1257680 -6500 0
0 0 0 905 1258585 -5595 0
0 0 0 874 1259459 -4721 0
0 0 0 894 1260353 -3827 0
0 0 0 939 1261292 -2888 0
62 1 S112 973 1262265 -1915 0
62 1 S112 929 1263194 -986 0
62 1 S112 948 1264142 -38 0
62 2 S112 1008 1265150 970 0
62 2 S112 1021 1266171 1991 0
62 2 S112 1006 1267177 2997 0
62 2 S112 922 1268099 3919 0
62 2 S112 908 1269007 4827 0
62 2 S112 903 1269910 5730 0
62 2 S112 898 1270808 6628 0
0 0 0 923 1271731 -13072 0
0 0 0 877 1272608 -12195 0
0 0 0 839 1273447 -11356 0
0 0 0 874 1274321 -10482 0
0 0 0 907 1275228 -9575 0
0 0 0 853 1276081 -8722 0
0 0 0 896 1276977 -7826 0
0 0 0 914 1277891 -6912 0
0 0 0 872 1278763 -6040 0
0 0 0 856 1279619 -5184 0
0 0 0 896 1280515 -4288 0
0 0 0 914 1281429 -3374 0
0 0 0 883 1282312 -2491 0
63 1 S102 871 1283183 -1620 0
63 1 S102 891 1284074 -729 0
63 2 S102 891 1284965 162 0
63 2 S102 871 1285836 1033 0
63 2 S102 861 1286697 1894 0
63 2 S102 882 1287579 2776 0
63 2 S102 896 1288475 3672 0
63 2 S102 882 1289357 4554 0
63 2 S102 826 1290183 5380 0
63 2 S102 857 1291040 6237 0
0 0 0 889 1291929 -9867 0
0 0 0 925 1292854 -8942 0
0 0 0 852 1293706 -8090 0
0 0 0 905 1294611 -7185 0
0 0 0 933 1295544 -6252 0
0 0 0 909 1296453 -5343 0
0 0 0 802 1297255 -4541 0
0 0 0 764 1298019 -3777 0
0 0 0 737 1298756 -3040 0
0 0 0 737 1299493 -2303 0
64 1 S112 798 1300291 -1505 0
64 1 S112 861 1301152 -644 0
64 2 S112 886 1302038 242 0
64 2 S112 920 1302958 1162 0
64 2 S112 896 1303854 2058 0
64 2 S112 909 1304763 2967 0
64 2 S112 928 1305691 3895 0
64 2 S112 941 1306632 4836 0
64 2 S112 926 1307558 5762 0
64 2 S112 885 1308443 6647 0
0 0 0 902 1309345 -8002 0
0 0 0 911 1310256 -7091 0
0 0 0 893 1311149 -6198 0
0 0 0 843 1311992 -5355 0
0 0 0 889 1312881 -4466 0
0 0 0 929 1313810 -3537 0
0 0 0 951 1314761 -2586 0
65 1 S106 938 1315699 -1648 0
65 1 S106 937 1316636 -711 0
65 2 S106 985 1317621 274 0
65 2 S106 1003 1318624 1277 0
65 2 S106 949 1319573 2226 0
65 2 S106 922 1320495 3148 0
65 2 S106 939 1321434 4087 0
65 2 S106 929 1322363 5016 0
65 2 S106 887 1323250 5903 0
65 2 S106 896 1324146 6799 0
0 0 0 940 1325086 -8690 0
0 0 0 968 1326054 -7722 0
0 0 0 909 1326963 -6813 0
0 0 0 903 1327866 -5910 0
0 0 0 917 1328783 -4993 0
0 0 0 839 1329622 -4154 0
0 0 0 853 1330475 -3301 0
0 0 0 795 1331270 -2506 0
66 1 S116 834 1332104 -1672 0
66 1 S116 884 1332988 -788 0
66 2 S116 902 1333890 114 0
66 2 S116 850 1334740 964 0
66 2 S116 912 1335652 1876 0
66 2 S116 953 1336605 2829 0
66 2 S116 935 1337540 3764 0
66 2 S116 870 1338410 4634 0
66 2 S116 897 1339307 5531 0
66 2 S116 903 1340210 6434 0
0 0 0 911 1341121 -12615 0
0 0 0 904 1342025 -11711 0
0 0 0 837 1342862 -10874 0
0 0 0 837 1343699 -10037 0
0 0 0 849 1344548 -9188 0
0 0 0 804 1345352 -8384 0
0 0 0 819 1346171 -7565 0
0 0 0 858 1347029 -6707 0
0 0 0 949 1347978 -5758 0
0 0 0 906 1348884 -4852 0
0 0 0 920 1349804 -3932 0
0 0 0 989 1350793 -2943 0
67 1 S102 987 1351780 -1956 0
67 1 S102 970 1352750 -986 0
67 1 S102 924 1353674 -62 0
67 2 S102 841 1354515 779 0
67 2 S102 806 1355321 1585 0
67 2 S102 812 1356133 2397 0
67 2 S102 858 1356991 3255 0
67 2 S102 896 1357887 4151 0
67 2 S102 902 1358789 5053 0
67 2 S102 902 1359691 5955 0
67 2 S102 816 1360507 6771 0
0 0 0 775 1361282 -7922 0
0 0 0 741 1362023 -7181 0
0 0 0 743 1362766 -6438 0
0 0 0 795 1363561 -5643 0
0 0 0 758 1364319 -4885 0
0 0 0 780 1365099 -4105 0
0 0 0 790 1365889 -3315 0
0 0 0 822 1366711 -2493 0
68 1 S106 794 1367505 -1699 0
68 1 S106 797 1368302 -902 0
68 1 S106 813 1369115 -89 0
68 2 S106 843 1369958 754 0
68 2 S106 838 1370796 1592 0
68 2 S106 836 1371632 2428 0
68 2 S106 861 1372493 3289 0
68 2 S106 863 1373356 4152 0
68 2 S106 854 1374210 5006 0
68 2 S106 818 1375028 5824 0
68 2 S106 837 1375865 6661 0
0 0 0 872 1376737 -12693 0
0 0 0 881 1377618 -11812 0
0 0 0 835 1378453 -10977 0
0 0 0 878 1379331 -10099 0
0 0 0 917 1380248 -9182 0
0 0 0 852 1381100 -8330 0
0 0 0 834 1381934 -7496 0
0 0 0 862 1382796 -6634 0
0 0 0 896 1383692 -5738 0
0 0 0 847 1384539 -4891 0
0 0 0 883 1385422 -4008 0
0 0 0 927 1386349 -3081 0
0 0 0 931 1387280 -2150 0
69 1 S102 878 1388158 -1272 0
69 1 S102 866 1389024 -406 0
69 2 S102 901 1389925 495 0
69 2 S102 918 1390843 1413 0
69 2 S102 910 1391753 2323 0
69 2 S102 829 1392582 3152 0
69 2 S102 759 1393341 3911 0
69 2 S102 737 1394078 4648 0
69 2 S102 723 1394801 5371 0
69 2 S102 802 1395603 6173 0
0 0 0 943 1396546 -10540 0
0 0 0 984 1397530 -9556 0
0 0 0 882 1398412 -8674 0
0 0 0 901 1399313 -7773 0
0 0 0 970 1400283 -6803 0
0 0 0 937 1401220 -5866 0
0 0 0 876 1402096 -4990 0
0 0 0 867 1402963 -4123 0
0 0 0 912 1403875 -3211 0
0 0 0 981 1404856 -2230 0
70 1 S112 970 1405826 -1260 0
70 1 S112 907 1406733 -353 0
70 2 S112 940 1407673 587 0
70 2 S112 993 1408666 1580 0
70 2 S112 1000 1409666 2580 0
70 2 S112 928 1410594 3508 0
70 2 S112 936 1411530 4444 0
70 2 S112 993 1412523 5437 0
70 2 S112 985 1413508 6422 0
0 0 0 906 1414414 -13113 0
0 0 0 926 1415340 -12187 0
0 0 0 929 1416269 -11258 0
0 0 0 913 1417182 -10345 0
0 0 0 886 1418068 -9459 0
0 0 0 900 1418968 -8559 0
0 0 0 894 1419862 -7665 0
0 0 0 898 1420760 -6767 0
0 0 0 862 1421622 -5905 0
0 0 0 910 1422532 -4995 0
0 0 0 962 1423494 -4033 0
0 0 0 929 1424423 -3104 0
0 0 0 918 1425341 -2186 0
71 1 S116 979 1426320 -1207 0
71 1 S116 965 1427285 -242 0
71 2 S116 881 1428166 639 0
71 2 S116 885 1429051 1524 0
71 2 S116 904 1429955 2428 0
71 2 S116 910 1430865 3338 0
71 2 S116 866 1431731 4204 0
71 2 S116 904 1432635 5108 0
71 2 S116 974 1433609 6082 0
0 0 0 1002 1434611 -11086 0
0 0 0 919 1435530 -10167 0
0 0 0 908 1436438 -9259 0
0 0 0 912 1437350 -8347 0
0 0 0 849 1438199 -7498 0
0 0 0 841 1439040 -6657 0
0 0 0 848 1439888 -5809 0
0 0 0 857 1440745 -4952 0
0 0 0 795 1441540 -4157 0
0 0 0 823 1442363 -3334 0
0 0 0 905 1443268 -2429 0
72 1 S102 900 1444168 -1529 0
72 1 S102 888 1445056 -641 0
72 2 S102 948 1446004 307 0
72 2 S102 977 1446981 1284 0
72 2 S102 915 1447896 2199 0
72 2 S102 869 1448765 3068 0
72 2 S102 882 1449647 3950 0
72 2 S102 879 1450526 4829 0
72 2 S102 854 1451380 5683 0
72 2 S102 801 1452181 6484 0
0 0 0 817 1452998 -7420 0
0 0 0 876 1453874 -6544 0
0 0 0 889 1454763 -5655 0
0 0 0 860 1455623 -4795 0
0 0 0 856 1456479 -3939 0
0 0 0 892 1457371 -3047 0
0 0 0 912 1458283 -2135 0
73 1 S116 897 1459180 -1238 0
73 1 S116 867 1460047 -371 0
73 2 S116 903 1460950 532 0
73 2 S116 949 1461899 1481 0
73 2 S116 957 1462856 2438 0
73 2 S116 933 1463789 3371 0
73 2 S116 876 1464665 4247 0
73 2 S116 891 1465556 5138 0
73 2 S116 897 1466453 6035 0
73 2 S116 907 1467360 6942 0
0 0 0 860 1468220 -10136 0
0 0 0 857 1469077 -9279 0
0 0 0 875 1469952 -8404 0
0 0 0 889 1470841 -7515 0
0 0 0 834 1471675 -6681 0
0 0 0 845 1472520 -5836 0
0 0 0 857 1473377 -4979 0
0 0 0 914 1474291 -4065 0
0 0 0 894 1475185 -3171 0
0 0 0 828 1476013 -2343 0
74 1 S106 795 1476808 -1548 0
74 1 S106 811 1477619 -737 0
74 2 S106 846 1478465 109 0
74 2 S106 884 1479349 993 0
74 2 S106 893 1480242 1886 0
74 2 S106 836 1481078 2722 0
74 2 S106 851 1481929 3573 0
74 2 S106 896 1482825 4469 0
74 2 S106 904 1483729 5373 0
74 2 S106 885 1484614 6258 0
0 0 0 829 1485443 -8480 0
0 0 0 858 1486301 -7622 0
0 0 0 879 1487180 -6743 0
0 0 0 859 1488039 -5884 0
0 0 0 840 1488879 -5044 0
0 0 0 857 1489736 -4187 0
0 0 0 870 1490606 -3317 0
0 0 0 825 1491431 -2492 0
75 1 S112 804 1492235 -1688 0
75 1 S112 849 1493084 -839 0
75 2 S112 899 1493983 60 0
75 2 S112 932 1494915 992 0
75 2 S112 887 1495802 1879 0
75 2 S112 887 1496689 2766 0
75 2 S112 904 1497593 3670 0
75 2 S112 928 1498521 4598 0
75 2 S112 923 1499444 5521 0
75 2 S112 869 1500313 6390 0
0 0 0 870 1501183 -8738 0
0 0 0 909 1502092 -7829 0
0 0 0 904 1502996 -6925 0
0 0 0 866 1503862 -6059 0
0 0 0 842 1504704 -5217 0
0 0 0 850 1505554 -4367 0
0 0 0 868 1506422 -3499 0
0 0 0 915 1507337 -2584 0
76 1 S116 893 1508230 -1691 0
76 1 S116 906 1509136 -785 0
76 2 S116 970 1510106 185 0
76 2 S116 990 1511096 1175 0
76 2 S116 986 1512082 2161 0
76 2 S116 890 1512972 3051 0
76 2 S116 896 1513868 3947 0
76 2 S116 890 1514758 4837 0
76 2 S116 864 1515622 5701 0
76 2 S116 820 1516442 6521 0
0 0 0 795 1517237 -8832 0
0 0 0 783 1518020 -8049 0
0 0 0 818 1518838 -7231 0
0 0 0 832 1519670 -6399 0
0 0 0 800 1520470 -5599 0
0 0 0 809 1521279 -4790 0
0 0 0 822 1522101 -3968 0
0 0 0 859 1522960 -3109 0
0 0 0 887 1523847 -2222 0
77 1 S106 861 1524708 -1361 0
77 1 S106 874 1525582 -487 0
77 2 S106 923 1526505 436 0
77 2 S106 964 1527469 1400 0
77 2 S106 989 1528458 2389 0
77 2 S106 909 1529367 3298 0
77 2 S106 860 1530227 4158 0
77 2 S106 868 1531095 5026 0
77 2 S106 865 1531960 5891 0
77 2 S106 884 1532844 6775 0
0 0 0 909 1533753 -10336 0
0 0 0 864 1534617 -9472 0
0 0 0 838 1535455 -8634 0
0 0 0 861 1536316 -7773 0
0 0 0 854 1537170 -6919 0
0 0 0 807 1537977 -6112 0
0 0 0 846 1538823 -5266 0
0 0 0 885 1539708 -4381 0
0 0 0 893 1540601 -3488 0
0 0 0 855 1541456 -2633 0
78 1 S112 901 1542357 -1732 0
78 1 S112 991 1543348 -741 0
78 2 S112 1013 1544361 272 0
78 2 S112 998 1545359 1270 0
78 2 S112 916 1546275 2186 0
78 2 S112 921 1547196 3107 0
78 2 S112 944 1548140 4051 0
78 2 S112 932 1549072 4983 0
78 2 S112 893 1549965 5876 0
78 2 S112 817 1550782 6693 0
0 0 0 795 1551577 -12058 0
0 0 0 829 1552406 -11229 0
0 0 0 906 1553312 -10323 0
0 0 0 884 1554196 -9439 0
0 0 0 890 1555086 -8549 0
0 0 0 916 1556002 -7633 0
0 0 0 892 1556894 -6741 0
0 0 0 842 1557736 -5899 0
0 0 0 864 1558600 -5035 0
0 0 0 911 1559511 -4124 0
0 0 0 961 1560472 -3163 0
0 0 0 927 1561399 -2236 0
79 1 S102 879 1562278 -1357 0
79 1 S102 919 1563197 -438 0
79 2 S102 937 1564134 499 0
79 2 S102 940 1565074 1439 0
79 2 S102 885 1565959 2324 0
79 2 S102 836 1566795 3160 0
79 2 S102 856 1567651 4016 0
79 2 S102 876 1568527 4892 0
79 2 S102 878 1569405 5770 0
79 2 S102 855 1570260 6625 0
0 0 0 816 1571076 -10099 0
0 0 0 847 1571923 -9252 0
0 0 0 875 1572798 -8377 0
0 0 0 876 1573674 -7501 0
0 0 0 842 1574516 -6659 0
0 0 0 875 1575391 -5784 0
0 0 0 861 1576252 -4923 0
0 0 0 820 1577072 -4103 0
0 0 0 810 1577882 -3293 0
0 0 0 824 1578706 -2469 0
80 1 S116 868 1579574 -1601 0
80 1 S116 922 1580496 -679 0
80 2 S116 904 1581400 225 0
80 2 S116 868 1582268 1093 0
80 2 S116 899 1583167 1992 0
80 2 S116 903 1584070 2895 0
80 2 S116 880 1584950 3775 0
80 2 S116 842 1585792 4617 0
80 2 S116 846 1586638 5463 0
80 2 S116 870 1587508 6333 0
