T_0144
BeatCount Mean SD BeatCountNoOutliers MeanNoOutliers SDNoOutliers
1979 786,489641232946 50,5892204956407 1948 784,907597535934 46,5843334709146

Trial TrialStatus Trialtype IBI AbsPosition RelPosition Outlier
0 0 0 857 1022 -14741 0
0 0 0 873 1895 -13868 0
0 0 0 884 2779 -12984 0
0 0 0 872 3651 -12112 0
0 0 0 890 4541 -11222 0
0 0 0 892 5433 -10330 0
0 0 0 890 6323 -9440 0
0 0 0 817 7140 -8623 0
0 0 0 766 7906 -7857 0
0 0 0 773 8679 -7084 0
0 0 0 767 9446 -6317 0
0 0 0 767 10213 -5550 0
0 0 0 786 10999 -4764 0
0 0 0 810 11809 -3954 0
0 0 0 825 12634 -3129 0
0 0 0 831 13465 -2298 0
1 1 S112 845 14310 -1453 0
1 1 S112 858 15168 -595 0
1 2 S112 863 16031 268 0
1 2 S112 857 16888 1125 0
1 2 S112 854 17742 1979 0
1 2 S112 844 18586 2823 0
1 2 S112 834 19420 3657 0
1 2 S112 826 20246 4483 0
1 2 S112 817 21063 5300 0
1 2 S112 808 21871 6108 0
1 2 S112 817 22688 6925 0
0 0 0 838 23526 -11618 0
0 0 0 855 24381 -10763 0
0 0 0 869 25250 -9894 0
0 0 0 889 26139 -9005 0
0 0 0 892 27031 -8113 0
0 0 0 884 27915 -7229 0
0 0 0 862 28777 -6367 0
0 0 0 856 29633 -5511 0
0 0 0 843 30476 -4668 0
0 0 0 858 31334 -3810 0
0 0 0 880 32214 -2930 0
0 0 0 922 33136 -2008 1
2 1 S102 942 34078 -1066 1
2 1 S102 945 35023 -121 1
2 2 S102 938 35961 817 1
2 2 S102 917 36878 1734 0
2 2 S102 890 37768 2624 0
2 2 S102 851 38619 3475 0
2 2 S102 825 39444 4300 0
2 2 S102 828 40272 5128 0
2 2 S102 822 41094 5950 0
2 2 S102 823 41917 6773 0
0 0 0 831 42748 -9206 0
0 0 0 815 43563 -8391 0
0 0 0 797 44360 -7594 0
0 0 0 812 45172 -6782 0
0 0 0 822 45994 -5960 0
0 0 0 848 46842 -5112 0
0 0 0 805 47647 -4307 0
0 0 0 807 48454 -3500 0
0 0 0 812 49266 -2688 0
3 1 S116 781 50047 -1907 0
3 1 S116 777 50824 -1130 0
3 1 S116 766 51590 -364 0
3 2 S116 751 52341 387 0
3 2 S116 744 53085 1131 0
3 2 S116 736 53821 1867 0
3 2 S116 724 54545 2591 0
3 2 S116 711 55256 3302 0
3 2 S116 702 55958 4004 0
3 2 S116 694 56652 4698 0
3 2 S116 689 57341 5387 0
3 2 S116 683 58024 6070 0
3 2 S116 675 58699 6745 0
0 0 0 668 59367 -11238 0
0 0 0 687 60054 -10551 0
0 0 0 702 60756 -9849 0
0 0 0 726 61482 -9123 0
0 0 0 747 62229 -8376 0
0 0 0 766 62995 -7610 0
0 0 0 789 63784 -6821 0
0 0 0 814 64598 -6007 0
0 0 0 819 65417 -5188 0
0 0 0 820 66237 -4368 0
0 0 0 809 67046 -3559 0
0 0 0 803 67849 -2756 0
4 1 S106 789 68638 -1967 0
4 1 S106 774 69412 -1193 0
4 1 S106 769 70181 -424 0
4 2 S106 768 70949 344 0
4 2 S106 755 71704 1099 0
4 2 S106 742 72446 1841 0
4 2 S106 736 73182 2577 0
4 2 S106 699 73881 3276 0
4 2 S106 709 74590 3985 0
4 2 S106 700 75290 4685 0
4 2 S106 700 75990 5385 0
4 2 S106 692 76682 6077 0
4 2 S106 682 77364 6759 0
0 0 0 686 78050 -7857 0
0 0 0 689 78739 -7168 0
0 0 0 695 79434 -6473 0
0 0 0 685 80119 -5788 0
0 0 0 706 80825 -5082 0
0 0 0 720 81545 -4362 0
0 0 0 733 82278 -3629 0
0 0 0 749 83027 -2880 0
0 0 0 750 83777 -2130 0
5 1 S116 741 84518 -1389 0
5 1 S116 763 85281 -626 0
5 2 S116 770 86051 144 0
5 2 S116 774 86825 918 0
5 2 S116 785 87610 1703 0
5 2 S116 788 88398 2491 0
5 2 S116 769 89167 3260 0
5 2 S116 779 89946 4039 0
5 2 S116 787 90733 4826 0
5 2 S116 803 91536 5629 0
5 2 S116 817 92353 6446 0
0 0 0 828 93181 -11327 0
0 0 0 822 94003 -10505 0
0 0 0 818 94821 -9687 0
0 0 0 821 95642 -8866 0
0 0 0 817 96459 -8049 0
0 0 0 824 97283 -7225 0
0 0 0 814 98097 -6411 0
0 0 0 820 98917 -5591 0
0 0 0 816 99733 -4775 0
0 0 0 807 100540 -3968 0
0 0 0 802 101342 -3166 0
0 0 0 786 102128 -2380 0
6 1 S106 761 102889 -1619 0
6 1 S106 767 103656 -852 0
6 1 S106 771 104427 -81 0
6 2 S106 784 105211 703 0
6 2 S106 794 106005 1497 0
6 2 S106 783 106788 2280 0
6 2 S106 807 107595 3087 0
6 2 S106 819 108414 3906 0
6 2 S106 827 109241 4733 0
6 2 S106 831 110072 5564 0
6 2 S106 813 110885 6377 0
0 0 0 825 111710 -9989 0
0 0 0 822 112532 -9167 0
0 0 0 822 113354 -8345 0
0 0 0 790 114144 -7555 0
0 0 0 796 114940 -6759 0
0 0 0 790 115730 -5969 0
0 0 0 798 116528 -5171 0
0 0 0 794 117322 -4377 0
0 0 0 769 118091 -3608 0
0 0 0 778 118869 -2830 0
0 0 0 771 119640 -2059 0
7 1 S102 769 120409 -1290 0
7 1 S102 771 121180 -519 0
7 2 S102 774 121954 255 0
7 2 S102 777 122731 1032 0
7 2 S102 761 123492 1793 0
7 2 S102 744 124236 2537 0
7 2 S102 767 125003 3304 0
7 2 S102 778 125781 4082 0
7 2 S102 795 126576 4877 0
7 2 S102 811 127387 5688 0
7 2 S102 826 128213 6514 0
0 0 0 814 129027 -8737 0
0 0 0 804 129831 -7933 0
0 0 0 809 130640 -7124 0
0 0 0 809 131449 -6315 0
0 0 0 800 132249 -5515 0
0 0 0 774 133023 -4741 0
0 0 0 767 133790 -3974 0
0 0 0 770 134560 -3204 0
0 0 0 769 135329 -2435 0
8 1 S112 773 136102 -1662 0
8 1 S112 769 136871 -893 0
8 1 S112 754 137625 -139 0
8 2 S112 756 138381 617 0
8 2 S112 765 139146 1382 0
8 2 S112 779 139925 2161 0
8 2 S112 787 140712 2948 0
8 2 S112 785 141497 3733 0
8 2 S112 782 142279 4515 0
8 2 S112 791 143070 5306 0
8 2 S112 795 143865 6101 0
8 2 S112 801 144666 6902 0
0 0 0 807 145473 -7642 0
0 0 0 810 146283 -6832 0
0 0 0 784 147067 -6048 0
0 0 0 810 147877 -5238 0
0 0 0 815 148692 -4423 0
0 0 0 818 149510 -3605 0
0 0 0 820 150330 -2785 0
9 1 S116 798 151128 -1987 0
9 1 S116 814 151942 -1173 0
9 1 S116 814 152756 -359 0
9 2 S116 813 153569 454 0
9 2 S116 813 154382 1267 0
9 2 S116 789 155171 2056 0
9 2 S116 809 155980 2865 0
9 2 S116 817 156797 3682 0
9 2 S116 820 157617 4502 0
9 2 S116 821 158438 5323 0
9 2 S116 803 159241 6126 0
9 2 S116 820 160061 6946 0
0 0 0 824 160885 -11478 0
0 0 0 834 161719 -10644 0
0 0 0 819 162538 -9825 0
0 0 0 829 163367 -8996 0
0 0 0 827 164194 -8169 0
0 0 0 828 165022 -7341 0
0 0 0 803 165825 -6538 0
0 0 0 805 166630 -5733 0
0 0 0 803 167433 -4930 0
0 0 0 807 168240 -4123 0
0 0 0 804 169044 -3319 0
0 0 0 791 169835 -2528 0
10 1 S102 788 170623 -1740 0
10 1 S102 798 171421 -942 0
10 1 S102 801 172222 -141 0
10 2 S102 807 173029 666 0
10 2 S102 794 173823 1460 0
10 2 S102 799 174622 2259 0
10 2 S102 802 175424 3061 0
10 2 S102 806 176230 3867 0
10 2 S102 800 177030 4667 0
10 2 S102 780 177810 5447 0
10 2 S102 805 178615 6252 0
0 0 0 813 179428 -11105 0
0 0 0 826 180254 -10279 0
0 0 0 844 181098 -9435 0
0 0 0 849 181947 -8586 0
0 0 0 814 182761 -7772 0
0 0 0 826 183587 -6946 0
0 0 0 829 184416 -6117 0
0 0 0 826 185242 -5291 0
0 0 0 825 186067 -4466 0
0 0 0 800 186867 -3666 0
0 0 0 808 187675 -2858 0
0 0 0 805 188480 -2053 0
11 1 S112 809 189289 -1244 0
11 1 S112 806 190095 -438 0
11 2 S112 779 190874 341 0
11 2 S112 789 191663 1130 0
11 2 S112 785 192448 1915 0
11 2 S112 788 193236 2703 0
11 2 S112 793 194029 3496 0
11 2 S112 776 194805 4272 0
11 2 S112 796 195601 5068 0
11 2 S112 795 196396 5863 0
11 2 S112 797 197193 6660 0
0 0 0 795 197988 -7001 0
0 0 0 773 198761 -6228 0
0 0 0 772 199533 -5456 0
0 0 0 761 200294 -4695 0
0 0 0 751 201045 -3944 0
0 0 0 734 201779 -3210 0
0 0 0 708 202487 -2502 0
12 1 S116 697 203184 -1805 0
12 1 S116 703 203887 -1102 0
12 1 S116 705 204592 -397 0
12 2 S116 714 205306 317 0
12 2 S116 731 206037 1048 0
12 2 S116 728 206765 1776 0
12 2 S116 763 207528 2539 0
12 2 S116 787 208315 3326 0
12 2 S116 819 209134 4145 0
12 2 S116 848 209982 4993 0
12 2 S116 838 210820 5831 0
12 2 S116 863 211683 6694 0
0 0 0 867 212550 -11720 0
0 0 0 862 213412 -10858 0
0 0 0 855 214267 -10003 0
0 0 0 813 215080 -9190 0
0 0 0 819 215899 -8371 0
0 0 0 805 216704 -7566 0
0 0 0 789 217493 -6777 0
0 0 0 768 218261 -6009 0
0 0 0 789 219050 -5220 0
0 0 0 800 219850 -4420 0
0 0 0 817 220667 -3603 0
0 0 0 804 221471 -2799 0
13 1 S112 813 222284 -1986 0
13 1 S112 825 223109 -1161 0
13 1 S112 832 223941 -329 0
13 2 S112 839 224780 510 0
13 2 S112 818 225598 1328 0
13 2 S112 836 226434 2164 0
13 2 S112 831 227265 2995 0
13 2 S112 829 228094 3824 0
13 2 S112 833 228927 4657 0
13 2 S112 812 229739 5469 0
13 2 S112 792 230531 6261 0
0 0 0 808 231339 -10305 0
0 0 0 811 232150 -9494 0
0 0 0 830 232980 -8664 0
0 0 0 839 233819 -7825 0
0 0 0 845 234664 -6980 0
0 0 0 812 235476 -6168 0
0 0 0 820 236296 -5348 0
0 0 0 818 237114 -4530 0
0 0 0 817 237931 -3713 0
0 0 0 815 238746 -2898 0
0 0 0 791 239537 -2107 0
14 1 S106 764 240301 -1343 0
14 1 S106 750 241051 -593 0
14 2 S106 754 241805 161 0
14 2 S106 760 242565 921 0
14 2 S106 788 243353 1709 0
14 2 S106 818 244171 2527 0
14 2 S106 810 244981 3337 0
14 2 S106 832 245813 4169 0
14 2 S106 849 246662 5018 0
14 2 S106 855 247517 5873 0
14 2 S106 854 248371 6727 0
0 0 0 858 249229 -11530 0
0 0 0 847 250076 -10683 0
0 0 0 803 250879 -9880 0
0 0 0 801 251680 -9079 0
0 0 0 793 252473 -8286 0
0 0 0 781 253254 -7505 0
0 0 0 754 254008 -6751 0
0 0 0 734 254742 -6017 0
0 0 0 743 255485 -5274 0
0 0 0 733 256218 -4541 0
0 0 0 733 256951 -3808 0
0 0 0 743 257694 -3065 0
0 0 0 734 258428 -2331 0
15 1 S116 727 259155 -1604 0
15 1 S116 740 259895 -864 0
15 1 S116 766 260661 -98 0
15 2 S116 793 261454 695 0
15 2 S116 827 262281 1522 0
15 2 S116 817 263098 2339 0
15 2 S116 849 263947 3188 0
15 2 S116 859 264806 4047 0
15 2 S116 861 265667 4908 0
15 2 S116 865 266532 5773 0
15 2 S116 854 267386 6627 0
0 0 0 829 268215 -9238 0
0 0 0 843 269058 -8395 0
0 0 0 843 269901 -7552 0
0 0 0 851 270752 -6701 0
0 0 0 841 271593 -5860 0
0 0 0 813 272406 -5047 0
0 0 0 815 273221 -4232 0
0 0 0 819 274040 -3413 0
0 0 0 829 274869 -2584 0
16 1 S116 837 275706 -1747 0
16 1 S116 832 276538 -915 0
16 1 S116 803 277341 -112 0
16 2 S116 814 278155 702 0
16 2 S116 800 278955 1502 0
16 2 S116 797 279752 2299 0
16 2 S116 779 280531 3078 0
16 2 S116 765 281296 3843 0
16 2 S116 789 282085 4632 0
16 2 S116 802 282887 5434 0
16 2 S116 822 283709 6256 0
0 0 0 845 284554 -9975 0
0 0 0 828 285382 -9147 0
0 0 0 839 286221 -8308 0
0 0 0 848 287069 -7460 0
0 0 0 855 287924 -6605 0
0 0 0 837 288761 -5768 0
0 0 0 798 289559 -4970 0
0 0 0 808 290367 -4162 0
0 0 0 799 291166 -3363 0
0 0 0 799 291965 -2564 0
17 1 S106 798 292763 -1766 0
17 1 S106 776 293539 -990 0
17 1 S106 774 294313 -216 0
17 2 S106 786 295099 570 0
17 2 S106 789 295888 1359 0
17 2 S106 795 296683 2154 0
17 2 S106 791 297474 2945 0
17 2 S106 768 298242 3713 0
17 2 S106 769 299011 4482 0
17 2 S106 776 299787 5258 0
17 2 S106 784 300571 6042 0
17 2 S106 800 301371 6842 0
0 0 0 801 302172 -12168 0
0 0 0 815 302987 -11353 0
0 0 0 839 303826 -10514 0
0 0 0 853 304679 -9661 0
0 0 0 870 305549 -8791 0
0 0 0 838 306387 -7953 0
0 0 0 836 307223 -7117 0
0 0 0 822 308045 -6295 0
0 0 0 813 308858 -5482 0
0 0 0 800 309658 -4682 0
0 0 0 773 310431 -3909 0
0 0 0 785 311216 -3124 0
0 0 0 785 312001 -2339 0
18 1 S102 789 312790 -1550 0
18 1 S102 793 313583 -757 0
18 2 S102 787 314370 30 0
18 2 S102 805 315175 835 0
18 2 S102 814 315989 1649 0
18 2 S102 826 316815 2475 0
18 2 S102 833 317648 3308 0
18 2 S102 828 318476 4136 0
18 2 S102 814 319290 4950 0
18 2 S102 811 320101 5761 0
18 2 S102 807 320908 6568 0
0 0 0 802 321710 -7136 0
0 0 0 801 322511 -6335 0
0 0 0 786 323297 -5549 0
0 0 0 767 324064 -4782 0
0 0 0 776 324840 -4006 0
0 0 0 775 325615 -3231 0
0 0 0 775 326390 -2456 0
19 1 S106 753 327143 -1703 0
19 1 S106 751 327894 -952 0
19 1 S106 756 328650 -196 0
19 2 S106 763 329413 567 0
19 2 S106 771 330184 1338 0
19 2 S106 770 330954 2108 0
19 2 S106 755 331709 2863 0
19 2 S106 773 332482 3636 0
19 2 S106 772 333254 4408 0
19 2 S106 777 334031 5185 0
19 2 S106 781 334812 5966 0
19 2 S106 766 335578 6732 0
0 0 0 784 336362 -11914 0
0 0 0 790 337152 -11124 0
0 0 0 804 337956 -10320 0
0 0 0 800 338756 -9520 0
0 0 0 792 339548 -8728 0
0 0 0 805 340353 -7923 0
0 0 0 805 341158 -7118 0
0 0 0 798 341956 -6320 0
0 0 0 776 342732 -5544 0
0 0 0 785 343517 -4759 0
0 0 0 788 344305 -3971 0
0 0 0 796 345101 -3175 0
0 0 0 795 345896 -2380 0
20 1 S112 792 346688 -1588 0
20 1 S112 770 347458 -818 0
20 1 S112 782 348240 -36 0
20 2 S112 781 349021 745 0
20 2 S112 783 349804 1528 0
20 2 S112 790 350594 2318 0
20 2 S112 786 351380 3104 0
20 2 S112 770 352150 3874 0
20 2 S112 789 352939 4663 0
20 2 S112 799 353738 5462 0
20 2 S112 807 354545 6269 0
0 0 0 801 355346 -11399 0
0 0 0 779 356125 -10620 0
0 0 0 781 356906 -9839 0
0 0 0 775 357681 -9064 0
0 0 0 775 358456 -8289 0
0 0 0 771 359227 -7518 0
0 0 0 771 359998 -6747 0
0 0 0 774 360772 -5973 0
0 0 0 775 361547 -5198 0
0 0 0 781 362328 -4417 0
0 0 0 772 363100 -3645 0
0 0 0 774 363874 -2871 0
0 0 0 788 364662 -2083 0
21 1 S106 802 365464 -1281 0
21 1 S106 821 366285 -460 0
21 2 S106 840 367125 380 0
21 2 S106 828 367953 1208 0
21 2 S106 838 368791 2046 0
21 2 S106 830 369621 2876 0
21 2 S106 829 370450 3705 0
21 2 S106 827 371277 4532 0
21 2 S106 812 372089 5344 0
21 2 S106 824 372913 6168 0
21 2 S106 823 373736 6991 0
0 0 0 823 374559 -11400 0
0 0 0 827 375386 -10573 0
0 0 0 815 376201 -9758 0
0 0 0 802 377003 -8956 0
0 0 0 805 377808 -8151 0
0 0 0 801 378609 -7350 0
0 0 0 804 379413 -6546 0
0 0 0 796 380209 -5750 0
0 0 0 774 380983 -4976 0
0 0 0 788 381771 -4188 0
0 0 0 790 382561 -3398 0
0 0 0 799 383360 -2599 0
22 1 S116 812 384172 -1787 0
22 1 S116 815 384987 -972 0
22 1 S116 806 385793 -166 0
22 2 S116 826 386619 660 0
22 2 S116 831 387450 1491 0
22 2 S116 835 388285 2326 0
22 2 S116 812 389097 3138 0
22 2 S116 816 389913 3954 0
22 2 S116 824 390737 4778 0
22 2 S116 831 391568 5609 0
22 2 S116 843 392411 6452 0
0 0 0 859 393270 -10594 0
0 0 0 849 394119 -9745 0
0 0 0 849 394968 -8896 0
0 0 0 840 395808 -8056 0
0 0 0 835 396643 -7221 0
0 0 0 810 397453 -6411 0
0 0 0 782 398235 -5629 0
0 0 0 777 399012 -4852 0
0 0 0 763 399775 -4089 0
0 0 0 755 400530 -3334 0
0 0 0 738 401268 -2596 0
23 1 S112 711 401979 -1885 0
23 1 S112 718 402697 -1167 0
23 1 S112 716 403413 -451 0
23 2 S112 726 404139 275 0
23 2 S112 749 404888 1024 0
23 2 S112 743 405631 1767 0
23 2 S112 766 406397 2533 0
23 2 S112 798 407195 3331 0
23 2 S112 826 408021 4157 0
23 2 S112 841 408862 4998 0
23 2 S112 852 409714 5850 0
23 2 S112 842 410556 6692 0
0 0 0 802 411358 -10261 0
0 0 0 805 412163 -9456 0
0 0 0 794 412957 -8662 0
0 0 0 792 413749 -7870 0
0 0 0 792 414541 -7078 0
0 0 0 768 415309 -6310 0
0 0 0 769 416078 -5541 0
0 0 0 765 416843 -4776 0
0 0 0 761 417604 -4015 0
0 0 0 765 418369 -3250 0
0 0 0 752 419121 -2498 0
24 1 S106 744 419865 -1754 0
24 1 S106 766 420631 -988 0
24 1 S106 780 421411 -208 0
24 2 S106 804 422215 596 0
24 2 S106 825 423040 1421 0
24 2 S106 808 423848 2229 0
24 2 S106 827 424675 3056 0
24 2 S106 840 425515 3896 0
24 2 S106 839 426354 4735 0
24 2 S106 844 427198 5579 0
24 2 S106 852 428050 6431 0
0 0 0 854 428904 -9923 0
0 0 0 823 429727 -9100 0
0 0 0 830 430557 -8270 0
0 0 0 834 431391 -7436 0
0 0 0 841 432232 -6595 0
0 0 0 817 433049 -5778 0
0 0 0 759 433808 -5019 0
0 0 0 834 434642 -4185 0
0 0 0 808 435450 -3377 0
0 0 0 784 436234 -2593 0
25 1 S102 764 436998 -1829 0
25 1 S102 722 437720 -1107 0
25 1 S102 707 438427 -400 0
25 2 S102 711 439138 311 0
25 2 S102 704 439842 1015 0
25 2 S102 697 440539 1712 0
25 2 S102 687 441226 2399 0
25 2 S102 697 441923 3096 0
25 2 S102 704 442627 3800 0
25 2 S102 695 443322 4495 0
25 2 S102 725 444047 5220 0
25 2 S102 740 444787 5960 0
25 2 S102 763 445550 6723 0
0 0 0 781 446331 -5593 0
0 0 0 799 447130 -4794 0
0 0 0 800 447930 -3994 0
0 0 0 767 448697 -3227 0
0 0 0 782 449479 -2445 0
26 1 S116 773 450252 -1672 0
26 1 S116 771 451023 -901 0
26 1 S116 776 451799 -125 0
26 2 S116 783 452582 658 0
26 2 S116 778 453360 1436 0
26 2 S116 755 454115 2191 0
26 2 S116 768 454883 2959 0
26 2 S116 771 455654 3730 0
26 2 S116 780 456434 4510 0
26 2 S116 803 457237 5313 0
26 2 S116 794 458031 6107 0
26 2 S116 830 458861 6937 0
0 0 0 857 459718 -8801 0
0 0 0 876 460594 -7925 0
0 0 0 843 461437 -7082 0
0 0 0 826 462263 -6256 0
0 0 0 786 463049 -5470 0
0 0 0 789 463838 -4681 0
0 0 0 783 464621 -3898 0
0 0 0 757 465378 -3141 0
0 0 0 759 466137 -2382 0
27 1 S106 756 466893 -1626 0
27 1 S106 759 467652 -867 0
27 1 S106 767 468419 -100 0
27 2 S106 791 469210 691 0
27 2 S106 814 470024 1505 0
27 2 S106 808 470832 2313 0
27 2 S106 826 471658 3139 0
27 2 S106 828 472486 3967 0
27 2 S106 825 473311 4792 0
27 2 S106 825 474136 5617 0
27 2 S106 819 474955 6436 0
0 0 0 802 475757 -7965 0
0 0 0 805 476562 -7160 0
0 0 0 802 477364 -6358 0
0 0 0 803 478167 -5555 0
0 0 0 819 478986 -4736 0
0 0 0 816 479802 -3920 0
0 0 0 800 480602 -3120 0
0 0 0 757 481359 -2363 0
28 1 S102 747 482106 -1616 0
28 1 S102 736 482842 -880 0
28 1 S102 728 483570 -152 0
28 2 S102 731 484301 579 0
28 2 S102 764 485065 1343 0
28 2 S102 811 485876 2154 0
28 2 S102 844 486720 2998 0
28 2 S102 893 487613 3891 0
28 2 S102 939 488552 4830 1
28 2 S102 948 489500 5778 1
28 2 S102 957 490457 6735 1
0 0 0 946 491403 -10207 1
0 0 0 922 492325 -9285 1
0 0 0 911 493236 -8374 0
0 0 0 896 494132 -7478 0
0 0 0 866 494998 -6612 0
0 0 0 828 495826 -5784 0
0 0 0 839 496665 -4945 0
0 0 0 834 497499 -4111 0
0 0 0 841 498340 -3270 0
0 0 0 849 499189 -2421 0
29 1 S112 817 500006 -1604 0
29 1 S112 826 500832 -778 0
29 2 S112 836 501668 58 0
29 2 S112 842 502510 900 0
29 2 S112 856 503366 1756 0
29 2 S112 854 504220 2610 0
29 2 S112 817 505037 3427 0
29 2 S112 836 505873 4263 0
29 2 S112 837 506710 5100 0
29 2 S112 850 507560 5950 0
29 2 S112 860 508420 6810 0
0 0 0 846 509266 -7513 0
0 0 0 869 510135 -6644 0
0 0 0 878 511013 -5766 0
0 0 0 893 511906 -4873 0
0 0 0 840 512746 -4033 0
0 0 0 814 513560 -3219 0
0 0 0 815 514375 -2404 0
30 1 S112 797 515172 -1607 0
30 1 S112 777 515949 -830 0
30 1 S112 769 516718 -61 0
30 2 S112 755 517473 694 0
30 2 S112 741 518214 1435 0
30 2 S112 727 518941 2162 0
30 2 S112 720 519661 2882 0
30 2 S112 707 520368 3589 0
30 2 S112 700 521068 4289 0
30 2 S112 692 521760 4981 0
30 2 S112 685 522445 5666 0
30 2 S112 676 523121 6342 0
30 2 S112 670 523791 7012 0
0 0 0 664 524455 -10096 0
0 0 0 659 525114 -9437 0
0 0 0 651 525765 -8786 1
0 0 0 651 526416 -8135 1
0 0 0 658 527074 -7477 0
0 0 0 668 527742 -6809 0
0 0 0 678 528420 -6131 0
0 0 0 689 529109 -5442 0
0 0 0 700 529809 -4742 0
0 0 0 722 530531 -4020 0
0 0 0 738 531269 -3282 0
0 0 0 738 532007 -2544 0
31 1 S106 749 532756 -1795 0
31 1 S106 761 533517 -1034 0
31 1 S106 775 534292 -259 0
31 2 S106 784 535076 525 0
31 2 S106 784 535860 1309 0
31 2 S106 784 536644 2093 0
31 2 S106 766 537410 2859 0
31 2 S106 745 538155 3604 0
31 2 S106 722 538877 4326 0
31 2 S106 699 539576 5025 0
31 2 S106 707 540283 5732 0
31 2 S106 707 540990 6439 0
0 0 0 722 541712 -10744 0
0 0 0 731 542443 -10013 0
0 0 0 782 543225 -9231 0
0 0 0 815 544040 -8416 0
0 0 0 852 544892 -7564 0
0 0 0 851 545743 -6713 0
0 0 0 825 546568 -5888 0
0 0 0 822 547390 -5066 0
0 0 0 819 548209 -4247 0
0 0 0 783 548992 -3464 0
0 0 0 769 549761 -2695 0
32 1 S102 774 550535 -1921 0
32 1 S102 775 551310 -1146 0
32 1 S102 791 552101 -355 0
32 2 S102 805 552906 450 0
32 2 S102 783 553689 1233 0
32 2 S102 814 554503 2047 0
32 2 S102 817 555320 2864 0
32 2 S102 826 556146 3690 0
32 2 S102 839 556985 4529 0
32 2 S102 840 557825 5369 0
32 2 S102 804 558629 6173 0
32 2 S102 809 559438 6982 0
0 0 0 814 560252 -11667 0
0 0 0 818 561070 -10849 0
0 0 0 830 561900 -10019 0
0 0 0 855 562755 -9164 0
0 0 0 849 563604 -8315 0
0 0 0 830 564434 -7485 0
0 0 0 784 565218 -6701 0
0 0 0 782 566000 -5919 0
0 0 0 773 566773 -5146 0
0 0 0 774 567547 -4372 0
0 0 0 780 568327 -3592 0
0 0 0 767 569094 -2825 0
0 0 0 800 569894 -2025 0
33 1 S112 817 570711 -1208 0
33 1 S112 837 571548 -371 0
33 2 S112 856 572404 485 0
33 2 S112 858 573262 1343 0
33 2 S112 823 574085 2166 0
33 2 S112 803 574888 2969 0
33 2 S112 806 575694 3775 0
33 2 S112 803 576497 4578 0
33 2 S112 793 577290 5371 0
33 2 S112 770 578060 6141 0
33 2 S112 789 578849 6930 0
0 0 0 795 579644 -11008 0
0 0 0 803 580447 -10205 0
0 0 0 816 581263 -9389 0
0 0 0 789 582052 -8600 0
0 0 0 791 582843 -7809 0
0 0 0 791 583634 -7018 0
0 0 0 785 584419 -6233 0
0 0 0 784 585203 -5449 0
0 0 0 773 585976 -4676 0
0 0 0 751 586727 -3925 0
0 0 0 764 587491 -3161 0
0 0 0 758 588249 -2403 0
34 1 S106 755 589004 -1648 0
34 1 S106 754 589758 -894 0
34 1 S106 747 590505 -147 0
34 2 S106 726 591231 579 0
34 2 S106 707 591938 1286 0
34 2 S106 722 592660 2008 0
34 2 S106 721 593381 2729 0
34 2 S106 733 594114 3462 0
34 2 S106 723 594837 4185 0
34 2 S106 751 595588 4936 0
34 2 S106 770 596358 5706 0
34 2 S106 787 597145 6493 0
0 0 0 801 597946 -9550 0
0 0 0 783 598729 -8767 0
0 0 0 805 599534 -7962 0
0 0 0 809 600343 -7153 0
0 0 0 801 601144 -6352 0
0 0 0 776 601920 -5576 0
0 0 0 786 602706 -4790 0
0 0 0 782 603488 -4008 0
0 0 0 783 604271 -3225 0
0 0 0 782 605053 -2443 0
35 1 S102 781 605834 -1662 0
35 1 S102 755 606589 -907 0
35 1 S102 766 607355 -141 0
35 2 S102 755 608110 614 0
35 2 S102 755 608865 1369 0
35 2 S102 757 609622 2126 0
35 2 S102 737 610359 2863 0
35 2 S102 773 611132 3636 0
35 2 S102 796 611928 4432 0
35 2 S102 826 612754 5258 0
35 2 S102 850 613604 6108 0
35 2 S102 831 614435 6939 0
0 0 0 871 615306 -6530 0
0 0 0 879 616185 -5651 0
0 0 0 879 617064 -4772 0
0 0 0 857 617921 -3915 0
0 0 0 819 618740 -3096 0
0 0 0 822 619562 -2274 0
36 1 S106 812 620374 -1462 0
36 1 S106 806 621180 -656 0
36 2 S106 790 621970 134 0
36 2 S106 768 622738 902 0
36 2 S106 787 623525 1689 0
36 2 S106 786 624311 2475 0
36 2 S106 792 625103 3267 0
36 2 S106 777 625880 4044 0
36 2 S106 763 626643 4807 0
36 2 S106 789 627432 5596 0
36 2 S106 799 628231 6395 0
0 0 0 813 629044 -11393 0
0 0 0 813 629857 -10580 0
0 0 0 812 630669 -9768 0
0 0 0 839 631508 -8929 0
0 0 0 856 632364 -8073 0
0 0 0 864 633228 -7209 0
0 0 0 874 634102 -6335 0
0 0 0 826 634928 -5509 0
0 0 0 823 635751 -4686 0
0 0 0 815 636566 -3871 0
0 0 0 808 637374 -3063 0
0 0 0 789 638163 -2274 0
37 1 S116 762 638925 -1512 0
37 1 S116 779 639704 -733 0
37 2 S116 780 640484 47 0
37 2 S116 785 641269 832 0
37 2 S116 784 642053 1616 0
37 2 S116 762 642815 2378 0
37 2 S116 781 643596 3159 0
37 2 S116 785 644381 3944 0
37 2 S116 800 645181 4744 0
37 2 S116 810 645991 5554 0
37 2 S116 814 646805 6368 0
0 0 0 790 647595 -10896 0
0 0 0 779 648374 -10117 0
0 0 0 807 649181 -9310 0
0 0 0 827 650008 -8483 0
0 0 0 834 650842 -7649 0
0 0 0 839 651681 -6810 0
0 0 0 854 652535 -5956 0
0 0 0 854 653389 -5102 0
0 0 0 849 654238 -4253 0
0 0 0 830 655068 -3423 0
0 0 0 839 655907 -2584 0
38 1 S102 837 656744 -1747 0
38 1 S102 839 657583 -908 0
38 1 S102 829 658412 -79 0
38 2 S102 803 659215 724 0
38 2 S102 808 660023 1532 0
38 2 S102 797 660820 2329 0
38 2 S102 792 661612 3121 0
38 2 S102 789 662401 3910 0
38 2 S102 767 663168 4677 0
38 2 S102 768 663936 5445 0
38 2 S102 770 664706 6215 0
38 2 S102 771 665477 6986 0
0 0 0 778 666255 -9212 0
0 0 0 775 667030 -8437 0
0 0 0 757 667787 -7680 0
0 0 0 778 668565 -6902 0
0 0 0 776 669341 -6126 0
0 0 0 775 670116 -5351 0
0 0 0 756 670872 -4595 0
0 0 0 762 671634 -3833 0
0 0 0 757 672391 -3076 0
0 0 0 750 673141 -2326 0
39 1 S116 752 673893 -1574 0
39 1 S116 746 674639 -828 0
39 1 S116 731 675370 -97 0
39 2 S116 724 676094 627 0
39 2 S116 732 676826 1359 0
39 2 S116 734 677560 2093 0
39 2 S116 734 678294 2827 0
39 2 S116 713 679007 3540 0
39 2 S116 700 679707 4240 0
39 2 S116 683 680390 4923 0
39 2 S116 711 681101 5634 0
39 2 S116 709 681810 6343 0
0 0 0 720 682530 -8057 0
0 0 0 746 683276 -7311 0
0 0 0 774 684050 -6537 0
0 0 0 803 684853 -5734 0
0 0 0 827 685680 -4907 0
0 0 0 821 686501 -4086 0
0 0 0 788 687289 -3298 0
0 0 0 756 688045 -2542 0
40 1 S112 756 688801 -1786 0
40 1 S112 744 689545 -1042 0
40 1 S112 731 690276 -311 0
40 2 S112 731 691007 420 0
40 2 S112 739 691746 1159 0
40 2 S112 754 692500 1913 0
40 2 S112 763 693263 2676 0
40 2 S112 776 694039 3452 0
40 2 S112 798 694837 4250 0
40 2 S112 810 695647 5060 0
40 2 S112 814 696461 5874 0
40 2 S112 817 697278 6691 0
0 0 0 816 698094 -187621 0
0 0 0 815 698909 -186806 0
0 0 0 796 699705 -186010 0
0 0 0 811 700516 -185199 0
0 0 0 811 701327 -184388 0
0 0 0 795 702122 -183593 0
0 0 0 762 702884 -182831 0
0 0 0 753 703637 -182078 0
0 0 0 767 704404 -181311 0
0 0 0 860 705264 -180451 0
0 0 0 1057 706321 -179394 1
0 0 0 886 707207 -178508 0
0 0 0 1020 708227 -177488 1
0 0 0 942 709169 -176546 1
0 0 0 880 710049 -175666 0
0 0 0 855 710904 -174811 0
0 0 0 825 711729 -173986 0
0 0 0 799 712528 -173187 0
0 0 0 770 713298 -172417 0
0 0 0 744 714042 -171673 0
0 0 0 712 714754 -170961 0
0 0 0 702 715456 -170259 0
0 0 0 692 716148 -169567 0
0 0 0 684 716832 -168883 0
0 0 0 682 717514 -168201 0
0 0 0 680 718194 -167521 0
0 0 0 684 718878 -166837 0
0 0 0 687 719565 -166150 0
0 0 0 683 720248 -165467 0
0 0 0 683 720931 -164784 0
0 0 0 690 721621 -164094 0
0 0 0 696 722317 -163398 0
0 0 0 700 723017 -162698 0
0 0 0 718 723735 -161980 0
0 0 0 731 724466 -161249 0
0 0 0 751 725217 -160498 0
0 0 0 772 725989 -159726 0
0 0 0 789 726778 -158937 0
0 0 0 802 727580 -158135 0
0 0 0 803 728383 -157332 0
0 0 0 802 729185 -156530 0
0 0 0 795 729980 -155735 0
0 0 0 788 730768 -154947 0
0 0 0 777 731545 -154170 0
0 0 0 769 732314 -153401 0
0 0 0 747 733061 -152654 0
0 0 0 728 733789 -151926 0
0 0 0 730 734519 -151196 0
0 0 0 724 735243 -150472 0
0 0 0 727 735970 -149745 0
0 0 0 741 736711 -149004 0
0 0 0 748 737459 -148256 0
0 0 0 768 738227 -147488 0
0 0 0 776 739003 -146712 0
0 0 0 753 739756 -145959 0
0 0 0 758 740514 -145201 0
0 0 0 756 741270 -144445 0
0 0 0 773 742043 -143672 0
0 0 0 782 742825 -142890 0
0 0 0 786 743611 -142104 0
0 0 0 794 744405 -141310 0
0 0 0 809 745214 -140501 0
0 0 0 822 746036 -139679 0
0 0 0 787 746823 -138892 0
0 0 0 802 747625 -138090 0
0 0 0 801 748426 -137289 0
0 0 0 796 749222 -136493 0
0 0 0 794 750016 -135699 0
0 0 0 790 750806 -134909 0
0 0 0 792 751598 -134117 0
0 0 0 786 752384 -133331 0
0 0 0 766 753150 -132565 0
0 0 0 743 753893 -131822 0
0 0 0 760 754653 -131062 0
0 0 0 761 755414 -130301 0
0 0 0 771 756185 -129530 0
0 0 0 768 756953 -128762 0
0 0 0 763 757716 -127999 0
0 0 0 799 758515 -127200 0
0 0 0 819 759334 -126381 0
0 0 0 834 760168 -125547 0
0 0 0 846 761014 -124701 0
0 0 0 830 761844 -123871 0
0 0 0 807 762651 -123064 0
0 0 0 813 763464 -122251 0
0 0 0 797 764261 -121454 0
0 0 0 798 765059 -120656 0
0 0 0 772 765831 -119884 0
0 0 0 793 766624 -119091 0
0 0 0 811 767435 -118280 0
0 0 0 826 768261 -117454 0
0 0 0 835 769096 -116619 0
0 0 0 813 769909 -115806 0
0 0 0 814 770723 -114992 0
0 0 0 802 771525 -114190 0
0 0 0 787 772312 -113403 0
0 0 0 732 773044 -112671 0
0 0 0 763 773807 -111908 0
0 0 0 747 774554 -111161 0
0 0 0 733 775287 -110428 0
0 0 0 724 776011 -109704 0
0 0 0 719 776730 -108985 0
0 0 0 692 777422 -108293 0
0 0 0 690 778112 -107603 0
0 0 0 679 778791 -106924 0
0 0 0 663 779454 -106261 0
0 0 0 654 780108 -105607 1
0 0 0 647 780755 -104960 1
0 0 0 640 781395 -104320 1
0 0 0 648 782043 -103672 1
0 0 0 652 782695 -103020 1
0 0 0 657 783352 -102363 0
0 0 0 669 784021 -101694 0
0 0 0 677 784698 -101017 0
0 0 0 682 785380 -100335 0
0 0 0 704 786084 -99631 0
0 0 0 721 786805 -98910 0
0 0 0 731 787536 -98179 0
0 0 0 743 788279 -97436 0
0 0 0 750 789029 -96686 0
0 0 0 755 789784 -95931 0
0 0 0 761 790545 -95170 0
0 0 0 772 791317 -94398 0
0 0 0 780 792097 -93618 0
0 0 0 784 792881 -92834 0
0 0 0 791 793672 -92043 0
0 0 0 803 794475 -91240 0
0 0 0 807 795282 -90433 0
0 0 0 811 796093 -89622 0
0 0 0 813 796906 -88809 0
0 0 0 813 797719 -87996 0
0 0 0 814 798533 -87182 0
0 0 0 806 799339 -86376 0
0 0 0 797 800136 -85579 0
0 0 0 801 800937 -84778 0
0 0 0 827 801764 -83951 0
0 0 0 840 802604 -83111 0
0 0 0 863 803467 -82248 0
0 0 0 834 804301 -81414 0
0 0 0 823 805124 -80591 0
0 0 0 850 805974 -79741 0
0 0 0 862 806836 -78879 0
0 0 0 881 807717 -77998 0
0 0 0 861 808578 -77137 0
0 0 0 815 809393 -76322 0
0 0 0 827 810220 -75495 0
0 0 0 823 811043 -74672 0
0 0 0 824 811867 -73848 0
0 0 0 815 812682 -73033 0
0 0 0 802 813484 -72231 0
0 0 0 829 814313 -71402 0
0 0 0 835 815148 -70567 0
0 0 0 848 815996 -69719 0
0 0 0 850 816846 -68869 0
0 0 0 822 817668 -68047 0
0 0 0 831 818499 -67216 0
0 0 0 830 819329 -66386 0
0 0 0 833 820162 -65553 0
0 0 0 830 820992 -64723 0
0 0 0 802 821794 -63921 0
0 0 0 787 822581 -63134 0
0 0 0 808 823389 -62326 0
0 0 0 813 824202 -61513 0
0 0 0 806 825008 -60707 0
0 0 0 787 825795 -59920 0
0 0 0 786 826581 -59134 0
0 0 0 810 827391 -58324 0
0 0 0 835 828226 -57489 0
0 0 0 845 829071 -56644 0
0 0 0 826 829897 -55818 0
0 0 0 790 830687 -55028 0
0 0 0 791 831478 -54237 0
0 0 0 765 832243 -53472 0
0 0 0 752 832995 -52720 0
0 0 0 750 833745 -51970 0
0 0 0 742 834487 -51228 0
0 0 0 732 835219 -50496 0
0 0 0 757 835976 -49739 0
0 0 0 756 836732 -48983 0
0 0 0 766 837498 -48217 0
0 0 0 769 838267 -47448 0
0 0 0 770 839037 -46678 0
0 0 0 804 839841 -45874 0
0 0 0 832 840673 -45042 0
0 0 0 853 841526 -44189 0
0 0 0 864 842390 -43325 0
0 0 0 862 843252 -42463 0
0 0 0 848 844100 -41615 0
0 0 0 809 844909 -40806 0
0 0 0 817 845726 -39989 0
0 0 0 814 846540 -39175 0
0 0 0 798 847338 -38377 0
0 0 0 782 848120 -37595 0
0 0 0 759 848879 -36836 0
0 0 0 774 849653 -36062 0
0 0 0 773 850426 -35289 0
0 0 0 775 851201 -34514 0
0 0 0 777 851978 -33737 0
0 0 0 764 852742 -32973 0
0 0 0 760 853502 -32213 0
0 0 0 783 854285 -31430 0
0 0 0 788 855073 -30642 0
0 0 0 797 855870 -29845 0
0 0 0 811 856681 -29034 0
0 0 0 820 857501 -28214 0
0 0 0 800 858301 -27414 0
0 0 0 789 859090 -26625 0
0 0 0 799 859889 -25826 0
0 0 0 803 860692 -25023 0
0 0 0 808 861500 -24215 0
0 0 0 811 862311 -23404 0
0 0 0 802 863113 -22602 0
0 0 0 772 863885 -21830 0
0 0 0 789 864674 -21041 0
0 0 0 791 865465 -20250 0
0 0 0 800 866265 -19450 0
0 0 0 816 867081 -18634 0
0 0 0 813 867894 -17821 0
0 0 0 784 868678 -17037 0
0 0 0 792 869470 -16245 0
0 0 0 793 870263 -15452 0
0 0 0 787 871050 -14665 0
0 0 0 795 871845 -13870 0
0 0 0 767 872612 -13103 0
0 0 0 761 873373 -12342 0
0 0 0 773 874146 -11569 0
0 0 0 785 874931 -10784 0
0 0 0 795 875726 -9989 0
0 0 0 798 876524 -9191 0
0 0 0 774 877298 -8417 0
0 0 0 767 878065 -7650 0
0 0 0 765 878830 -6885 0
0 0 0 759 879589 -6126 0
0 0 0 755 880344 -5371 0
0 0 0 756 881100 -4615 0
0 0 0 754 881854 -3861 0
0 0 0 744 882598 -3117 0
0 0 0 735 883333 -2382 0
41 1 S102 748 884081 -1634 0
41 1 S102 759 884840 -875 0
41 1 S102 767 885607 -108 0
41 2 S102 777 886384 669 0
41 2 S102 769 887153 1438 0
41 2 S102 762 887915 2200 0
41 2 S102 785 888700 2985 0
41 2 S102 793 889493 3778 0
41 2 S102 799 890292 4577 0
41 2 S102 821 891113 5398 0
41 2 S102 797 891910 6195 0
41 2 S102 804 892714 6999 0
0 0 0 806 893520 -8790 0
0 0 0 803 894323 -7987 0
0 0 0 762 895085 -7225 0
0 0 0 774 895859 -6451 0
0 0 0 774 896633 -5677 0
0 0 0 784 897417 -4893 0
0 0 0 791 898208 -4102 0
0 0 0 781 898989 -3321 0
0 0 0 766 899755 -2555 0
42 1 S112 728 900483 -1827 0
42 1 S112 742 901225 -1085 0
42 1 S112 733 901958 -352 0
42 2 S112 731 902689 379 0
42 2 S112 725 903414 1104 0
42 2 S112 720 904134 1824 0
42 2 S112 728 904862 2552 0
42 2 S112 713 905575 3265 0
42 2 S112 718 906293 3983 0
42 2 S112 726 907019 4709 0
42 2 S112 734 907753 5443 0
42 2 S112 754 908507 6197 0
42 2 S112 771 909278 6968 0
0 0 0 767 910045 -10318 0
0 0 0 810 910855 -9508 0
0 0 0 830 911685 -8678 0
0 0 0 845 912530 -7833 0
0 0 0 861 913391 -6972 0
0 0 0 851 914242 -6121 0
0 0 0 834 915076 -5287 0
0 0 0 817 915893 -4470 0
0 0 0 789 916682 -3681 0
0 0 0 763 917445 -2918 0
0 0 0 759 918204 -2159 0
43 1 S116 759 918963 -1400 0
43 1 S116 763 919726 -637 0
43 2 S116 773 920499 136 0
43 2 S116 784 921283 920 0
43 2 S116 763 922046 1683 0
43 2 S116 749 922795 2432 0
43 2 S116 768 923563 3200 0
43 2 S116 793 924356 3993 0
43 2 S116 843 925199 4836 0
43 2 S116 917 926116 5753 0
43 2 S116 949 927065 6702 1
0 0 0 915 927980 -7453 0
0 0 0 932 928912 -6521 1
0 0 0 927 929839 -5594 1
0 0 0 907 930746 -4687 0
0 0 0 842 931588 -3845 0
0 0 0 835 932423 -3010 0
0 0 0 809 933232 -2201 0
44 1 S102 788 934020 -1413 0
44 1 S102 759 934779 -654 0
44 2 S102 753 935532 99 0
44 2 S102 751 936283 850 0
44 2 S102 752 937035 1602 0
44 2 S102 755 937790 2357 0
44 2 S102 762 938552 3119 0
44 2 S102 743 939295 3862 0
44 2 S102 765 940060 4627 0
44 2 S102 776 940836 5403 0
44 2 S102 794 941630 6197 0
44 2 S102 817 942447 7014 0
0 0 0 846 943293 -10310 0
0 0 0 832 944125 -9478 0
0 0 0 858 944983 -8620 0
0 0 0 876 945859 -7744 0
0 0 0 887 946746 -6857 0
0 0 0 877 947623 -5980 0
0 0 0 858 948481 -5122 0
0 0 0 807 949288 -4315 0
0 0 0 803 950091 -3512 0
0 0 0 790 950881 -2722 0
45 1 S116 783 951664 -1939 0
45 1 S116 784 952448 -1155 0
45 1 S116 763 953211 -392 0
45 2 S116 755 953966 363 0
45 2 S116 781 954747 1144 0
45 2 S116 796 955543 1940 0
45 2 S116 822 956365 2762 0
45 2 S116 853 957218 3615 0
45 2 S116 834 958052 4449 0
45 2 S116 863 958915 5312 0
45 2 S116 873 959788 6185 0
0 0 0 882 960670 -13540 0
0 0 0 878 961548 -12662 0
0 0 0 837 962385 -11825 0
0 0 0 852 963237 -10973 0
0 0 0 847 964084 -10126 0
0 0 0 844 964928 -9282 0
0 0 0 831 965759 -8451 0
0 0 0 827 966586 -7624 0
0 0 0 813 967399 -6811 0
0 0 0 775 968174 -6036 0
0 0 0 766 968940 -5270 0
0 0 0 772 969712 -4498 0
0 0 0 779 970491 -3719 0
0 0 0 794 971285 -2925 0
0 0 0 800 972085 -2125 0
46 1 S102 810 972895 -1315 0
46 1 S102 839 973734 -476 0
46 2 S102 853 974587 377 0
46 2 S102 861 975448 1238 0
46 2 S102 835 976283 2073 0
46 2 S102 851 977134 2924 0
46 2 S102 858 977992 3782 0
46 2 S102 870 978862 4652 0
46 2 S102 864 979726 5516 0
46 2 S102 831 980557 6347 0
0 0 0 848 981405 -10511 0
0 0 0 849 982254 -9662 0
0 0 0 844 983098 -8818 0
0 0 0 835 983933 -7983 0
0 0 0 819 984752 -7164 0
0 0 0 812 985564 -6352 0
0 0 0 805 986369 -5547 0
0 0 0 797 987166 -4750 0
0 0 0 775 987941 -3975 0
0 0 0 763 988704 -3212 0
0 0 0 776 989480 -2436 0
47 1 S112 782 990262 -1654 0
47 1 S112 794 991056 -860 0
47 1 S112 818 991874 -42 0
47 2 S112 830 992704 788 0
47 2 S112 804 993508 1592 0
47 2 S112 790 994298 2382 0
47 2 S112 808 995106 3190 0
47 2 S112 812 995918 4002 0
47 2 S112 820 996738 4822 0
47 2 S112 832 997570 5654 0
47 2 S112 810 998380 6464 0
0 0 0 813 999193 -12252 0
0 0 0 821 1000014 -11431 0
0 0 0 816 1000830 -10615 0
0 0 0 813 1001643 -9802 0
0 0 0 784 1002427 -9018 0
0 0 0 782 1003209 -8236 0
0 0 0 777 1003986 -7459 0
0 0 0 772 1004758 -6687 0
0 0 0 753 1005511 -5934 0
0 0 0 738 1006249 -5196 0
0 0 0 752 1007001 -4444 0
0 0 0 759 1007760 -3685 0
0 0 0 774 1008534 -2911 0
0 0 0 796 1009330 -2115 0
48 1 S116 810 1010140 -1305 0
48 1 S116 792 1010932 -513 0
48 2 S116 817 1011749 304 0
48 2 S116 817 1012566 1121 0
48 2 S116 820 1013386 1941 0
48 2 S116 817 1014203 2758 0
48 2 S116 801 1015004 3559 0
48 2 S116 826 1015830 4385 0
48 2 S116 831 1016661 5216 0
48 2 S116 842 1017503 6058 0
48 2 S116 828 1018331 6886 0
0 0 0 818 1019149 -7930 0
0 0 0 846 1019995 -7084 0
0 0 0 849 1020844 -6235 0
0 0 0 844 1021688 -5391 0
0 0 0 805 1022493 -4586 0
0 0 0 801 1023294 -3785 0
0 0 0 778 1024072 -3007 0
0 0 0 756 1024828 -2251 0
49 1 S112 729 1025557 -1522 0
49 1 S112 708 1026265 -814 0
49 1 S112 713 1026978 -101 0
49 2 S112 707 1027685 606 0
49 2 S112 712 1028397 1318 0
49 2 S112 718 1029115 2036 0
49 2 S112 717 1029832 2753 0
49 2 S112 757 1030589 3510 0
49 2 S112 783 1031372 4293 0
49 2 S112 814 1032186 5107 0
49 2 S112 825 1033011 5932 0
49 2 S112 809 1033820 6741 0
0 0 0 825 1034645 -10404 0
0 0 0 829 1035474 -9575 0
0 0 0 830 1036304 -8745 0
0 0 0 798 1037102 -7947 0
0 0 0 770 1037872 -7177 0
0 0 0 777 1038649 -6400 0
0 0 0 774 1039423 -5626 0
0 0 0 773 1040196 -4853 0
0 0 0 753 1040949 -4100 0
0 0 0 754 1041703 -3346 0
0 0 0 767 1042470 -2579 0
50 1 S106 776 1043246 -1803 0
50 1 S106 795 1044041 -1008 0
50 1 S106 784 1044825 -224 0
50 2 S106 788 1045613 564 0
50 2 S106 807 1046420 1371 0
50 2 S106 817 1047237 2188 0
50 2 S106 817 1048054 3005 0
50 2 S106 821 1048875 3826 0
50 2 S106 813 1049688 4639 0
50 2 S106 797 1050485 5436 0
50 2 S106 764 1051249 6200 0
50 2 S106 767 1052016 6967 0
0 0 0 762 1052778 -7109 0
0 0 0 765 1053543 -6344 0
0 0 0 764 1054307 -5580 0
0 0 0 752 1055059 -4828 0
0 0 0 754 1055813 -4074 0
0 0 0 766 1056579 -3308 0
0 0 0 775 1057354 -2533 0
51 1 S112 769 1058123 -1764 0
51 1 S112 761 1058884 -1003 0
51 1 S112 794 1059678 -209 0
51 2 S112 826 1060504 617 0
51 2 S112 851 1061355 1468 0
51 2 S112 856 1062211 2324 0
51 2 S112 825 1063036 3149 0
51 2 S112 860 1063896 4009 0
51 2 S112 885 1064781 4894 0
51 2 S112 898 1065679 5792 0
51 2 S112 893 1066572 6685 0
0 0 0 837 1067409 -8211 0
0 0 0 856 1068265 -7355 0
0 0 0 821 1069086 -6534 0
0 0 0 805 1069891 -5729 0
0 0 0 801 1070692 -4928 0
0 0 0 783 1071475 -4145 0
0 0 0 780 1072255 -3365 0
0 0 0 768 1073023 -2597 0
52 1 S116 729 1073752 -1868 0
52 1 S116 698 1074450 -1170 0
52 1 S116 705 1075155 -465 0
52 2 S116 724 1075879 259 0
52 2 S116 766 1076645 1025 0
52 2 S116 851 1077496 1876 0
52 2 S116 922 1078418 2798 1
52 2 S116 961 1079379 3759 1
52 2 S116 989 1080368 4748 1
52 2 S116 981 1081349 5729 1
52 2 S116 948 1082297 6677 1
0 0 0 875 1083172 -11049 0
0 0 0 867 1084039 -10182 0
0 0 0 848 1084887 -9334 0
0 0 0 839 1085726 -8495 0
0 0 0 835 1086561 -7660 0
0 0 0 836 1087397 -6824 0
0 0 0 828 1088225 -5996 0
0 0 0 805 1089030 -5191 0
0 0 0 759 1089789 -4432 0
0 0 0 732 1090521 -3700 0
0 0 0 739 1091260 -2961 0
0 0 0 744 1092004 -2217 0
53 1 S106 759 1092763 -1458 0
53 1 S106 788 1093551 -670 0
53 2 S106 842 1094393 172 0
53 2 S106 857 1095250 1029 0
53 2 S106 851 1096101 1880 0
53 2 S106 850 1096951 2730 0
53 2 S106 818 1097769 3548 0
53 2 S106 797 1098566 4345 0
53 2 S106 775 1099341 5120 0
53 2 S106 752 1100093 5872 0
53 2 S106 739 1100832 6611 0
0 0 0 723 1101555 -7752 0
0 0 0 711 1102266 -7041 0
0 0 0 704 1102970 -6337 0
0 0 0 715 1103685 -5622 0
0 0 0 731 1104416 -4891 0
0 0 0 761 1105177 -4130 0
0 0 0 796 1105973 -3334 0
0 0 0 844 1106817 -2490 0
54 1 S102 874 1107691 -1616 0
54 1 S102 852 1108543 -764 0
54 2 S102 823 1109366 59 0
54 2 S102 790 1110156 849 0
54 2 S102 765 1110921 1614 0
54 2 S102 743 1111664 2357 0
54 2 S102 742 1112406 3099 0
54 2 S102 749 1113155 3848 0
54 2 S102 779 1113934 4627 0
54 2 S102 831 1114765 5458 0
54 2 S102 892 1115657 6350 0
0 0 0 955 1116612 -12424 1
0 0 0 981 1117593 -11443 1
0 0 0 954 1118547 -10489 1
0 0 0 943 1119490 -9546 1
0 0 0 915 1120405 -8631 0
0 0 0 879 1121284 -7752 0
0 0 0 842 1122126 -6910 0
0 0 0 791 1122917 -6119 0
0 0 0 766 1123683 -5353 0
0 0 0 767 1124450 -4586 0
0 0 0 764 1125214 -3822 0
0 0 0 770 1125984 -3052 0
0 0 0 773 1126757 -2279 0
55 1 S106 755 1127512 -1524 0
55 1 S106 753 1128265 -771 0
55 1 S106 739 1129004 -32 0
55 2 S106 744 1129748 712 0
55 2 S106 750 1130498 1462 0
55 2 S106 764 1131262 2226 0
55 2 S106 786 1132048 3012 0
55 2 S106 805 1132853 3817 0
55 2 S106 791 1133644 4608 0
55 2 S106 821 1134465 5429 0
55 2 S106 827 1135292 6256 0
0 0 0 826 1136118 -7009 0
0 0 0 817 1136935 -6192 0
0 0 0 793 1137728 -5399 0
0 0 0 809 1138537 -4590 0
0 0 0 806 1139343 -3784 0
0 0 0 801 1140144 -2983 0
0 0 0 791 1140935 -2192 0
56 1 S116 787 1141722 -1405 0
56 1 S116 754 1142476 -651 0
56 2 S116 736 1143212 85 0
56 2 S116 750 1143962 835 0
56 2 S116 758 1144720 1593 0
56 2 S116 779 1145499 2372 0
56 2 S116 815 1146314 3187 0
56 2 S116 817 1147131 4004 0
56 2 S116 860 1147991 4864 0
56 2 S116 887 1148878 5751 0
56 2 S116 895 1149773 6646 0
0 0 0 896 1150669 -6666 0
0 0 0 850 1151519 -5816 0
0 0 0 856 1152375 -4960 0
0 0 0 833 1153208 -4127 0
0 0 0 817 1154025 -3310 0
0 0 0 792 1154817 -2518 0
57 1 S106 780 1155597 -1738 0
57 1 S106 787 1156384 -951 0
57 1 S106 791 1157175 -160 0
57 2 S106 804 1157979 644 0
57 2 S106 817 1158796 1461 0
57 2 S106 797 1159593 2258 0
57 2 S106 821 1160414 3079 0
57 2 S106 820 1161234 3899 0
57 2 S106 820 1162054 4719 0
57 2 S106 778 1162832 5497 0
57 2 S106 799 1163631 6296 0
0 0 0 786 1164417 -8701 0
0 0 0 773 1165190 -7928 0
0 0 0 759 1165949 -7169 0
0 0 0 725 1166674 -6444 0
0 0 0 742 1167416 -5702 0
0 0 0 734 1168150 -4968 0
0 0 0 729 1168879 -4239 0
0 0 0 710 1169589 -3529 0
0 0 0 710 1170299 -2819 0
0 0 0 727 1171026 -2092 0
58 1 S102 743 1171769 -1349 0
58 1 S102 765 1172534 -584 0
58 2 S102 796 1173330 212 0
58 2 S102 825 1174155 1037 0
58 2 S102 805 1174960 1842 0
58 2 S102 837 1175797 2679 0
58 2 S102 841 1176638 3520 0
58 2 S102 836 1177474 4356 0
58 2 S102 824 1178298 5180 0
58 2 S102 787 1179085 5967 0
58 2 S102 795 1179880 6762 0
0 0 0 793 1180673 -7531 0
0 0 0 798 1181471 -6733 0
0 0 0 800 1182271 -5933 0
0 0 0 811 1183082 -5122 0
0 0 0 774 1183856 -4348 0
0 0 0 765 1184621 -3583 0
0 0 0 770 1185391 -2813 0
0 0 0 772 1186163 -2041 0
59 1 S112 781 1186944 -1260 0
59 1 S112 773 1187717 -487 0
59 2 S112 754 1188471 267 0
59 2 S112 782 1189253 1049 0
59 2 S112 795 1190048 1844 0
59 2 S112 811 1190859 2655 0
59 2 S112 812 1191671 3467 0
59 2 S112 793 1192464 4260 0
59 2 S112 826 1193290 5086 0
59 2 S112 832 1194122 5918 0
59 2 S112 832 1194954 6750 0
0 0 0 798 1195752 -7605 0
0 0 0 810 1196562 -6795 0
0 0 0 801 1197363 -5994 0
0 0 0 799 1198162 -5195 0
0 0 0 791 1198953 -4404 0
0 0 0 782 1199735 -3622 0
0 0 0 756 1200491 -2866 0
0 0 0 766 1201257 -2100 0
60 1 S102 771 1202028 -1329 0
60 1 S102 781 1202809 -548 0
60 2 S102 795 1203604 247 0
60 2 S102 802 1204406 1049 0
60 2 S102 787 1205193 1836 0
60 2 S102 758 1205951 2594 0
60 2 S102 772 1206723 3366 0
60 2 S102 767 1207490 4133 0
60 2 S102 779 1208269 4912 0
60 2 S102 794 1209063 5706 0
60 2 S102 797 1209860 6503 0
0 0 0 793 1210653 -12763 0
0 0 0 783 1211436 -11980 0
0 0 0 759 1212195 -11221 0
0 0 0 731 1212926 -10490 0
0 0 0 736 1213662 -9754 0
0 0 0 740 1214402 -9014 0
0 0 0 736 1215138 -8278 0
0 0 0 726 1215864 -7552 0
0 0 0 720 1216584 -6832 0
0 0 0 710 1217294 -6122 0
0 0 0 714 1218008 -5408 0
0 0 0 717 1218725 -4691 0
0 0 0 722 1219447 -3969 0
0 0 0 731 1220178 -3238 0
0 0 0 741 1220919 -2497 0
61 1 S106 749 1221668 -1748 0
61 1 S106 751 1222419 -997 0
61 1 S106 732 1223151 -265 0
61 2 S106 715 1223866 450 0
61 2 S106 727 1224593 1177 0
61 2 S106 725 1225318 1902 0
61 2 S106 732 1226050 2634 0
61 2 S106 746 1226796 3380 0
61 2 S106 768 1227564 4148 0
61 2 S106 760 1228324 4908 0
61 2 S106 780 1229104 5688 0
61 2 S106 798 1229902 6486 0
0 0 0 815 1230717 -6708 0
0 0 0 821 1231538 -5887 0
0 0 0 825 1232363 -5062 0
0 0 0 792 1233155 -4270 0
0 0 0 794 1233949 -3476 0
0 0 0 787 1234736 -2689 0
62 1 S112 783 1235519 -1906 0
62 1 S112 775 1236294 -1131 0
62 1 S112 748 1237042 -383 0
62 2 S112 763 1237805 380 0
62 2 S112 764 1238569 1144 0
62 2 S112 772 1239341 1916 0
62 2 S112 788 1240129 2704 0
62 2 S112 797 1240926 3501 0
62 2 S112 775 1241701 4276 0
62 2 S112 749 1242450 5025 0
62 2 S112 774 1243224 5799 0
62 2 S112 779 1244003 6578 0
0 0 0 799 1244802 -12368 0
0 0 0 821 1245623 -11547 0
0 0 0 837 1246460 -10710 0
0 0 0 821 1247281 -9889 0
0 0 0 825 1248106 -9064 0
0 0 0 833 1248939 -8231 0
0 0 0 830 1249769 -7401 0
0 0 0 834 1250603 -6567 0
0 0 0 811 1251414 -5756 0
0 0 0 783 1252197 -4973 0
0 0 0 790 1252987 -4183 0
0 0 0 776 1253763 -3407 0
0 0 0 774 1254537 -2633 0
63 1 S102 750 1255287 -1883 0
63 1 S102 760 1256047 -1123 0
63 1 S102 772 1256819 -351 0
63 2 S102 785 1257604 434 0
63 2 S102 818 1258422 1252 0
63 2 S102 849 1259271 2101 0
63 2 S102 864 1260135 2965 0
63 2 S102 826 1260961 3791 0
63 2 S102 836 1261797 4627 0
63 2 S102 823 1262620 5450 0
63 2 S102 803 1263423 6253 0
0 0 0 786 1264209 -9340 0
0 0 0 775 1264984 -8565 0
0 0 0 759 1265743 -7806 0
0 0 0 725 1266468 -7081 0
0 0 0 723 1267191 -6358 0
0 0 0 714 1267905 -5644 0
0 0 0 710 1268615 -4934 0
0 0 0 690 1269305 -4244 0
0 0 0 688 1269993 -3556 0
0 0 0 698 1270691 -2858 0
0 0 0 701 1271392 -2157 0
64 1 S112 707 1272099 -1450 0
64 1 S112 704 1272803 -746 0
64 1 S112 680 1273483 -66 0
64 2 S112 698 1274181 632 0
64 2 S112 709 1274890 1341 0
64 2 S112 713 1275603 2054 0
64 2 S112 720 1276323 2774 0
64 2 S112 712 1277035 3486 0
64 2 S112 740 1277775 4226 0
64 2 S112 760 1278535 4986 0
64 2 S112 792 1279327 5778 0
64 2 S112 828 1280155 6606 0
0 0 0 848 1281003 -8196 0
0 0 0 861 1281864 -7335 0
0 0 0 844 1282708 -6491 0
0 0 0 827 1283535 -5664 0
0 0 0 810 1284345 -4854 0
0 0 0 787 1285132 -4067 0
0 0 0 760 1285892 -3307 0
0 0 0 727 1286619 -2580 0
65 1 S106 722 1287341 -1858 0
65 1 S106 717 1288058 -1141 0
65 1 S106 716 1288774 -425 0
65 2 S106 728 1289502 303 0
65 2 S106 748 1290250 1051 0
65 2 S106 753 1291003 1804 0
65 2 S106 759 1291762 2563 0
65 2 S106 798 1292560 3361 0
65 2 S106 817 1293377 4178 0
65 2 S106 833 1294210 5011 0
65 2 S106 817 1295027 5828 0
65 2 S106 776 1295803 6604 0
0 0 0 783 1296586 -7733 0
0 0 0 768 1297354 -6965 0
0 0 0 764 1298118 -6201 0
0 0 0 757 1298875 -5444 0
0 0 0 761 1299636 -4683 0
0 0 0 734 1300370 -3949 0
0 0 0 745 1301115 -3204 0
0 0 0 733 1301848 -2471 0
66 1 S116 723 1302571 -1748 0
66 1 S116 706 1303277 -1042 0
66 1 S116 687 1303964 -355 0
66 2 S116 698 1304662 343 0
66 2 S116 704 1305366 1047 0
66 2 S116 728 1306094 1775 0
66 2 S116 786 1306880 2561 0
66 2 S116 812 1307692 3373 0
66 2 S116 869 1308561 4242 0
66 2 S116 890 1309451 5132 0
66 2 S116 908 1310359 6040 0
66 2 S116 863 1311222 6903 0
0 0 0 842 1312064 -11552 0
0 0 0 782 1312846 -10770 0
0 0 0 784 1313630 -9986 0
0 0 0 763 1314393 -9223 0
0 0 0 755 1315148 -8468 0
0 0 0 751 1315899 -7717 0
0 0 0 747 1316646 -6970 0
0 0 0 747 1317393 -6223 0
0 0 0 740 1318133 -5483 0
0 0 0 704 1318837 -4779 0
0 0 0 726 1319563 -4053 0
0 0 0 710 1320273 -3343 0
0 0 0 706 1320979 -2637 0
67 1 S102 706 1321685 -1931 0
67 1 S102 715 1322400 -1216 0
67 1 S102 758 1323158 -458 0
67 2 S102 802 1323960 344 0
67 2 S102 844 1324804 1188 0
67 2 S102 862 1325666 2050 0
67 2 S102 849 1326515 2899 0
67 2 S102 876 1327391 3775 0
67 2 S102 888 1328279 4663 0
67 2 S102 895 1329174 5558 0
67 2 S102 895 1330069 6453 0
0 0 0 886 1330955 -7433 0
0 0 0 877 1331832 -6556 0
0 0 0 866 1332698 -5690 0
0 0 0 843 1333541 -4847 0
0 0 0 826 1334367 -4021 0
0 0 0 812 1335179 -3209 0
0 0 0 801 1335980 -2408 0
68 1 S106 798 1336778 -1610 0
68 1 S106 794 1337572 -816 0
68 1 S106 786 1338358 -30 0
68 2 S106 786 1339144 756 0
68 2 S106 762 1339906 1518 0
68 2 S106 795 1340701 2313 0
68 2 S106 785 1341486 3098 0
68 2 S106 782 1342268 3880 0
68 2 S106 753 1343021 4633 0
68 2 S106 740 1343761 5373 0
68 2 S106 761 1344522 6134 0
68 2 S106 774 1345296 6908 0
0 0 0 792 1346088 -11099 0
0 0 0 806 1346894 -10293 0
0 0 0 781 1347675 -9512 0
0 0 0 803 1348478 -8709 0
0 0 0 799 1349277 -7910 0
0 0 0 790 1350067 -7120 0
0 0 0 763 1350830 -6357 0
0 0 0 775 1351605 -5582 0
0 0 0 768 1352373 -4814 0
0 0 0 773 1353146 -4041 0
0 0 0 762 1353908 -3279 0
0 0 0 766 1354674 -2513 0
69 1 S102 771 1355445 -1742 0
69 1 S102 771 1356216 -971 0
69 1 S102 773 1356989 -198 0
69 2 S102 750 1357739 552 0
69 2 S102 745 1358484 1297 0
69 2 S102 751 1359235 2048 0
69 2 S102 749 1359984 2797 0
69 2 S102 760 1360744 3557 0
69 2 S102 779 1361523 4336 0
69 2 S102 748 1362271 5084 0
69 2 S102 725 1362996 5809 0
69 2 S102 722 1363718 6531 0
0 0 0 745 1364463 -11325 0
0 0 0 755 1365218 -10570 0
0 0 0 786 1366004 -9784 0
0 0 0 821 1366825 -8963 0
0 0 0 860 1367685 -8103 0
0 0 0 890 1368575 -7213 0
0 0 0 892 1369467 -6321 0
0 0 0 856 1370323 -5465 0
0 0 0 807 1371130 -4658 0
0 0 0 777 1371907 -3881 0
0 0 0 765 1372672 -3116 0
0 0 0 755 1373427 -2361 0
70 1 S112 754 1374181 -1607 0
70 1 S112 754 1374935 -853 0
70 1 S112 756 1375691 -97 0
70 2 S112 762 1376453 665 0
70 2 S112 764 1377217 1429 0
70 2 S112 773 1377990 2202 0
70 2 S112 776 1378766 2978 0
70 2 S112 779 1379545 3757 0
70 2 S112 781 1380326 4538 0
70 2 S112 790 1381116 5328 0
70 2 S112 805 1381921 6133 0
70 2 S112 816 1382737 6949 0
0 0 0 808 1383545 -12121 0
0 0 0 773 1384318 -11348 0
0 0 0 791 1385109 -10557 0
0 0 0 783 1385892 -9774 0
0 0 0 798 1386690 -8976 0
0 0 0 807 1387497 -8169 0
0 0 0 811 1388308 -7358 0
0 0 0 817 1389125 -6541 0
0 0 0 807 1389932 -5734 0
0 0 0 781 1390713 -4953 0
0 0 0 800 1391513 -4153 0
0 0 0 795 1392308 -3358 0
0 0 0 789 1393097 -2569 0
71 1 S116 789 1393886 -1780 0
71 1 S116 787 1394673 -993 0
71 1 S116 780 1395453 -213 0
71 2 S116 766 1396219 553 0
71 2 S116 770 1396989 1323 0
71 2 S116 760 1397749 2083 0
71 2 S116 730 1398479 2813 0
71 2 S116 742 1399221 3555 0
71 2 S116 738 1399959 4293 0
71 2 S116 742 1400701 5035 0
71 2 S116 723 1401424 5758 0
71 2 S116 741 1402165 6499 0
0 0 0 730 1402895 -10062 0
0 0 0 744 1403639 -9318 0
0 0 0 746 1404385 -8572 0
0 0 0 747 1405132 -7825 0
0 0 0 746 1405878 -7079 0
0 0 0 740 1406618 -6339 0
0 0 0 717 1407335 -5622 0
0 0 0 707 1408042 -4915 0
0 0 0 703 1408745 -4212 0
0 0 0 699 1409444 -3513 0
0 0 0 694 1410138 -2819 0
0 0 0 680 1410818 -2139 0
72 1 S102 695 1411513 -1444 0
72 1 S102 700 1412213 -744 0
72 1 S102 712 1412925 -32 0
72 2 S102 732 1413657 700 0
72 2 S102 748 1414405 1448 0
72 2 S102 716 1415121 2164 0
72 2 S102 738 1415859 2902 0
72 2 S102 727 1416586 3629 0
72 2 S102 714 1417300 4343 0
72 2 S102 712 1418012 5055 0
72 2 S102 687 1418699 5742 0
72 2 S102 682 1419381 6424 0
0 0 0 676 1420057 -7539 0
0 0 0 670 1420727 -6869 0
0 0 0 678 1421405 -6191 0
0 0 0 683 1422088 -5508 0
0 0 0 710 1422798 -4798 0
0 0 0 747 1423545 -4051 0
0 0 0 781 1424326 -3270 0
0 0 0 788 1425114 -2482 0
73 1 S116 778 1425892 -1704 0
73 1 S116 782 1426674 -922 0
73 1 S116 783 1427457 -139 0
73 2 S116 782 1428239 643 0
73 2 S116 783 1429022 1426 0
73 2 S116 761 1429783 2187 0
73 2 S116 744 1430527 2931 0
73 2 S116 715 1431242 3646 0
73 2 S116 718 1431960 4364 0
73 2 S116 695 1432655 5059 0
73 2 S116 686 1433341 5745 0
73 2 S116 681 1434022 6426 0
0 0 0 674 1434696 -10456 0
0 0 0 674 1435370 -9782 0
0 0 0 666 1436036 -9116 0
0 0 0 669 1436705 -8447 0
0 0 0 675 1437380 -7772 0
0 0 0 695 1438075 -7077 0
0 0 0 711 1438786 -6366 0
0 0 0 739 1439525 -5627 0
0 0 0 754 1440279 -4873 0
0 0 0 766 1441045 -4107 0
0 0 0 777 1441822 -3330 0
0 0 0 787 1442609 -2543 0
74 1 S106 793 1443402 -1750 0
74 1 S106 796 1444198 -954 0
74 1 S106 791 1444989 -163 0
74 2 S106 791 1445780 628 0
74 2 S106 787 1446567 1415 0
74 2 S106 774 1447341 2189 0
74 2 S106 771 1448112 2960 0
74 2 S106 772 1448884 3732 0
74 2 S106 776 1449660 4508 0
74 2 S106 774 1450434 5282 0
74 2 S106 780 1451214 6062 0
74 2 S106 786 1452000 6848 0
0 0 0 776 1452776 -7678 0
0 0 0 752 1453528 -6926 0
0 0 0 730 1454258 -6196 0
0 0 0 744 1455002 -5452 0
0 0 0 748 1455750 -4704 0
0 0 0 752 1456502 -3952 0
0 0 0 751 1457253 -3201 0
0 0 0 753 1458006 -2448 0
75 1 S112 745 1458751 -1703 0
75 1 S112 743 1459494 -960 0
75 1 S112 742 1460236 -218 0
75 2 S112 727 1460963 509 0
75 2 S112 714 1461677 1223 0
75 2 S112 701 1462378 1924 0
75 2 S112 689 1463067 2613 0
75 2 S112 706 1463773 3319 0
75 2 S112 715 1464488 4034 0
75 2 S112 734 1465222 4768 0
75 2 S112 723 1465945 5491 0
75 2 S112 735 1466680 6226 0
75 2 S112 714 1467394 6940 0
0 0 0 741 1468135 -7223 0
0 0 0 743 1468878 -6480 0
0 0 0 743 1469621 -5737 0
0 0 0 731 1470352 -5006 0
0 0 0 747 1471099 -4259 0
0 0 0 748 1471847 -3511 0
0 0 0 748 1472595 -2763 0
0 0 0 736 1473331 -2027 0
76 1 S116 723 1474054 -1304 0
76 1 S116 708 1474762 -596 0
76 2 S116 706 1475468 110 0
76 2 S116 706 1476174 816 0
76 2 S116 710 1476884 1526 0
76 2 S116 722 1477606 2248 0
76 2 S116 739 1478345 2987 0
76 2 S116 768 1479113 3755 0
76 2 S116 797 1479910 4552 0
76 2 S116 816 1480726 5368 0
76 2 S116 831 1481557 6199 0
0 0 0 831 1482388 -6647 0
0 0 0 838 1483226 -5809 0
0 0 0 827 1484053 -4982 0
0 0 0 814 1484867 -4168 0
0 0 0 796 1485663 -3372 0
0 0 0 780 1486443 -2592 0
77 1 S106 790 1487233 -1802 0
77 1 S106 776 1488009 -1026 0
77 1 S106 777 1488786 -249 0
77 2 S106 775 1489561 526 0
77 2 S106 771 1490332 1297 0
77 2 S106 762 1491094 2059 0
77 2 S106 766 1491860 2825 0
77 2 S106 790 1492650 3615 0
77 2 S106 805 1493455 4420 0
77 2 S106 821 1494276 5241 0
77 2 S106 832 1495108 6073 0
77 2 S106 830 1495938 6903 0
0 0 0 817 1496755 -9025 0
0 0 0 825 1497580 -8200 0
0 0 0 816 1498396 -7384 0
0 0 0 818 1499214 -6566 0
0 0 0 808 1500022 -5758 0
0 0 0 797 1500819 -4961 0
0 0 0 789 1501608 -4172 0
0 0 0 764 1502372 -3408 0
0 0 0 745 1503117 -2663 0
78 1 S112 752 1503869 -1911 0
78 1 S112 748 1504617 -1163 0
78 1 S112 759 1505376 -404 0
78 2 S112 792 1506168 388 0
78 2 S112 824 1506992 1212 0
78 2 S112 855 1507847 2067 0
78 2 S112 845 1508692 2912 0
78 2 S112 802 1509494 3714 0
78 2 S112 818 1510312 4532 0
78 2 S112 816 1511128 5348 0
78 2 S112 815 1511943 6163 0
78 2 S112 815 1512758 6978 0
0 0 0 818 1513576 -10722 0
0 0 0 776 1514352 -9946 0
0 0 0 780 1515132 -9166 0
0 0 0 771 1515903 -8395 0
0 0 0 762 1516665 -7633 0
0 0 0 757 1517422 -6876 0
0 0 0 721 1518143 -6155 0
0 0 0 737 1518880 -5418 0
0 0 0 748 1519628 -4670 0
0 0 0 771 1520399 -3899 0
0 0 0 783 1521182 -3116 0
0 0 0 755 1521937 -2361 0
79 1 S102 751 1522688 -1610 0
79 1 S102 763 1523451 -847 0
79 1 S102 762 1524213 -85 0
79 2 S102 762 1524975 677 0
79 2 S102 756 1525731 1433 0
79 2 S102 749 1526480 2182 0
79 2 S102 735 1527215 2917 0
79 2 S102 738 1527953 3655 0
79 2 S102 736 1528689 4391 0
79 2 S102 734 1529423 5125 0
79 2 S102 733 1530156 5858 0
79 2 S102 731 1530887 6589 0
0 0 0 731 1531618 -7816 0
0 0 0 719 1532337 -7097 0
0 0 0 734 1533071 -6363 0
0 0 0 741 1533812 -5622 0
0 0 0 755 1534567 -4867 0
0 0 0 763 1535330 -4104 0
0 0 0 768 1536098 -3336 0
0 0 0 765 1536863 -2571 0
80 1 S116 745 1537608 -1826 0
80 1 S116 739 1538347 -1087 0
80 1 S116 738 1539085 -349 0
80 2 S116 730 1539815 381 0
80 2 S116 728 1540543 1109 0
80 2 S116 729 1541272 1838 0
80 2 S116 730 1542002 2568 0
80 2 S116 706 1542708 3274 0
80 2 S116 707 1543415 3981 0
80 2 S116 710 1544125 4691 0
80 2 S116 718 1544843 5409 0
80 2 S116 717 1545560 6126 0
80 2 S116 697 1546257 6823 0
