T_0143
BeatCount Mean SD BeatCountNoOutliers MeanNoOutliers SDNoOutliers
2003 767,156265601598 73,6461356158096 1961 761,948495665477 64,9170892709039

Trial TrialStatus Trialtype IBI AbsPosition RelPosition Outlier
0 0 0 844 924 -14947 0
0 0 0 766 1690 -14181 0
0 0 0 690 2380 -13491 0
0 0 0 670 3050 -12821 0
0 0 0 673 3723 -12148 0
0 0 0 733 4456 -11415 0
0 0 0 764 5220 -10651 0
0 0 0 805 6025 -9846 0
0 0 0 745 6770 -9101 0
0 0 0 765 7535 -8336 0
0 0 0 830 8365 -7506 0
0 0 0 850 9215 -6656 0
0 0 0 806 10021 -5850 0
0 0 0 760 10781 -5090 0
0 0 0 695 11476 -4395 0
0 0 0 660 12136 -3735 0
0 0 0 661 12797 -3074 0
0 0 0 747 13544 -2327 0
1 1 S112 1144 14688 -1183 1
1 1 S112 1060 15748 -123 1
1 2 S112 983 16731 860 1
1 2 S112 941 17672 1801 0
1 2 S112 886 18558 2687 0
1 2 S112 829 19387 3516 0
1 2 S112 790 20177 4306 0
1 2 S112 776 20953 5082 0
1 2 S112 796 21749 5878 0
1 2 S112 832 22581 6710 0
0 0 0 836 23417 -11105 0
0 0 0 842 24259 -10263 0
0 0 0 822 25081 -9441 0
0 0 0 802 25883 -8639 0
0 0 0 773 26656 -7866 0
0 0 0 777 27433 -7089 0
0 0 0 756 28189 -6333 0
0 0 0 759 28948 -5574 0
0 0 0 787 29735 -4787 0
0 0 0 791 30526 -3996 0
0 0 0 782 31308 -3214 0
0 0 0 742 32050 -2472 0
2 1 S102 744 32794 -1728 0
2 1 S102 756 33550 -972 0
2 1 S102 812 34362 -160 0
2 2 S102 819 35181 659 0
2 2 S102 792 35973 1451 0
2 2 S102 803 36776 2254 0
2 2 S102 802 37578 3056 0
2 2 S102 832 38410 3888 0
2 2 S102 840 39250 4728 0
2 2 S102 779 40029 5507 0
2 2 S102 772 40801 6279 0
0 0 0 789 41590 -8118 0
0 0 0 815 42405 -7303 0
0 0 0 819 43224 -6484 0
0 0 0 756 43980 -5728 0
0 0 0 779 44759 -4949 0
0 0 0 792 45551 -4157 0
0 0 0 833 46384 -3324 0
0 0 0 818 47202 -2506 0
3 1 S116 771 47973 -1735 0
3 1 S116 766 48739 -969 0
3 1 S116 785 49524 -184 0
3 2 S116 781 50305 597 0
3 2 S116 807 51112 1404 0
3 2 S116 774 51886 2178 0
3 2 S116 770 52656 2948 0
3 2 S116 746 53402 3694 0
3 2 S116 750 54152 4444 0
3 2 S116 730 54882 5174 0
3 2 S116 743 55625 5917 0
3 2 S116 792 56417 6709 0
0 0 0 834 57251 -12086 0
0 0 0 824 58075 -11262 0
0 0 0 804 58879 -10458 0
0 0 0 839 59718 -9619 0
0 0 0 856 60574 -8763 0
0 0 0 783 61357 -7980 0
0 0 0 724 62081 -7256 0
0 0 0 699 62780 -6557 0
0 0 0 716 63496 -5841 0
0 0 0 773 64269 -5068 0
0 0 0 849 65118 -4219 0
0 0 0 833 65951 -3386 0
0 0 0 833 66784 -2553 0
4 1 S106 833 67617 -1720 0
4 1 S106 796 68413 -924 0
4 1 S106 741 69154 -183 0
4 2 S106 739 69893 556 0
4 2 S106 749 70642 1305 0
4 2 S106 777 71419 2082 0
4 2 S106 745 72164 2827 0
4 2 S106 755 72919 3582 0
4 2 S106 759 73678 4341 0
4 2 S106 778 74456 5119 0
4 2 S106 751 75207 5870 0
4 2 S106 760 75967 6630 0
0 0 0 799 76766 -6944 0
0 0 0 835 77601 -6109 0
0 0 0 798 78399 -5311 0
0 0 0 763 79162 -4548 0
0 0 0 725 79887 -3823 0
0 0 0 740 80627 -3083 0
0 0 0 718 81345 -2365 0
5 1 S116 699 82044 -1666 0
5 1 S116 705 82749 -961 0
5 1 S116 737 83486 -224 0
5 2 S116 804 84290 580 0
5 2 S116 814 85104 1394 0
5 2 S116 772 85876 2166 0
5 2 S116 749 86625 2915 0
5 2 S116 745 87370 3660 0
5 2 S116 742 88112 4402 0
5 2 S116 725 88837 5127 0
5 2 S116 727 89564 5854 0
5 2 S116 698 90262 6552 0
0 0 0 682 90944 -10555 0
0 0 0 708 91652 -9847 0
0 0 0 828 92480 -9019 0
0 0 0 983 93463 -8036 1
0 0 0 951 94414 -7085 0
0 0 0 822 95236 -6263 0
0 0 0 812 96048 -5451 0
0 0 0 776 96824 -4675 0
0 0 0 760 97584 -3915 0
0 0 0 740 98324 -3175 0
0 0 0 729 99053 -2446 0
6 1 S106 748 99801 -1698 0
6 1 S106 787 100588 -911 0
6 1 S106 776 101364 -135 0
6 2 S106 797 102161 662 0
6 2 S106 821 102982 1483 0
6 2 S106 852 103834 2335 0
6 2 S106 849 104683 3184 0
6 2 S106 845 105528 4029 0
6 2 S106 769 106297 4798 0
6 2 S106 729 107026 5527 0
6 2 S106 698 107724 6225 0
6 2 S106 713 108437 6938 0
0 0 0 960 109397 -10669 1
0 0 0 1058 110455 -9611 1
0 0 0 956 111411 -8655 0
0 0 0 854 112265 -7801 0
0 0 0 840 113105 -6961 0
0 0 0 816 113921 -6145 0
0 0 0 756 114677 -5389 0
0 0 0 712 115389 -4677 0
0 0 0 715 116104 -3962 0
0 0 0 724 116828 -3238 0
0 0 0 749 117577 -2489 0
7 1 S102 725 118302 -1764 0
7 1 S102 728 119030 -1036 0
7 1 S102 736 119766 -300 0
7 2 S102 746 120512 446 0
7 2 S102 746 121258 1192 0
7 2 S102 745 122003 1937 0
7 2 S102 721 122724 2658 0
7 2 S102 730 123454 3388 0
7 2 S102 733 124187 4121 0
7 2 S102 736 124923 4857 0
7 2 S102 712 125635 5569 0
7 2 S102 722 126357 6291 0
7 2 S102 732 127089 7023 0
0 0 0 756 127845 -8916 0
0 0 0 783 128628 -8133 0
0 0 0 749 129377 -7384 0
0 0 0 776 130153 -6608 0
0 0 0 729 130882 -5879 0
0 0 0 712 131594 -5167 0
0 0 0 689 132283 -4478 0
0 0 0 676 132959 -3802 0
0 0 0 677 133636 -3125 0
0 0 0 726 134362 -2399 0
8 1 S112 713 135075 -1686 0
8 1 S112 699 135774 -987 0
8 1 S112 691 136465 -296 0
8 2 S112 691 137156 395 0
8 2 S112 702 137858 1097 0
8 2 S112 677 138535 1774 0
8 2 S112 657 139192 2431 0
8 2 S112 662 139854 3093 0
8 2 S112 664 140518 3757 0
8 2 S112 677 141195 4434 0
8 2 S112 719 141914 5153 0
8 2 S112 713 142627 5866 0
8 2 S112 685 143312 6551 0
0 0 0 661 143973 -6017 0
0 0 0 641 144614 -5376 0
0 0 0 627 145241 -4749 0
0 0 0 616 145857 -4133 0
0 0 0 622 146479 -3511 0
0 0 0 646 147125 -2865 0
0 0 0 659 147784 -2206 0
9 1 S116 670 148454 -1536 0
9 1 S116 666 149120 -870 0
9 1 S116 768 149888 -102 0
9 2 S116 891 150779 789 0
9 2 S116 955 151734 1744 0
9 2 S116 904 152638 2648 0
9 2 S116 889 153527 3537 0
9 2 S116 905 154432 4442 0
9 2 S116 863 155295 5305 0
9 2 S116 784 156079 6089 0
9 2 S116 756 156835 6845 0
0 0 0 800 157635 -11934 0
0 0 0 977 158612 -10957 1
0 0 0 890 159502 -10067 0
0 0 0 959 160461 -9108 1
0 0 0 890 161351 -8218 0
0 0 0 864 162215 -7354 0
0 0 0 815 163030 -6539 0
0 0 0 795 163825 -5744 0
0 0 0 819 164644 -4925 0
0 0 0 945 165589 -3980 0
0 0 0 884 166473 -3096 0
0 0 0 856 167329 -2240 0
10 1 S102 850 168179 -1390 0
10 1 S102 824 169003 -566 0
10 2 S102 791 169794 225 0
10 2 S102 761 170555 986 0
10 2 S102 773 171328 1759 0
10 2 S102 772 172100 2531 0
10 2 S102 805 172905 3336 0
10 2 S102 761 173666 4097 0
10 2 S102 802 174468 4899 0
10 2 S102 877 175345 5776 0
10 2 S102 899 176244 6675 0
0 0 0 851 177095 -9981 0
0 0 0 803 177898 -9178 0
0 0 0 823 178721 -8355 0
0 0 0 803 179524 -7552 0
0 0 0 777 180301 -6775 0
0 0 0 755 181056 -6020 0
0 0 0 765 181821 -5255 0
0 0 0 773 182594 -4482 0
0 0 0 950 183544 -3532 0
0 0 0 963 184507 -2569 1
11 1 S112 886 185393 -1683 0
11 1 S112 818 186211 -865 0
11 1 S112 784 186995 -81 0
11 2 S112 795 187790 714 0
11 2 S112 882 188672 1596 0
11 2 S112 857 189529 2453 0
11 2 S112 926 190455 3379 0
11 2 S112 949 191404 4328 0
11 2 S112 894 192298 5222 0
11 2 S112 815 193113 6037 0
11 2 S112 823 193936 6860 0
0 0 0 814 194750 -7197 0
0 0 0 837 195587 -6360 0
0 0 0 773 196360 -5587 0
0 0 0 830 197190 -4757 0
0 0 0 803 197993 -3954 0
0 0 0 804 198797 -3150 0
0 0 0 786 199583 -2364 0
12 1 S116 798 200381 -1566 0
12 1 S116 853 201234 -713 0
12 2 S116 829 202063 116 0
12 2 S116 809 202872 925 0
12 2 S116 787 203659 1712 0
12 2 S116 783 204442 2495 0
12 2 S116 791 205233 3286 0
12 2 S116 745 205978 4031 0
12 2 S116 715 206693 4746 0
12 2 S116 708 207401 5454 0
12 2 S116 729 208130 6183 0
12 2 S116 767 208897 6950 0
0 0 0 738 209635 -11841 0
0 0 0 757 210392 -11084 0
0 0 0 789 211181 -10295 0
0 0 0 813 211994 -9482 0
0 0 0 778 212772 -8704 0
0 0 0 725 213497 -7979 0
0 0 0 695 214192 -7284 0
0 0 0 673 214865 -6611 0
0 0 0 681 215546 -5930 0
0 0 0 753 216299 -5177 0
0 0 0 784 217083 -4393 0
0 0 0 872 217955 -3521 0
0 0 0 955 218910 -2566 0
13 1 S112 921 219831 -1645 0
13 1 S112 803 220634 -842 0
13 1 S112 794 221428 -48 0
13 2 S112 771 222199 723 0
13 2 S112 811 223010 1534 0
13 2 S112 814 223824 2348 0
13 2 S112 774 224598 3122 0
13 2 S112 838 225436 3960 0
13 2 S112 996 226432 4956 1
13 2 S112 997 227429 5953 1
13 2 S112 898 228327 6851 0
0 0 0 808 229135 -12401 0
0 0 0 885 230020 -11516 0
0 0 0 901 230921 -10615 0
0 0 0 860 231781 -9755 0
0 0 0 849 232630 -8906 0
0 0 0 822 233452 -8084 0
0 0 0 840 234292 -7244 0
0 0 0 841 235133 -6403 0
0 0 0 860 235993 -5543 0
0 0 0 1031 237024 -4512 1
0 0 0 976 238000 -3536 1
0 0 0 933 238933 -2603 0
14 1 S106 856 239789 -1747 0
14 1 S106 782 240571 -965 0
14 1 S106 723 241294 -242 0
14 2 S106 697 241991 455 0
14 2 S106 731 242722 1186 0
14 2 S106 1073 243795 2259 1
14 2 S106 958 244753 3217 1
14 2 S106 930 245683 4147 0
14 2 S106 843 246526 4990 0
14 2 S106 836 247362 5826 0
14 2 S106 833 248195 6659 0
0 0 0 821 249016 -10657 0
0 0 0 808 249824 -9849 0
0 0 0 754 250578 -9095 0
0 0 0 735 251313 -8360 0
0 0 0 721 252034 -7639 0
0 0 0 737 252771 -6902 0
0 0 0 755 253526 -6147 0
0 0 0 738 254264 -5409 0
0 0 0 760 255024 -4649 0
0 0 0 835 255859 -3814 0
0 0 0 853 256712 -2961 0
0 0 0 772 257484 -2189 0
15 1 S116 746 258230 -1443 0
15 1 S116 750 258980 -693 0
15 2 S116 768 259748 75 0
15 2 S116 821 260569 896 0
15 2 S116 804 261373 1700 0
15 2 S116 783 262156 2483 0
15 2 S116 795 262951 3278 0
15 2 S116 790 263741 4068 0
15 2 S116 756 264497 4824 0
15 2 S116 765 265262 5589 0
15 2 S116 804 266066 6393 0
0 0 0 823 266889 -10772 0
0 0 0 798 267687 -9974 0
0 0 0 782 268469 -9192 0
0 0 0 788 269257 -8404 0
0 0 0 812 270069 -7592 0
0 0 0 791 270860 -6801 0
0 0 0 777 271637 -6024 0
0 0 0 774 272411 -5250 0
0 0 0 769 273180 -4481 0
0 0 0 750 273930 -3731 0
0 0 0 787 274717 -2944 0
0 0 0 780 275497 -2164 0
16 1 S116 778 276275 -1386 0
16 1 S116 743 277018 -643 0
16 2 S116 757 277775 114 0
16 2 S116 758 278533 872 0
16 2 S116 814 279347 1686 0
16 2 S116 801 280148 2487 0
16 2 S116 786 280934 3273 0
16 2 S116 809 281743 4082 0
16 2 S116 921 282664 5003 0
16 2 S116 966 283630 5969 1
16 2 S116 868 284498 6837 0
0 0 0 767 285265 -7697 0
0 0 0 785 286050 -6912 0
0 0 0 803 286853 -6109 0
0 0 0 928 287781 -5181 0
0 0 0 883 288664 -4298 0
0 0 0 837 289501 -3461 0
0 0 0 858 290359 -2603 0
17 1 S106 864 291223 -1739 0
17 1 S106 872 292095 -867 0
17 1 S106 822 292917 -45 0
17 2 S106 757 293674 712 0
17 2 S106 763 294437 1475 0
17 2 S106 795 295232 2270 0
17 2 S106 866 296098 3136 0
17 2 S106 849 296947 3985 0
17 2 S106 895 297842 4880 0
17 2 S106 905 298747 5785 0
17 2 S106 903 299650 6688 0
0 0 0 841 300491 -11537 0
0 0 0 840 301331 -10697 0
0 0 0 820 302151 -9877 0
0 0 0 786 302937 -9091 0
0 0 0 735 303672 -8356 0
0 0 0 727 304399 -7629 0
0 0 0 737 305136 -6892 0
0 0 0 777 305913 -6115 0
0 0 0 831 306744 -5284 0
0 0 0 856 307600 -4428 0
0 0 0 826 308426 -3602 0
0 0 0 772 309198 -2830 0
0 0 0 726 309924 -2104 0
18 1 S102 701 310625 -1403 0
18 1 S102 723 311348 -680 0
18 2 S102 1047 312395 367 1
18 2 S102 961 313356 1328 1
18 2 S102 865 314221 2193 0
18 2 S102 802 315023 2995 0
18 2 S102 756 315779 3751 0
18 2 S102 743 316522 4494 0
18 2 S102 737 317259 5231 0
18 2 S102 756 318015 5987 0
18 2 S102 738 318753 6725 0
0 0 0 737 319490 -7359 0
0 0 0 780 320270 -6579 0
0 0 0 860 321130 -5719 0
0 0 0 845 321975 -4874 0
0 0 0 763 322738 -4111 0
0 0 0 740 323478 -3371 0
0 0 0 709 324187 -2662 0
19 1 S106 678 324865 -1984 0
19 1 S106 693 325558 -1291 0
19 1 S106 768 326326 -523 0
19 2 S106 815 327141 292 0
19 2 S106 811 327952 1103 0
19 2 S106 776 328728 1879 0
19 2 S106 751 329479 2630 0
19 2 S106 755 330234 3385 0
19 2 S106 758 330992 4143 0
19 2 S106 767 331759 4910 0
19 2 S106 747 332506 5657 0
19 2 S106 723 333229 6380 0
0 0 0 715 333944 -11191 0
0 0 0 731 334675 -10460 0
0 0 0 759 335434 -9701 0
0 0 0 786 336220 -8915 0
0 0 0 737 336957 -8178 0
0 0 0 704 337661 -7474 0
0 0 0 705 338366 -6769 0
0 0 0 705 339071 -6064 0
0 0 0 711 339782 -5353 0
0 0 0 725 340507 -4628 0
0 0 0 741 341248 -3887 0
0 0 0 794 342042 -3093 0
0 0 0 858 342900 -2235 0
20 1 S112 895 343795 -1340 0
20 1 S112 876 344671 -464 0
20 2 S112 797 345468 333 0
20 2 S112 753 346221 1086 0
20 2 S112 729 346950 1815 0
20 2 S112 717 347667 2532 0
20 2 S112 711 348378 3243 0
20 2 S112 723 349101 3966 0
20 2 S112 768 349869 4734 0
20 2 S112 821 350690 5555 0
20 2 S112 826 351516 6381 0
0 0 0 800 352316 -10442 0
0 0 0 873 353189 -9569 0
0 0 0 849 354038 -8720 0
0 0 0 794 354832 -7926 0
0 0 0 739 355571 -7187 0
0 0 0 723 356294 -6464 0
0 0 0 706 357000 -5758 0
0 0 0 714 357714 -5044 0
0 0 0 717 358431 -4327 0
0 0 0 729 359160 -3598 0
0 0 0 771 359931 -2827 0
21 1 S106 866 360797 -1961 0
21 1 S106 839 361636 -1122 0
21 1 S106 781 362417 -341 0
21 2 S106 757 363174 416 0
21 2 S106 771 363945 1187 0
21 2 S106 814 364759 2001 0
21 2 S106 789 365548 2790 0
21 2 S106 755 366303 3545 0
21 2 S106 803 367106 4348 0
21 2 S106 804 367910 5152 0
21 2 S106 810 368720 5962 0
21 2 S106 754 369474 6716 0
0 0 0 761 370235 -10974 0
0 0 0 815 371050 -10159 0
0 0 0 816 371866 -9343 0
0 0 0 772 372638 -8571 0
0 0 0 744 373382 -7827 0
0 0 0 727 374109 -7100 0
0 0 0 730 374839 -6370 0
0 0 0 732 375571 -5638 0
0 0 0 732 376303 -4906 0
0 0 0 754 377057 -4152 0
0 0 0 788 377845 -3364 0
0 0 0 793 378638 -2571 0
22 1 S116 752 379390 -1819 0
22 1 S116 742 380132 -1077 0
22 1 S116 744 380876 -333 0
22 2 S116 775 381651 442 0
22 2 S116 780 382431 1222 0
22 2 S116 758 383189 1980 0
22 2 S116 758 383947 2738 0
22 2 S116 755 384702 3493 0
22 2 S116 752 385454 4245 0
22 2 S116 746 386200 4991 0
22 2 S116 763 386963 5754 0
22 2 S116 815 387778 6569 0
0 0 0 845 388623 -10789 0
0 0 0 818 389441 -9971 0
0 0 0 759 390200 -9212 0
0 0 0 754 390954 -8458 0
0 0 0 779 391733 -7679 0
0 0 0 863 392596 -6816 0
0 0 0 775 393371 -6041 0
0 0 0 745 394116 -5296 0
0 0 0 716 394832 -4580 0
0 0 0 707 395539 -3873 0
0 0 0 795 396334 -3078 0
0 0 0 875 397209 -2203 0
23 1 S112 919 398128 -1284 0
23 1 S112 832 398960 -452 0
23 2 S112 774 399734 322 0
23 2 S112 753 400487 1075 0
23 2 S112 752 401239 1827 0
23 2 S112 736 401975 2563 0
23 2 S112 763 402738 3326 0
23 2 S112 814 403552 4140 0
23 2 S112 883 404435 5023 0
23 2 S112 897 405332 5920 0
23 2 S112 839 406171 6759 0
0 0 0 838 407009 -10988 0
0 0 0 886 407895 -10102 0
0 0 0 877 408772 -9225 0
0 0 0 800 409572 -8425 0
0 0 0 791 410363 -7634 0
0 0 0 819 411182 -6815 0
0 0 0 779 411961 -6036 0
0 0 0 776 412737 -5260 0
0 0 0 753 413490 -4507 0
0 0 0 786 414276 -3721 0
0 0 0 801 415077 -2920 0
0 0 0 806 415883 -2114 0
24 1 S106 793 416676 -1321 0
24 1 S106 749 417425 -572 0
24 2 S106 753 418178 181 0
24 2 S106 761 418939 942 0
24 2 S106 763 419702 1705 0
24 2 S106 758 420460 2463 0
24 2 S106 715 421175 3178 0
24 2 S106 666 421841 3844 0
24 2 S106 647 422488 4491 0
24 2 S106 740 423228 5231 0
24 2 S106 827 424055 6058 0
24 2 S106 772 424827 6830 0
0 0 0 722 425549 -8346 0
0 0 0 699 426248 -7647 0
0 0 0 734 426982 -6913 0
0 0 0 723 427705 -6190 0
0 0 0 707 428412 -5483 0
0 0 0 707 429119 -4776 0
0 0 0 695 429814 -4081 0
0 0 0 680 430494 -3401 0
0 0 0 665 431159 -2736 0
0 0 0 645 431804 -2091 0
25 1 S102 625 432429 -1466 0
25 1 S102 620 433049 -846 0
25 1 S102 635 433684 -211 0
25 2 S102 700 434384 489 0
25 2 S102 788 435172 1277 0
25 2 S102 829 436001 2106 0
25 2 S102 831 436832 2937 0
25 2 S102 827 437659 3764 0
25 2 S102 861 438520 4625 0
25 2 S102 824 439344 5449 0
25 2 S102 783 440127 6232 0
25 2 S102 767 440894 6999 0
0 0 0 779 441673 -6596 0
0 0 0 788 442461 -5808 0
0 0 0 788 443249 -5020 0
0 0 0 733 443982 -4287 0
0 0 0 701 444683 -3586 0
0 0 0 706 445389 -2880 0
0 0 0 704 446093 -2176 0
26 1 S116 702 446795 -1474 0
26 1 S116 792 447587 -682 0
26 2 S116 837 448424 155 0
26 2 S116 859 449283 1014 0
26 2 S116 803 450086 1817 0
26 2 S116 764 450850 2581 0
26 2 S116 754 451604 3335 0
26 2 S116 756 452360 4091 0
26 2 S116 743 453103 4834 0
26 2 S116 719 453822 5553 0
26 2 S116 744 454566 6297 0
0 0 0 755 455321 -9543 0
0 0 0 780 456101 -8763 0
0 0 0 773 456874 -7990 0
0 0 0 778 457652 -7212 0
0 0 0 837 458489 -6375 0
0 0 0 928 459417 -5447 0
0 0 0 877 460294 -4570 0
0 0 0 776 461070 -3794 0
0 0 0 755 461825 -3039 0
0 0 0 749 462574 -2290 0
27 1 S106 772 463346 -1518 0
27 1 S106 761 464107 -757 0
27 2 S106 820 464927 63 0
27 2 S106 879 465806 942 0
27 2 S106 897 466703 1839 0
27 2 S106 821 467524 2660 0
27 2 S106 816 468340 3476 0
27 2 S106 794 469134 4270 0
27 2 S106 769 469903 5039 0
27 2 S106 720 470623 5759 0
27 2 S106 717 471340 6476 0
0 0 0 716 472056 -7546 0
0 0 0 740 472796 -6806 0
0 0 0 806 473602 -6000 0
0 0 0 800 474402 -5200 0
0 0 0 827 475229 -4373 0
0 0 0 751 475980 -3622 0
0 0 0 710 476690 -2912 0
0 0 0 681 477371 -2231 0
28 1 S102 673 478044 -1558 0
28 1 S102 673 478717 -885 0
28 1 S102 709 479426 -176 0
28 2 S102 740 480166 564 0
28 2 S102 721 480887 1285 0
28 2 S102 725 481612 2010 0
28 2 S102 724 482336 2734 0
28 2 S102 720 483056 3454 0
28 2 S102 707 483763 4161 0
28 2 S102 678 484441 4839 0
28 2 S102 680 485121 5519 0
28 2 S102 685 485806 6204 0
28 2 S102 708 486514 6912 0
0 0 0 678 487192 -9751 0
0 0 0 651 487843 -9100 0
0 0 0 620 488463 -8480 0
0 0 0 618 489081 -7862 0
0 0 0 618 489699 -7244 0
0 0 0 624 490323 -6620 0
0 0 0 629 490952 -5991 0
0 0 0 655 491607 -5336 0
0 0 0 866 492473 -4470 0
0 0 0 774 493247 -3696 0
0 0 0 723 493970 -2973 0
0 0 0 694 494664 -2279 0
29 1 S112 704 495368 -1575 0
29 1 S112 721 496089 -854 0
29 1 S112 706 496795 -148 0
29 2 S112 680 497475 532 0
29 2 S112 693 498168 1225 0
29 2 S112 713 498881 1938 0
29 2 S112 724 499605 2662 0
29 2 S112 759 500364 3421 0
29 2 S112 759 501123 4180 0
29 2 S112 739 501862 4919 0
29 2 S112 793 502655 5712 0
29 2 S112 974 503629 6686 1
0 0 0 991 504620 -7708 1
0 0 0 930 505550 -6778 0
0 0 0 970 506520 -5808 1
0 0 0 980 507500 -4828 1
0 0 0 879 508379 -3949 0
0 0 0 801 509180 -3148 0
0 0 0 785 509965 -2363 0
30 1 S112 817 510782 -1546 0
30 1 S112 1019 511801 -527 1
30 2 S112 966 512767 439 1
30 2 S112 844 513611 1283 0
30 2 S112 895 514506 2178 0
30 2 S112 901 515407 3079 0
30 2 S112 940 516347 4019 0
30 2 S112 862 517209 4881 0
30 2 S112 945 518154 5826 0
30 2 S112 1007 519161 6833 1
0 0 0 968 520129 -8943 1
0 0 0 934 521063 -8009 0
0 0 0 820 521883 -7189 0
0 0 0 810 522693 -6379 0
0 0 0 782 523475 -5597 0
0 0 0 793 524268 -4804 0
0 0 0 806 525074 -3998 0
0 0 0 869 525943 -3129 0
0 0 0 1026 526969 -2103 1
31 1 S106 945 527914 -1158 0
31 1 S106 850 528764 -308 0
31 2 S106 835 529599 527 0
31 2 S106 822 530421 1349 0
31 2 S106 813 531234 2162 0
31 2 S106 764 531998 2926 0
31 2 S106 779 532777 3705 0
31 2 S106 804 533581 4509 0
31 2 S106 840 534421 5349 0
31 2 S106 828 535249 6177 0
31 2 S106 778 536027 6955 0
0 0 0 765 536792 -9223 0
0 0 0 843 537635 -8380 0
0 0 0 930 538565 -7450 0
0 0 0 878 539443 -6572 0
0 0 0 777 540220 -5795 0
0 0 0 755 540975 -5040 0
0 0 0 774 541749 -4266 0
0 0 0 844 542593 -3422 0
0 0 0 850 543443 -2572 0
32 1 S102 807 544250 -1765 0
32 1 S102 837 545087 -928 0
32 1 S102 860 545947 -68 0
32 2 S102 880 546827 812 0
32 2 S102 875 547702 1687 0
32 2 S102 783 548485 2470 0
32 2 S102 783 549268 3253 0
32 2 S102 791 550059 4044 0
32 2 S102 809 550868 4853 0
32 2 S102 848 551716 5701 0
32 2 S102 803 552519 6504 0
0 0 0 730 553249 -10074 0
0 0 0 680 553929 -9394 0
0 0 0 665 554594 -8729 0
0 0 0 679 555273 -8050 0
0 0 0 764 556037 -7286 0
0 0 0 739 556776 -6547 0
0 0 0 715 557491 -5832 0
0 0 0 695 558186 -5137 0
0 0 0 689 558875 -4448 0
0 0 0 715 559590 -3733 0
0 0 0 732 560322 -3001 0
0 0 0 741 561063 -2260 0
33 1 S112 721 561784 -1539 0
33 1 S112 711 562495 -828 0
33 1 S112 691 563186 -137 0
33 2 S112 687 563873 550 0
33 2 S112 675 564548 1225 0
33 2 S112 664 565212 1889 0
33 2 S112 642 565854 2531 0
33 2 S112 625 566479 3156 0
33 2 S112 616 567095 3772 0
33 2 S112 609 567704 4381 0
33 2 S112 623 568327 5004 0
33 2 S112 666 568993 5670 0
33 2 S112 717 569710 6387 0
0 0 0 769 570479 -11909 0
0 0 0 766 571245 -11143 0
0 0 0 810 572055 -10333 0
0 0 0 771 572826 -9562 0
0 0 0 821 573647 -8741 0
0 0 0 808 574455 -7933 0
0 0 0 788 575243 -7145 0
0 0 0 746 575989 -6399 0
0 0 0 708 576697 -5691 0
0 0 0 718 577415 -4973 0
0 0 0 735 578150 -4238 0
0 0 0 827 578977 -3411 0
0 0 0 869 579846 -2542 0
34 1 S106 782 580628 -1760 0
34 1 S106 775 581403 -985 0
34 1 S106 775 582178 -210 0
34 2 S106 803 582981 593 0
34 2 S106 806 583787 1399 0
34 2 S106 766 584553 2165 0
34 2 S106 734 585287 2899 0
34 2 S106 721 586008 3620 0
34 2 S106 740 586748 4360 0
34 2 S106 780 587528 5140 0
34 2 S106 769 588297 5909 0
34 2 S106 747 589044 6656 0
0 0 0 763 589807 -8496 0
0 0 0 777 590584 -7719 0
0 0 0 803 591387 -6916 0
0 0 0 746 592133 -6170 0
0 0 0 719 592852 -5451 0
0 0 0 725 593577 -4726 0
0 0 0 725 594302 -4001 0
0 0 0 745 595047 -3256 0
0 0 0 717 595764 -2539 0
35 1 S102 724 596488 -1815 0
35 1 S102 742 597230 -1073 0
35 1 S102 755 597985 -318 0
35 2 S102 779 598764 461 0
35 2 S102 757 599521 1218 0
35 2 S102 765 600286 1983 0
35 2 S102 773 601059 2756 0
35 2 S102 811 601870 3567 0
35 2 S102 748 602618 4315 0
35 2 S102 698 603316 5013 0
35 2 S102 669 603985 5682 0
35 2 S102 660 604645 6342 0
35 2 S102 646 605291 6988 0
0 0 0 659 605950 -6030 0
0 0 0 736 606686 -5294 0
0 0 0 760 607446 -4534 0
0 0 0 703 608149 -3831 0
0 0 0 696 608845 -3135 0
0 0 0 714 609559 -2421 0
36 1 S106 701 610260 -1720 0
36 1 S106 694 610954 -1026 0
36 1 S106 674 611628 -352 0
36 2 S106 672 612300 320 0
36 2 S106 687 612987 1007 0
36 2 S106 710 613697 1717 0
36 2 S106 711 614408 2428 0
36 2 S106 710 615118 3138 0
36 2 S106 708 615826 3846 0
36 2 S106 701 616527 4547 0
36 2 S106 732 617259 5279 0
36 2 S106 753 618012 6032 0
36 2 S106 799 618811 6831 0
0 0 0 782 619593 -7689 0
0 0 0 761 620354 -6928 0
0 0 0 740 621094 -6188 0
0 0 0 718 621812 -5470 0
0 0 0 722 622534 -4748 0
0 0 0 718 623252 -4030 0
0 0 0 724 623976 -3306 0
0 0 0 754 624730 -2552 0
37 1 S116 771 625501 -1781 0
37 1 S116 787 626288 -994 0
37 1 S116 795 627083 -199 0
37 2 S116 821 627904 622 0
37 2 S116 840 628744 1462 0
37 2 S116 780 629524 2242 0
37 2 S116 735 630259 2977 0
37 2 S116 707 630966 3684 0
37 2 S116 692 631658 4376 0
37 2 S116 740 632398 5116 0
37 2 S116 728 633126 5844 0
37 2 S116 734 633860 6578 0
0 0 0 727 634587 -11727 0
0 0 0 721 635308 -11006 0
0 0 0 751 636059 -10255 0
0 0 0 787 636846 -9468 0
0 0 0 792 637638 -8676 0
0 0 0 735 638373 -7941 0
0 0 0 726 639099 -7215 0
0 0 0 741 639840 -6474 0
0 0 0 769 640609 -5705 0
0 0 0 755 641364 -4950 0
0 0 0 736 642100 -4214 0
0 0 0 766 642866 -3448 0
0 0 0 809 643675 -2639 0
38 1 S102 803 644478 -1836 0
38 1 S102 803 645281 -1033 0
38 1 S102 761 646042 -272 0
38 2 S102 794 646836 522 0
38 2 S102 806 647642 1328 0
38 2 S102 835 648477 2163 0
38 2 S102 783 649260 2946 0
38 2 S102 733 649993 3679 0
38 2 S102 723 650716 4402 0
38 2 S102 748 651464 5150 0
38 2 S102 833 652297 5983 0
38 2 S102 849 653146 6832 0
0 0 0 831 653977 -9214 0
0 0 0 789 654766 -8425 0
0 0 0 719 655485 -7706 0
0 0 0 684 656169 -7022 0
0 0 0 649 656818 -6373 0
0 0 0 653 657471 -5720 0
0 0 0 641 658112 -5079 0
0 0 0 650 658762 -4429 0
0 0 0 739 659501 -3690 0
0 0 0 821 660322 -2869 0
0 0 0 759 661081 -2110 0
39 1 S116 716 661797 -1394 0
39 1 S116 716 662513 -678 0
39 2 S116 727 663240 49 0
39 2 S116 747 663987 796 0
39 2 S116 728 664715 1524 0
39 2 S116 699 665414 2223 0
39 2 S116 677 666091 2900 0
39 2 S116 665 666756 3565 0
39 2 S116 656 667412 4221 0
39 2 S116 662 668074 4883 0
39 2 S116 670 668744 5553 0
39 2 S116 694 669438 6247 0
39 2 S116 726 670164 6973 0
0 0 0 742 670906 -7487 0
0 0 0 831 671737 -6656 0
0 0 0 1115 672852 -5541 1
0 0 0 1046 673898 -4495 1
0 0 0 969 674867 -3526 1
0 0 0 975 675842 -2551 1
40 1 S112 894 676736 -1657 0
40 1 S112 790 677526 -867 0
40 1 S112 735 678261 -132 0
40 2 S112 726 678987 594 0
40 2 S112 788 679775 1382 0
40 2 S112 824 680599 2206 0
40 2 S112 816 681415 3022 0
40 2 S112 828 682243 3850 0
40 2 S112 909 683152 4759 0
40 2 S112 972 684124 5731 1
40 2 S112 913 685037 6644 0
0 0 0 826 685863 -187194 0
0 0 0 789 686652 -186405 0
0 0 0 779 687431 -185626 0
0 0 0 787 688218 -184839 0
0 0 0 797 689015 -184042 0
0 0 0 762 689777 -183280 0
0 0 0 763 690540 -182517 0
0 0 0 763 691303 -181754 0
0 0 0 774 692077 -180980 0
0 0 0 747 692824 -180233 0
0 0 0 760 693584 -179473 0
0 0 0 790 694374 -178683 0
0 0 0 769 695143 -177914 0
0 0 0 764 695907 -177150 0
0 0 0 721 696628 -176429 0
0 0 0 697 697325 -175732 0
0 0 0 708 698033 -175024 0
0 0 0 742 698775 -174282 0
0 0 0 825 699600 -173457 0
0 0 0 858 700458 -172599 0
0 0 0 790 701248 -171809 0
0 0 0 741 701989 -171068 0
0 0 0 733 702722 -170335 0
0 0 0 728 703450 -169607 0
0 0 0 716 704166 -168891 0
0 0 0 758 704924 -168133 0
0 0 0 831 705755 -167302 0
0 0 0 949 706704 -166353 0
0 0 0 942 707646 -165411 0
0 0 0 882 708528 -164529 0
0 0 0 787 709315 -163742 0
0 0 0 747 710062 -162995 0
0 0 0 742 710804 -162253 0
0 0 0 758 711562 -161495 0
0 0 0 746 712308 -160749 0
0 0 0 711 713019 -160038 0
0 0 0 670 713689 -159368 0
0 0 0 692 714381 -158676 0
0 0 0 681 715062 -157995 0
0 0 0 682 715744 -157313 0
0 0 0 676 716420 -156637 0
0 0 0 671 717091 -155966 0
0 0 0 654 717745 -155312 0
0 0 0 655 718400 -154657 0
0 0 0 684 719084 -153973 0
0 0 0 697 719781 -153276 0
0 0 0 684 720465 -152592 0
0 0 0 673 721138 -151919 0
0 0 0 663 721801 -151256 0
0 0 0 653 722454 -150603 0
0 0 0 660 723114 -149943 0
0 0 0 689 723803 -149254 0
0 0 0 692 724495 -148562 0
0 0 0 680 725175 -147882 0
0 0 0 688 725863 -147194 0
0 0 0 703 726566 -146491 0
0 0 0 726 727292 -145765 0
0 0 0 773 728065 -144992 0
0 0 0 769 728834 -144223 0
0 0 0 735 729569 -143488 0
0 0 0 731 730300 -142757 0
0 0 0 747 731047 -142010 0
0 0 0 781 731828 -141229 0
0 0 0 787 732615 -140442 0
0 0 0 778 733393 -139664 0
0 0 0 769 734162 -138895 0
0 0 0 812 734974 -138083 0
0 0 0 858 735832 -137225 0
0 0 0 848 736680 -136377 0
0 0 0 788 737468 -135589 0
0 0 0 778 738246 -134811 0
0 0 0 791 739037 -134020 0
0 0 0 788 739825 -133232 0
0 0 0 796 740621 -132436 0
0 0 0 775 741396 -131661 0
0 0 0 791 742187 -130870 0
0 0 0 812 742999 -130058 0
0 0 0 798 743797 -129260 0
0 0 0 776 744573 -128484 0
0 0 0 756 745329 -127728 0
0 0 0 795 746124 -126933 0
0 0 0 811 746935 -126122 0
0 0 0 812 747747 -125310 0
0 0 0 785 748532 -124525 0
0 0 0 776 749308 -123749 0
0 0 0 772 750080 -122977 0
0 0 0 768 750848 -122209 0
0 0 0 753 751601 -121456 0
0 0 0 726 752327 -120730 0
0 0 0 706 753033 -120024 0
0 0 0 740 753773 -119284 0
0 0 0 811 754584 -118473 0
0 0 0 804 755388 -117669 0
0 0 0 752 756140 -116917 0
0 0 0 712 756852 -116205 0
0 0 0 682 757534 -115523 0
0 0 0 677 758211 -114846 0
0 0 0 705 758916 -114141 0
0 0 0 736 759652 -113405 0
0 0 0 730 760382 -112675 0
0 0 0 724 761106 -111951 0
0 0 0 720 761826 -111231 0
0 0 0 692 762518 -110539 0
0 0 0 662 763180 -109877 0
0 0 0 647 763827 -109230 0
0 0 0 625 764452 -108605 0
0 0 0 614 765066 -107991 0
0 0 0 603 765669 -107388 0
0 0 0 595 766264 -106793 0
0 0 0 593 766857 -106200 0
0 0 0 593 767450 -105607 0
0 0 0 591 768041 -105016 0
0 0 0 579 768620 -104437 0
0 0 0 591 769211 -103846 0
0 0 0 603 769814 -103243 0
0 0 0 620 770434 -102623 0
0 0 0 658 771092 -101965 0
0 0 0 709 771801 -101256 0
0 0 0 717 772518 -100539 0
0 0 0 817 773335 -99722 0
0 0 0 944 774279 -98778 0
0 0 0 895 775174 -97883 0
0 0 0 846 776020 -97037 0
0 0 0 894 776914 -96143 0
0 0 0 891 777805 -95252 0
0 0 0 851 778656 -94401 0
0 0 0 795 779451 -93606 0
0 0 0 828 780279 -92778 0
0 0 0 824 781103 -91954 0
0 0 0 804 781907 -91150 0
0 0 0 793 782700 -90357 0
0 0 0 787 783487 -89570 0
0 0 0 759 784246 -88811 0
0 0 0 755 785001 -88056 0
0 0 0 741 785742 -87315 0
0 0 0 773 786515 -86542 0
0 0 0 782 787297 -85760 0
0 0 0 769 788066 -84991 0
0 0 0 742 788808 -84249 0
0 0 0 757 789565 -83492 0
0 0 0 757 790322 -82735 0
0 0 0 740 791062 -81995 0
0 0 0 742 791804 -81253 0
0 0 0 755 792559 -80498 0
0 0 0 757 793316 -79741 0
0 0 0 738 794054 -79003 0
0 0 0 741 794795 -78262 0
0 0 0 782 795577 -77480 0
0 0 0 842 796419 -76638 0
0 0 0 802 797221 -75836 0
0 0 0 789 798010 -75047 0
0 0 0 788 798798 -74259 0
0 0 0 819 799617 -73440 0
0 0 0 785 800402 -72655 0
0 0 0 775 801177 -71880 0
0 0 0 783 801960 -71097 0
0 0 0 785 802745 -70312 0
0 0 0 759 803504 -69553 0
0 0 0 761 804265 -68792 0
0 0 0 781 805046 -68011 0
0 0 0 814 805860 -67197 0
0 0 0 795 806655 -66402 0
0 0 0 786 807441 -65616 0
0 0 0 789 808230 -64827 0
0 0 0 831 809061 -63996 0
0 0 0 802 809863 -63194 0
0 0 0 776 810639 -62418 0
0 0 0 817 811456 -61601 0
0 0 0 807 812263 -60794 0
0 0 0 758 813021 -60036 0
0 0 0 709 813730 -59327 0
0 0 0 716 814446 -58611 0
0 0 0 727 815173 -57884 0
0 0 0 750 815923 -57134 0
0 0 0 715 816638 -56419 0
0 0 0 723 817361 -55696 0
0 0 0 733 818094 -54963 0
0 0 0 733 818827 -54230 0
0 0 0 738 819565 -53492 0
0 0 0 721 820286 -52771 0
0 0 0 737 821023 -52034 0
0 0 0 752 821775 -51282 0
0 0 0 754 822529 -50528 0
0 0 0 727 823256 -49801 0
0 0 0 725 823981 -49076 0
0 0 0 744 824725 -48332 0
0 0 0 756 825481 -47576 0
0 0 0 731 826212 -46845 0
0 0 0 736 826948 -46109 0
0 0 0 730 827678 -45379 0
0 0 0 728 828406 -44651 0
0 0 0 726 829132 -43925 0
0 0 0 710 829842 -43215 0
0 0 0 705 830547 -42510 0
0 0 0 723 831270 -41787 0
0 0 0 717 831987 -41070 0
0 0 0 692 832679 -40378 0
0 0 0 691 833370 -39687 0
0 0 0 676 834046 -39011 0
0 0 0 662 834708 -38349 0
0 0 0 658 835366 -37691 0
0 0 0 675 836041 -37016 0
0 0 0 688 836729 -36328 0
0 0 0 675 837404 -35653 0
0 0 0 692 838096 -34961 0
0 0 0 701 838797 -34260 0
0 0 0 708 839505 -33552 0
0 0 0 700 840205 -32852 0
0 0 0 696 840901 -32156 0
0 0 0 761 841662 -31395 0
0 0 0 841 842503 -30554 0
0 0 0 839 843342 -29715 0
0 0 0 801 844143 -28914 0
0 0 0 803 844946 -28111 0
0 0 0 777 845723 -27334 0
0 0 0 731 846454 -26603 0
0 0 0 688 847142 -25915 0
0 0 0 676 847818 -25239 0
0 0 0 680 848498 -24559 0
0 0 0 691 849189 -23868 0
0 0 0 696 849885 -23172 0
0 0 0 692 850577 -22480 0
0 0 0 717 851294 -21763 0
0 0 0 716 852010 -21047 0
0 0 0 713 852723 -20334 0
0 0 0 694 853417 -19640 0
0 0 0 705 854122 -18935 0
0 0 0 749 854871 -18186 0
0 0 0 773 855644 -17413 0
0 0 0 792 856436 -16621 0
0 0 0 796 857232 -15825 0
0 0 0 903 858135 -14922 0
0 0 0 879 859014 -14043 0
0 0 0 832 859846 -13211 0
0 0 0 780 860626 -12431 0
0 0 0 772 861398 -11659 0
0 0 0 788 862186 -10871 0
0 0 0 811 862997 -10060 0
0 0 0 794 863791 -9266 0
0 0 0 756 864547 -8510 0
0 0 0 699 865246 -7811 0
0 0 0 635 865881 -7176 0
0 0 0 646 866527 -6530 0
0 0 0 765 867292 -5765 0
0 0 0 806 868098 -4959 0
0 0 0 793 868891 -4166 0
0 0 0 769 869660 -3397 0
0 0 0 728 870388 -2669 0
41 1 S102 730 871118 -1939 0
41 1 S102 756 871874 -1183 0
41 1 S102 759 872633 -424 0
41 2 S102 764 873397 340 0
41 2 S102 754 874151 1094 0
41 2 S102 742 874893 1836 0
41 2 S102 729 875622 2565 0
41 2 S102 701 876323 3266 0
41 2 S102 700 877023 3966 0
41 2 S102 680 877703 4646 0
41 2 S102 683 878386 5329 0
41 2 S102 659 879045 5988 0
41 2 S102 688 879733 6676 0
0 0 0 735 880468 -7609 0
0 0 0 823 881291 -6786 0
0 0 0 859 882150 -5927 0
0 0 0 864 883014 -5063 0
0 0 0 795 883809 -4268 0
0 0 0 766 884575 -3502 0
0 0 0 754 885329 -2748 0
42 1 S112 753 886082 -1995 0
42 1 S112 748 886830 -1247 0
42 1 S112 730 887560 -517 0
42 2 S112 736 888296 219 0
42 2 S112 775 889071 994 0
42 2 S112 862 889933 1856 0
42 2 S112 873 890806 2729 0
42 2 S112 849 891655 3578 0
42 2 S112 836 892491 4414 0
42 2 S112 823 893314 5237 0
42 2 S112 811 894125 6048 0
42 2 S112 780 894905 6828 0
0 0 0 772 895677 -10736 0
0 0 0 852 896529 -9884 0
0 0 0 887 897416 -8997 0
0 0 0 852 898268 -8145 0
0 0 0 833 899101 -7312 0
0 0 0 836 899937 -6476 0
0 0 0 776 900713 -5700 0
0 0 0 736 901449 -4964 0
0 0 0 705 902154 -4259 0
0 0 0 707 902861 -3552 0
0 0 0 728 903589 -2824 0
0 0 0 768 904357 -2056 0
43 1 S116 782 905139 -1274 0
43 1 S116 785 905924 -489 0
43 2 S116 777 906701 288 0
43 2 S116 779 907480 1067 0
43 2 S116 755 908235 1822 0
43 2 S116 717 908952 2539 0
43 2 S116 687 909639 3226 0
43 2 S116 704 910343 3930 0
43 2 S116 744 911087 4674 0
43 2 S116 775 911862 5449 0
43 2 S116 819 912681 6268 0
0 0 0 784 913465 -8581 0
0 0 0 846 914311 -7735 0
0 0 0 855 915166 -6880 0
0 0 0 836 916002 -6044 0
0 0 0 798 916800 -5246 0
0 0 0 774 917574 -4472 0
0 0 0 763 918337 -3709 0
0 0 0 781 919118 -2928 0
0 0 0 775 919893 -2153 0
44 1 S102 797 920690 -1356 0
44 1 S102 820 921510 -536 0
44 2 S102 838 922348 302 0
44 2 S102 839 923187 1141 0
44 2 S102 792 923979 1933 0
44 2 S102 770 924749 2703 0
44 2 S102 758 925507 3461 0
44 2 S102 778 926285 4239 0
44 2 S102 782 927067 5021 0
44 2 S102 743 927810 5764 0
44 2 S102 737 928547 6501 0
0 0 0 714 929261 -8137 0
0 0 0 703 929964 -7434 0
0 0 0 708 930672 -6726 0
0 0 0 696 931368 -6030 0
0 0 0 679 932047 -5351 0
0 0 0 666 932713 -4685 0
0 0 0 652 933365 -4033 0
0 0 0 649 934014 -3384 0
0 0 0 664 934678 -2720 0
0 0 0 657 935335 -2063 0
45 1 S116 643 935978 -1420 0
45 1 S116 639 936617 -781 0
45 1 S116 648 937265 -133 0
45 2 S116 654 937919 521 0
45 2 S116 646 938565 1167 0
45 2 S116 651 939216 1818 0
45 2 S116 663 939879 2481 0
45 2 S116 689 940568 3170 0
45 2 S116 717 941285 3887 0
45 2 S116 717 942002 4604 0
45 2 S116 692 942694 5296 0
45 2 S116 745 943439 6041 0
45 2 S116 816 944255 6857 0
0 0 0 876 945131 -11597 0
0 0 0 840 945971 -10757 0
0 0 0 857 946828 -9900 0
0 0 0 844 947672 -9056 0
0 0 0 817 948489 -8239 0
0 0 0 749 949238 -7490 0
0 0 0 703 949941 -6787 0
0 0 0 706 950647 -6081 0
0 0 0 719 951366 -5362 0
0 0 0 756 952122 -4606 0
0 0 0 766 952888 -3840 0
0 0 0 748 953636 -3092 0
0 0 0 746 954382 -2346 0
46 1 S102 760 955142 -1586 0
46 1 S102 777 955919 -809 0
46 1 S102 760 956679 -49 0
46 2 S102 715 957394 666 0
46 2 S102 720 958114 1386 0
46 2 S102 717 958831 2103 0
46 2 S102 733 959564 2836 0
46 2 S102 761 960325 3597 0
46 2 S102 755 961080 4352 0
46 2 S102 736 961816 5088 0
46 2 S102 756 962572 5844 0
46 2 S102 757 963329 6601 0
0 0 0 750 964079 -8365 0
0 0 0 751 964830 -7614 0
0 0 0 744 965574 -6870 0
0 0 0 739 966313 -6131 0
0 0 0 742 967055 -5389 0
0 0 0 743 967798 -4646 0
0 0 0 741 968539 -3905 0
0 0 0 758 969297 -3147 0
0 0 0 764 970061 -2383 0
47 1 S112 800 970861 -1583 0
47 1 S112 796 971657 -787 0
47 1 S112 754 972411 -33 0
47 2 S112 747 973158 714 0
47 2 S112 751 973909 1465 0
47 2 S112 848 974757 2313 0
47 2 S112 936 975693 3249 0
47 2 S112 874 976567 4123 0
47 2 S112 820 977387 4943 0
47 2 S112 781 978168 5724 0
47 2 S112 754 978922 6478 0
0 0 0 773 979695 -11831 0
0 0 0 744 980439 -11087 0
0 0 0 797 981236 -10290 0
0 0 0 790 982026 -9500 0
0 0 0 779 982805 -8721 0
0 0 0 738 983543 -7983 0
0 0 0 719 984262 -7264 0
0 0 0 733 984995 -6531 0
0 0 0 765 985760 -5766 0
0 0 0 794 986554 -4972 0
0 0 0 769 987323 -4203 0
0 0 0 740 988063 -3463 0
0 0 0 775 988838 -2688 0
48 1 S116 773 989611 -1915 0
48 1 S116 757 990368 -1158 0
48 1 S116 735 991103 -423 0
48 2 S116 714 991817 291 0
48 2 S116 753 992570 1044 0
48 2 S116 818 993388 1862 0
48 2 S116 850 994238 2712 0
48 2 S116 814 995052 3526 0
48 2 S116 742 995794 4268 0
48 2 S116 722 996516 4990 0
48 2 S116 730 997246 5720 0
48 2 S116 789 998035 6509 0
0 0 0 842 998877 -8432 0
0 0 0 849 999726 -7583 0
0 0 0 765 1000491 -6818 0
0 0 0 751 1001242 -6067 0
0 0 0 752 1001994 -5315 0
0 0 0 739 1002733 -4576 0
0 0 0 711 1003444 -3865 0
0 0 0 685 1004129 -3180 0
0 0 0 679 1004808 -2501 0
49 1 S112 672 1005480 -1829 0
49 1 S112 688 1006168 -1141 0
49 1 S112 731 1006899 -410 0
49 2 S112 846 1007745 436 0
49 2 S112 831 1008576 1267 0
49 2 S112 1011 1009587 2278 1
49 2 S112 994 1010581 3272 1
49 2 S112 944 1011525 4216 0
49 2 S112 867 1012392 5083 0
49 2 S112 843 1013235 5926 0
49 2 S112 845 1014080 6771 0
0 0 0 813 1014893 -11895 0
0 0 0 807 1015700 -11088 0
0 0 0 749 1016449 -10339 0
0 0 0 727 1017176 -9612 0
0 0 0 739 1017915 -8873 0
0 0 0 751 1018666 -8122 0
0 0 0 768 1019434 -7354 0
0 0 0 778 1020212 -6576 0
0 0 0 827 1021039 -5749 0
0 0 0 891 1021930 -4858 0
0 0 0 937 1022867 -3921 0
0 0 0 857 1023724 -3064 0
0 0 0 831 1024555 -2233 0
50 1 S106 801 1025356 -1432 0
50 1 S106 770 1026126 -662 0
50 2 S106 761 1026887 99 0
50 2 S106 720 1027607 819 0
50 2 S106 702 1028309 1521 0
50 2 S106 670 1028979 2191 0
50 2 S106 641 1029620 2832 0
50 2 S106 781 1030401 3613 0
50 2 S106 1147 1031548 4760 1
50 2 S106 1001 1032549 5761 1
50 2 S106 924 1033473 6685 0
0 0 0 860 1034333 -6116 0
0 0 0 850 1035183 -5266 0
0 0 0 800 1035983 -4466 0
0 0 0 778 1036761 -3688 0
0 0 0 791 1037552 -2897 0
0 0 0 802 1038354 -2095 0
51 1 S112 824 1039178 -1271 0
51 1 S112 821 1039999 -450 0
51 2 S112 833 1040832 383 0
51 2 S112 856 1041688 1239 0
51 2 S112 856 1042544 2095 0
51 2 S112 846 1043390 2941 0
51 2 S112 881 1044271 3822 0
51 2 S112 892 1045163 4714 0
51 2 S112 852 1046015 5566 0
51 2 S112 813 1046828 6379 0
0 0 0 763 1047591 -6850 0
0 0 0 750 1048341 -6100 0
0 0 0 761 1049102 -5339 0
0 0 0 772 1049874 -4567 0
0 0 0 739 1050613 -3828 0
0 0 0 750 1051363 -3078 0
0 0 0 730 1052093 -2348 0
52 1 S116 734 1052827 -1614 0
52 1 S116 754 1053581 -860 0
52 1 S116 798 1054379 -62 0
52 2 S116 802 1055181 740 0
52 2 S116 778 1055959 1518 0
52 2 S116 756 1056715 2274 0
52 2 S116 743 1057458 3017 0
52 2 S116 724 1058182 3741 0
52 2 S116 719 1058901 4460 0
52 2 S116 697 1059598 5157 0
52 2 S116 680 1060278 5837 0
52 2 S116 675 1060953 6512 0
0 0 0 681 1061634 -10695 0
0 0 0 698 1062332 -9997 0
0 0 0 691 1063023 -9306 0
0 0 0 680 1063703 -8626 0
0 0 0 686 1064389 -7940 0
0 0 0 701 1065090 -7239 0
0 0 0 721 1065811 -6518 0
0 0 0 699 1066510 -5819 0
0 0 0 682 1067192 -5137 0
0 0 0 705 1067897 -4432 0
0 0 0 732 1068629 -3700 0
0 0 0 779 1069408 -2921 0
0 0 0 770 1070178 -2151 0
53 1 S106 745 1070923 -1406 0
53 1 S106 716 1071639 -690 0
53 1 S106 687 1072326 -3 0
53 2 S106 682 1073008 679 0
53 2 S106 683 1073691 1362 0
53 2 S106 683 1074374 2045 0
53 2 S106 668 1075042 2713 0
53 2 S106 663 1075705 3376 0
53 2 S106 671 1076376 4047 0
53 2 S106 687 1077063 4734 0
53 2 S106 691 1077754 5425 0
53 2 S106 692 1078446 6117 0
53 2 S106 714 1079160 6831 0
0 0 0 725 1079885 -6983 0
0 0 0 776 1080661 -6207 0
0 0 0 782 1081443 -5425 0
0 0 0 751 1082194 -4674 0
0 0 0 733 1082927 -3941 0
0 0 0 732 1083659 -3209 0
0 0 0 730 1084389 -2479 0
54 1 S102 734 1085123 -1745 0
54 1 S102 693 1085816 -1052 0
54 1 S102 682 1086498 -370 0
54 2 S102 667 1087165 297 0
54 2 S102 653 1087818 950 0
54 2 S102 674 1088492 1624 0
54 2 S102 717 1089209 2341 0
54 2 S102 729 1089938 3070 0
54 2 S102 699 1090637 3769 0
54 2 S102 720 1091357 4489 0
54 2 S102 750 1092107 5239 0
54 2 S102 767 1092874 6006 0
54 2 S102 753 1093627 6759 0
0 0 0 705 1094332 -11303 0
0 0 0 670 1095002 -10633 0
0 0 0 678 1095680 -9955 0
0 0 0 684 1096364 -9271 0
0 0 0 730 1097094 -8541 0
0 0 0 712 1097806 -7829 0
0 0 0 679 1098485 -7150 0
0 0 0 663 1099148 -6487 0
0 0 0 641 1099789 -5846 0
0 0 0 631 1100420 -5215 0
0 0 0 623 1101043 -4592 0
0 0 0 632 1101675 -3960 0
0 0 0 691 1102366 -3269 0
0 0 0 705 1103071 -2564 0
55 1 S106 707 1103778 -1857 0
55 1 S106 694 1104472 -1163 0
55 1 S106 717 1105189 -446 0
55 2 S106 710 1105899 264 0
55 2 S106 717 1106616 981 0
55 2 S106 693 1107309 1674 0
55 2 S106 674 1107983 2348 0
55 2 S106 661 1108644 3009 0
55 2 S106 643 1109287 3652 0
55 2 S106 639 1109926 4291 0
55 2 S106 659 1110585 4950 0
55 2 S106 678 1111263 5628 0
55 2 S106 676 1111939 6304 0
55 2 S106 682 1112621 6986 0
0 0 0 709 1113330 -7872 0
0 0 0 733 1114063 -7139 0
0 0 0 748 1114811 -6391 0
0 0 0 755 1115566 -5636 0
0 0 0 733 1116299 -4903 0
0 0 0 718 1117017 -4185 0
0 0 0 725 1117742 -3460 0
0 0 0 727 1118469 -2733 0
56 1 S116 740 1119209 -1993 0
56 1 S116 731 1119940 -1262 0
56 1 S116 750 1120690 -512 0
56 2 S116 788 1121478 276 0
56 2 S116 782 1122260 1058 0
56 2 S116 784 1123044 1842 0
56 2 S116 733 1123777 2575 0
56 2 S116 728 1124505 3303 0
56 2 S116 743 1125248 4046 0
56 2 S116 799 1126047 4845 0
56 2 S116 813 1126860 5658 0
56 2 S116 805 1127665 6463 0
0 0 0 744 1128409 -8775 0
0 0 0 721 1129130 -8054 0
0 0 0 747 1129877 -7307 0
0 0 0 792 1130669 -6515 0
0 0 0 841 1131510 -5674 0
0 0 0 847 1132357 -4827 0
0 0 0 790 1133147 -4037 0
0 0 0 752 1133899 -3285 0
0 0 0 741 1134640 -2544 0
57 1 S106 730 1135370 -1814 0
57 1 S106 698 1136068 -1116 0
57 1 S106 711 1136779 -405 0
57 2 S106 725 1137504 320 0
57 2 S106 730 1138234 1050 0
57 2 S106 748 1138982 1798 0
57 2 S106 737 1139719 2535 0
57 2 S106 790 1140509 3325 0
57 2 S106 811 1141320 4136 0
57 2 S106 797 1142117 4933 0
57 2 S106 769 1142886 5702 0
57 2 S106 734 1143620 6436 0
0 0 0 741 1144361 -9633 0
0 0 0 737 1145098 -8896 0
0 0 0 728 1145826 -8168 0
0 0 0 709 1146535 -7459 0
0 0 0 701 1147236 -6758 0
0 0 0 688 1147924 -6070 0
0 0 0 701 1148625 -5369 0
0 0 0 718 1149343 -4651 0
0 0 0 726 1150069 -3925 0
0 0 0 753 1150822 -3172 0
0 0 0 774 1151596 -2398 0
58 1 S102 791 1152387 -1607 0
58 1 S102 754 1153141 -853 0
58 1 S102 740 1153881 -113 0
58 2 S102 719 1154600 606 0
58 2 S102 713 1155313 1319 0
58 2 S102 710 1156023 2029 0
58 2 S102 695 1156718 2724 0
58 2 S102 691 1157409 3415 0
58 2 S102 698 1158107 4113 0
58 2 S102 736 1158843 4849 0
58 2 S102 724 1159567 5573 0
58 2 S102 721 1160288 6294 0
58 2 S102 697 1160985 6991 0
0 0 0 703 1161688 -5602 0
0 0 0 716 1162404 -4886 0
0 0 0 699 1163103 -4187 0
0 0 0 690 1163793 -3497 0
0 0 0 672 1164465 -2825 0
0 0 0 669 1165134 -2156 0
59 1 S112 672 1165806 -1484 0
59 1 S112 687 1166493 -797 0
59 1 S112 709 1167202 -88 0
59 2 S112 718 1167920 630 0
59 2 S112 728 1168648 1358 0
59 2 S112 749 1169397 2107 0
59 2 S112 783 1170180 2890 0
59 2 S112 778 1170958 3668 0
59 2 S112 774 1171732 4442 0
59 2 S112 734 1172466 5176 0
59 2 S112 718 1173184 5894 0
59 2 S112 711 1173895 6605 0
0 0 0 748 1174643 -7850 0
0 0 0 829 1175472 -7021 0
0 0 0 916 1176388 -6105 0
0 0 0 922 1177310 -5183 0
0 0 0 858 1178168 -4325 0
0 0 0 835 1179003 -3490 0
0 0 0 780 1179783 -2710 0
60 1 S102 745 1180528 -1965 0
60 1 S102 731 1181259 -1234 0
60 1 S102 749 1182008 -485 0
60 2 S102 784 1182792 299 0
60 2 S102 815 1183607 1114 0
60 2 S102 844 1184451 1958 0
60 2 S102 845 1185296 2803 0
60 2 S102 821 1186117 3624 0
60 2 S102 833 1186950 4457 0
60 2 S102 871 1187821 5328 0
60 2 S102 864 1188685 6192 0
60 2 S102 830 1189515 7022 0
0 0 0 831 1190346 -10632 0
0 0 0 808 1191154 -9824 0
0 0 0 782 1191936 -9042 0
0 0 0 765 1192701 -8277 0
0 0 0 719 1193420 -7558 0
0 0 0 689 1194109 -6869 0
0 0 0 715 1194824 -6154 0
0 0 0 684 1195508 -5470 0
0 0 0 689 1196197 -4781 0
0 0 0 1131 1197328 -3650 1
0 0 0 1047 1198375 -2603 1
61 1 S106 960 1199335 -1643 1
61 1 S106 884 1200219 -759 0
61 2 S106 808 1201027 49 0
61 2 S106 764 1201791 813 0
61 2 S106 707 1202498 1520 0
61 2 S106 670 1203168 2190 0
61 2 S106 647 1203815 2837 0
61 2 S106 626 1204441 3463 0
61 2 S106 615 1205056 4078 0
61 2 S106 611 1205667 4689 0
61 2 S106 613 1206280 5302 0
61 2 S106 609 1206889 5911 0
61 2 S106 637 1207526 6548 0
0 0 0 755 1208281 -7402 0
0 0 0 847 1209128 -6555 0
0 0 0 888 1210016 -5667 0
0 0 0 832 1210848 -4835 0
0 0 0 821 1211669 -4014 0
0 0 0 788 1212457 -3226 0
0 0 0 772 1213229 -2454 0
62 1 S112 732 1213961 -1722 0
62 1 S112 695 1214656 -1027 0
62 1 S112 681 1215337 -346 0
62 2 S112 677 1216014 331 0
62 2 S112 676 1216690 1007 0
62 2 S112 691 1217381 1698 0
62 2 S112 695 1218076 2393 0
62 2 S112 708 1218784 3101 0
62 2 S112 757 1219541 3858 0
62 2 S112 791 1220332 4649 0
62 2 S112 883 1221215 5532 0
62 2 S112 840 1222055 6372 0
0 0 0 914 1222969 -12011 0
0 0 0 931 1223900 -11080 0
0 0 0 864 1224764 -10216 0
0 0 0 782 1225546 -9434 0
0 0 0 756 1226302 -8678 0
0 0 0 717 1227019 -7961 0
0 0 0 732 1227751 -7229 0
0 0 0 753 1228504 -6476 0
0 0 0 726 1229230 -5750 0
0 0 0 766 1229996 -4984 0
0 0 0 819 1230815 -4165 0
0 0 0 803 1231618 -3362 0
0 0 0 774 1232392 -2588 0
63 1 S102 754 1233146 -1834 0
63 1 S102 751 1233897 -1083 0
63 1 S102 753 1234650 -330 0
63 2 S102 773 1235423 443 0
63 2 S102 750 1236173 1193 0
63 2 S102 795 1236968 1988 0
63 2 S102 771 1237739 2759 0
63 2 S102 833 1238572 3592 0
63 2 S102 836 1239408 4428 0
63 2 S102 816 1240224 5244 0
63 2 S102 754 1240978 5998 0
63 2 S102 778 1241756 6776 0
0 0 0 814 1242570 -8391 0
0 0 0 905 1243475 -7486 0
0 0 0 876 1244351 -6610 0
0 0 0 779 1245130 -5831 0
0 0 0 733 1245863 -5098 0
0 0 0 722 1246585 -4376 0
0 0 0 746 1247331 -3630 0
0 0 0 752 1248083 -2878 0
0 0 0 773 1248856 -2105 0
64 1 S112 760 1249616 -1345 0
64 1 S112 769 1250385 -576 0
64 2 S112 784 1251169 208 0
64 2 S112 772 1251941 980 0
64 2 S112 755 1252696 1735 0
64 2 S112 744 1253440 2479 0
64 2 S112 763 1254203 3242 0
64 2 S112 821 1255024 4063 0
64 2 S112 911 1255935 4974 0
64 2 S112 879 1256814 5853 0
64 2 S112 823 1257637 6676 0
0 0 0 814 1258451 -7928 0
0 0 0 816 1259267 -7112 0
0 0 0 795 1260062 -6317 0
0 0 0 772 1260834 -5545 0
0 0 0 807 1261641 -4738 0
0 0 0 777 1262418 -3961 0
0 0 0 778 1263196 -3183 0
0 0 0 782 1263978 -2401 0
65 1 S106 787 1264765 -1614 0
65 1 S106 799 1265564 -815 0
65 1 S106 780 1266344 -35 0
65 2 S106 760 1267104 725 0
65 2 S106 731 1267835 1456 0
65 2 S106 746 1268581 2202 0
65 2 S106 739 1269320 2941 0
65 2 S106 738 1270058 3679 0
65 2 S106 726 1270784 4405 0
65 2 S106 724 1271508 5129 0
65 2 S106 706 1272214 5835 0
65 2 S106 710 1272924 6545 0
0 0 0 722 1273646 -7322 0
0 0 0 826 1274472 -6496 0
0 0 0 998 1275470 -5498 1
0 0 0 991 1276461 -4507 1
0 0 0 915 1277376 -3592 0
0 0 0 859 1278235 -2733 0
66 1 S116 810 1279045 -1923 0
66 1 S116 784 1279829 -1139 0
66 1 S116 743 1280572 -396 0
66 2 S116 713 1281285 317 0
66 2 S116 690 1281975 1007 0
66 2 S116 708 1282683 1715 0
66 2 S116 723 1283406 2438 0
66 2 S116 785 1284191 3223 0
66 2 S116 814 1285005 4037 0
66 2 S116 834 1285839 4871 0
66 2 S116 891 1286730 5762 0
66 2 S116 879 1287609 6641 0
0 0 0 871 1288480 -10957 0
0 0 0 814 1289294 -10143 0
0 0 0 791 1290085 -9352 0
0 0 0 776 1290861 -8576 0
0 0 0 726 1291587 -7850 0
0 0 0 688 1292275 -7162 0
0 0 0 678 1292953 -6484 0
0 0 0 666 1293619 -5818 0
0 0 0 661 1294280 -5157 0
0 0 0 681 1294961 -4476 0
0 0 0 721 1295682 -3755 0
0 0 0 750 1296432 -3005 0
0 0 0 756 1297188 -2249 0
67 1 S102 771 1297959 -1478 0
67 1 S102 792 1298751 -686 0
67 2 S102 786 1299537 100 0
67 2 S102 755 1300292 855 0
67 2 S102 717 1301009 1572 0
67 2 S102 708 1301717 2280 0
67 2 S102 727 1302444 3007 0
67 2 S102 781 1303225 3788 0
67 2 S102 786 1304011 4574 0
67 2 S102 761 1304772 5335 0
67 2 S102 792 1305564 6127 0
67 2 S102 860 1306424 6987 0
0 0 0 906 1307330 -6944 0
0 0 0 888 1308218 -6056 0
0 0 0 812 1309030 -5244 0
0 0 0 748 1309778 -4496 0
0 0 0 691 1310469 -3805 0
0 0 0 663 1311132 -3142 0
0 0 0 645 1311777 -2497 0
68 1 S106 637 1312414 -1860 0
68 1 S106 644 1313058 -1216 0
68 1 S106 697 1313755 -519 0
68 2 S106 704 1314459 185 0
68 2 S106 716 1315175 901 0
68 2 S106 740 1315915 1641 0
68 2 S106 776 1316691 2417 0
68 2 S106 745 1317436 3162 0
68 2 S106 710 1318146 3872 0
68 2 S106 687 1318833 4559 0
68 2 S106 671 1319504 5230 0
68 2 S106 672 1320176 5902 0
68 2 S106 670 1320846 6572 0
0 0 0 665 1321511 -12077 0
0 0 0 665 1322176 -11412 0
0 0 0 673 1322849 -10739 0
0 0 0 684 1323533 -10055 0
0 0 0 700 1324233 -9355 0
0 0 0 702 1324935 -8653 0
0 0 0 677 1325612 -7976 0
0 0 0 688 1326300 -7288 0
0 0 0 714 1327014 -6574 0
0 0 0 754 1327768 -5820 0
0 0 0 761 1328529 -5059 0
0 0 0 739 1329268 -4320 0
0 0 0 735 1330003 -3585 0
0 0 0 771 1330774 -2814 0
0 0 0 783 1331557 -2031 0
69 1 S102 781 1332338 -1250 0
69 1 S102 743 1333081 -507 0
69 2 S102 701 1333782 194 0
69 2 S102 715 1334497 909 0
69 2 S102 749 1335246 1658 0
69 2 S102 785 1336031 2443 0
69 2 S102 791 1336822 3234 0
69 2 S102 799 1337621 4033 0
69 2 S102 798 1338419 4831 0
69 2 S102 764 1339183 5595 0
69 2 S102 771 1339954 6366 0
0 0 0 819 1340773 -9858 0
0 0 0 876 1341649 -8982 0
0 0 0 867 1342516 -8115 0
0 0 0 810 1343326 -7305 0
0 0 0 785 1344111 -6520 0
0 0 0 772 1344883 -5748 0
0 0 0 788 1345671 -4960 0
0 0 0 798 1346469 -4162 0
0 0 0 774 1347243 -3388 0
0 0 0 832 1348075 -2556 0
70 1 S112 903 1348978 -1653 0
70 1 S112 850 1349828 -803 0
70 1 S112 780 1350608 -23 0
70 2 S112 746 1351354 723 0
70 2 S112 739 1352093 1462 0
70 2 S112 740 1352833 2202 0
70 2 S112 771 1353604 2973 0
70 2 S112 797 1354401 3770 0
70 2 S112 830 1355231 4600 0
70 2 S112 900 1356131 5500 0
70 2 S112 880 1357011 6380 0
0 0 0 818 1357829 -13011 0
0 0 0 851 1358680 -12160 0
0 0 0 916 1359596 -11244 0
0 0 0 883 1360479 -10361 0
0 0 0 789 1361268 -9572 0
0 0 0 803 1362071 -8769 0
0 0 0 773 1362844 -7996 0
0 0 0 760 1363604 -7236 0
0 0 0 730 1364334 -6506 0
0 0 0 764 1365098 -5742 0
0 0 0 893 1365991 -4849 0
0 0 0 941 1366932 -3908 0
0 0 0 858 1367790 -3050 0
0 0 0 821 1368611 -2229 0
71 1 S116 794 1369405 -1435 0
71 1 S116 764 1370169 -671 0
71 2 S116 732 1370901 61 0
71 2 S116 716 1371617 777 0
71 2 S116 727 1372344 1504 0
71 2 S116 729 1373073 2233 0
71 2 S116 739 1373812 2972 0
71 2 S116 755 1374567 3727 0
71 2 S116 760 1375327 4487 0
71 2 S116 761 1376088 5248 0
71 2 S116 829 1376917 6077 0
71 2 S116 870 1377787 6947 0
0 0 0 919 1378706 -9856 0
0 0 0 919 1379625 -8937 0
0 0 0 844 1380469 -8093 0
0 0 0 765 1381234 -7328 0
0 0 0 745 1381979 -6583 0
0 0 0 729 1382708 -5854 0
0 0 0 740 1383448 -5114 0
0 0 0 741 1384189 -4373 0
0 0 0 791 1384980 -3582 0
0 0 0 847 1385827 -2735 0
72 1 S102 875 1386702 -1860 0
72 1 S102 822 1387524 -1038 0
72 1 S102 821 1388345 -217 0
72 2 S102 911 1389256 694 0
72 2 S102 923 1390179 1617 0
72 2 S102 829 1391008 2446 0
72 2 S102 770 1391778 3216 0
72 2 S102 764 1392542 3980 0
72 2 S102 775 1393317 4755 0
72 2 S102 788 1394105 5543 0
72 2 S102 755 1394860 6298 0
0 0 0 731 1395591 -7792 0
0 0 0 771 1396362 -7021 0
0 0 0 847 1397209 -6174 0
0 0 0 936 1398145 -5238 0
0 0 0 843 1398988 -4395 0
0 0 0 838 1399826 -3557 0
0 0 0 819 1400645 -2738 0
73 1 S116 832 1401477 -1906 0
73 1 S116 781 1402258 -1125 0
73 1 S116 746 1403004 -379 0
73 2 S116 749 1403753 370 0
73 2 S116 806 1404559 1176 0
73 2 S116 871 1405430 2047 0
73 2 S116 844 1406274 2891 0
73 2 S116 800 1407074 3691 0
73 2 S116 851 1407925 4542 0
73 2 S116 914 1408839 5456 0
73 2 S116 877 1409716 6333 0
0 0 0 812 1410528 -10080 0
0 0 0 748 1411276 -9332 0
0 0 0 757 1412033 -8575 0
0 0 0 771 1412804 -7804 0
0 0 0 786 1413590 -7018 0
0 0 0 738 1414328 -6280 0
0 0 0 741 1415069 -5539 0
0 0 0 711 1415780 -4828 0
0 0 0 728 1416508 -4100 0
0 0 0 705 1417213 -3395 0
0 0 0 696 1417909 -2699 0
0 0 0 678 1418587 -2021 0
74 1 S106 667 1419254 -1354 0
74 1 S106 686 1419940 -668 0
74 2 S106 718 1420658 50 0
74 2 S106 709 1421367 759 0
74 2 S106 688 1422055 1447 0
74 2 S106 702 1422757 2149 0
74 2 S106 713 1423470 2862 0
74 2 S106 707 1424177 3569 0
74 2 S106 712 1424889 4281 0
74 2 S106 693 1425582 4974 0
74 2 S106 694 1426276 5668 0
74 2 S106 711 1426987 6379 0
0 0 0 730 1427717 -7430 0
0 0 0 718 1428435 -6712 0
0 0 0 705 1429140 -6007 0
0 0 0 730 1429870 -5277 0
0 0 0 735 1430605 -4542 0
0 0 0 729 1431334 -3813 0
0 0 0 738 1432072 -3075 0
0 0 0 714 1432786 -2361 0
75 1 S112 690 1433476 -1671 0
75 1 S112 663 1434139 -1008 0
75 1 S112 617 1434756 -391 0
75 2 S112 634 1435390 243 0
75 2 S112 1083 1436473 1326 1
75 2 S112 868 1437341 2194 0
75 2 S112 800 1438141 2994 0
75 2 S112 768 1438909 3762 0
75 2 S112 834 1439743 4596 0
75 2 S112 880 1440623 5476 0
75 2 S112 860 1441483 6336 0
0 0 0 843 1442326 -7477 0
0 0 0 804 1443130 -6673 0
0 0 0 753 1443883 -5920 0
0 0 0 753 1444636 -5167 0
0 0 0 727 1445363 -4440 0
0 0 0 688 1446051 -3752 0
0 0 0 676 1446727 -3076 0
0 0 0 655 1447382 -2421 0
76 1 S116 656 1448038 -1765 0
76 1 S116 691 1448729 -1074 0
76 1 S116 725 1449454 -349 0
76 2 S116 742 1450196 393 0
76 2 S116 750 1450946 1143 0
76 2 S116 797 1451743 1940 0
76 2 S116 778 1452521 2718 0
76 2 S116 744 1453265 3462 0
76 2 S116 718 1453983 4180 0
76 2 S116 740 1454723 4920 0
76 2 S116 771 1455494 5691 0
76 2 S116 826 1456320 6517 0
0 0 0 791 1457111 -8574 0
0 0 0 801 1457912 -7773 0
0 0 0 765 1458677 -7008 0
0 0 0 738 1459415 -6270 0
0 0 0 751 1460166 -5519 0
0 0 0 772 1460938 -4747 0
0 0 0 758 1461696 -3989 0
0 0 0 764 1462460 -3225 0
0 0 0 751 1463211 -2474 0
77 1 S106 721 1463932 -1753 0
77 1 S106 727 1464659 -1026 0
77 1 S106 735 1465394 -291 0
77 2 S106 732 1466126 441 0
77 2 S106 723 1466849 1164 0
77 2 S106 715 1467564 1879 0
77 2 S106 702 1468266 2581 0
77 2 S106 718 1468984 3299 0
77 2 S106 750 1469734 4049 0
77 2 S106 743 1470477 4792 0
77 2 S106 746 1471223 5538 0
77 2 S106 729 1471952 6267 0
77 2 S106 699 1472651 6966 0
0 0 0 698 1473349 -8682 0
0 0 0 717 1474066 -7965 0
0 0 0 759 1474825 -7206 0
0 0 0 746 1475571 -6460 0
0 0 0 714 1476285 -5746 0
0 0 0 693 1476978 -5053 0
0 0 0 700 1477678 -4353 0
0 0 0 713 1478391 -3640 0
0 0 0 727 1479118 -2913 0
0 0 0 730 1479848 -2183 0
78 1 S112 711 1480559 -1472 0
78 1 S112 703 1481262 -769 0
78 1 S112 696 1481958 -73 0
78 2 S112 693 1482651 620 0
78 2 S112 697 1483348 1317 0
78 2 S112 707 1484055 2024 0
78 2 S112 697 1484752 2721 0
78 2 S112 689 1485441 3410 0
78 2 S112 702 1486143 4112 0
78 2 S112 750 1486893 4862 0
78 2 S112 795 1487688 5657 0
78 2 S112 810 1488498 6467 0
0 0 0 811 1489309 -11323 0
0 0 0 774 1490083 -10549 0
0 0 0 736 1490819 -9813 0
0 0 0 710 1491529 -9103 0
0 0 0 686 1492215 -8417 0
0 0 0 670 1492885 -7747 0
0 0 0 697 1493582 -7050 0
0 0 0 733 1494315 -6317 0
0 0 0 754 1495069 -5563 0
0 0 0 758 1495827 -4805 0
0 0 0 803 1496630 -4002 0
0 0 0 864 1497494 -3138 0
0 0 0 822 1498316 -2316 0
79 1 S102 792 1499108 -1524 0
79 1 S102 757 1499865 -767 0
79 1 S102 722 1500587 -45 0
79 2 S102 714 1501301 669 0
79 2 S102 706 1502007 1375 0
79 2 S102 699 1502706 2074 0
79 2 S102 689 1503395 2763 0
79 2 S102 696 1504091 3459 0
79 2 S102 733 1504824 4192 0
79 2 S102 798 1505622 4990 0
79 2 S102 822 1506444 5812 0
79 2 S102 799 1507243 6611 0
0 0 0 811 1508054 -8062 0
0 0 0 804 1508858 -7258 0
0 0 0 787 1509645 -6471 0
0 0 0 753 1510398 -5718 0
0 0 0 719 1511117 -4999 0
0 0 0 725 1511842 -4274 0
0 0 0 760 1512602 -3514 0
0 0 0 796 1513398 -2718 0
80 1 S116 799 1514197 -1919 0
80 1 S116 807 1515004 -1112 0
80 1 S116 759 1515763 -353 0
80 2 S116 757 1516520 404 0
80 2 S116 797 1517317 1201 0
80 2 S116 774 1518091 1975 0
80 2 S116 768 1518859 2743 0
80 2 S116 763 1519622 3506 0
80 2 S116 791 1520413 4297 0
80 2 S116 765 1521178 5062 0
80 2 S116 783 1521961 5845 0
80 2 S116 778 1522739 6623 0
