T_0145
BeatCount Mean SD BeatCountNoOutliers MeanNoOutliers SDNoOutliers
1993 767,155544405419 72,9461407369218 1954 765,480040941658 65,368188800036

Trial TrialStatus Trialtype IBI AbsPosition RelPosition Outlier
0 0 0 789 1433 -14520 0
0 0 0 766 2199 -13754 0
0 0 0 758 2957 -12996 0
0 0 0 750 3707 -12246 0
0 0 0 727 4434 -11519 0
0 0 0 694 5128 -10825 0
0 0 0 712 5840 -10113 0
0 0 0 714 6554 -9399 0
0 0 0 745 7299 -8654 0
0 0 0 768 8067 -7886 0
0 0 0 766 8833 -7120 0
0 0 0 774 9607 -6346 0
0 0 0 751 10358 -5595 0
0 0 0 734 11092 -4861 0
0 0 0 718 11810 -4143 0
0 0 0 703 12513 -3440 0
0 0 0 704 13217 -2736 0
0 0 0 685 13902 -2051 0
1 1 S112 666 14568 -1385 0
1 1 S112 642 15210 -743 0
1 1 S112 617 15827 -126 0
1 2 S112 599 16426 473 0
1 2 S112 603 17029 1076 0
1 2 S112 590 17619 1666 0
1 2 S112 587 18206 2253 0
1 2 S112 582 18788 2835 0
1 2 S112 588 19376 3423 0
1 2 S112 602 19978 4025 0
1 2 S112 619 20597 4644 0
1 2 S112 639 21236 5283 0
1 2 S112 659 21895 5942 0
1 2 S112 662 22557 6604 0
0 0 0 677 23234 -10574 0
0 0 0 685 23919 -9889 0
0 0 0 720 24639 -9169 0
0 0 0 726 25365 -8443 0
0 0 0 728 26093 -7715 0
0 0 0 728 26821 -6987 0
0 0 0 798 27619 -6189 0
0 0 0 869 28488 -5320 0
0 0 0 869 29357 -4451 0
0 0 0 825 30182 -3626 0
0 0 0 781 30963 -2845 0
0 0 0 728 31691 -2117 0
2 1 S102 719 32410 -1398 0
2 1 S102 729 33139 -669 0
2 2 S102 749 33888 80 0
2 2 S102 818 34706 898 0
2 2 S102 837 35543 1735 0
2 2 S102 831 36374 2566 0
2 2 S102 784 37158 3350 0
2 2 S102 757 37915 4107 0
2 2 S102 751 38666 4858 0
2 2 S102 764 39430 5622 0
2 2 S102 763 40193 6385 0
0 0 0 750 40943 -10654 0
0 0 0 746 41689 -9908 0
0 0 0 745 42434 -9163 0
0 0 0 730 43164 -8433 0
0 0 0 699 43863 -7734 0
0 0 0 709 44572 -7025 0
0 0 0 710 45282 -6315 0
0 0 0 742 46024 -5573 0
0 0 0 765 46789 -4808 0
0 0 0 723 47512 -4085 0
0 0 0 721 48233 -3364 0
0 0 0 734 48967 -2630 0
3 1 S116 758 49725 -1872 0
3 1 S116 777 50502 -1095 0
3 1 S116 754 51256 -341 0
3 2 S116 733 51989 392 0
3 2 S116 708 52697 1100 0
3 2 S116 726 53423 1826 0
3 2 S116 734 54157 2560 0
3 2 S116 732 54889 3292 0
3 2 S116 729 55618 4021 0
3 2 S116 720 56338 4741 0
3 2 S116 705 57043 5446 0
3 2 S116 725 57768 6171 0
3 2 S116 731 58499 6902 0
0 0 0 751 59250 -10600 0
0 0 0 749 59999 -9851 0
0 0 0 723 60722 -9128 0
0 0 0 739 61461 -8389 0
0 0 0 717 62178 -7672 0
0 0 0 724 62902 -6948 0
0 0 0 698 63600 -6250 0
0 0 0 706 64306 -5544 0
0 0 0 711 65017 -4833 0
0 0 0 742 65759 -4091 0
0 0 0 756 66515 -3335 0
0 0 0 761 67276 -2574 0
4 1 S106 753 68029 -1821 0
4 1 S106 751 68780 -1070 0
4 1 S106 762 69542 -308 0
4 2 S106 753 70295 445 0
4 2 S106 741 71036 1186 0
4 2 S106 707 71743 1893 0
4 2 S106 698 72441 2591 0
4 2 S106 704 73145 3295 0
4 2 S106 700 73845 3995 0
4 2 S106 708 74553 4703 0
4 2 S106 704 75257 5407 0
4 2 S106 687 75944 6094 0
4 2 S106 714 76658 6808 0
0 0 0 733 77391 -6385 0
0 0 0 804 78195 -5581 0
0 0 0 834 79029 -4747 0
0 0 0 806 79835 -3941 0
0 0 0 807 80642 -3134 0
0 0 0 806 81448 -2328 0
5 1 S116 800 82248 -1528 0
5 1 S116 792 83040 -736 0
5 2 S116 769 83809 33 0
5 2 S116 731 84540 764 0
5 2 S116 738 85278 1502 0
5 2 S116 729 86007 2231 0
5 2 S116 729 86736 2960 0
5 2 S116 706 87442 3666 0
5 2 S116 698 88140 4364 0
5 2 S116 729 88869 5093 0
5 2 S116 753 89622 5846 0
5 2 S116 783 90405 6629 0
0 0 0 806 91211 -10187 0
0 0 0 805 92016 -9382 0
0 0 0 855 92871 -8527 0
0 0 0 834 93705 -7693 0
0 0 0 821 94526 -6872 0
0 0 0 753 95279 -6119 0
0 0 0 756 96035 -5363 0
0 0 0 734 96769 -4629 0
0 0 0 747 97516 -3882 0
0 0 0 734 98250 -3148 0
0 0 0 741 98991 -2407 0
6 1 S106 769 99760 -1638 0
6 1 S106 799 100559 -839 0
6 1 S106 784 101343 -55 0
6 2 S106 762 102105 707 0
6 2 S106 784 102889 1491 0
6 2 S106 817 103706 2308 0
6 2 S106 805 104511 3113 0
6 2 S106 740 105251 3853 0
6 2 S106 695 105946 4548 0
6 2 S106 692 106638 5240 0
6 2 S106 689 107327 5929 0
6 2 S106 695 108022 6624 0
0 0 0 717 108739 -10796 0
0 0 0 727 109466 -10069 0
0 0 0 758 110224 -9311 0
0 0 0 810 111034 -8501 0
0 0 0 771 111805 -7730 0
0 0 0 733 112538 -6997 0
0 0 0 702 113240 -6295 0
0 0 0 694 113934 -5601 0
0 0 0 689 114623 -4912 0
0 0 0 691 115314 -4221 0
0 0 0 692 116006 -3529 0
0 0 0 695 116701 -2834 0
0 0 0 693 117394 -2141 0
7 1 S102 726 118120 -1415 0
7 1 S102 751 118871 -664 0
7 2 S102 770 119641 106 0
7 2 S102 812 120453 918 0
7 2 S102 766 121219 1684 0
7 2 S102 725 121944 2409 0
7 2 S102 726 122670 3135 0
7 2 S102 711 123381 3846 0
7 2 S102 708 124089 4554 0
7 2 S102 703 124792 5257 0
7 2 S102 693 125485 5950 0
7 2 S102 708 126193 6658 0
0 0 0 730 126923 -7964 0
0 0 0 754 127677 -7210 0
0 0 0 755 128432 -6455 0
0 0 0 734 129166 -5721 0
0 0 0 724 129890 -4997 0
0 0 0 721 130611 -4276 0
0 0 0 732 131343 -3544 0
0 0 0 733 132076 -2811 0
0 0 0 740 132816 -2071 0
8 1 S112 751 133567 -1320 0
8 1 S112 803 134370 -517 0
8 2 S112 848 135218 331 0
8 2 S112 859 136077 1190 0
8 2 S112 820 136897 2010 0
8 2 S112 768 137665 2778 0
8 2 S112 781 138446 3559 0
8 2 S112 792 139238 4351 0
8 2 S112 802 140040 5153 0
8 2 S112 809 140849 5962 0
8 2 S112 811 141660 6773 0
0 0 0 797 142457 -6555 0
0 0 0 771 143228 -5784 0
0 0 0 735 143963 -5049 0
0 0 0 731 144694 -4318 0
0 0 0 716 145410 -3602 0
0 0 0 726 146136 -2876 0
0 0 0 741 146877 -2135 0
9 1 S116 727 147604 -1408 0
9 1 S116 772 148376 -636 0
9 2 S116 775 149151 139 0
9 2 S116 797 149948 936 0
9 2 S116 828 150776 1764 0
9 2 S116 823 151599 2587 0
9 2 S116 883 152482 3470 0
9 2 S116 856 153338 4326 0
9 2 S116 811 154149 5137 0
9 2 S116 761 154910 5898 0
9 2 S116 767 155677 6665 0
0 0 0 754 156431 -10618 0
0 0 0 744 157175 -9874 0
0 0 0 738 157913 -9136 0
0 0 0 704 158617 -8432 0
0 0 0 682 159299 -7750 0
0 0 0 693 159992 -7057 0
0 0 0 698 160690 -6359 0
0 0 0 730 161420 -5629 0
0 0 0 767 162187 -4862 0
0 0 0 764 162951 -4098 0
0 0 0 827 163778 -3271 0
0 0 0 841 164619 -2430 0
10 1 S102 831 165450 -1599 0
10 1 S102 813 166263 -786 0
10 2 S102 820 167083 34 0
10 2 S102 811 167894 845 0
10 2 S102 776 168670 1621 0
10 2 S102 733 169403 2354 0
10 2 S102 727 170130 3081 0
10 2 S102 728 170858 3809 0
10 2 S102 716 171574 4525 0
10 2 S102 698 172272 5223 0
10 2 S102 697 172969 5920 0
10 2 S102 703 173672 6623 0
0 0 0 718 174390 -13266 0
0 0 0 721 175111 -12545 0
0 0 0 722 175833 -11823 0
0 0 0 752 176585 -11071 0
0 0 0 761 177346 -10310 0
0 0 0 781 178127 -9529 0
0 0 0 783 178910 -8746 0
0 0 0 767 179677 -7979 0
0 0 0 782 180459 -7197 0
0 0 0 755 181214 -6442 0
0 0 0 708 181922 -5734 0
0 0 0 701 182623 -5033 0
0 0 0 703 183326 -4330 0
0 0 0 696 184022 -3634 0
0 0 0 692 184714 -2942 0
0 0 0 680 185394 -2262 0
11 1 S112 690 186084 -1572 0
11 1 S112 684 186768 -888 0
11 1 S112 685 187453 -203 0
11 2 S112 675 188128 472 0
11 2 S112 669 188797 1141 0
11 2 S112 693 189490 1834 0
11 2 S112 708 190198 2542 0
11 2 S112 696 190894 3238 0
11 2 S112 702 191596 3940 0
11 2 S112 720 192316 4660 0
11 2 S112 691 193007 5351 0
11 2 S112 683 193690 6034 0
11 2 S112 660 194350 6694 0
0 0 0 646 194996 -6337 0
0 0 0 636 195632 -5701 0
0 0 0 633 196265 -5068 0
0 0 0 640 196905 -4428 0
0 0 0 630 197535 -3798 0
0 0 0 633 198168 -3165 0
0 0 0 624 198792 -2541 0
12 1 S116 624 199416 -1917 0
12 1 S116 628 200044 -1289 0
12 1 S116 631 200675 -658 0
12 1 S116 636 201311 -22 0
12 2 S116 635 201946 613 0
12 2 S116 642 202588 1255 0
12 2 S116 652 203240 1907 0
12 2 S116 678 203918 2585 0
12 2 S116 723 204641 3308 0
12 2 S116 739 205380 4047 0
12 2 S116 785 206165 4832 0
12 2 S116 837 207002 5669 0
12 2 S116 878 207880 6547 0
0 0 0 912 208792 -11076 0
0 0 0 883 209675 -10193 0
0 0 0 870 210545 -9323 0
0 0 0 850 211395 -8473 0
0 0 0 809 212204 -7664 0
0 0 0 763 212967 -6901 0
0 0 0 722 213689 -6179 0
0 0 0 745 214434 -5434 0
0 0 0 749 215183 -4685 0
0 0 0 774 215957 -3911 0
0 0 0 774 216731 -3137 0
0 0 0 835 217566 -2302 0
13 1 S112 889 218455 -1413 0
13 1 S112 882 219337 -531 0
13 2 S112 816 220153 285 0
13 2 S112 834 220987 1119 0
13 2 S112 850 221837 1969 0
13 2 S112 801 222638 2770 0
13 2 S112 756 223394 3526 0
13 2 S112 766 224160 4292 0
13 2 S112 772 224932 5064 0
13 2 S112 802 225734 5866 0
13 2 S112 820 226554 6686 0
0 0 0 800 227354 -12192 0
0 0 0 867 228221 -11325 0
0 0 0 879 229100 -10446 0
0 0 0 878 229978 -9568 0
0 0 0 843 230821 -8725 0
0 0 0 822 231643 -7903 0
0 0 0 803 232446 -7100 0
0 0 0 772 233218 -6328 0
0 0 0 747 233965 -5581 0
0 0 0 780 234745 -4801 0
0 0 0 772 235517 -4029 0
0 0 0 794 236311 -3235 0
0 0 0 755 237066 -2480 0
14 1 S106 820 237886 -1660 0
14 1 S106 850 238736 -810 0
14 2 S106 840 239576 30 0
14 2 S106 791 240367 821 0
14 2 S106 811 241178 1632 0
14 2 S106 813 241991 2445 0
14 2 S106 793 242784 3238 0
14 2 S106 764 243548 4002 0
14 2 S106 761 244309 4763 0
14 2 S106 787 245096 5550 0
14 2 S106 799 245895 6349 0
0 0 0 822 246717 -12458 0
0 0 0 789 247506 -11669 0
0 0 0 773 248279 -10896 0
0 0 0 808 249087 -10088 0
0 0 0 799 249886 -9289 0
0 0 0 818 250704 -8471 0
0 0 0 793 251497 -7678 0
0 0 0 816 252313 -6862 0
0 0 0 847 253160 -6015 0
0 0 0 850 254010 -5165 0
0 0 0 831 254841 -4334 0
0 0 0 844 255685 -3490 0
0 0 0 835 256520 -2655 0
15 1 S116 801 257321 -1854 0
15 1 S116 750 258071 -1104 0
15 1 S116 739 258810 -365 0
15 2 S116 724 259534 359 0
15 2 S116 712 260246 1071 0
15 2 S116 710 260956 1781 0
15 2 S116 726 261682 2507 0
15 2 S116 794 262476 3301 0
15 2 S116 898 263374 4199 0
15 2 S116 928 264302 5127 0
15 2 S116 893 265195 6020 0
15 2 S116 922 266117 6942 0
0 0 0 934 267051 -8868 0
0 0 0 920 267971 -7948 0
0 0 0 872 268843 -7076 0
0 0 0 797 269640 -6279 0
0 0 0 758 270398 -5521 0
0 0 0 735 271133 -4786 0
0 0 0 699 271832 -4087 0
0 0 0 670 272502 -3417 0
0 0 0 683 273185 -2734 0
0 0 0 692 273877 -2042 0
16 1 S116 782 274659 -1260 0
16 1 S116 890 275549 -370 0
16 2 S116 891 276440 521 0
16 2 S116 875 277315 1396 0
16 2 S116 927 278242 2323 0
16 2 S116 950 279192 3273 0
16 2 S116 902 280094 4175 0
16 2 S116 887 280981 5062 0
16 2 S116 880 281861 5942 0
16 2 S116 843 282704 6785 0
0 0 0 786 283490 -9638 0
0 0 0 764 284254 -8874 0
0 0 0 759 285013 -8115 0
0 0 0 765 285778 -7350 0
0 0 0 778 286556 -6572 0
0 0 0 765 287321 -5807 0
0 0 0 746 288067 -5061 0
0 0 0 762 288829 -4299 0
0 0 0 770 289599 -3529 0
0 0 0 766 290365 -2763 0
0 0 0 760 291125 -2003 0
17 1 S106 777 291902 -1226 0
17 1 S106 838 292740 -388 0
17 2 S106 874 293614 486 0
17 2 S106 919 294533 1405 0
17 2 S106 858 295391 2263 0
17 2 S106 807 296198 3070 0
17 2 S106 825 297023 3895 0
17 2 S106 777 297800 4672 0
17 2 S106 718 298518 5390 0
17 2 S106 700 299218 6090 0
17 2 S106 712 299930 6802 0
0 0 0 736 300666 -10549 0
0 0 0 822 301488 -9727 0
0 0 0 864 302352 -8863 0
0 0 0 801 303153 -8062 0
0 0 0 848 304001 -7214 0
0 0 0 855 304856 -6359 0
0 0 0 860 305716 -5499 0
0 0 0 828 306544 -4671 0
0 0 0 793 307337 -3878 0
0 0 0 805 308142 -3073 0
0 0 0 789 308931 -2284 0
18 1 S102 773 309704 -1511 0
18 1 S102 742 310446 -769 0
18 2 S102 785 311231 16 0
18 2 S102 792 312023 808 0
18 2 S102 785 312808 1593 0
18 2 S102 778 313586 2371 0
18 2 S102 806 314392 3177 0
18 2 S102 814 315206 3991 0
18 2 S102 801 316007 4792 0
18 2 S102 787 316794 5579 0
18 2 S102 832 317626 6411 0
0 0 0 834 318460 -6747 0
0 0 0 808 319268 -5939 0
0 0 0 771 320039 -5168 0
0 0 0 790 320829 -4378 0
0 0 0 776 321605 -3602 0
0 0 0 754 322359 -2848 0
0 0 0 741 323100 -2107 0
19 1 S106 771 323871 -1336 0
19 1 S106 791 324662 -545 0
19 2 S106 812 325474 267 0
19 2 S106 812 326286 1079 0
19 2 S106 815 327101 1894 0
19 2 S106 821 327922 2715 0
19 2 S106 817 328739 3532 0
19 2 S106 804 329543 4336 0
19 2 S106 804 330347 5140 0
19 2 S106 811 331158 5951 0
19 2 S106 793 331951 6744 0
0 0 0 754 332705 -11584 0
0 0 0 717 333422 -10867 0
0 0 0 733 334155 -10134 0
0 0 0 745 334900 -9389 0
0 0 0 759 335659 -8630 0
0 0 0 734 336393 -7896 0
0 0 0 720 337113 -7176 0
0 0 0 723 337836 -6453 0
0 0 0 750 338586 -5703 0
0 0 0 823 339409 -4880 0
0 0 0 840 340249 -4040 0
0 0 0 793 341042 -3247 0
0 0 0 771 341813 -2476 0
20 1 S112 785 342598 -1691 0
20 1 S112 778 343376 -913 0
20 1 S112 773 344149 -140 0
20 2 S112 739 344888 599 0
20 2 S112 715 345603 1314 0
20 2 S112 719 346322 2033 0
20 2 S112 730 347052 2763 0
20 2 S112 754 347806 3517 0
20 2 S112 766 348572 4283 0
20 2 S112 752 349324 5035 0
20 2 S112 769 350093 5804 0
20 2 S112 805 350898 6609 0
0 0 0 810 351708 -10651 0
0 0 0 803 352511 -9848 0
0 0 0 765 353276 -9083 0
0 0 0 804 354080 -8279 0
0 0 0 810 354890 -7469 0
0 0 0 791 355681 -6678 0
0 0 0 759 356440 -5919 0
0 0 0 748 357188 -5171 0
0 0 0 772 357960 -4399 0
0 0 0 774 358734 -3625 0
0 0 0 752 359486 -2873 0
0 0 0 747 360233 -2126 0
21 1 S106 813 361046 -1313 0
21 1 S106 814 361860 -499 0
21 2 S106 830 362690 331 0
21 2 S106 804 363494 1135 0
21 2 S106 832 364326 1967 0
21 2 S106 828 365154 2795 0
21 2 S106 820 365974 3615 0
21 2 S106 780 366754 4395 0
21 2 S106 792 367546 5187 0
21 2 S106 805 368351 5992 0
21 2 S106 815 369166 6807 0
0 0 0 787 369953 -12433 0
0 0 0 797 370750 -11636 0
0 0 0 810 371560 -10826 0
0 0 0 828 372388 -9998 0
0 0 0 833 373221 -9165 0
0 0 0 819 374040 -8346 0
0 0 0 798 374838 -7548 0
0 0 0 755 375593 -6793 0
0 0 0 696 376289 -6097 0
0 0 0 680 376969 -5417 0
0 0 0 674 377643 -4743 0
0 0 0 683 378326 -4060 0
0 0 0 688 379014 -3372 0
0 0 0 688 379702 -2684 0
22 1 S116 685 380387 -1999 0
22 1 S116 711 381098 -1288 0
22 1 S116 717 381815 -571 0
22 2 S116 726 382541 155 0
22 2 S116 714 383255 869 0
22 2 S116 699 383954 1568 0
22 2 S116 708 384662 2276 0
22 2 S116 721 385383 2997 0
22 2 S116 720 386103 3717 0
22 2 S116 728 386831 4445 0
22 2 S116 739 387570 5184 0
22 2 S116 759 388329 5943 0
22 2 S116 789 389118 6732 0
0 0 0 813 389931 -8238 0
0 0 0 823 390754 -7415 0
0 0 0 788 391542 -6627 0
0 0 0 813 392355 -5814 0
0 0 0 826 393181 -4988 0
0 0 0 824 394005 -4164 0
0 0 0 799 394804 -3365 0
0 0 0 834 395638 -2531 0
23 1 S112 856 396494 -1675 0
23 1 S112 828 397322 -847 0
23 1 S112 795 398117 -52 0
23 2 S112 783 398900 731 0
23 2 S112 797 399697 1528 0
23 2 S112 829 400526 2357 0
23 2 S112 807 401333 3164 0
23 2 S112 806 402139 3970 0
23 2 S112 835 402974 4805 0
23 2 S112 827 403801 5632 0
23 2 S112 813 404614 6445 0
0 0 0 810 405424 -8577 0
0 0 0 838 406262 -7739 0
0 0 0 844 407106 -6895 0
0 0 0 781 407887 -6114 0
0 0 0 820 408707 -5294 0
0 0 0 846 409553 -4448 0
0 0 0 832 410385 -3616 0
0 0 0 842 411227 -2774 0
24 1 S106 835 412062 -1939 0
24 1 S106 849 412911 -1090 0
24 1 S106 838 413749 -252 0
24 2 S106 800 414549 548 0
24 2 S106 758 415307 1306 0
24 2 S106 761 416068 2067 0
24 2 S106 752 416820 2819 0
24 2 S106 738 417558 3557 0
24 2 S106 718 418276 4275 0
24 2 S106 737 419013 5012 0
24 2 S106 749 419762 5761 0
24 2 S106 821 420583 6582 0
0 0 0 826 421409 -8292 0
0 0 0 804 422213 -7488 0
0 0 0 850 423063 -6638 0
0 0 0 796 423859 -5842 0
0 0 0 760 424619 -5082 0
0 0 0 743 425362 -4339 0
0 0 0 740 426102 -3599 0
0 0 0 746 426848 -2853 0
0 0 0 760 427608 -2093 0
25 1 S102 734 428342 -1359 0
25 1 S102 724 429066 -635 0
25 2 S102 746 429812 111 0
25 2 S102 761 430573 872 0
25 2 S102 768 431341 1640 0
25 2 S102 739 432080 2379 0
25 2 S102 748 432828 3127 0
25 2 S102 777 433605 3904 0
25 2 S102 774 434379 4678 0
25 2 S102 763 435142 5441 0
25 2 S102 749 435891 6190 0
25 2 S102 762 436653 6952 0
0 0 0 758 437411 -7774 0
0 0 0 775 438186 -6999 0
0 0 0 776 438962 -6223 0
0 0 0 780 439742 -5443 0
0 0 0 798 440540 -4645 0
0 0 0 794 441334 -3851 0
0 0 0 782 442116 -3069 0
0 0 0 793 442909 -2276 0
26 1 S116 821 443730 -1455 0
26 1 S116 816 444546 -639 0
26 2 S116 795 445341 156 0
26 2 S116 777 446118 933 0
26 2 S116 784 446902 1717 0
26 2 S116 782 447684 2499 0
26 2 S116 777 448461 3276 0
26 2 S116 766 449227 4042 0
26 2 S116 798 450025 4840 0
26 2 S116 788 450813 5628 0
26 2 S116 773 451586 6401 0
0 0 0 779 452365 -7708 0
0 0 0 786 453151 -6922 0
0 0 0 822 453973 -6100 0
0 0 0 796 454769 -5304 0
0 0 0 780 455549 -4524 0
0 0 0 741 456290 -3783 0
0 0 0 819 457109 -2964 0
0 0 0 781 457890 -2183 0
27 1 S106 758 458648 -1425 0
27 1 S106 695 459343 -730 0
27 1 S106 651 459994 -79 0
27 2 S106 625 460619 546 0
27 2 S106 608 461227 1154 0
27 2 S106 627 461854 1781 0
27 2 S106 640 462494 2421 0
27 2 S106 710 463204 3131 0
27 2 S106 824 464028 3955 0
27 2 S106 790 464818 4745 0
27 2 S106 789 465607 5534 0
27 2 S106 780 466387 6314 0
0 0 0 782 467169 -7393 0
0 0 0 788 467957 -6605 0
0 0 0 765 468722 -5840 0
0 0 0 739 469461 -5101 0
0 0 0 712 470173 -4389 0
0 0 0 683 470856 -3706 0
0 0 0 670 471526 -3036 0
0 0 0 661 472187 -2375 0
28 1 S102 651 472838 -1724 0
28 1 S102 648 473486 -1076 0
28 1 S102 655 474141 -421 0
28 2 S102 660 474801 239 0
28 2 S102 676 475477 915 0
28 2 S102 733 476210 1648 0
28 2 S102 827 477037 2475 0
28 2 S102 939 477976 3414 0
28 2 S102 958 478934 4372 1
28 2 S102 929 479863 5301 0
28 2 S102 971 480834 6272 1
0 0 0 972 481806 -13346 1
0 0 0 962 482768 -12384 1
0 0 0 903 483671 -11481 0
0 0 0 859 484530 -10622 0
0 0 0 827 485357 -9795 0
0 0 0 819 486176 -8976 0
0 0 0 766 486942 -8210 0
0 0 0 711 487653 -7499 0
0 0 0 700 488353 -6799 0
0 0 0 719 489072 -6080 0
0 0 0 759 489831 -5321 0
0 0 0 833 490664 -4488 0
0 0 0 869 491533 -3619 0
0 0 0 802 492335 -2817 0
0 0 0 806 493141 -2011 0
29 1 S112 782 493923 -1229 0
29 1 S112 768 494691 -461 0
29 2 S112 744 495435 283 0
29 2 S112 704 496139 987 0
29 2 S112 688 496827 1675 0
29 2 S112 672 497499 2347 0
29 2 S112 665 498164 3012 0
29 2 S112 697 498861 3709 0
29 2 S112 723 499584 4432 0
29 2 S112 696 500280 5128 0
29 2 S112 706 500986 5834 0
29 2 S112 752 501738 6586 0
0 0 0 808 502546 -7030 0
0 0 0 874 503420 -6156 0
0 0 0 835 504255 -5321 0
0 0 0 800 505055 -4521 0
0 0 0 744 505799 -3777 0
0 0 0 750 506549 -3027 0
0 0 0 759 507308 -2268 0
30 1 S112 792 508100 -1476 0
30 1 S112 856 508956 -620 0
30 2 S112 818 509774 198 0
30 2 S112 860 510634 1058 0
30 2 S112 850 511484 1908 0
30 2 S112 865 512349 2773 0
30 2 S112 821 513170 3594 0
30 2 S112 814 513984 4408 0
30 2 S112 821 514805 5229 0
30 2 S112 827 515632 6056 0
30 2 S112 798 516430 6854 0
0 0 0 779 517209 -8497 0
0 0 0 852 518061 -7645 0
0 0 0 828 518889 -6817 0
0 0 0 798 519687 -6019 0
0 0 0 773 520460 -5246 0
0 0 0 779 521239 -4467 0
0 0 0 781 522020 -3686 0
0 0 0 809 522829 -2877 0
0 0 0 792 523621 -2085 0
31 1 S106 782 524403 -1303 0
31 1 S106 826 525229 -477 0
31 2 S106 822 526051 345 0
31 2 S106 820 526871 1165 0
31 2 S106 851 527722 2016 0
31 2 S106 880 528602 2896 0
31 2 S106 888 529490 3784 0
31 2 S106 858 530348 4642 0
31 2 S106 785 531133 5427 0
31 2 S106 815 531948 6242 0
0 0 0 802 532750 -8822 0
0 0 0 807 533557 -8015 0
0 0 0 765 534322 -7250 0
0 0 0 771 535093 -6479 0
0 0 0 785 535878 -5694 0
0 0 0 811 536689 -4883 0
0 0 0 763 537452 -4120 0
0 0 0 732 538184 -3388 0
0 0 0 763 538947 -2625 0
32 1 S102 796 539743 -1829 0
32 1 S102 801 540544 -1028 0
32 1 S102 776 541320 -252 0
32 2 S102 789 542109 537 0
32 2 S102 793 542902 1330 0
32 2 S102 767 543669 2097 0
32 2 S102 741 544410 2838 0
32 2 S102 743 545153 3581 0
32 2 S102 740 545893 4321 0
32 2 S102 745 546638 5066 0
32 2 S102 729 547367 5795 0
32 2 S102 749 548116 6544 0
0 0 0 792 548908 -13006 0
0 0 0 811 549719 -12195 0
0 0 0 841 550560 -11354 0
0 0 0 819 551379 -10535 0
0 0 0 841 552220 -9694 0
0 0 0 863 553083 -8831 0
0 0 0 789 553872 -8042 0
0 0 0 751 554623 -7291 0
0 0 0 724 555347 -6567 0
0 0 0 730 556077 -5837 0
0 0 0 732 556809 -5105 0
0 0 0 759 557568 -4346 0
0 0 0 784 558352 -3562 0
0 0 0 802 559154 -2760 0
33 1 S112 860 560014 -1900 0
33 1 S112 871 560885 -1029 0
33 1 S112 891 561776 -138 0
33 2 S112 866 562642 728 0
33 2 S112 866 563508 1594 0
33 2 S112 874 564382 2468 0
33 2 S112 871 565253 3339 0
33 2 S112 806 566059 4145 0
33 2 S112 816 566875 4961 0
33 2 S112 823 567698 5784 0
33 2 S112 821 568519 6605 0
0 0 0 777 569296 -11467 0
0 0 0 788 570084 -10679 0
0 0 0 798 570882 -9881 0
0 0 0 791 571673 -9090 0
0 0 0 750 572423 -8340 0
0 0 0 709 573132 -7631 0
0 0 0 721 573853 -6910 0
0 0 0 727 574580 -6183 0
0 0 0 757 575337 -5426 0
0 0 0 801 576138 -4625 0
0 0 0 779 576917 -3846 0
0 0 0 768 577685 -3078 0
0 0 0 726 578411 -2352 0
34 1 S106 729 579140 -1623 0
34 1 S106 745 579885 -878 0
34 1 S106 755 580640 -123 0
34 2 S106 764 581404 641 0
34 2 S106 726 582130 1367 0
34 2 S106 726 582856 2093 0
34 2 S106 747 583603 2840 0
34 2 S106 755 584358 3595 0
34 2 S106 770 585128 4365 0
34 2 S106 761 585889 5126 0
34 2 S106 766 586655 5892 0
34 2 S106 818 587473 6710 0
0 0 0 831 588304 -9038 0
0 0 0 812 589116 -8226 0
0 0 0 750 589866 -7476 0
0 0 0 711 590577 -6765 0
0 0 0 711 591288 -6054 0
0 0 0 692 591980 -5362 0
0 0 0 709 592689 -4653 0
0 0 0 750 593439 -3903 0
0 0 0 754 594193 -3149 0
0 0 0 738 594931 -2411 0
35 1 S102 735 595666 -1676 0
35 1 S102 726 596392 -950 0
35 1 S102 709 597101 -241 0
35 2 S102 690 597791 449 0
35 2 S102 672 598463 1121 0
35 2 S102 669 599132 1790 0
35 2 S102 661 599793 2451 0
35 2 S102 650 600443 3101 0
35 2 S102 651 601094 3752 0
35 2 S102 662 601756 4414 0
35 2 S102 679 602435 5093 0
35 2 S102 703 603138 5796 0
35 2 S102 719 603857 6515 0
0 0 0 731 604588 -8719 0
0 0 0 710 605298 -8009 0
0 0 0 697 605995 -7312 0
0 0 0 741 606736 -6571 0
0 0 0 743 607479 -5828 0
0 0 0 735 608214 -5093 0
0 0 0 741 608955 -4352 0
0 0 0 726 609681 -3626 0
0 0 0 735 610416 -2891 0
0 0 0 726 611142 -2165 0
36 1 S106 708 611850 -1457 0
36 1 S106 689 612539 -768 0
36 1 S106 682 613221 -86 0
36 2 S106 716 613937 630 0
36 2 S106 703 614640 1333 0
36 2 S106 690 615330 2023 0
36 2 S106 731 616061 2754 0
36 2 S106 755 616816 3509 0
36 2 S106 802 617618 4311 0
36 2 S106 795 618413 5106 0
36 2 S106 780 619193 5886 0
36 2 S106 797 619990 6683 0
0 0 0 792 620782 -8540 0
0 0 0 809 621591 -7731 0
0 0 0 791 622382 -6940 0
0 0 0 728 623110 -6212 0
0 0 0 694 623804 -5518 0
0 0 0 697 624501 -4821 0
0 0 0 716 625217 -4105 0
0 0 0 762 625979 -3343 0
0 0 0 813 626792 -2530 0
37 1 S116 835 627627 -1695 0
37 1 S116 802 628429 -893 0
37 1 S116 796 629225 -97 0
37 2 S116 744 629969 647 0
37 2 S116 720 630689 1367 0
37 2 S116 721 631410 2088 0
37 2 S116 727 632137 2815 0
37 2 S116 731 632868 3546 0
37 2 S116 732 633600 4278 0
37 2 S116 731 634331 5009 0
37 2 S116 755 635086 5764 0
37 2 S116 784 635870 6548 0
0 0 0 804 636674 -13255 0
0 0 0 780 637454 -12475 0
0 0 0 755 638209 -11720 0
0 0 0 796 639005 -10924 0
0 0 0 785 639790 -10139 0
0 0 0 789 640579 -9350 0
0 0 0 777 641356 -8573 0
0 0 0 778 642134 -7795 0
0 0 0 764 642898 -7031 0
0 0 0 748 643646 -6283 0
0 0 0 733 644379 -5550 0
0 0 0 765 645144 -4785 0
0 0 0 818 645962 -3967 0
0 0 0 812 646774 -3155 0
0 0 0 781 647555 -2374 0
38 1 S102 756 648311 -1618 0
38 1 S102 784 649095 -834 0
38 1 S102 772 649867 -62 0
38 2 S102 794 650661 732 0
38 2 S102 786 651447 1518 0
38 2 S102 744 652191 2262 0
38 2 S102 696 652887 2958 0
38 2 S102 665 653552 3623 0
38 2 S102 641 654193 4264 0
38 2 S102 641 654834 4905 0
38 2 S102 674 655508 5579 0
38 2 S102 698 656206 6277 0
38 2 S102 708 656914 6985 0
0 0 0 724 657638 -8488 0
0 0 0 718 658356 -7770 0
0 0 0 708 659064 -7062 0
0 0 0 691 659755 -6371 0
0 0 0 683 660438 -5688 0
0 0 0 684 661122 -5004 0
0 0 0 674 661796 -4330 0
0 0 0 660 662456 -3670 0
0 0 0 639 663095 -3031 0
0 0 0 632 663727 -2399 0
39 1 S116 619 664346 -1780 0
39 1 S116 604 664950 -1176 0
39 1 S116 585 665535 -591 0
39 1 S116 576 666111 -15 1
39 2 S116 567 666678 552 1
39 2 S116 559 667237 1111 1
39 2 S116 552 667789 1663 1
39 2 S116 561 668350 2224 1
39 2 S116 617 668967 2841 0
39 2 S116 913 669880 3754 0
39 2 S116 981 670861 4735 1
39 2 S116 1122 671983 5857 1
39 2 S116 1158 673141 7015 1
0 0 0 1114 674255 -5680 1
0 0 0 1085 675340 -4595 1
0 0 0 1041 676381 -3554 1
0 0 0 1002 677383 -2552 1
40 1 S112 919 678302 -1633 0
40 1 S112 830 679132 -803 0
40 2 S112 807 679939 4 0
40 2 S112 817 680756 821 0
40 2 S112 820 681576 1641 0
40 2 S112 844 682420 2485 0
40 2 S112 812 683232 3297 0
40 2 S112 784 684016 4081 0
40 2 S112 771 684787 4852 0
40 2 S112 809 685596 5661 0
40 2 S112 822 686418 6483 0
0 0 0 850 687268 -187165 0
0 0 0 829 688097 -186336 0
0 0 0 758 688855 -185578 0
0 0 0 779 689634 -184799 0
0 0 0 798 690432 -184001 0
0 0 0 817 691249 -183184 0
0 0 0 794 692043 -182390 0
0 0 0 802 692845 -181588 0
0 0 0 1086 693931 -180502 1
0 0 0 972 694903 -179530 1
0 0 0 907 695810 -178623 0
0 0 0 863 696673 -177760 0
0 0 0 803 697476 -176957 0
0 0 0 768 698244 -176189 0
0 0 0 730 698974 -175459 0
0 0 0 696 699670 -174763 0
0 0 0 671 700341 -174092 0
0 0 0 647 700988 -173445 0
0 0 0 639 701627 -172806 0
0 0 0 630 702257 -172176 0
0 0 0 628 702885 -171548 0
0 0 0 625 703510 -170923 0
0 0 0 625 704135 -170298 0
0 0 0 634 704769 -169664 0
0 0 0 634 705403 -169030 0
0 0 0 632 706035 -168398 0
0 0 0 626 706661 -167772 0
0 0 0 633 707294 -167139 0
0 0 0 632 707926 -166507 0
0 0 0 634 708560 -165873 0
0 0 0 640 709200 -165233 0
0 0 0 638 709838 -164595 0
0 0 0 631 710469 -163964 0
0 0 0 631 711100 -163333 0
0 0 0 643 711743 -162690 0
0 0 0 647 712390 -162043 0
0 0 0 642 713032 -161401 0
0 0 0 668 713700 -160733 0
0 0 0 704 714404 -160029 0
0 0 0 717 715121 -159312 0
0 0 0 743 715864 -158569 0
0 0 0 740 716604 -157829 0
0 0 0 713 717317 -157116 0
0 0 0 694 718011 -156422 0
0 0 0 674 718685 -155748 0
0 0 0 663 719348 -155085 0
0 0 0 646 719994 -154439 0
0 0 0 635 720629 -153804 0
0 0 0 623 721252 -153181 0
0 0 0 612 721864 -152569 0
0 0 0 601 722465 -151968 0
0 0 0 592 723057 -151376 0
0 0 0 575 723632 -150801 1
0 0 0 564 724196 -150237 1
0 0 0 553 724749 -149684 1
0 0 0 547 725296 -149137 1
0 0 0 545 725841 -148592 1
0 0 0 537 726378 -148055 1
0 0 0 536 726914 -147519 1
0 0 0 547 727461 -146972 1
0 0 0 570 728031 -146402 1
0 0 0 619 728650 -145783 0
0 0 0 724 729374 -145059 0
0 0 0 762 730136 -144297 0
0 0 0 792 730928 -143505 0
0 0 0 843 731771 -142662 0
0 0 0 832 732603 -141830 0
0 0 0 753 733356 -141077 0
0 0 0 738 734094 -140339 0
0 0 0 770 734864 -139569 0
0 0 0 762 735626 -138807 0
0 0 0 746 736372 -138061 0
0 0 0 724 737096 -137337 0
0 0 0 745 737841 -136592 0
0 0 0 773 738614 -135819 0
0 0 0 799 739413 -135020 0
0 0 0 817 740230 -134203 0
0 0 0 870 741100 -133333 0
0 0 0 818 741918 -132515 0
0 0 0 784 742702 -131731 0
0 0 0 793 743495 -130938 0
0 0 0 768 744263 -130170 0
0 0 0 757 745020 -129413 0
0 0 0 735 745755 -128678 0
0 0 0 697 746452 -127981 0
0 0 0 688 747140 -127293 0
0 0 0 690 747830 -126603 0
0 0 0 706 748536 -125897 0
0 0 0 737 749273 -125160 0
0 0 0 761 750034 -124399 0
0 0 0 761 750795 -123638 0
0 0 0 727 751522 -122911 0
0 0 0 712 752234 -122199 0
0 0 0 724 752958 -121475 0
0 0 0 751 753709 -120724 0
0 0 0 801 754510 -119923 0
0 0 0 793 755303 -119130 0
0 0 0 760 756063 -118370 0
0 0 0 741 756804 -117629 0
0 0 0 737 757541 -116892 0
0 0 0 724 758265 -116168 0
0 0 0 714 758979 -115454 0
0 0 0 691 759670 -114763 0
0 0 0 666 760336 -114097 0
0 0 0 673 761009 -113424 0
0 0 0 673 761682 -112751 0
0 0 0 697 762379 -112054 0
0 0 0 704 763083 -111350 0
0 0 0 675 763758 -110675 0
0 0 0 681 764439 -109994 0
0 0 0 708 765147 -109286 0
0 0 0 739 765886 -108547 0
0 0 0 771 766657 -107776 0
0 0 0 782 767439 -106994 0
0 0 0 745 768184 -106249 0
0 0 0 824 769008 -105425 0
0 0 0 821 769829 -104604 0
0 0 0 850 770679 -103754 0
0 0 0 835 771514 -102919 0
0 0 0 835 772349 -102084 0
0 0 0 826 773175 -101258 0
0 0 0 802 773977 -100456 0
0 0 0 781 774758 -99675 0
0 0 0 767 775525 -98908 0
0 0 0 752 776277 -98156 0
0 0 0 758 777035 -97398 0
0 0 0 741 777776 -96657 0
0 0 0 759 778535 -95898 0
0 0 0 796 779331 -95102 0
0 0 0 823 780154 -94279 0
0 0 0 885 781039 -93394 0
0 0 0 825 781864 -92569 0
0 0 0 765 782629 -91804 0
0 0 0 763 783392 -91041 0
0 0 0 757 784149 -90284 0
0 0 0 750 784899 -89534 0
0 0 0 744 785643 -88790 0
0 0 0 712 786355 -88078 0
0 0 0 719 787074 -87359 0
0 0 0 717 787791 -86642 0
0 0 0 711 788502 -85931 0
0 0 0 702 789204 -85229 0
0 0 0 676 789880 -84553 0
0 0 0 692 790572 -83861 0
0 0 0 713 791285 -83148 0
0 0 0 754 792039 -82394 0
0 0 0 794 792833 -81600 0
0 0 0 812 793645 -80788 0
0 0 0 776 794421 -80012 0
0 0 0 779 795200 -79233 0
0 0 0 794 795994 -78439 0
0 0 0 842 796836 -77597 0
0 0 0 875 797711 -76722 0
0 0 0 876 798587 -75846 0
0 0 0 836 799423 -75010 0
0 0 0 782 800205 -74228 0
0 0 0 773 800978 -73455 0
0 0 0 790 801768 -72665 0
0 0 0 814 802582 -71851 0
0 0 0 823 803405 -71028 0
0 0 0 858 804263 -70170 0
0 0 0 864 805127 -69306 0
0 0 0 854 805981 -68452 0
0 0 0 862 806843 -67590 0
0 0 0 856 807699 -66734 0
0 0 0 837 808536 -65897 0
0 0 0 776 809312 -65121 0
0 0 0 773 810085 -64348 0
0 0 0 765 810850 -63583 0
0 0 0 730 811580 -62853 0
0 0 0 722 812302 -62131 0
0 0 0 720 813022 -61411 0
0 0 0 718 813740 -60693 0
0 0 0 698 814438 -59995 0
0 0 0 715 815153 -59280 0
0 0 0 738 815891 -58542 0
0 0 0 771 816662 -57771 0
0 0 0 796 817458 -56975 0
0 0 0 739 818197 -56236 0
0 0 0 733 818930 -55503 0
0 0 0 740 819670 -54763 0
0 0 0 740 820410 -54023 0
0 0 0 711 821121 -53312 0
0 0 0 723 821844 -52589 0
0 0 0 721 822565 -51868 0
0 0 0 737 823302 -51131 0
0 0 0 755 824057 -50376 0
0 0 0 753 824810 -49623 0
0 0 0 744 825554 -48879 0
0 0 0 819 826373 -48060 0
0 0 0 895 827268 -47165 0
0 0 0 956 828224 -46209 1
0 0 0 932 829156 -45277 0
0 0 0 878 830034 -44399 0
0 0 0 853 830887 -43546 0
0 0 0 827 831714 -42719 0
0 0 0 817 832531 -41902 0
0 0 0 807 833338 -41095 0
0 0 0 781 834119 -40314 0
0 0 0 766 834885 -39548 0
0 0 0 733 835618 -38815 0
0 0 0 754 836372 -38061 0
0 0 0 769 837141 -37292 0
0 0 0 815 837956 -36477 0
0 0 0 830 838786 -35647 0
0 0 0 787 839573 -34860 0
0 0 0 747 840320 -34113 0
0 0 0 756 841076 -33357 0
0 0 0 770 841846 -32587 0
0 0 0 773 842619 -31814 0
0 0 0 743 843362 -31071 0
0 0 0 736 844098 -30335 0
0 0 0 729 844827 -29606 0
0 0 0 713 845540 -28893 0
0 0 0 688 846228 -28205 0
0 0 0 673 846901 -27532 0
0 0 0 687 847588 -26845 0
0 0 0 701 848289 -26144 0
0 0 0 723 849012 -25421 0
0 0 0 763 849775 -24658 0
0 0 0 778 850553 -23880 0
0 0 0 767 851320 -23113 0
0 0 0 813 852133 -22300 0
0 0 0 799 852932 -21501 0
0 0 0 813 853745 -20688 0
0 0 0 777 854522 -19911 0
0 0 0 723 855245 -19188 0
0 0 0 757 856002 -18431 0
0 0 0 725 856727 -17706 0
0 0 0 734 857461 -16972 0
0 0 0 749 858210 -16223 0
0 0 0 735 858945 -15488 0
0 0 0 775 859720 -14713 0
0 0 0 802 860522 -13911 0
0 0 0 841 861363 -13070 0
0 0 0 800 862163 -12270 0
0 0 0 844 863007 -11426 0
0 0 0 826 863833 -10600 0
0 0 0 805 864638 -9795 0
0 0 0 742 865380 -9053 0
0 0 0 747 866127 -8306 0
0 0 0 735 866862 -7571 0
0 0 0 706 867568 -6865 0
0 0 0 667 868235 -6198 0
0 0 0 671 868906 -5527 0
0 0 0 668 869574 -4859 0
0 0 0 674 870248 -4185 0
0 0 0 687 870935 -3498 0
0 0 0 686 871621 -2812 0
0 0 0 681 872302 -2131 0
41 1 S102 663 872965 -1468 0
41 1 S102 652 873617 -816 0
41 1 S102 642 874259 -174 0
41 2 S102 628 874887 454 0
41 2 S102 637 875524 1091 0
41 2 S102 654 876178 1745 0
41 2 S102 666 876844 2411 0
41 2 S102 675 877519 3086 0
41 2 S102 697 878216 3783 0
41 2 S102 728 878944 4511 0
41 2 S102 738 879682 5249 0
41 2 S102 737 880419 5986 0
41 2 S102 730 881149 6716 0
0 0 0 720 881869 -7153 0
0 0 0 724 882593 -6429 0
0 0 0 736 883329 -5693 0
0 0 0 732 884061 -4961 0
0 0 0 730 884791 -4231 0
0 0 0 730 885521 -3501 0
0 0 0 721 886242 -2780 0
0 0 0 772 887014 -2008 0
42 1 S112 805 887819 -1203 0
42 1 S112 916 888735 -287 0
42 2 S112 944 889679 657 0
42 2 S112 938 890617 1595 0
42 2 S112 942 891559 2537 0
42 2 S112 922 892481 3459 0
42 2 S112 860 893341 4319 0
42 2 S112 817 894158 5136 0
42 2 S112 792 894950 5928 0
42 2 S112 780 895730 6708 0
0 0 0 785 896515 -8738 0
0 0 0 759 897274 -7979 0
0 0 0 783 898057 -7196 0
0 0 0 780 898837 -6416 0
0 0 0 759 899596 -5657 0
0 0 0 727 900323 -4930 0
0 0 0 714 901037 -4216 0
0 0 0 746 901783 -3470 0
0 0 0 803 902586 -2667 0
43 1 S116 876 903462 -1791 0
43 1 S116 848 904310 -943 0
43 1 S116 829 905139 -114 0
43 2 S116 846 905985 732 0
43 2 S116 837 906822 1569 0
43 2 S116 787 907609 2356 0
43 2 S116 728 908337 3084 0
43 2 S116 742 909079 3826 0
43 2 S116 745 909824 4571 0
43 2 S116 766 910590 5337 0
43 2 S116 778 911368 6115 0
43 2 S116 763 912131 6878 0
0 0 0 753 912884 -8317 0
0 0 0 722 913606 -7595 0
0 0 0 730 914336 -6865 0
0 0 0 744 915080 -6121 0
0 0 0 798 915878 -5323 0
0 0 0 847 916725 -4476 0
0 0 0 785 917510 -3691 0
0 0 0 793 918303 -2898 0
0 0 0 813 919116 -2085 0
44 1 S102 835 919951 -1250 0
44 1 S102 825 920776 -425 0
44 2 S102 844 921620 419 0
44 2 S102 828 922448 1247 0
44 2 S102 790 923238 2037 0
44 2 S102 750 923988 2787 0
44 2 S102 710 924698 3497 0
44 2 S102 711 925409 4208 0
44 2 S102 715 926124 4923 0
44 2 S102 730 926854 5653 0
44 2 S102 743 927597 6396 0
0 0 0 732 928329 -10097 0
0 0 0 743 929072 -9354 0
0 0 0 759 929831 -8595 0
0 0 0 741 930572 -7854 0
0 0 0 752 931324 -7102 0
0 0 0 720 932044 -6382 0
0 0 0 704 932748 -5678 0
0 0 0 703 933451 -4975 0
0 0 0 759 934210 -4216 0
0 0 0 797 935007 -3419 0
0 0 0 788 935795 -2631 0
45 1 S116 796 936591 -1835 0
45 1 S116 839 937430 -996 0
45 1 S116 864 938294 -132 0
45 2 S116 834 939128 702 0
45 2 S116 811 939939 1513 0
45 2 S116 826 940765 2339 0
45 2 S116 805 941570 3144 0
45 2 S116 783 942353 3927 0
45 2 S116 748 943101 4675 0
45 2 S116 764 943865 5439 0
45 2 S116 754 944619 6193 0
45 2 S116 742 945361 6935 0
0 0 0 735 946096 -11246 0
0 0 0 727 946823 -10519 0
0 0 0 705 947528 -9814 0
0 0 0 765 948293 -9049 0
0 0 0 751 949044 -8298 0
0 0 0 728 949772 -7570 0
0 0 0 695 950467 -6875 0
0 0 0 684 951151 -6191 0
0 0 0 701 951852 -5490 0
0 0 0 693 952545 -4797 0
0 0 0 694 953239 -4103 0
0 0 0 712 953951 -3391 0
0 0 0 800 954751 -2591 0
46 1 S102 913 955664 -1678 0
46 1 S102 941 956605 -737 0
46 2 S102 892 957497 155 0
46 2 S102 879 958376 1034 0
46 2 S102 840 959216 1874 0
46 2 S102 801 960017 2675 0
46 2 S102 755 960772 3430 0
46 2 S102 764 961536 4194 0
46 2 S102 766 962302 4960 0
46 2 S102 799 963101 5759 0
46 2 S102 805 963906 6564 0
0 0 0 834 964740 -10258 0
0 0 0 861 965601 -9397 0
0 0 0 859 966460 -8538 0
0 0 0 884 967344 -7654 0
0 0 0 907 968251 -6747 0
0 0 0 848 969099 -5899 0
0 0 0 819 969918 -5080 0
0 0 0 784 970702 -4296 0
0 0 0 738 971440 -3558 0
0 0 0 742 972182 -2816 0
0 0 0 742 972924 -2074 0
47 1 S112 771 973695 -1303 0
47 1 S112 798 974493 -505 0
47 2 S112 795 975288 290 0
47 2 S112 838 976126 1128 0
47 2 S112 919 977045 2047 0
47 2 S112 990 978035 3037 1
47 2 S112 972 979007 4009 1
47 2 S112 922 979929 4931 0
47 2 S112 933 980862 5864 0
47 2 S112 936 981798 6800 0
0 0 0 905 982703 -10946 0
0 0 0 864 983567 -10082 0
0 0 0 793 984360 -9289 0
0 0 0 772 985132 -8517 0
0 0 0 718 985850 -7799 0
0 0 0 695 986545 -7104 0
0 0 0 679 987224 -6425 0
0 0 0 677 987901 -5748 0
0 0 0 702 988603 -5046 0
0 0 0 788 989391 -4258 0
0 0 0 885 990276 -3373 0
0 0 0 896 991172 -2477 0
48 1 S116 911 992083 -1566 0
48 1 S116 940 993023 -626 0
48 2 S116 954 993977 328 0
48 2 S116 932 994909 1260 0
48 2 S116 902 995811 2162 0
48 2 S116 910 996721 3072 0
48 2 S116 883 997604 3955 0
48 2 S116 839 998443 4794 0
48 2 S116 767 999210 5561 0
48 2 S116 796 1000006 6357 0
0 0 0 796 1000802 -7038 0
0 0 0 799 1001601 -6239 0
0 0 0 779 1002380 -5460 0
0 0 0 758 1003138 -4702 0
0 0 0 765 1003903 -3937 0
0 0 0 736 1004639 -3201 0
0 0 0 753 1005392 -2448 0
49 1 S112 761 1006153 -1687 0
49 1 S112 834 1006987 -853 0
49 1 S112 844 1007831 -9 0
49 2 S112 883 1008714 874 0
49 2 S112 854 1009568 1728 0
49 2 S112 816 1010384 2544 0
49 2 S112 746 1011130 3290 0
49 2 S112 722 1011852 4012 0
49 2 S112 791 1012643 4803 0
49 2 S112 832 1013475 5635 0
49 2 S112 850 1014325 6485 0
0 0 0 829 1015154 -10010 0
0 0 0 794 1015948 -9216 0
0 0 0 766 1016714 -8450 0
0 0 0 735 1017449 -7715 0
0 0 0 709 1018158 -7006 0
0 0 0 691 1018849 -6315 0
0 0 0 685 1019534 -5630 0
0 0 0 693 1020227 -4937 0
0 0 0 730 1020957 -4207 0
0 0 0 792 1021749 -3415 0
0 0 0 823 1022572 -2592 0
50 1 S106 868 1023440 -1724 0
50 1 S106 866 1024306 -858 0
50 2 S106 880 1025186 22 0
50 2 S106 860 1026046 882 0
50 2 S106 827 1026873 1709 0
50 2 S106 800 1027673 2509 0
50 2 S106 781 1028454 3290 0
50 2 S106 757 1029211 4047 0
50 2 S106 745 1029956 4792 0
50 2 S106 736 1030692 5528 0
50 2 S106 740 1031432 6268 0
50 2 S106 740 1032172 7008 0
0 0 0 751 1032923 -7925 0
0 0 0 781 1033704 -7144 0
0 0 0 758 1034462 -6386 0
0 0 0 738 1035200 -5648 0
0 0 0 785 1035985 -4863 0
0 0 0 767 1036752 -4096 0
0 0 0 803 1037555 -3293 0
0 0 0 795 1038350 -2498 0
51 1 S112 764 1039114 -1734 0
51 1 S112 808 1039922 -926 0
51 1 S112 822 1040744 -104 0
51 2 S112 844 1041588 740 0
51 2 S112 836 1042424 1576 0
51 2 S112 799 1043223 2375 0
51 2 S112 779 1044002 3154 0
51 2 S112 772 1044774 3926 0
51 2 S112 755 1045529 4681 0
51 2 S112 751 1046280 5432 0
51 2 S112 735 1047015 6167 0
51 2 S112 725 1047740 6892 0
0 0 0 721 1048461 -5699 0
0 0 0 721 1049182 -4978 0
0 0 0 707 1049889 -4271 0
0 0 0 727 1050616 -3544 0
0 0 0 692 1051308 -2852 0
0 0 0 685 1051993 -2167 0
52 1 S116 709 1052702 -1458 0
52 1 S116 734 1053436 -724 0
52 2 S116 760 1054196 36 0
52 2 S116 790 1054986 826 0
52 2 S116 804 1055790 1630 0
52 2 S116 778 1056568 2408 0
52 2 S116 797 1057365 3205 0
52 2 S116 824 1058189 4029 0
52 2 S116 828 1059017 4857 0
52 2 S116 834 1059851 5691 0
52 2 S116 799 1060650 6490 0
0 0 0 793 1061443 -8964 0
0 0 0 779 1062222 -8185 0
0 0 0 769 1062991 -7416 0
0 0 0 743 1063734 -6673 0
0 0 0 700 1064434 -5973 0
0 0 0 666 1065100 -5307 0
0 0 0 675 1065775 -4632 0
0 0 0 675 1066450 -3957 0
0 0 0 711 1067161 -3246 0
0 0 0 788 1067949 -2458 0
53 1 S106 855 1068804 -1603 0
53 1 S106 798 1069602 -805 0
53 2 S106 839 1070441 34 0
53 2 S106 858 1071299 892 0
53 2 S106 880 1072179 1772 0
53 2 S106 851 1073030 2623 0
53 2 S106 812 1073842 3435 0
53 2 S106 803 1074645 4238 0
53 2 S106 787 1075432 5025 0
53 2 S106 776 1076208 5801 0
53 2 S106 752 1076960 6553 0
0 0 0 741 1077701 -6947 0
0 0 0 741 1078442 -6206 0
0 0 0 732 1079174 -5474 0
0 0 0 723 1079897 -4751 0
0 0 0 702 1080599 -4049 0
0 0 0 681 1081280 -3368 0
0 0 0 688 1081968 -2680 0
54 1 S102 711 1082679 -1969 0
54 1 S102 763 1083442 -1206 0
54 1 S102 844 1084286 -362 0
54 2 S102 838 1085124 476 0
54 2 S102 889 1086013 1365 0
54 2 S102 868 1086881 2233 0
54 2 S102 834 1087715 3067 0
54 2 S102 799 1088514 3866 0
54 2 S102 820 1089334 4686 0
54 2 S102 804 1090138 5490 0
54 2 S102 767 1090905 6257 0
54 2 S102 750 1091655 7007 0
0 0 0 763 1092418 -12389 0
0 0 0 754 1093172 -11635 0
0 0 0 755 1093927 -10880 0
0 0 0 755 1094682 -10125 0
0 0 0 751 1095433 -9374 0
0 0 0 761 1096194 -8613 0
0 0 0 749 1096943 -7864 0
0 0 0 719 1097662 -7145 0
0 0 0 697 1098359 -6448 0
0 0 0 694 1099053 -5754 0
0 0 0 720 1099773 -5034 0
0 0 0 783 1100556 -4251 0
0 0 0 858 1101414 -3393 0
0 0 0 861 1102275 -2532 0
55 1 S106 833 1103108 -1699 0
55 1 S106 789 1103897 -910 0
55 1 S106 789 1104686 -121 0
55 2 S106 776 1105462 655 0
55 2 S106 752 1106214 1407 0
55 2 S106 727 1106941 2134 0
55 2 S106 707 1107648 2841 0
55 2 S106 719 1108367 3560 0
55 2 S106 726 1109093 4286 0
55 2 S106 739 1109832 5025 0
55 2 S106 739 1110571 5764 0
55 2 S106 741 1111312 6505 0
0 0 0 764 1112076 -7254 0
0 0 0 786 1112862 -6468 0
0 0 0 801 1113663 -5667 0
0 0 0 799 1114462 -4868 0
0 0 0 758 1115220 -4110 0
0 0 0 716 1115936 -3394 0
0 0 0 722 1116658 -2672 0
56 1 S116 730 1117388 -1942 0
56 1 S116 744 1118132 -1198 0
56 1 S116 723 1118855 -475 0
56 2 S116 713 1119568 238 0
56 2 S116 738 1120306 976 0
56 2 S116 777 1121083 1753 0
56 2 S116 841 1121924 2594 0
56 2 S116 879 1122803 3473 0
56 2 S116 819 1123622 4292 0
56 2 S116 804 1124426 5096 0
56 2 S116 831 1125257 5927 0
56 2 S116 826 1126083 6753 0
0 0 0 805 1126888 -7495 0
0 0 0 768 1127656 -6727 0
0 0 0 766 1128422 -5961 0
0 0 0 763 1129185 -5198 0
0 0 0 731 1129916 -4467 0
0 0 0 709 1130625 -3758 0
0 0 0 717 1131342 -3041 0
0 0 0 709 1132051 -2332 0
57 1 S106 675 1132726 -1657 0
57 1 S106 661 1133387 -996 0
57 1 S106 673 1134060 -323 0
57 2 S106 692 1134752 369 0
57 2 S106 734 1135486 1103 0
57 2 S106 784 1136270 1887 0
57 2 S106 792 1137062 2679 0
57 2 S106 773 1137835 3452 0
57 2 S106 734 1138569 4186 0
57 2 S106 709 1139278 4895 0
57 2 S106 680 1139958 5575 0
57 2 S106 648 1140606 6223 0
57 2 S106 650 1141256 6873 0
0 0 0 631 1141887 -9141 0
0 0 0 626 1142513 -8515 0
0 0 0 660 1143173 -7855 0
0 0 0 780 1143953 -7075 0
0 0 0 774 1144727 -6301 0
0 0 0 750 1145477 -5551 0
0 0 0 685 1146162 -4866 0
0 0 0 680 1146842 -4186 0
0 0 0 689 1147531 -3497 0
0 0 0 692 1148223 -2805 0
0 0 0 691 1148914 -2114 0
58 1 S102 685 1149599 -1429 0
58 1 S102 681 1150280 -748 0
58 1 S102 642 1150922 -106 0
58 2 S102 652 1151574 546 0
58 2 S102 645 1152219 1191 0
58 2 S102 630 1152849 1821 0
58 2 S102 620 1153469 2441 0
58 2 S102 613 1154082 3054 0
58 2 S102 594 1154676 3648 0
58 2 S102 585 1155261 4233 0
58 2 S102 585 1155846 4818 0
58 2 S102 594 1156440 5412 0
58 2 S102 608 1157048 6020 0
58 2 S102 621 1157669 6641 0
0 0 0 628 1158297 -8099 0
0 0 0 644 1158941 -7455 0
0 0 0 658 1159599 -6797 0
0 0 0 668 1160267 -6129 0
0 0 0 683 1160950 -5446 0
0 0 0 676 1161626 -4770 0
0 0 0 655 1162281 -4115 0
0 0 0 643 1162924 -3472 0
0 0 0 642 1163566 -2830 0
0 0 0 631 1164197 -2199 0
59 1 S112 660 1164857 -1539 0
59 1 S112 712 1165569 -827 0
59 2 S112 927 1166496 100 0
59 2 S112 1035 1167531 1135 1
59 2 S112 1059 1168590 2194 1
59 2 S112 1022 1169612 3216 1
59 2 S112 1017 1170629 4233 1
59 2 S112 931 1171560 5164 0
59 2 S112 843 1172403 6007 0
59 2 S112 847 1173250 6854 0
0 0 0 805 1174055 -9814 0
0 0 0 759 1174814 -9055 0
0 0 0 757 1175571 -8298 0
0 0 0 760 1176331 -7538 0
0 0 0 760 1177091 -6778 0
0 0 0 734 1177825 -6044 0
0 0 0 714 1178539 -5330 0
0 0 0 688 1179227 -4642 0
0 0 0 737 1179964 -3905 0
0 0 0 835 1180799 -3070 0
0 0 0 1022 1181821 -2048 1
60 1 S102 959 1182780 -1089 1
60 1 S102 907 1183687 -182 0
60 2 S102 935 1184622 753 0
60 2 S102 921 1185543 1674 0
60 2 S102 845 1186388 2519 0
60 2 S102 787 1187175 3306 0
60 2 S102 789 1187964 4095 0
60 2 S102 762 1188726 4857 0
60 2 S102 756 1189482 5613 0
60 2 S102 721 1190203 6334 0
0 0 0 739 1190942 -10501 0
0 0 0 753 1191695 -9748 0
0 0 0 804 1192499 -8944 0
0 0 0 772 1193271 -8172 0
0 0 0 791 1194062 -7381 0
0 0 0 774 1194836 -6607 0
0 0 0 802 1195638 -5805 0
0 0 0 853 1196491 -4952 0
0 0 0 845 1197336 -4107 0
0 0 0 812 1198148 -3295 0
0 0 0 769 1198917 -2526 0
61 1 S106 740 1199657 -1786 0
61 1 S106 747 1200404 -1039 0
61 1 S106 752 1201156 -287 0
61 2 S106 755 1201911 468 0
61 2 S106 762 1202673 1230 0
61 2 S106 741 1203414 1971 0
61 2 S106 729 1204143 2700 0
61 2 S106 744 1204887 3444 0
61 2 S106 749 1205636 4193 0
61 2 S106 766 1206402 4959 0
61 2 S106 785 1207187 5744 0
61 2 S106 797 1207984 6541 0
0 0 0 769 1208753 -7461 0
0 0 0 808 1209561 -6653 0
0 0 0 787 1210348 -5866 0
0 0 0 771 1211119 -5095 0
0 0 0 758 1211877 -4337 0
0 0 0 724 1212601 -3613 0
0 0 0 766 1213367 -2847 0
0 0 0 777 1214144 -2070 0
62 1 S112 830 1214974 -1240 0
62 1 S112 850 1215824 -390 0
62 2 S112 842 1216666 452 0
62 2 S112 841 1217507 1293 0
62 2 S112 861 1218368 2154 0
62 2 S112 823 1219191 2977 0
62 2 S112 820 1220011 3797 0
62 2 S112 802 1220813 4599 0
62 2 S112 834 1221647 5433 0
62 2 S112 856 1222503 6289 0
0 0 0 841 1223344 -12416 0
0 0 0 806 1224150 -11610 0
0 0 0 764 1224914 -10846 0
0 0 0 776 1225690 -10070 0
0 0 0 815 1226505 -9255 0
0 0 0 811 1227316 -8444 0
0 0 0 786 1228102 -7658 0
0 0 0 740 1228842 -6918 0
0 0 0 756 1229598 -6162 0
0 0 0 782 1230380 -5380 0
0 0 0 804 1231184 -4576 0
0 0 0 782 1231966 -3794 0
0 0 0 769 1232735 -3025 0
0 0 0 801 1233536 -2224 0
63 1 S102 801 1234337 -1423 0
63 1 S102 810 1235147 -613 0
63 2 S102 816 1235963 203 0
63 2 S102 771 1236734 974 0
63 2 S102 769 1237503 1743 0
63 2 S102 779 1238282 2522 0
63 2 S102 778 1239060 3300 0
63 2 S102 767 1239827 4067 0
63 2 S102 729 1240556 4796 0
63 2 S102 749 1241305 5545 0
63 2 S102 743 1242048 6288 0
0 0 0 762 1242810 -8550 0
0 0 0 764 1243574 -7786 0
0 0 0 811 1244385 -6975 0
0 0 0 804 1245189 -6171 0
0 0 0 825 1246014 -5346 0
0 0 0 808 1246822 -4538 0
0 0 0 831 1247653 -3707 0
0 0 0 861 1248514 -2846 0
64 1 S112 867 1249381 -1979 0
64 1 S112 849 1250230 -1130 0
64 1 S112 888 1251118 -242 0
64 2 S112 854 1251972 612 0
64 2 S112 813 1252785 1425 0
64 2 S112 754 1253539 2179 0
64 2 S112 711 1254250 2890 0
64 2 S112 746 1254996 3636 0
64 2 S112 759 1255755 4395 0
64 2 S112 784 1256539 5179 0
64 2 S112 801 1257340 5980 0
64 2 S112 802 1258142 6782 0
0 0 0 849 1258991 -8367 0
0 0 0 864 1259855 -7503 0
0 0 0 802 1260657 -6701 0
0 0 0 841 1261498 -5860 0
0 0 0 843 1262341 -5017 0
0 0 0 814 1263155 -4203 0
0 0 0 761 1263916 -3442 0
0 0 0 712 1264628 -2730 0
0 0 0 706 1265334 -2024 0
65 1 S106 701 1266035 -1323 0
65 1 S106 704 1266739 -619 0
65 2 S106 718 1267457 99 0
65 2 S106 726 1268183 825 0
65 2 S106 795 1268978 1620 0
65 2 S106 800 1269778 2420 0
65 2 S106 808 1270586 3228 0
65 2 S106 766 1271352 3994 0
65 2 S106 757 1272109 4751 0
65 2 S106 714 1272823 5465 0
65 2 S106 688 1273511 6153 0
65 2 S106 666 1274177 6819 0
0 0 0 643 1274820 -6580 0
0 0 0 644 1275464 -5936 0
0 0 0 650 1276114 -5286 0
0 0 0 659 1276773 -4627 0
0 0 0 672 1277445 -3955 0
0 0 0 675 1278120 -3280 0
0 0 0 658 1278778 -2622 0
66 1 S116 667 1279445 -1955 0
66 1 S116 677 1280122 -1278 0
66 1 S116 690 1280812 -588 0
66 2 S116 693 1281505 105 0
66 2 S116 687 1282192 792 0
66 2 S116 707 1282899 1499 0
66 2 S116 763 1283662 2262 0
66 2 S116 787 1284449 3049 0
66 2 S116 834 1285283 3883 0
66 2 S116 827 1286110 4710 0
66 2 S116 853 1286963 5563 0
66 2 S116 851 1287814 6414 0
0 0 0 845 1288659 -10895 0
0 0 0 769 1289428 -10126 0
0 0 0 727 1290155 -9399 0
0 0 0 756 1290911 -8643 0
0 0 0 752 1291663 -7891 0
0 0 0 726 1292389 -7165 0
0 0 0 704 1293093 -6461 0
0 0 0 723 1293816 -5738 0
0 0 0 717 1294533 -5021 0
0 0 0 721 1295254 -4300 0
0 0 0 722 1295976 -3578 0
0 0 0 776 1296752 -2802 0
67 1 S102 828 1297580 -1974 0
67 1 S102 860 1298440 -1114 0
67 1 S102 843 1299283 -271 0
67 2 S102 821 1300104 550 0
67 2 S102 843 1300947 1393 0
67 2 S102 812 1301759 2205 0
67 2 S102 788 1302547 2993 0
67 2 S102 797 1303344 3790 0
67 2 S102 779 1304123 4569 0
67 2 S102 769 1304892 5338 0
67 2 S102 741 1305633 6079 0
67 2 S102 751 1306384 6830 0
0 0 0 794 1307178 -7230 0
0 0 0 793 1307971 -6437 0
0 0 0 771 1308742 -5666 0
0 0 0 796 1309538 -4870 0
0 0 0 739 1310277 -4131 0
0 0 0 772 1311049 -3359 0
0 0 0 817 1311866 -2542 0
68 1 S106 896 1312762 -1646 0
68 1 S106 900 1313662 -746 0
68 2 S106 825 1314487 79 0
68 2 S106 763 1315250 842 0
68 2 S106 776 1316026 1618 0
68 2 S106 771 1316797 2389 0
68 2 S106 788 1317585 3177 0
68 2 S106 782 1318367 3959 0
68 2 S106 766 1319133 4725 0
68 2 S106 763 1319896 5488 0
68 2 S106 756 1320652 6244 0
68 2 S106 780 1321432 7024 0
0 0 0 773 1322205 -11069 0
0 0 0 777 1322982 -10292 0
0 0 0 742 1323724 -9550 0
0 0 0 808 1324532 -8742 0
0 0 0 755 1325287 -7987 0
0 0 0 760 1326047 -7227 0
0 0 0 723 1326770 -6504 0
0 0 0 698 1327468 -5806 0
0 0 0 691 1328159 -5115 0
0 0 0 702 1328861 -4413 0
0 0 0 743 1329604 -3670 0
0 0 0 840 1330444 -2830 0
69 1 S102 934 1331378 -1896 0
69 1 S102 900 1332278 -996 0
69 1 S102 849 1333127 -147 0
69 2 S102 767 1333894 620 0
69 2 S102 781 1334675 1401 0
69 2 S102 749 1335424 2150 0
69 2 S102 742 1336166 2892 0
69 2 S102 737 1336903 3629 0
69 2 S102 718 1337621 4347 0
69 2 S102 703 1338324 5050 0
69 2 S102 714 1339038 5764 0
69 2 S102 708 1339746 6472 0
0 0 0 707 1340453 -9035 0
0 0 0 682 1341135 -8353 0
0 0 0 659 1341794 -7694 0
0 0 0 660 1342454 -7034 0
0 0 0 676 1343130 -6358 0
0 0 0 684 1343814 -5674 0
0 0 0 718 1344532 -4956 0
0 0 0 748 1345280 -4208 0
0 0 0 758 1346038 -3450 0
0 0 0 779 1346817 -2671 0
70 1 S112 806 1347623 -1865 0
70 1 S112 798 1348421 -1067 0
70 1 S112 753 1349174 -314 0
70 2 S112 720 1349894 406 0
70 2 S112 691 1350585 1097 0
70 2 S112 674 1351259 1771 0
70 2 S112 680 1351939 2451 0
70 2 S112 698 1352637 3149 0
70 2 S112 743 1353380 3892 0
70 2 S112 836 1354216 4728 0
70 2 S112 831 1355047 5559 0
70 2 S112 871 1355918 6430 0
0 0 0 887 1356805 -11648 0
0 0 0 859 1357664 -10789 0
0 0 0 848 1358512 -9941 0
0 0 0 868 1359380 -9073 0
0 0 0 859 1360239 -8214 0
0 0 0 841 1361080 -7373 0
0 0 0 769 1361849 -6604 0
0 0 0 726 1362575 -5878 0
0 0 0 741 1363316 -5137 0
0 0 0 740 1364056 -4397 0
0 0 0 778 1364834 -3619 0
0 0 0 783 1365617 -2836 0
0 0 0 784 1366401 -2052 0
71 1 S116 838 1367239 -1214 0
71 1 S116 834 1368073 -380 0
71 2 S116 833 1368906 453 0
71 2 S116 807 1369713 1260 0
71 2 S116 824 1370537 2084 0
71 2 S116 822 1371359 2906 0
71 2 S116 841 1372200 3747 0
71 2 S116 812 1373012 4559 0
71 2 S116 831 1373843 5390 0
71 2 S116 865 1374708 6255 0
0 0 0 916 1375624 -8281 0
0 0 0 870 1376494 -7411 0
0 0 0 772 1377266 -6639 0
0 0 0 760 1378026 -5879 0
0 0 0 747 1378773 -5132 0
0 0 0 747 1379520 -4385 0
0 0 0 733 1380253 -3652 0
0 0 0 702 1380955 -2950 0
0 0 0 728 1381683 -2222 0
72 1 S102 728 1382411 -1494 0
72 1 S102 752 1383163 -742 0
72 2 S102 796 1383959 54 0
72 2 S102 864 1384823 918 0
72 2 S102 822 1385645 1740 0
72 2 S102 828 1386473 2568 0
72 2 S102 829 1387302 3397 0
72 2 S102 817 1388119 4214 0
72 2 S102 750 1388869 4964 0
72 2 S102 734 1389603 5698 0
72 2 S102 759 1390362 6457 0
0 0 0 750 1391112 -6221 0
0 0 0 769 1391881 -5452 0
0 0 0 765 1392646 -4687 0
0 0 0 780 1393426 -3907 0
0 0 0 812 1394238 -3095 0
0 0 0 838 1395076 -2257 0
73 1 S116 830 1395906 -1427 0
73 1 S116 813 1396719 -614 0
73 2 S116 840 1397559 226 0
73 2 S116 866 1398425 1092 0
73 2 S116 911 1399336 2003 0
73 2 S116 890 1400226 2893 0
73 2 S116 849 1401075 3742 0
73 2 S116 833 1401908 4575 0
73 2 S116 845 1402753 5420 0
73 2 S116 832 1403585 6252 0
0 0 0 796 1404381 -9779 0
0 0 0 762 1405143 -9017 0
0 0 0 786 1405929 -8231 0
0 0 0 798 1406727 -7433 0
0 0 0 790 1407517 -6643 0
0 0 0 739 1408256 -5904 0
0 0 0 716 1408972 -5188 0
0 0 0 707 1409679 -4481 0
0 0 0 844 1410523 -3637 0
0 0 0 785 1411308 -2852 0
0 0 0 794 1412102 -2058 0
74 1 S106 842 1412944 -1216 0
74 1 S106 858 1413802 -358 0
74 2 S106 856 1414658 498 0
74 2 S106 849 1415507 1347 0
74 2 S106 826 1416333 2173 0
74 2 S106 808 1417141 2981 0
74 2 S106 798 1417939 3779 0
74 2 S106 773 1418712 4552 0
74 2 S106 744 1419456 5296 0
74 2 S106 730 1420186 6026 0
74 2 S106 709 1420895 6735 0
0 0 0 717 1421612 -6391 0
0 0 0 735 1422347 -5656 0
0 0 0 773 1423120 -4883 0
0 0 0 768 1423888 -4115 0
0 0 0 809 1424697 -3306 0
0 0 0 838 1425535 -2468 0
75 1 S112 875 1426410 -1593 0
75 1 S112 865 1427275 -728 0
75 2 S112 868 1428143 140 0
75 2 S112 869 1429012 1009 0
75 2 S112 870 1429882 1879 0
75 2 S112 825 1430707 2704 0
75 2 S112 833 1431540 3537 0
75 2 S112 804 1432344 4341 0
75 2 S112 753 1433097 5094 0
75 2 S112 755 1433852 5849 0
75 2 S112 787 1434639 6636 0
0 0 0 821 1435460 -8608 0
0 0 0 865 1436325 -7743 0
0 0 0 787 1437112 -6956 0
0 0 0 790 1437902 -6166 0
0 0 0 829 1438731 -5337 0
0 0 0 824 1439555 -4513 0
0 0 0 788 1440343 -3725 0
0 0 0 742 1441085 -2983 0
0 0 0 720 1441805 -2263 0
76 1 S116 724 1442529 -1539 0
76 1 S116 755 1443284 -784 0
76 1 S116 776 1444060 -8 0
76 2 S116 796 1444856 788 0
76 2 S116 814 1445670 1602 0
76 2 S116 840 1446510 2442 0
76 2 S116 846 1447356 3288 0
76 2 S116 851 1448207 4139 0
76 2 S116 847 1449054 4986 0
76 2 S116 818 1449872 5804 0
76 2 S116 826 1450698 6630 0
0 0 0 810 1451508 -7033 0
0 0 0 783 1452291 -6250 0
0 0 0 766 1453057 -5484 0
0 0 0 742 1453799 -4742 0
0 0 0 740 1454539 -4002 0
0 0 0 708 1455247 -3294 0
0 0 0 680 1455927 -2614 0
77 1 S106 664 1456591 -1950 0
77 1 S106 654 1457245 -1296 0
77 1 S106 680 1457925 -616 0
77 2 S106 703 1458628 87 0
77 2 S106 780 1459408 867 0
77 2 S106 865 1460273 1732 0
77 2 S106 829 1461102 2561 0
77 2 S106 856 1461958 3417 0
77 2 S106 855 1462813 4272 0
77 2 S106 838 1463651 5110 0
77 2 S106 791 1464442 5901 0
77 2 S106 755 1465197 6656 0
0 0 0 744 1465941 -9211 0
0 0 0 710 1466651 -8501 0
0 0 0 692 1467343 -7809 0
0 0 0 675 1468018 -7134 0
0 0 0 690 1468708 -6444 0
0 0 0 677 1469385 -5767 0
0 0 0 677 1470062 -5090 0
0 0 0 691 1470753 -4399 0
0 0 0 753 1471506 -3646 0
0 0 0 845 1472351 -2801 0
78 1 S112 992 1473343 -1809 1
78 1 S112 981 1474324 -828 1
78 2 S112 926 1475250 98 0
78 2 S112 975 1476225 1073 1
78 2 S112 912 1477137 1985 0
78 2 S112 859 1477996 2844 0
78 2 S112 784 1478780 3628 0
78 2 S112 736 1479516 4364 0
78 2 S112 724 1480240 5088 0
78 2 S112 701 1480941 5789 0
78 2 S112 673 1481614 6462 0
0 0 0 655 1482269 -11981 0
0 0 0 664 1482933 -11317 0
0 0 0 711 1483644 -10606 0
0 0 0 751 1484395 -9855 0
0 0 0 802 1485197 -9053 0
0 0 0 810 1486007 -8243 0
0 0 0 809 1486816 -7434 0
0 0 0 779 1487595 -6655 0
0 0 0 766 1488361 -5889 0
0 0 0 737 1489098 -5152 0
0 0 0 754 1489852 -4398 0
0 0 0 791 1490643 -3607 0
0 0 0 766 1491409 -2841 0
0 0 0 736 1492145 -2105 0
79 1 S102 720 1492865 -1385 0
79 1 S102 725 1493590 -660 0
79 2 S102 736 1494326 76 0
79 2 S102 766 1495092 842 0
79 2 S102 780 1495872 1622 0
79 2 S102 751 1496623 2373 0
79 2 S102 774 1497397 3147 0
79 2 S102 797 1498194 3944 0
79 2 S102 829 1499023 4773 0
79 2 S102 810 1499833 5583 0
79 2 S102 744 1500577 6327 0
0 0 0 755 1501332 -9132 0
0 0 0 763 1502095 -8369 0
0 0 0 822 1502917 -7547 0
0 0 0 822 1503739 -6725 0
0 0 0 778 1504517 -5947 0
0 0 0 741 1505258 -5206 0
0 0 0 741 1505999 -4465 0
0 0 0 738 1506737 -3727 0
0 0 0 733 1507470 -2994 0
0 0 0 709 1508179 -2285 0
80 1 S116 682 1508861 -1603 0
80 1 S116 663 1509524 -940 0
80 1 S116 669 1510193 -271 0
80 2 S116 707 1510900 436 0
80 2 S116 805 1511705 1241 0
80 2 S116 930 1512635 2171 0
80 2 S116 941 1513576 3112 0
80 2 S116 933 1514509 4045 0
80 2 S116 932 1515441 4977 0
80 2 S116 898 1516339 5875 0
80 2 S116 858 1517197 6733 0
