T_0100
BeatCount Mean SD BeatCountNoOutliers MeanNoOutliers SDNoOutliers
1940 799,675257731959 74,6973933526659 1926 798,826064382139 60,3538725844615

Trial TrialStatus Trialtype IBI AbsPosition RelPosition Outlier
0 0 0 775 993 -15005 0
0 0 0 769 1762 -14236 0
0 0 0 774 2536 -13462 0
0 0 0 783 3319 -12679 0
0 0 0 849 4168 -11830 0
0 0 0 897 5065 -10933 0
0 0 0 922 5987 -10011 0
0 0 0 851 6838 -9160 0
0 0 0 826 7664 -8334 0
0 0 0 815 8479 -7519 0
0 0 0 806 9285 -6713 0
0 0 0 763 10048 -5950 0
0 0 0 775 10823 -5175 0
0 0 0 813 11636 -4362 0
0 0 0 861 12497 -3501 0
0 0 0 873 13370 -2628 0
1 1 S112 826 14196 -1802 0
1 1 S112 839 15035 -963 0
1 1 S112 864 15899 -99 0
1 2 S112 927 16826 828 0
1 2 S112 849 17675 1677 0
1 2 S112 779 18454 2456 0
1 2 S112 779 19233 3235 0
1 2 S112 760 19993 3995 0
1 2 S112 771 20764 4766 0
1 2 S112 721 21485 5487 0
1 2 S112 729 22214 6216 0
1 2 S112 761 22975 6977 0
0 0 0 855 23830 -11697 0
0 0 0 879 24709 -10818 0
0 0 0 836 25545 -9982 0
0 0 0 795 26340 -9187 0
0 0 0 808 27148 -8379 0
0 0 0 810 27958 -7569 0
0 0 0 782 28740 -6787 0
0 0 0 757 29497 -6030 0
0 0 0 778 30275 -5252 0
0 0 0 822 31097 -4430 0
0 0 0 860 31957 -3570 0
0 0 0 826 32783 -2744 0
2 1 S102 803 33586 -1941 0
2 1 S102 831 34417 -1110 0
2 1 S102 870 35287 -240 0
2 2 S102 859 36146 619 0
2 2 S102 826 36972 1445 0
2 2 S102 860 37832 2305 0
2 2 S102 901 38733 3206 0
2 2 S102 839 39572 4045 0
2 2 S102 777 40349 4822 0
2 2 S102 805 41154 5627 0
2 2 S102 851 42005 6478 0
0 0 0 876 42881 -10252 0
0 0 0 817 43698 -9435 0
0 0 0 829 44527 -8606 0
0 0 0 867 45394 -7739 0
0 0 0 816 46210 -6923 0
0 0 0 782 46992 -6141 0
0 0 0 816 47808 -5325 0
0 0 0 831 48639 -4494 0
0 0 0 822 49461 -3672 0
0 0 0 793 50254 -2879 0
0 0 0 816 51070 -2063 0
3 1 S116 840 51910 -1223 0
3 1 S116 792 52702 -431 0
3 2 S116 796 53498 365 0
3 2 S116 837 54335 1202 0
3 2 S116 856 55191 2058 0
3 2 S116 845 56036 2903 0
3 2 S116 773 56809 3676 0
3 2 S116 788 57597 4464 0
3 2 S116 824 58421 5288 0
3 2 S116 844 59265 6132 0
3 2 S116 795 60060 6927 0
0 0 0 792 60852 -11181 0
0 0 0 831 61683 -10350 0
0 0 0 817 62500 -9533 0
0 0 0 773 63273 -8760 0
0 0 0 796 64069 -7964 0
0 0 0 828 64897 -7136 0
0 0 0 838 65735 -6298 0
0 0 0 794 66529 -5504 0
0 0 0 807 67336 -4697 0
0 0 0 840 68176 -3857 0
0 0 0 889 69065 -2968 0
0 0 0 887 69952 -2081 0
4 1 S106 840 70792 -1241 0
4 1 S106 863 71655 -378 0
4 2 S106 897 72552 519 0
4 2 S106 896 73448 1415 0
4 2 S106 831 74279 2246 0
4 2 S106 811 75090 3057 0
4 2 S106 828 75918 3885 0
4 2 S106 837 76755 4722 0
4 2 S106 846 77601 5568 0
4 2 S106 821 78422 6389 0
0 0 0 854 79276 -7992 0
0 0 0 889 80165 -7103 0
0 0 0 867 81032 -6236 0
0 0 0 806 81838 -5430 0
0 0 0 825 82663 -4605 0
0 0 0 817 83480 -3788 0
0 0 0 796 84276 -2992 0
0 0 0 745 85021 -2247 0
5 1 S116 761 85782 -1486 0
5 1 S116 763 86545 -723 0
5 2 S116 755 87300 32 0
5 2 S116 738 88038 770 0
5 2 S116 709 88747 1479 0
5 2 S116 720 89467 2199 0
5 2 S116 718 90185 2917 0
5 2 S116 729 90914 3646 0
5 2 S116 772 91686 4418 0
5 2 S116 805 92491 5223 0
5 2 S116 830 93321 6053 0
5 2 S116 790 94111 6843 0
0 0 0 783 94894 -10329 0
0 0 0 792 95686 -9537 0
0 0 0 777 96463 -8760 0
0 0 0 731 97194 -8029 0
0 0 0 757 97951 -7272 0
0 0 0 779 98730 -6493 0
0 0 0 795 99525 -5698 0
0 0 0 772 100297 -4926 0
0 0 0 775 101072 -4151 0
0 0 0 821 101893 -3330 0
0 0 0 818 102711 -2512 0
6 1 S106 835 103546 -1677 0
6 1 S106 788 104334 -889 0
6 1 S106 795 105129 -94 0
6 2 S106 816 105945 722 0
6 2 S106 843 106788 1565 0
6 2 S106 841 107629 2406 0
6 2 S106 830 108459 3236 0
6 2 S106 901 109360 4137 0
6 2 S106 924 110284 5061 0
6 2 S106 873 111157 5934 0
6 2 S106 819 111976 6753 0
0 0 0 829 112805 -10936 0
0 0 0 831 113636 -10105 0
0 0 0 803 114439 -9302 0
0 0 0 775 115214 -8527 0
0 0 0 800 116014 -7727 0
0 0 0 830 116844 -6897 0
0 0 0 827 117671 -6070 0
0 0 0 846 118517 -5224 0
0 0 0 901 119418 -4323 0
0 0 0 946 120364 -3377 0
0 0 0 867 121231 -2510 0
7 1 S102 869 122100 -1641 0
7 1 S102 888 122988 -753 0
7 2 S102 881 123869 128 0
7 2 S102 833 124702 961 0
7 2 S102 854 125556 1815 0
7 2 S102 883 126439 2698 0
7 2 S102 859 127298 3557 0
7 2 S102 827 128125 4384 0
7 2 S102 850 128975 5234 0
7 2 S102 896 129871 6130 0
7 2 S102 891 130762 7021 0
0 0 0 806 131568 -10774 0
0 0 0 754 132322 -10020 0
0 0 0 737 133059 -9283 0
0 0 0 755 133814 -8528 0
0 0 0 788 134602 -7740 0
0 0 0 873 135475 -6867 0
0 0 0 899 136374 -5968 0
0 0 0 949 137323 -5019 0
0 0 0 952 138275 -4067 0
0 0 0 955 139230 -3112 0
0 0 0 921 140151 -2191 0
8 1 S112 830 140981 -1361 0
8 1 S112 813 141794 -548 0
8 2 S112 826 142620 278 0
8 2 S112 848 143468 1126 0
8 2 S112 847 144315 1973 0
8 2 S112 875 145190 2848 0
8 2 S112 869 146059 3717 0
8 2 S112 883 146942 4600 0
8 2 S112 911 147853 5511 0
8 2 S112 883 148736 6394 0
0 0 0 862 149598 -7681 0
0 0 0 908 150506 -6773 0
0 0 0 878 151384 -5895 0
0 0 0 852 152236 -5043 0
0 0 0 800 153036 -4243 0
0 0 0 833 153869 -3410 0
0 0 0 795 154664 -2615 0
9 1 S116 774 155438 -1841 0
9 1 S116 792 156230 -1049 0
9 1 S116 813 157043 -236 0
9 2 S116 840 157883 604 0
9 2 S116 820 158703 1424 0
9 2 S116 800 159503 2224 0
9 2 S116 809 160312 3033 0
9 2 S116 812 161124 3845 0
9 2 S116 827 161951 4672 0
9 2 S116 822 162773 5494 0
9 2 S116 787 163560 6281 0
0 0 0 800 164360 -11851 0
0 0 0 798 165158 -11053 0
0 0 0 812 165970 -10241 0
0 0 0 783 166753 -9458 0
0 0 0 812 167565 -8646 0
0 0 0 807 168372 -7839 0
0 0 0 817 169189 -7022 0
0 0 0 790 169979 -6232 0
0 0 0 808 170787 -5424 0
0 0 0 816 171603 -4608 0
0 0 0 829 172432 -3779 0
0 0 0 804 173236 -2975 0
0 0 0 796 174032 -2179 0
10 1 S102 806 174838 -1373 0
10 1 S102 808 175646 -565 0
10 2 S102 809 176455 244 0
10 2 S102 765 177220 1009 0
10 2 S102 754 177974 1763 0
10 2 S102 758 178732 2521 0
10 2 S102 751 179483 3272 0
10 2 S102 767 180250 4039 0
10 2 S102 747 180997 4786 0
10 2 S102 744 181741 5530 0
10 2 S102 756 182497 6286 0
0 0 0 777 183274 -12632 0
0 0 0 744 184018 -11888 0
0 0 0 726 184744 -11162 0
0 0 0 747 185491 -10415 0
0 0 0 754 186245 -9661 0
0 0 0 758 187003 -8903 0
0 0 0 745 187748 -8158 0
0 0 0 794 188542 -7364 0
0 0 0 822 189364 -6542 0
0 0 0 829 190193 -5713 0
0 0 0 803 190996 -4910 0
0 0 0 828 191824 -4082 0
0 0 0 837 192661 -3245 0
0 0 0 784 193445 -2461 0
11 1 S112 746 194191 -1715 0
11 1 S112 773 194964 -942 0
11 1 S112 813 195777 -129 0
11 2 S112 866 196643 737 0
11 2 S112 849 197492 1586 0
11 2 S112 822 198314 2408 0
11 2 S112 837 199151 3245 0
11 2 S112 854 200005 4099 0
11 2 S112 839 200844 4938 0
11 2 S112 823 201667 5761 0
11 2 S112 870 202537 6631 0
0 0 0 888 203425 -7850 0
0 0 0 845 204270 -7005 0
0 0 0 791 205061 -6214 0
0 0 0 805 205866 -5409 0
0 0 0 788 206654 -4621 0
0 0 0 766 207420 -3855 0
0 0 0 755 208175 -3100 0
0 0 0 784 208959 -2316 0
12 1 S116 815 209774 -1501 0
12 1 S116 806 210580 -695 0
12 2 S116 766 211346 71 0
12 2 S116 776 212122 847 0
12 2 S116 805 212927 1652 0
12 2 S116 847 213774 2499 0
12 2 S116 809 214583 3308 0
12 2 S116 785 215368 4093 0
12 2 S116 805 216173 4898 0
12 2 S116 803 216976 5701 0
12 2 S116 798 217774 6499 0
0 0 0 749 218523 -12198 0
0 0 0 757 219280 -11441 0
0 0 0 740 220020 -10701 0
0 0 0 706 220726 -9995 0
0 0 0 723 221449 -9272 0
0 0 0 736 222185 -8536 0
0 0 0 721 222906 -7815 0
0 0 0 785 223691 -7030 0
0 0 0 853 224544 -6177 0
0 0 0 907 225451 -5270 0
0 0 0 866 226317 -4404 0
0 0 0 798 227115 -3606 0
0 0 0 810 227925 -2796 0
13 1 S112 823 228748 -1973 0
13 1 S112 850 229598 -1123 0
13 1 S112 820 230418 -303 0
13 2 S112 827 231245 524 0
13 2 S112 867 232112 1391 0
13 2 S112 922 233034 2313 0
13 2 S112 913 233947 3226 0
13 2 S112 855 234802 4081 0
13 2 S112 868 235670 4949 0
13 2 S112 900 236570 5849 0
13 2 S112 868 237438 6717 0
0 0 0 794 238232 -11322 0
0 0 0 819 239051 -10503 0
0 0 0 841 239892 -9662 0
0 0 0 820 240712 -8842 0
0 0 0 797 241509 -8045 0
0 0 0 847 242356 -7198 0
0 0 0 847 243203 -6351 0
0 0 0 819 244022 -5532 0
0 0 0 811 244833 -4721 0
0 0 0 889 245722 -3832 0
0 0 0 903 246625 -2929 0
0 0 0 862 247487 -2067 0
14 1 S106 824 248311 -1243 0
14 1 S106 875 249186 -368 0
14 2 S106 902 250088 534 0
14 2 S106 865 250953 1399 0
14 2 S106 791 251744 2190 0
14 2 S106 806 252550 2996 0
14 2 S106 828 253378 3824 0
14 2 S106 822 254200 4646 0
14 2 S106 793 254993 5439 0
14 2 S106 788 255781 6227 0
0 0 0 836 256617 -10792 0
0 0 0 857 257474 -9935 0
0 0 0 818 258292 -9117 0
0 0 0 839 259131 -8278 0
0 0 0 865 259996 -7413 0
0 0 0 816 260812 -6597 0
0 0 0 734 261546 -5863 0
0 0 0 747 262293 -5116 0
0 0 0 751 263044 -4365 0
0 0 0 772 263816 -3593 0
0 0 0 802 264618 -2791 0
15 1 S116 850 265468 -1941 0
15 1 S116 815 266283 -1126 0
15 1 S116 781 267064 -345 0
15 2 S116 750 267814 405 0
15 2 S116 744 268558 1149 0
15 2 S116 764 269322 1913 0
15 2 S116 805 270127 2718 0
15 2 S116 884 271011 3602 0
15 2 S116 949 271960 4551 0
15 2 S116 912 272872 5463 0
15 2 S116 893 273765 6356 0
0 0 0 914 274679 -9740 0
0 0 0 893 275572 -8847 0
0 0 0 851 276423 -7996 0
0 0 0 809 277232 -7187 0
0 0 0 817 278049 -6370 0
0 0 0 791 278840 -5579 0
0 0 0 765 279605 -4814 0
0 0 0 732 280337 -4082 0
0 0 0 755 281092 -3327 0
0 0 0 793 281885 -2534 0
16 1 S116 791 282676 -1743 0
16 1 S116 851 283527 -892 0
16 1 S116 880 284407 -12 0
16 2 S116 890 285297 878 0
16 2 S116 832 286129 1710 0
16 2 S116 835 286964 2545 0
16 2 S116 829 287793 3374 0
16 2 S116 821 288614 4195 0
16 2 S116 777 289391 4972 0
16 2 S116 791 290182 5763 0
16 2 S116 828 291010 6591 0
0 0 0 865 291875 -8940 0
0 0 0 855 292730 -8085 0
0 0 0 826 293556 -7259 0
0 0 0 838 294394 -6421 0
0 0 0 857 295251 -5564 0
0 0 0 844 296095 -4720 0
0 0 0 812 296907 -3908 0
0 0 0 852 297759 -3056 0
0 0 0 878 298637 -2178 0
17 1 S106 869 299506 -1309 0
17 1 S106 800 300306 -509 0
17 2 S106 809 301115 300 0
17 2 S106 834 301949 1134 0
17 2 S106 852 302801 1986 0
17 2 S106 839 303640 2825 0
17 2 S106 816 304456 3641 0
17 2 S106 850 305306 4491 0
17 2 S106 894 306200 5385 0
17 2 S106 865 307065 6250 0
0 0 0 811 307876 -12385 0
0 0 0 833 308709 -11552 0
0 0 0 848 309557 -10704 0
0 0 0 838 310395 -9866 0
0 0 0 856 311251 -9010 0
0 0 0 882 312133 -8128 0
0 0 0 900 313033 -7228 0
0 0 0 847 313880 -6381 0
0 0 0 851 314731 -5530 0
0 0 0 887 315618 -4643 0
0 0 0 903 316521 -3740 0
0 0 0 854 317375 -2886 0
0 0 0 852 318227 -2034 0
18 1 S102 864 319091 -1170 0
18 1 S102 872 319963 -298 0
18 2 S102 831 320794 533 0
18 2 S102 848 321642 1381 0
18 2 S102 880 322522 2261 0
18 2 S102 881 323403 3142 0
18 2 S102 822 324225 3964 0
18 2 S102 832 325057 4796 0
18 2 S102 857 325914 5653 0
18 2 S102 820 326734 6473 0
0 0 0 803 327537 -7678 0
0 0 0 843 328380 -6835 0
0 0 0 833 329213 -6002 0
0 0 0 803 330016 -5199 0
0 0 0 797 330813 -4402 0
0 0 0 832 331645 -3570 0
0 0 0 870 332515 -2700 0
19 1 S106 847 333362 -1853 0
19 1 S106 848 334210 -1005 0
19 1 S106 885 335095 -120 0
19 2 S106 880 335975 760 0
19 2 S106 813 336788 1573 0
19 2 S106 795 337583 2368 0
19 2 S106 809 338392 3177 0
19 2 S106 833 339225 4010 0
19 2 S106 801 340026 4811 0
19 2 S106 790 340816 5601 0
19 2 S106 849 341665 6450 0
0 0 0 870 342535 -11994 0
0 0 0 833 343368 -11161 0
0 0 0 804 344172 -10357 0
0 0 0 825 344997 -9532 0
0 0 0 819 345816 -8713 0
0 0 0 763 346579 -7950 0
0 0 0 773 347352 -7177 0
0 0 0 794 348146 -6383 0
0 0 0 824 348970 -5559 0
0 0 0 816 349786 -4743 0
0 0 0 778 350564 -3965 0
0 0 0 812 351376 -3153 0
0 0 0 836 352212 -2317 0
20 1 S112 864 353076 -1453 0
20 1 S112 829 353905 -624 0
20 2 S112 813 354718 189 0
20 2 S112 828 355546 1017 0
20 2 S112 846 356392 1863 0
20 2 S112 836 357228 2699 0
20 2 S112 811 358039 3510 0
20 2 S112 836 358875 4346 0
20 2 S112 880 359755 5226 0
20 2 S112 895 360650 6121 0
20 2 S112 853 361503 6974 0
0 0 0 880 362383 -8923 0
0 0 0 875 363258 -8048 0
0 0 0 816 364074 -7232 0
0 0 0 792 364866 -6440 0
0 0 0 805 365671 -5635 0
0 0 0 839 366510 -4796 0
0 0 0 830 367340 -3966 0
0 0 0 836 368176 -3130 0
0 0 0 883 369059 -2247 0
21 1 S106 898 369957 -1349 0
21 1 S106 854 370811 -495 0
21 2 S106 856 371667 361 0
21 2 S106 876 372543 1237 0
21 2 S106 855 373398 2092 0
21 2 S106 806 374204 2898 0
21 2 S106 833 375037 3731 0
21 2 S106 866 375903 4597 0
21 2 S106 878 376781 5475 0
21 2 S106 816 377597 6291 0
0 0 0 843 378440 -11997 0
0 0 0 864 379304 -11133 0
0 0 0 861 380165 -10272 0
0 0 0 826 380991 -9446 0
0 0 0 853 381844 -8593 0
0 0 0 870 382714 -7723 0
0 0 0 856 383570 -6867 0
0 0 0 863 384433 -6004 0
0 0 0 880 385313 -5124 0
0 0 0 827 386140 -4297 0
0 0 0 784 386924 -3513 0
0 0 0 822 387746 -2691 0
22 1 S116 827 388573 -1864 0
22 1 S116 857 389430 -1007 0
22 1 S116 840 390270 -167 0
22 2 S116 887 391157 720 0
22 2 S116 888 392045 1608 0
22 2 S116 842 392887 2450 0
22 2 S116 840 393727 3290 0
22 2 S116 872 394599 4162 0
22 2 S116 814 395413 4976 0
22 2 S116 779 396192 5755 0
22 2 S116 812 397004 6567 0
0 0 0 844 397848 -9334 0
0 0 0 815 398663 -8519 0
0 0 0 792 399455 -7727 0
0 0 0 823 400278 -6904 0
0 0 0 804 401082 -6100 0
0 0 0 776 401858 -5324 0
0 0 0 791 402649 -4533 0
0 0 0 834 403483 -3699 0
0 0 0 885 404368 -2814 0
23 1 S112 843 405211 -1971 0
23 1 S112 809 406020 -1162 0
23 1 S112 841 406861 -321 0
23 2 S112 864 407725 543 0
23 2 S112 819 408544 1362 0
23 2 S112 785 409329 2147 0
23 2 S112 824 410153 2971 0
23 2 S112 841 410994 3812 0
23 2 S112 843 411837 4655 0
23 2 S112 807 412644 5462 0
23 2 S112 846 413490 6308 0
0 0 0 863 414353 -10253 0
0 0 0 857 415210 -9396 0
0 0 0 789 415999 -8607 0
0 0 0 817 416816 -7790 0
0 0 0 835 417651 -6955 0
0 0 0 829 418480 -6126 0
0 0 0 791 419271 -5335 0
0 0 0 770 420041 -4565 0
0 0 0 783 420824 -3782 0
0 0 0 768 421592 -3014 0
0 0 0 803 422395 -2211 0
24 1 S106 826 423221 -1385 0
24 1 S106 821 424042 -564 0
24 2 S106 778 424820 214 0
24 2 S106 789 425609 1003 0
24 2 S106 762 426371 1765 0
24 2 S106 731 427102 2496 0
24 2 S106 702 427804 3198 0
24 2 S106 681 428485 3879 0
24 2 S106 646 429131 4525 0
24 2 S106 664 429795 5189 0
24 2 S106 654 430449 5843 0
24 2 S106 687 431136 6530 0
0 0 0 716 431852 -8768 0
0 0 0 736 432588 -8032 0
0 0 0 772 433360 -7260 0
0 0 0 772 434132 -6488 0
0 0 0 807 434939 -5681 0
0 0 0 761 435700 -4920 0
0 0 0 709 436409 -4211 0
0 0 0 677 437086 -3534 0
0 0 0 713 437799 -2821 0
0 0 0 770 438569 -2051 0
25 1 S102 843 439412 -1208 0
25 1 S102 908 440320 -300 0
25 2 S102 945 441265 645 0
25 2 S102 933 442198 1578 0
25 2 S102 923 443121 2501 0
25 2 S102 897 444018 3398 0
25 2 S102 862 444880 4260 0
25 2 S102 839 445719 5099 0
25 2 S102 818 446537 5917 0
25 2 S102 818 447355 6735 0
0 0 0 804 448159 -8592 0
0 0 0 795 448954 -7797 0
0 0 0 798 449752 -6999 0
0 0 0 812 450564 -6187 0
0 0 0 826 451390 -5361 0
0 0 0 836 452226 -4525 0
0 0 0 781 453007 -3744 0
0 0 0 772 453779 -2972 0
0 0 0 807 454586 -2165 0
26 1 S116 809 455395 -1356 0
26 1 S116 845 456240 -511 0
26 2 S116 839 457079 328 0
26 2 S116 798 457877 1126 0
26 2 S116 826 458703 1952 0
26 2 S116 831 459534 2783 0
26 2 S116 831 460365 3614 0
26 2 S116 804 461169 4418 0
26 2 S116 738 461907 5156 0
26 2 S116 747 462654 5903 0
26 2 S116 755 463409 6658 0
0 0 0 783 464192 -8309 0
0 0 0 832 465024 -7477 0
0 0 0 815 465839 -6662 0
0 0 0 804 466643 -5858 0
0 0 0 842 467485 -5016 0
0 0 0 822 468307 -4194 0
0 0 0 785 469092 -3409 0
0 0 0 789 469881 -2620 0
27 1 S106 818 470699 -1802 0
27 1 S106 840 471539 -962 0
27 1 S106 844 472383 -118 0
27 2 S106 803 473186 685 0
27 2 S106 822 474008 1507 0
27 2 S106 814 474822 2321 0
27 2 S106 797 475619 3118 0
27 2 S106 745 476364 3863 0
27 2 S106 779 477143 4642 0
27 2 S106 779 477922 5421 0
27 2 S106 787 478709 6208 0
27 2 S106 787 479496 6995 0
0 0 0 844 480340 -6667 0
0 0 0 856 481196 -5811 0
0 0 0 858 482054 -4953 0
0 0 0 811 482865 -4142 0
0 0 0 830 483695 -3312 0
0 0 0 835 484530 -2477 0
28 1 S102 825 485355 -1652 0
28 1 S102 788 486143 -864 0
28 1 S102 831 486974 -33 0
28 2 S102 867 487841 834 0
28 2 S102 825 488666 1659 0
28 2 S102 811 489477 2470 0
28 2 S102 864 490341 3334 0
28 2 S102 904 491245 4238 0
28 2 S102 886 492131 5124 0
28 2 S102 826 492957 5950 0
28 2 S102 846 493803 6796 0
0 0 0 832 494635 -11735 0
0 0 0 805 495440 -10930 0
0 0 0 790 496230 -10140 0
0 0 0 823 497053 -9317 0
0 0 0 823 497876 -8494 0
0 0 0 785 498661 -7709 0
0 0 0 809 499470 -6900 0
0 0 0 854 500324 -6046 0
0 0 0 859 501183 -5187 0
0 0 0 800 501983 -4387 0
0 0 0 811 502794 -3576 0
0 0 0 827 503621 -2749 0
29 1 S112 856 504477 -1893 0
29 1 S112 839 505316 -1054 0
29 1 S112 821 506137 -233 0
29 2 S112 821 506958 588 0
29 2 S112 834 507792 1422 0
29 2 S112 847 508639 2269 0
29 2 S112 805 509444 3074 0
29 2 S112 852 510296 3926 0
29 2 S112 881 511177 4807 0
29 2 S112 858 512035 5665 0
29 2 S112 809 512844 6474 0
0 0 0 834 513678 -7629 0
0 0 0 854 514532 -6775 0
0 0 0 842 515374 -5933 0
0 0 0 795 516169 -5138 0
0 0 0 828 516997 -4310 0
0 0 0 850 517847 -3460 0
0 0 0 871 518718 -2589 0
30 1 S112 835 519553 -1754 0
30 1 S112 882 520435 -872 0
30 2 S112 887 521322 15 0
30 2 S112 816 522138 831 0
30 2 S112 809 522947 1640 0
30 2 S112 814 523761 2454 0
30 2 S112 786 524547 3240 0
30 2 S112 747 525294 3987 0
30 2 S112 749 526043 4736 0
30 2 S112 713 526756 5449 0
30 2 S112 714 527470 6163 0
30 2 S112 772 528242 6935 0
0 0 0 764 529006 -9493 0
0 0 0 750 529756 -8743 0
0 0 0 796 530552 -7947 0
0 0 0 811 531363 -7136 0
0 0 0 796 532159 -6340 0
0 0 0 741 532900 -5599 0
0 0 0 767 533667 -4832 0
0 0 0 744 534411 -4088 0
0 0 0 737 535148 -3351 0
0 0 0 716 535864 -2635 0
31 1 S106 685 536549 -1950 0
31 1 S106 684 537233 -1266 0
31 1 S106 693 537926 -573 0
31 2 S106 658 538584 85 0
31 2 S106 659 539243 744 0
31 2 S106 685 539928 1429 0
31 2 S106 695 540623 2124 0
31 2 S106 722 541345 2846 0
31 2 S106 777 542122 3623 0
31 2 S106 810 542932 4433 0
31 2 S106 819 543751 5252 0
31 2 S106 835 544586 6087 0
31 2 S106 825 545411 6912 0
0 0 0 802 546213 -8533 0
0 0 0 814 547027 -7719 0
0 0 0 821 547848 -6898 0
0 0 0 782 548630 -6116 0
0 0 0 780 549410 -5336 0
0 0 0 775 550185 -4561 0
0 0 0 752 550937 -3809 0
0 0 0 786 551723 -3023 0
0 0 0 840 552563 -2183 0
32 1 S102 833 553396 -1350 0
32 1 S102 840 554236 -510 0
32 2 S102 842 555078 332 0
32 2 S102 811 555889 1143 0
32 2 S102 780 556669 1923 0
32 2 S102 747 557416 2670 0
32 2 S102 723 558139 3393 0
32 2 S102 734 558873 4127 0
32 2 S102 704 559577 4831 0
32 2 S102 695 560272 5526 0
32 2 S102 718 560990 6244 0
32 2 S102 773 561763 7017 0
0 0 0 788 562551 -12056 0
0 0 0 743 563294 -11313 0
0 0 0 745 564039 -10568 0
0 0 0 766 564805 -9802 0
0 0 0 778 565583 -9024 0
0 0 0 762 566345 -8262 0
0 0 0 721 567066 -7541 0
0 0 0 737 567803 -6804 0
0 0 0 768 568571 -6036 0
0 0 0 858 569429 -5178 0
0 0 0 908 570337 -4270 0
0 0 0 860 571197 -3410 0
0 0 0 882 572079 -2528 0
33 1 S112 900 572979 -1628 0
33 1 S112 891 573870 -737 0
33 2 S112 844 574714 107 0
33 2 S112 848 575562 955 0
33 2 S112 884 576446 1839 0
33 2 S112 892 577338 2731 0
33 2 S112 830 578168 3561 0
33 2 S112 853 579021 4414 0
33 2 S112 909 579930 5323 0
33 2 S112 925 580855 6248 0
0 0 0 892 581747 -12406 0
0 0 0 914 582661 -11492 0
0 0 0 906 583567 -10586 0
0 0 0 836 584403 -9750 0
0 0 0 784 585187 -8966 0
0 0 0 816 586003 -8150 0
0 0 0 847 586850 -7303 0
0 0 0 859 587709 -6444 0
0 0 0 859 588568 -5585 0
0 0 0 926 589494 -4659 0
0 0 0 951 590445 -3708 0
0 0 0 903 591348 -2805 0
34 1 S106 894 592242 -1911 0
34 1 S106 900 593142 -1011 0
34 1 S106 893 594035 -118 0
34 2 S106 813 594848 695 0
34 2 S106 824 595672 1519 0
34 2 S106 839 596511 2358 0
34 2 S106 863 597374 3221 0
34 2 S106 839 598213 4060 0
34 2 S106 834 599047 4894 0
34 2 S106 855 599902 5749 0
34 2 S106 870 600772 6619 0
0 0 0 825 601597 -9035 0
0 0 0 818 602415 -8217 0
0 0 0 844 603259 -7373 0
0 0 0 849 604108 -6524 0
0 0 0 798 604906 -5726 0
0 0 0 807 605713 -4919 0
0 0 0 828 606541 -4091 0
0 0 0 846 607387 -3245 0
0 0 0 853 608240 -2392 0
35 1 S102 800 609040 -1592 0
35 1 S102 826 609866 -766 0
35 2 S102 872 610738 106 0
35 2 S102 886 611624 992 0
35 2 S102 816 612440 1808 0
35 2 S102 841 613281 2649 0
35 2 S102 872 614153 3521 0
35 2 S102 869 615022 4390 0
35 2 S102 853 615875 5243 0
35 2 S102 788 616663 6031 0
35 2 S102 829 617492 6860 0
0 0 0 808 618300 -6125 0
0 0 0 813 619113 -5312 0
0 0 0 750 619863 -4562 0
0 0 0 736 620599 -3826 0
0 0 0 778 621377 -3048 0
0 0 0 804 622181 -2244 0
36 1 S106 859 623040 -1385 0
36 1 S106 855 623895 -530 0
36 2 S106 900 624795 370 0
36 2 S106 893 625688 1263 0
36 2 S106 875 626563 2138 0
36 2 S106 810 627373 2948 0
36 2 S106 835 628208 3783 0
36 2 S106 829 629037 4612 0
36 2 S106 803 629840 5415 0
36 2 S106 774 630614 6189 0
36 2 S106 827 631441 7016 0
0 0 0 838 632279 -9968 0
0 0 0 834 633113 -9134 0
0 0 0 785 633898 -8349 0
0 0 0 810 634708 -7539 0
0 0 0 794 635502 -6745 0
0 0 0 769 636271 -5976 0
0 0 0 750 637021 -5226 0
0 0 0 789 637810 -4437 0
0 0 0 797 638607 -3640 0
0 0 0 828 639435 -2812 0
0 0 0 794 640229 -2018 0
37 1 S116 832 641061 -1186 0
37 1 S116 850 641911 -336 0
37 2 S116 847 642758 511 0
37 2 S116 809 643567 1320 0
37 2 S116 794 644361 2114 0
37 2 S116 819 645180 2933 0
37 2 S116 806 645986 3739 0
37 2 S116 787 646773 4526 0
37 2 S116 849 647622 5375 0
37 2 S116 858 648480 6233 0
0 0 0 834 649314 -12064 0
0 0 0 859 650173 -11205 0
0 0 0 847 651020 -10358 0
0 0 0 816 651836 -9542 0
0 0 0 818 652654 -8724 0
0 0 0 817 653471 -7907 0
0 0 0 803 654274 -7104 0
0 0 0 777 655051 -6327 0
0 0 0 826 655877 -5501 0
0 0 0 838 656715 -4663 0
0 0 0 825 657540 -3838 0
0 0 0 783 658323 -3055 0
0 0 0 816 659139 -2239 0
38 1 S102 830 659969 -1409 0
38 1 S102 805 660774 -604 0
38 2 S102 778 661552 174 0
38 2 S102 818 662370 992 0
38 2 S102 830 663200 1822 0
38 2 S102 856 664056 2678 0
38 2 S102 861 664917 3539 0
38 2 S102 912 665829 4451 0
38 2 S102 951 666780 5402 0
38 2 S102 909 667689 6311 0
0 0 0 930 668619 -9951 0
0 0 0 932 669551 -9019 0
0 0 0 852 670403 -8167 0
0 0 0 793 671196 -7374 0
0 0 0 812 672008 -6562 0
0 0 0 808 672816 -5754 0
0 0 0 803 673619 -4951 0
0 0 0 799 674418 -4152 0
0 0 0 830 675248 -3322 0
0 0 0 866 676114 -2456 0
39 1 S116 847 676961 -1609 0
39 1 S116 830 677791 -779 0
39 2 S116 855 678646 76 0
39 2 S116 863 679509 939 0
39 2 S116 833 680342 1772 0
39 2 S116 810 681152 2582 0
39 2 S116 833 681985 3415 0
39 2 S116 816 682801 4231 0
39 2 S116 794 683595 5025 0
39 2 S116 849 684444 5874 0
39 2 S116 862 685306 6736 0
0 0 0 794 686100 -6910 0
0 0 0 811 686911 -6099 0
0 0 0 788 687699 -5311 0
0 0 0 764 688463 -4547 0
0 0 0 757 689220 -3790 0
0 0 0 806 690026 -2984 0
0 0 0 891 690917 -2093 0
40 1 S112 901 691818 -1192 0
40 1 S112 858 692676 -334 0
40 2 S112 902 693578 568 0
40 2 S112 913 694491 1481 0
40 2 S112 835 695326 2316 0
40 2 S112 748 696074 3064 0
40 2 S112 756 696830 3820 0
40 2 S112 744 697574 4564 0
40 2 S112 719 698293 5283 0
40 2 S112 709 699002 5992 0
40 2 S112 689 699691 6681 0
0 0 0 673 700364 -187774 0
0 0 0 655 701019 -187119 0
0 0 0 668 701687 -186451 0
0 0 0 682 702369 -185769 0
0 0 0 681 703050 -185088 0
0 0 0 720 703770 -184368 0
0 0 0 705 704475 -183663 0
0 0 0 678 705153 -182985 0
0 0 0 663 705816 -182322 0
0 0 0 652 706468 -181670 0
0 0 0 667 707135 -181003 0
0 0 0 708 707843 -180295 0
0 0 0 709 708552 -179586 0
0 0 0 720 709272 -178866 0
0 0 0 707 709979 -178159 0
0 0 0 682 710661 -177477 0
0 0 0 671 711332 -176806 0
0 0 0 668 712000 -176138 0
0 0 0 665 712665 -175473 0
0 0 0 651 713316 -174822 0
0 0 0 645 713961 -174177 0
0 0 0 635 714596 -173542 0
0 0 0 624 715220 -172918 0
0 0 0 612 715832 -172306 0
0 0 0 605 716437 -171701 1
0 0 0 597 717034 -171104 1
0 0 0 602 717636 -170502 1
0 0 0 610 718246 -169892 0
0 0 0 611 718857 -169281 0
0 0 0 617 719474 -168664 0
0 0 0 639 720113 -168025 0
0 0 0 649 720762 -167376 0
0 0 0 643 721405 -166733 0
0 0 0 651 722056 -166082 0
0 0 0 705 722761 -165377 0
0 0 0 868 723629 -164509 0
0 0 0 875 724504 -163634 0
0 0 0 857 725361 -162777 0
0 0 0 815 726176 -161962 0
0 0 0 754 726930 -161208 0
0 0 0 712 727642 -160496 0
0 0 0 686 728328 -159810 0
0 0 0 689 729017 -159121 0
0 0 0 749 729766 -158372 0
0 0 0 794 730560 -157578 0
0 0 0 800 731360 -156778 0
0 0 0 824 732184 -155954 0
0 0 0 783 732967 -155171 0
0 0 0 761 733728 -154410 0
0 0 0 803 734531 -153607 0
0 0 0 876 735407 -152731 0
0 0 0 969 736376 -151762 0
0 0 0 952 737328 -150810 0
0 0 0 923 738251 -149887 0
0 0 0 802 739053 -149085 0
0 0 0 782 739835 -148303 0
0 0 0 746 740581 -147557 0
0 0 0 775 741356 -146782 0
0 0 0 823 742179 -145959 0
0 0 0 866 743045 -145093 0
0 0 0 852 743897 -144241 0
0 0 0 797 744694 -143444 0
0 0 0 734 745428 -142710 0
0 0 0 693 746121 -142017 0
0 0 0 674 746795 -141343 0
0 0 0 2605 749400 -138738 1
0 0 0 711 750111 -138027 0
0 0 0 998 751109 -137029 1
0 0 0 1031 752140 -135998 1
0 0 0 1009 753149 -134989 1
0 0 0 1002 754151 -133987 1
0 0 0 936 755087 -133051 0
0 0 0 876 755963 -132175 0
0 0 0 798 756761 -131377 0
0 0 0 752 757513 -130625 0
0 0 0 681 758194 -129944 0
0 0 0 661 758855 -129283 0
0 0 0 690 759545 -128593 0
0 0 0 747 760292 -127846 0
0 0 0 911 761203 -126935 0
0 0 0 918 762121 -126017 0
0 0 0 942 763063 -125075 0
0 0 0 955 764018 -124120 0
0 0 0 883 764901 -123237 0
0 0 0 832 765733 -122405 0
0 0 0 820 766553 -121585 0
0 0 0 831 767384 -120754 0
0 0 0 834 768218 -119920 0
0 0 0 866 769084 -119054 0
0 0 0 892 769976 -118162 0
0 0 0 893 770869 -117269 0
0 0 0 882 771751 -116387 0
0 0 0 875 772626 -115512 0
0 0 0 866 773492 -114646 0
0 0 0 859 774351 -113787 0
0 0 0 850 775201 -112937 0
0 0 0 831 776032 -112106 0
0 0 0 845 776877 -111261 0
0 0 0 805 777682 -110456 0
0 0 0 821 778503 -109635 0
0 0 0 736 779239 -108899 0
0 0 0 752 779991 -108147 0
0 0 0 778 780769 -107369 0
0 0 0 841 781610 -106528 0
0 0 0 892 782502 -105636 0
0 0 0 904 783406 -104732 0
0 0 0 917 784323 -103815 0
0 0 0 817 785140 -102998 0
0 0 0 818 785958 -102180 0
0 0 0 797 786755 -101383 0
0 0 0 790 787545 -100593 0
0 0 0 756 788301 -99837 0
0 0 0 747 789048 -99090 0
0 0 0 754 789802 -98336 0
0 0 0 773 790575 -97563 0
0 0 0 786 791361 -96777 0
0 0 0 730 792091 -96047 0
0 0 0 743 792834 -95304 0
0 0 0 754 793588 -94550 0
0 0 0 776 794364 -93774 0
0 0 0 759 795123 -93015 0
0 0 0 725 795848 -92290 0
0 0 0 728 796576 -91562 0
0 0 0 734 797310 -90828 0
0 0 0 721 798031 -90107 0
0 0 0 727 798758 -89380 0
0 0 0 772 799530 -88608 0
0 0 0 806 800336 -87802 0
0 0 0 862 801198 -86940 0
0 0 0 872 802070 -86068 0
0 0 0 887 802957 -85181 0
0 0 0 861 803818 -84320 0
0 0 0 821 804639 -83499 0
0 0 0 807 805446 -82692 0
0 0 0 814 806260 -81878 0
0 0 0 802 807062 -81076 0
0 0 0 787 807849 -80289 0
0 0 0 718 808567 -79571 0
0 0 0 743 809310 -78828 0
0 0 0 745 810055 -78083 0
0 0 0 752 810807 -77331 0
0 0 0 716 811523 -76615 0
0 0 0 706 812229 -75909 0
0 0 0 687 812916 -75222 0
0 0 0 666 813582 -74556 0
0 0 0 652 814234 -73904 0
0 0 0 666 814900 -73238 0
0 0 0 697 815597 -72541 0
0 0 0 867 816464 -71674 0
0 0 0 849 817313 -70825 0
0 0 0 868 818181 -69957 0
0 0 0 891 819072 -69066 0
0 0 0 853 819925 -68213 0
0 0 0 808 820733 -67405 0
0 0 0 777 821510 -66628 0
0 0 0 745 822255 -65883 0
0 0 0 706 822961 -65177 0
0 0 0 684 823645 -64493 0
0 0 0 675 824320 -63818 0
0 0 0 672 824992 -63146 0
0 0 0 720 825712 -62426 0
0 0 0 776 826488 -61650 0
0 0 0 789 827277 -60861 0
0 0 0 804 828081 -60057 0
0 0 0 799 828880 -59258 0
0 0 0 773 829653 -58485 0
0 0 0 746 830399 -57739 0
0 0 0 726 831125 -57013 0
0 0 0 708 831833 -56305 0
0 0 0 685 832518 -55620 0
0 0 0 681 833199 -54939 0
0 0 0 647 833846 -54292 0
0 0 0 659 834505 -53633 0
0 0 0 681 835186 -52952 0
0 0 0 723 835909 -52229 0
0 0 0 776 836685 -51453 0
0 0 0 836 837521 -50617 0
0 0 0 890 838411 -49727 0
0 0 0 896 839307 -48831 0
0 0 0 872 840179 -47959 0
0 0 0 832 841011 -47127 0
0 0 0 781 841792 -46346 0
0 0 0 748 842540 -45598 0
0 0 0 711 843251 -44887 0
0 0 0 704 843955 -44183 0
0 0 0 732 844687 -43451 0
0 0 0 800 845487 -42651 0
0 0 0 924 846411 -41727 0
0 0 0 1011 847422 -40716 1
0 0 0 995 848417 -39721 1
0 0 0 915 849332 -38806 0
0 0 0 892 850224 -37914 0
0 0 0 850 851074 -37064 0
0 0 0 838 851912 -36226 0
0 0 0 837 852749 -35389 0
0 0 0 838 853587 -34551 0
0 0 0 804 854391 -33747 0
0 0 0 805 855196 -32942 0
0 0 0 827 856023 -32115 0
0 0 0 844 856867 -31271 0
0 0 0 865 857732 -30406 0
0 0 0 823 858555 -29583 0
0 0 0 818 859373 -28765 0
0 0 0 846 860219 -27919 0
0 0 0 843 861062 -27076 0
0 0 0 840 861902 -26236 0
0 0 0 789 862691 -25447 0
0 0 0 812 863503 -24635 0
0 0 0 827 864330 -23808 0
0 0 0 815 865145 -22993 0
0 0 0 771 865916 -22222 0
0 0 0 790 866706 -21432 0
0 0 0 753 867459 -20679 0
0 0 0 761 868220 -19918 0
0 0 0 746 868966 -19172 0
0 0 0 734 869700 -18438 0
0 0 0 716 870416 -17722 0
0 0 0 692 871108 -17030 0
0 0 0 671 871779 -16359 0
0 0 0 649 872428 -15710 0
0 0 0 646 873074 -15064 0
0 0 0 652 873726 -14412 0
0 0 0 668 874394 -13744 0
0 0 0 649 875043 -13095 0
0 0 0 688 875731 -12407 0
0 0 0 771 876502 -11636 0
0 0 0 790 877292 -10846 0
0 0 0 769 878061 -10077 0
0 0 0 750 878811 -9327 0
0 0 0 722 879533 -8605 0
0 0 0 690 880223 -7915 0
0 0 0 672 880895 -7243 0
0 0 0 655 881550 -6588 0
0 0 0 641 882191 -5947 0
0 0 0 605 882796 -5342 1
0 0 0 593 883389 -4749 1
0 0 0 592 883981 -4157 1
0 0 0 586 884567 -3571 1
0 0 0 609 885176 -2962 0
0 0 0 684 885860 -2278 0
41 1 S102 754 886614 -1524 0
41 1 S102 822 887436 -702 0
41 2 S102 866 888302 164 0
41 2 S102 904 889206 1068 0
41 2 S102 876 890082 1944 0
41 2 S102 867 890949 2811 0
41 2 S102 928 891877 3739 0
41 2 S102 985 892862 4724 0
41 2 S102 962 893824 5686 0
41 2 S102 925 894749 6611 0
0 0 0 817 895566 -7426 0
0 0 0 762 896328 -6664 0
0 0 0 758 897086 -5906 0
0 0 0 792 897878 -5114 0
0 0 0 807 898685 -4307 0
0 0 0 780 899465 -3527 0
0 0 0 746 900211 -2781 0
0 0 0 751 900962 -2030 0
42 1 S112 764 901726 -1266 0
42 1 S112 764 902490 -502 0
42 2 S112 765 903255 263 0
42 2 S112 744 903999 1007 0
42 2 S112 721 904720 1728 0
42 2 S112 701 905421 2429 0
42 2 S112 692 906113 3121 0
42 2 S112 680 906793 3801 0
42 2 S112 680 907473 4481 0
42 2 S112 723 908196 5204 0
42 2 S112 830 909026 6034 0
42 2 S112 898 909924 6932 0
0 0 0 932 910856 -8300 0
0 0 0 920 911776 -7380 0
0 0 0 891 912667 -6489 0
0 0 0 861 913528 -5628 0
0 0 0 834 914362 -4794 0
0 0 0 819 915181 -3975 0
0 0 0 801 915982 -3174 0
0 0 0 782 916764 -2392 0
43 1 S116 756 917520 -1636 0
43 1 S116 772 918292 -864 0
43 1 S116 795 919087 -69 0
43 2 S116 797 919884 728 0
43 2 S116 810 920694 1538 0
43 2 S116 817 921511 2355 0
43 2 S116 798 922309 3153 0
43 2 S116 830 923139 3983 0
43 2 S116 862 924001 4845 0
43 2 S116 894 924895 5739 0
43 2 S116 879 925774 6618 0
0 0 0 848 926622 -7239 0
0 0 0 840 927462 -6399 0
0 0 0 822 928284 -5577 0
0 0 0 802 929086 -4775 0
0 0 0 714 929800 -4061 0
0 0 0 749 930549 -3312 0
0 0 0 728 931277 -2584 0
44 1 S102 739 932016 -1845 0
44 1 S102 787 932803 -1058 0
44 1 S102 825 933628 -233 0
44 2 S102 792 934420 559 0
44 2 S102 821 935241 1380 0
44 2 S102 844 936085 2224 0
44 2 S102 863 936948 3087 0
44 2 S102 847 937795 3934 0
44 2 S102 793 938588 4727 0
44 2 S102 796 939384 5523 0
44 2 S102 773 940157 6296 0
0 0 0 751 940908 -9747 0
0 0 0 723 941631 -9024 0
0 0 0 686 942317 -8338 0
0 0 0 706 943023 -7632 0
0 0 0 689 943712 -6943 0
0 0 0 706 944418 -6237 0
0 0 0 799 945217 -5438 0
0 0 0 772 945989 -4666 0
0 0 0 796 946785 -3870 0
0 0 0 853 947638 -3017 0
0 0 0 886 948524 -2131 0
45 1 S116 897 949421 -1234 0
45 1 S116 898 950319 -336 0
45 2 S116 836 951155 500 0
45 2 S116 831 951986 1331 0
45 2 S116 819 952805 2150 0
45 2 S116 831 953636 2981 0
45 2 S116 837 954473 3818 0
45 2 S116 802 955275 4620 0
45 2 S116 802 956077 5422 0
45 2 S116 819 956896 6241 0
0 0 0 844 957740 -12179 0
0 0 0 873 958613 -11306 0
0 0 0 818 959431 -10488 0
0 0 0 777 960208 -9711 0
0 0 0 775 960983 -8936 0
0 0 0 748 961731 -8188 0
0 0 0 745 962476 -7443 0
0 0 0 754 963230 -6689 0
0 0 0 789 964019 -5900 0
0 0 0 832 964851 -5068 0
0 0 0 879 965730 -4189 0
0 0 0 877 966607 -3312 0
0 0 0 810 967417 -2502 0
46 1 S102 796 968213 -1706 0
46 1 S102 745 968958 -961 0
46 1 S102 765 969723 -196 0
46 2 S102 776 970499 580 0
46 2 S102 799 971298 1379 0
46 2 S102 818 972116 2197 0
46 2 S102 854 972970 3051 0
46 2 S102 802 973772 3853 0
46 2 S102 764 974536 4617 0
46 2 S102 790 975326 5407 0
46 2 S102 779 976105 6186 0
46 2 S102 763 976868 6949 0
0 0 0 784 977652 -9840 0
0 0 0 790 978442 -9050 0
0 0 0 802 979244 -8248 0
0 0 0 790 980034 -7458 0
0 0 0 769 980803 -6689 0
0 0 0 735 981538 -5954 0
0 0 0 769 982307 -5185 0
0 0 0 777 983084 -4408 0
0 0 0 818 983902 -3590 0
0 0 0 823 984725 -2767 0
47 1 S112 833 985558 -1934 0
47 1 S112 813 986371 -1121 0
47 1 S112 840 987211 -281 0
47 2 S112 832 988043 551 0
47 2 S112 850 988893 1401 0
47 2 S112 846 989739 2247 0
47 2 S112 803 990542 3050 0
47 2 S112 825 991367 3875 0
47 2 S112 826 992193 4701 0
47 2 S112 821 993014 5522 0
47 2 S112 773 993787 6295 0
0 0 0 810 994597 -12524 0
0 0 0 839 995436 -11685 0
0 0 0 812 996248 -10873 0
0 0 0 799 997047 -10074 0
0 0 0 769 997816 -9305 0
0 0 0 803 998619 -8502 0
0 0 0 802 999421 -7700 0
0 0 0 817 1000238 -6883 0
0 0 0 790 1001028 -6093 0
0 0 0 786 1001814 -5307 0
0 0 0 757 1002571 -4550 0
0 0 0 770 1003341 -3780 0
0 0 0 754 1004095 -3026 0
0 0 0 765 1004860 -2261 0
48 1 S116 766 1005626 -1495 0
48 1 S116 733 1006359 -762 0
48 1 S116 727 1007086 -35 0
48 2 S116 743 1007829 708 0
48 2 S116 752 1008581 1460 0
48 2 S116 774 1009355 2234 0
48 2 S116 786 1010141 3020 0
48 2 S116 767 1010908 3787 0
48 2 S116 801 1011709 4588 0
48 2 S116 841 1012550 5429 0
48 2 S116 884 1013434 6313 0
0 0 0 863 1014297 -8739 0
0 0 0 812 1015109 -7927 0
0 0 0 822 1015931 -7105 0
0 0 0 806 1016737 -6299 0
0 0 0 797 1017534 -5502 0
0 0 0 781 1018315 -4721 0
0 0 0 789 1019104 -3932 0
0 0 0 795 1019899 -3137 0
0 0 0 816 1020715 -2321 0
49 1 S112 761 1021476 -1560 0
49 1 S112 788 1022264 -772 0
49 2 S112 806 1023070 34 0
49 2 S112 827 1023897 861 0
49 2 S112 842 1024739 1703 0
49 2 S112 830 1025569 2533 0
49 2 S112 766 1026335 3299 0
49 2 S112 797 1027132 4096 0
49 2 S112 772 1027904 4868 0
49 2 S112 748 1028652 5616 0
49 2 S112 722 1029374 6338 0
0 0 0 728 1030102 -12264 0
0 0 0 735 1030837 -11529 0
0 0 0 719 1031556 -10810 0
0 0 0 740 1032296 -10070 0
0 0 0 731 1033027 -9339 0
0 0 0 721 1033748 -8618 0
0 0 0 683 1034431 -7935 0
0 0 0 698 1035129 -7237 0
0 0 0 743 1035872 -6494 0
0 0 0 780 1036652 -5714 0
0 0 0 883 1037535 -4831 0
0 0 0 915 1038450 -3916 0
0 0 0 849 1039299 -3067 0
0 0 0 847 1040146 -2220 0
50 1 S106 831 1040977 -1389 0
50 1 S106 823 1041800 -566 0
50 2 S106 829 1042629 263 0
50 2 S106 801 1043430 1064 0
50 2 S106 816 1044246 1880 0
50 2 S106 802 1045048 2682 0
50 2 S106 787 1045835 3469 0
50 2 S106 748 1046583 4217 0
50 2 S106 739 1047322 4956 0
50 2 S106 813 1048135 5769 0
50 2 S106 876 1049011 6645 0
0 0 0 908 1049919 -7484 0
0 0 0 883 1050802 -6601 0
0 0 0 898 1051700 -5703 0
0 0 0 884 1052584 -4819 0
0 0 0 818 1053402 -4001 0
0 0 0 838 1054240 -3163 0
0 0 0 834 1055074 -2329 0
51 1 S112 820 1055894 -1509 0
51 1 S112 764 1056658 -745 0
51 2 S112 791 1057449 46 0
51 2 S112 799 1058248 845 0
51 2 S112 820 1059068 1665 0
51 2 S112 807 1059875 2472 0
51 2 S112 734 1060609 3206 0
51 2 S112 779 1061388 3985 0
51 2 S112 776 1062164 4761 0
51 2 S112 785 1062949 5546 0
51 2 S112 763 1063712 6309 0
0 0 0 729 1064441 -7468 0
0 0 0 746 1065187 -6722 0
0 0 0 757 1065944 -5965 0
0 0 0 732 1066676 -5233 0
0 0 0 707 1067383 -4526 0
0 0 0 731 1068114 -3795 0
0 0 0 811 1068925 -2984 0
0 0 0 776 1069701 -2208 0
52 1 S116 736 1070437 -1472 0
52 1 S116 710 1071147 -762 0
52 1 S116 687 1071834 -75 0
52 2 S116 664 1072498 589 0
52 2 S116 673 1073171 1262 0
52 2 S116 719 1073890 1981 0
52 2 S116 765 1074655 2746 0
52 2 S116 779 1075434 3525 0
52 2 S116 784 1076218 4309 0
52 2 S116 767 1076985 5076 0
52 2 S116 743 1077728 5819 0
52 2 S116 731 1078459 6550 0
0 0 0 711 1079170 -10163 0
0 0 0 708 1079878 -9455 0
0 0 0 699 1080577 -8756 0
0 0 0 686 1081263 -8070 0
0 0 0 666 1081929 -7404 0
0 0 0 662 1082591 -6742 0
0 0 0 675 1083266 -6067 0
0 0 0 722 1083988 -5345 0
0 0 0 882 1084870 -4463 0
0 0 0 970 1085840 -3493 0
0 0 0 885 1086725 -2608 0
53 1 S106 902 1087627 -1706 0
53 1 S106 859 1088486 -847 0
53 1 S106 821 1089307 -26 0
53 2 S106 808 1090115 782 0
53 2 S106 813 1090928 1595 0
53 2 S106 811 1091739 2406 0
53 2 S106 844 1092583 3250 0
53 2 S106 874 1093457 4124 0
53 2 S106 843 1094300 4967 0
53 2 S106 822 1095122 5789 0
53 2 S106 822 1095944 6611 0
0 0 0 835 1096779 -8105 0
0 0 0 836 1097615 -7269 0
0 0 0 834 1098449 -6435 0
0 0 0 828 1099277 -5607 0
0 0 0 783 1100060 -4824 0
0 0 0 749 1100809 -4075 0
0 0 0 764 1101573 -3311 0
0 0 0 780 1102353 -2531 0
54 1 S102 817 1103170 -1714 0
54 1 S102 855 1104025 -859 0
54 2 S102 871 1104896 12 0
54 2 S102 823 1105719 835 0
54 2 S102 828 1106547 1663 0
54 2 S102 816 1107363 2479 0
54 2 S102 810 1108173 3289 0
54 2 S102 785 1108958 4074 0
54 2 S102 735 1109693 4809 0
54 2 S102 744 1110437 5553 0
54 2 S102 720 1111157 6273 0
54 2 S102 721 1111878 6994 0
0 0 0 781 1112659 -11870 0
0 0 0 805 1113464 -11065 0
0 0 0 842 1114306 -10223 0
0 0 0 851 1115157 -9372 0
0 0 0 861 1116018 -8511 0
0 0 0 803 1116821 -7708 0
0 0 0 808 1117629 -6900 0
0 0 0 796 1118425 -6104 0
0 0 0 717 1119142 -5387 0
0 0 0 750 1119892 -4637 0
0 0 0 746 1120638 -3891 0
0 0 0 767 1121405 -3124 0
0 0 0 790 1122195 -2334 0
55 1 S106 784 1122979 -1550 0
55 1 S106 757 1123736 -793 0
55 1 S106 780 1124516 -13 0
55 2 S106 789 1125305 776 0
55 2 S106 799 1126104 1575 0
55 2 S106 823 1126927 2398 0
55 2 S106 813 1127740 3211 0
55 2 S106 831 1128571 4042 0
55 2 S106 812 1129383 4854 0
55 2 S106 815 1130198 5669 0
55 2 S106 796 1130994 6465 0
0 0 0 773 1131767 -6970 0
0 0 0 806 1132573 -6164 0
0 0 0 828 1133401 -5336 0
0 0 0 833 1134234 -4503 0
0 0 0 793 1135027 -3710 0
0 0 0 803 1135830 -2907 0
0 0 0 813 1136643 -2094 0
56 1 S116 823 1137466 -1271 0
56 1 S116 823 1138289 -448 0
56 2 S116 771 1139060 323 0
56 2 S116 780 1139840 1103 0
56 2 S116 759 1140599 1862 0
56 2 S116 727 1141326 2589 0
56 2 S116 678 1142004 3267 0
56 2 S116 666 1142670 3933 0
56 2 S116 656 1143326 4589 0
56 2 S116 646 1143972 5235 0
56 2 S116 640 1144612 5875 0
56 2 S116 644 1145256 6519 0
0 0 0 730 1145986 -6577 0
0 0 0 915 1146901 -5662 0
0 0 0 902 1147803 -4760 0
0 0 0 878 1148681 -3882 0
0 0 0 834 1149515 -3048 0
0 0 0 773 1150288 -2275 0
57 1 S106 735 1151023 -1540 0
57 1 S106 699 1151722 -841 0
57 1 S106 678 1152400 -163 0
57 2 S106 678 1153078 515 0
57 2 S106 704 1153782 1219 0
57 2 S106 726 1154508 1945 0
57 2 S106 750 1155258 2695 0
57 2 S106 786 1156044 3481 0
57 2 S106 804 1156848 4285 0
57 2 S106 792 1157640 5077 0
57 2 S106 723 1158363 5800 0
57 2 S106 732 1159095 6532 0
0 0 0 750 1159845 -8832 0
0 0 0 783 1160628 -8049 0
0 0 0 856 1161484 -7193 0
0 0 0 865 1162349 -6328 0
0 0 0 863 1163212 -5465 0
0 0 0 815 1164027 -4650 0
0 0 0 810 1164837 -3840 0
0 0 0 786 1165623 -3054 0
0 0 0 745 1166368 -2309 0
58 1 S102 734 1167102 -1575 0
58 1 S102 732 1167834 -843 0
58 1 S102 708 1168542 -135 0
58 2 S102 696 1169238 561 0
58 2 S102 700 1169938 1261 0
58 2 S102 696 1170634 1957 0
58 2 S102 688 1171322 2645 0
58 2 S102 696 1172018 3341 0
58 2 S102 726 1172744 4067 0
58 2 S102 808 1173552 4875 0
58 2 S102 888 1174440 5763 0
58 2 S102 884 1175324 6647 0
0 0 0 865 1176189 -6514 0
0 0 0 836 1177025 -5678 0
0 0 0 785 1177810 -4893 0
0 0 0 720 1178530 -4173 0
0 0 0 717 1179247 -3456 0
0 0 0 714 1179961 -2742 0
0 0 0 717 1180678 -2025 0
59 1 S112 763 1181441 -1262 0
59 1 S112 819 1182260 -443 0
59 2 S112 822 1183082 379 0
59 2 S112 853 1183935 1232 0
59 2 S112 901 1184836 2133 0
59 2 S112 915 1185751 3048 0
59 2 S112 889 1186640 3937 0
59 2 S112 897 1187537 4834 0
59 2 S112 880 1188417 5714 0
59 2 S112 865 1189282 6579 0
0 0 0 838 1190120 -10255 0
0 0 0 780 1190900 -9475 0
0 0 0 791 1191691 -8684 0
0 0 0 789 1192480 -7895 0
0 0 0 808 1193288 -7087 0
0 0 0 786 1194074 -6301 0
0 0 0 757 1194831 -5544 0
0 0 0 763 1195594 -4781 0
0 0 0 760 1196354 -4021 0
0 0 0 806 1197160 -3215 0
0 0 0 810 1197970 -2405 0
60 1 S102 783 1198753 -1622 0
60 1 S102 780 1199533 -842 0
60 1 S102 781 1200314 -61 0
60 2 S102 757 1201071 696 0
60 2 S102 748 1201819 1444 0
60 2 S102 735 1202554 2179 0
60 2 S102 721 1203275 2900 0
60 2 S102 738 1204013 3638 0
60 2 S102 736 1204749 4374 0
60 2 S102 748 1205497 5122 0
60 2 S102 766 1206263 5888 0
60 2 S102 747 1207010 6635 0
0 0 0 777 1207787 -10576 0
0 0 0 800 1208587 -9776 0
0 0 0 812 1209399 -8964 0
0 0 0 767 1210166 -8197 0
0 0 0 712 1210878 -7485 0
0 0 0 717 1211595 -6768 0
0 0 0 718 1212313 -6050 0
0 0 0 709 1213022 -5341 0
0 0 0 716 1213738 -4625 0
0 0 0 703 1214441 -3922 0
0 0 0 701 1215142 -3221 0
0 0 0 723 1215865 -2498 0
61 1 S106 754 1216619 -1744 0
61 1 S106 765 1217384 -979 0
61 1 S106 766 1218150 -213 0
61 2 S106 747 1218897 534 0
61 2 S106 732 1219629 1266 0
61 2 S106 744 1220373 2010 0
61 2 S106 744 1221117 2754 0
61 2 S106 744 1221861 3498 0
61 2 S106 721 1222582 4219 0
61 2 S106 704 1223286 4923 0
61 2 S106 721 1224007 5644 0
61 2 S106 725 1224732 6369 0
0 0 0 742 1225474 -8191 0
0 0 0 748 1226222 -7443 0
0 0 0 737 1226959 -6706 0
0 0 0 791 1227750 -5915 0
0 0 0 826 1228576 -5089 0
0 0 0 803 1229379 -4286 0
0 0 0 737 1230116 -3549 0
0 0 0 794 1230910 -2755 0
62 1 S112 812 1231722 -1943 0
62 1 S112 859 1232581 -1084 0
62 1 S112 900 1233481 -184 0
62 2 S112 892 1234373 708 0
62 2 S112 834 1235207 1542 0
62 2 S112 836 1236043 2378 0
62 2 S112 823 1236866 3201 0
62 2 S112 818 1237684 4019 0
62 2 S112 783 1238467 4802 0
62 2 S112 803 1239270 5605 0
62 2 S112 809 1240079 6414 0
0 0 0 820 1240899 -12262 0
0 0 0 776 1241675 -11486 0
0 0 0 788 1242463 -10698 0
0 0 0 795 1243258 -9903 0
0 0 0 786 1244044 -9117 0
0 0 0 741 1244785 -8376 0
0 0 0 776 1245561 -7600 0
0 0 0 776 1246337 -6824 0
0 0 0 791 1247128 -6033 0
0 0 0 820 1247948 -5213 0
0 0 0 774 1248722 -4439 0
0 0 0 746 1249468 -3693 0
0 0 0 719 1250187 -2974 0
0 0 0 725 1250912 -2249 0
63 1 S102 737 1251649 -1512 0
63 1 S102 760 1252409 -752 0
63 2 S102 787 1253196 35 0
63 2 S102 810 1254006 845 0
63 2 S102 795 1254801 1640 0
63 2 S102 765 1255566 2405 0
63 2 S102 764 1256330 3169 0
63 2 S102 756 1257086 3925 0
63 2 S102 762 1257848 4687 0
63 2 S102 728 1258576 5415 0
63 2 S102 729 1259305 6144 0
63 2 S102 742 1260047 6886 0
0 0 0 727 1260774 -8600 0
0 0 0 746 1261520 -7854 0
0 0 0 722 1262242 -7132 0
0 0 0 700 1262942 -6432 0
0 0 0 683 1263625 -5749 0
0 0 0 669 1264294 -5080 0
0 0 0 657 1264951 -4423 0
0 0 0 674 1265625 -3749 0
0 0 0 769 1266394 -2980 0
0 0 0 832 1267226 -2148 0
64 1 S112 752 1267978 -1396 0
64 1 S112 763 1268741 -633 0
64 2 S112 788 1269529 155 0
64 2 S112 812 1270341 967 0
64 2 S112 829 1271170 1796 0
64 2 S112 829 1271999 2625 0
64 2 S112 834 1272833 3459 0
64 2 S112 785 1273618 4244 0
64 2 S112 778 1274396 5022 0
64 2 S112 762 1275158 5784 0
64 2 S112 758 1275916 6542 0
0 0 0 766 1276682 -8309 0
0 0 0 754 1277436 -7555 0
0 0 0 723 1278159 -6832 0
0 0 0 749 1278908 -6083 0
0 0 0 713 1279621 -5370 0
0 0 0 745 1280366 -4625 0
0 0 0 718 1281084 -3907 0
0 0 0 741 1281825 -3166 0
0 0 0 779 1282604 -2387 0
65 1 S106 842 1283446 -1545 0
65 1 S106 850 1284296 -695 0
65 2 S106 868 1285164 173 0
65 2 S106 826 1285990 999 0
65 2 S106 813 1286803 1812 0
65 2 S106 801 1287604 2613 0
65 2 S106 792 1288396 3405 0
65 2 S106 786 1289182 4191 0
65 2 S106 778 1289960 4969 0
65 2 S106 744 1290704 5713 0
65 2 S106 763 1291467 6476 0
0 0 0 765 1292232 -6768 0
0 0 0 784 1293016 -5984 0
0 0 0 804 1293820 -5180 0
0 0 0 798 1294618 -4382 0
0 0 0 760 1295378 -3622 0
0 0 0 786 1296164 -2836 0
0 0 0 783 1296947 -2053 0
66 1 S116 791 1297738 -1262 0
66 1 S116 802 1298540 -460 0
66 2 S116 790 1299330 330 0
66 2 S116 768 1300098 1098 0
66 2 S116 763 1300861 1861 0
66 2 S116 700 1301561 2561 0
66 2 S116 701 1302262 3262 0
66 2 S116 718 1302980 3980 0
66 2 S116 717 1303697 4697 0
66 2 S116 744 1304441 5441 0
66 2 S116 771 1305212 6212 0
66 2 S116 747 1305959 6959 0
0 0 0 755 1306714 -10091 0
0 0 0 745 1307459 -9346 0
0 0 0 709 1308168 -8637 0
0 0 0 717 1308885 -7920 0
0 0 0 713 1309598 -7207 0
0 0 0 710 1310308 -6497 0
0 0 0 724 1311032 -5773 0
0 0 0 742 1311774 -5031 0
0 0 0 740 1312514 -4291 0
0 0 0 787 1313301 -3504 0
0 0 0 817 1314118 -2687 0
67 1 S102 857 1314975 -1830 0
67 1 S102 881 1315856 -949 0
67 1 S102 853 1316709 -96 0
67 2 S102 870 1317579 774 0
67 2 S102 879 1318458 1653 0
67 2 S102 885 1319343 2538 0
67 2 S102 850 1320193 3388 0
67 2 S102 844 1321037 4232 0
67 2 S102 852 1321889 5084 0
67 2 S102 839 1322728 5923 0
67 2 S102 805 1323533 6728 0
0 0 0 792 1324325 -6572 0
0 0 0 770 1325095 -5802 0
0 0 0 822 1325917 -4980 0
0 0 0 814 1326731 -4166 0
0 0 0 840 1327571 -3326 0
0 0 0 754 1328325 -2572 0
68 1 S106 768 1329093 -1804 0
68 1 S106 760 1329853 -1044 0
68 1 S106 755 1330608 -289 0
68 2 S106 781 1331389 492 0
68 2 S106 796 1332185 1288 0
68 2 S106 793 1332978 2081 0
68 2 S106 767 1333745 2848 0
68 2 S106 779 1334524 3627 0
68 2 S106 766 1335290 4393 0
68 2 S106 739 1336029 5132 0
68 2 S106 721 1336750 5853 0
68 2 S106 699 1337449 6552 0
0 0 0 697 1338146 -11468 0
0 0 0 678 1338824 -10790 0
0 0 0 681 1339505 -10109 0
0 0 0 700 1340205 -9409 0
0 0 0 711 1340916 -8698 0
0 0 0 747 1341663 -7951 0
0 0 0 786 1342449 -7165 0
0 0 0 767 1343216 -6398 0
0 0 0 796 1344012 -5602 0
0 0 0 813 1344825 -4789 0
0 0 0 814 1345639 -3975 0
0 0 0 799 1346438 -3176 0
0 0 0 749 1347187 -2427 0
69 1 S102 755 1347942 -1672 0
69 1 S102 767 1348709 -905 0
69 1 S102 791 1349500 -114 0
69 2 S102 815 1350315 701 0
69 2 S102 796 1351111 1497 0
69 2 S102 785 1351896 2282 0
69 2 S102 831 1352727 3113 0
69 2 S102 854 1353581 3967 0
69 2 S102 843 1354424 4810 0
69 2 S102 794 1355218 5604 0
69 2 S102 787 1356005 6391 0
0 0 0 787 1356792 -10478 0
0 0 0 775 1357567 -9703 0
0 0 0 772 1358339 -8931 0
0 0 0 740 1359079 -8191 0
0 0 0 763 1359842 -7428 0
0 0 0 772 1360614 -6656 0
0 0 0 783 1361397 -5873 0
0 0 0 774 1362171 -5099 0
0 0 0 754 1362925 -4345 0
0 0 0 792 1363717 -3553 0
0 0 0 807 1364524 -2746 0
70 1 S112 789 1365313 -1957 0
70 1 S112 770 1366083 -1187 0
70 1 S112 791 1366874 -396 0
70 2 S112 787 1367661 391 0
70 2 S112 794 1368455 1185 0
70 2 S112 801 1369256 1986 0
70 2 S112 778 1370034 2764 0
70 2 S112 791 1370825 3555 0
70 2 S112 811 1371636 4366 0
70 2 S112 841 1372477 5207 0
70 2 S112 842 1373319 6049 0
70 2 S112 820 1374139 6869 0
0 0 0 846 1374985 -11367 0
0 0 0 815 1375800 -10552 0
0 0 0 776 1376576 -9776 0
0 0 0 765 1377341 -9011 0
0 0 0 775 1378116 -8236 0
0 0 0 801 1378917 -7435 0
0 0 0 770 1379687 -6665 0
0 0 0 785 1380472 -5880 0
0 0 0 762 1381234 -5118 0
0 0 0 753 1381987 -4365 0
0 0 0 780 1382767 -3585 0
0 0 0 773 1383540 -2812 0
0 0 0 758 1384298 -2054 0
71 1 S116 735 1385033 -1319 0
71 1 S116 736 1385769 -583 0
71 2 S116 741 1386510 158 0
71 2 S116 720 1387230 878 0
71 2 S116 746 1387976 1624 0
71 2 S116 761 1388737 2385 0
71 2 S116 746 1389483 3131 0
71 2 S116 738 1390221 3869 0
71 2 S116 753 1390974 4622 0
71 2 S116 798 1391772 5420 0
71 2 S116 836 1392608 6256 0
0 0 0 839 1393447 -10014 0
0 0 0 823 1394270 -9191 0
0 0 0 819 1395089 -8372 0
0 0 0 807 1395896 -7565 0
0 0 0 771 1396667 -6794 0
0 0 0 748 1397415 -6046 0
0 0 0 757 1398172 -5289 0
0 0 0 778 1398950 -4511 0
0 0 0 816 1399766 -3695 0
0 0 0 795 1400561 -2900 0
0 0 0 843 1401404 -2057 0
72 1 S102 844 1402248 -1213 0
72 1 S102 877 1403125 -336 0
72 2 S102 861 1403986 525 0
72 2 S102 855 1404841 1380 0
72 2 S102 822 1405663 2202 0
72 2 S102 798 1406461 3000 0
72 2 S102 755 1407216 3755 0
72 2 S102 777 1407993 4532 0
72 2 S102 781 1408774 5313 0
72 2 S102 798 1409572 6111 0
72 2 S102 809 1410381 6920 0
0 0 0 795 1411176 -5995 0
0 0 0 844 1412020 -5151 0
0 0 0 843 1412863 -4308 0
0 0 0 833 1413696 -3475 0
0 0 0 790 1414486 -2685 0
73 1 S116 800 1415286 -1885 0
73 1 S116 784 1416070 -1101 0
73 1 S116 772 1416842 -329 0
73 2 S116 746 1417588 417 0
73 2 S116 754 1418342 1171 0
73 2 S116 764 1419106 1935 0
73 2 S116 784 1419890 2719 0
73 2 S116 814 1420704 3533 0
73 2 S116 799 1421503 4332 0
73 2 S116 844 1422347 5176 0
73 2 S116 886 1423233 6062 0
73 2 S116 902 1424135 6964 0
0 0 0 852 1424987 -9823 0
0 0 0 832 1425819 -8991 0
0 0 0 760 1426579 -8231 0
0 0 0 751 1427330 -7480 0
0 0 0 739 1428069 -6741 0
0 0 0 694 1428763 -6047 0
0 0 0 728 1429491 -5319 0
0 0 0 724 1430215 -4595 0
0 0 0 721 1430936 -3874 0
0 0 0 713 1431649 -3161 0
0 0 0 701 1432350 -2460 0
74 1 S106 737 1433087 -1723 0
74 1 S106 921 1434008 -802 0
74 2 S106 976 1434984 174 0
74 2 S106 967 1435951 1141 0
74 2 S106 842 1436793 1983 0
74 2 S106 796 1437589 2779 0
74 2 S106 767 1438356 3546 0
74 2 S106 753 1439109 4299 0
74 2 S106 738 1439847 5037 0
74 2 S106 729 1440576 5766 0
74 2 S106 722 1441298 6488 0
0 0 0 710 1442008 -7623 0
0 0 0 688 1442696 -6935 0
0 0 0 687 1443383 -6248 0
0 0 0 654 1444037 -5594 0
0 0 0 688 1444725 -4906 0
0 0 0 701 1445426 -4205 0
0 0 0 764 1446190 -3441 0
0 0 0 850 1447040 -2591 0
75 1 S112 937 1447977 -1654 0
75 1 S112 959 1448936 -695 0
75 2 S112 864 1449800 169 0
75 2 S112 847 1450647 1016 0
75 2 S112 832 1451479 1848 0
75 2 S112 805 1452284 2653 0
75 2 S112 825 1453109 3478 0
75 2 S112 818 1453927 4296 0
75 2 S112 802 1454729 5098 0
75 2 S112 837 1455566 5935 0
75 2 S112 845 1456411 6780 0
0 0 0 803 1457214 -7371 0
0 0 0 745 1457959 -6626 0
0 0 0 771 1458730 -5855 0
0 0 0 768 1459498 -5087 0
0 0 0 784 1460282 -4303 0
0 0 0 820 1461102 -3483 0
0 0 0 796 1461898 -2687 0
76 1 S116 803 1462701 -1884 0
76 1 S116 850 1463551 -1034 0
76 1 S116 856 1464407 -178 0
76 2 S116 862 1465269 684 0
76 2 S116 804 1466073 1488 0
76 2 S116 811 1466884 2299 0
76 2 S116 800 1467684 3099 0
76 2 S116 801 1468485 3900 0
76 2 S116 789 1469274 4689 0
76 2 S116 811 1470085 5500 0
76 2 S116 802 1470887 6302 0
0 0 0 793 1471680 -8273 0
0 0 0 755 1472435 -7518 0
0 0 0 768 1473203 -6750 0
0 0 0 799 1474002 -5951 0
0 0 0 817 1474819 -5134 0
0 0 0 759 1475578 -4375 0
0 0 0 774 1476352 -3601 0
0 0 0 759 1477111 -2842 0
0 0 0 751 1477862 -2091 0
77 1 S106 755 1478617 -1336 0
77 1 S106 753 1479370 -583 0
77 2 S106 751 1480121 168 0
77 2 S106 729 1480850 897 0
77 2 S106 706 1481556 1603 0
77 2 S106 702 1482258 2305 0
77 2 S106 693 1482951 2998 0
77 2 S106 704 1483655 3702 0
77 2 S106 747 1484402 4449 0
77 2 S106 764 1485166 5213 0
77 2 S106 812 1485978 6025 0
77 2 S106 831 1486809 6856 0
0 0 0 749 1487558 -8874 0
0 0 0 779 1488337 -8095 0
0 0 0 790 1489127 -7305 0
0 0 0 781 1489908 -6524 0
0 0 0 778 1490686 -5746 0
0 0 0 758 1491444 -4988 0
0 0 0 761 1492205 -4227 0
0 0 0 771 1492976 -3456 0
0 0 0 773 1493749 -2683 0
78 1 S112 769 1494518 -1914 0
78 1 S112 752 1495270 -1162 0
78 1 S112 782 1496052 -380 0
78 2 S112 785 1496837 405 0
78 2 S112 786 1497623 1191 0
78 2 S112 799 1498422 1990 0
78 2 S112 771 1499193 2761 0
78 2 S112 766 1499959 3527 0
78 2 S112 781 1500740 4308 0
78 2 S112 791 1501531 5099 0
78 2 S112 785 1502316 5884 0
78 2 S112 749 1503065 6633 0
0 0 0 772 1503837 -12688 0
0 0 0 778 1504615 -11910 0
0 0 0 788 1505403 -11122 0
0 0 0 756 1506159 -10366 0
0 0 0 800 1506959 -9566 0
0 0 0 806 1507765 -8760 0
0 0 0 802 1508567 -7958 0
0 0 0 760 1509327 -7198 0
0 0 0 761 1510088 -6437 0
0 0 0 761 1510849 -5676 0
0 0 0 747 1511596 -4929 0
0 0 0 745 1512341 -4184 0
0 0 0 737 1513078 -3447 0
0 0 0 798 1513876 -2649 0
79 1 S102 824 1514700 -1825 0
79 1 S102 824 1515524 -1001 0
79 1 S102 823 1516347 -178 0
79 2 S102 814 1517161 636 0
79 2 S102 811 1517972 1447 0
79 2 S102 769 1518741 2216 0
79 2 S102 749 1519490 2965 0
79 2 S102 746 1520236 3711 0
79 2 S102 756 1520992 4467 0
79 2 S102 819 1521811 5286 0
79 2 S102 861 1522672 6147 0
79 2 S102 822 1523494 6969 0
0 0 0 807 1524301 -9731 0
0 0 0 792 1525093 -8939 0
0 0 0 771 1525864 -8168 0
0 0 0 741 1526605 -7427 0
0 0 0 740 1527345 -6687 0
0 0 0 741 1528086 -5946 0
0 0 0 746 1528832 -5200 0
0 0 0 752 1529584 -4448 0
0 0 0 752 1530336 -3696 0
0 0 0 792 1531128 -2904 0
0 0 0 822 1531950 -2082 0
80 1 S116 855 1532805 -1227 0
80 1 S116 833 1533638 -394 0
80 2 S116 808 1534446 414 0
80 2 S116 808 1535254 1222 0
80 2 S116 815 1536069 2037 0
80 2 S116 823 1536892 2860 0
80 2 S116 828 1537720 3688 0
80 2 S116 875 1538595 4563 0
80 2 S116 903 1539498 5466 0
80 2 S116 855 1540353 6321 0
