T_0119
BeatCount Mean SD BeatCountNoOutliers MeanNoOutliers SDNoOutliers
1413 1139,2186836518 137,446459900061 1393 1144,98061737258 129,765775705269

Trial TrialStatus Trialtype IBI AbsPosition RelPosition Outlier
0 0 0 890 1585 -14809 0
0 0 0 896 2481 -13913 0
0 0 0 832 3313 -13081 0
0 0 0 797 4110 -12284 0
0 0 0 766 4876 -11518 1
0 0 0 1434 6310 -10084 0
0 0 0 1326 7636 -8758 0
0 0 0 1227 8863 -7531 0
0 0 0 1225 10088 -6306 0
0 0 0 1005 11093 -5301 0
0 0 0 802 11895 -4499 0
0 0 0 776 12671 -3723 1
0 0 0 1303 13974 -2420 0
1 1 S112 1160 15134 -1260 0
1 1 S112 988 16122 -272 0
1 2 S112 1361 17483 1089 0
1 2 S112 1325 18808 2414 0
1 2 S112 1158 19966 3572 0
1 2 S112 1323 21289 4895 0
1 2 S112 1316 22605 6211 0
0 0 0 1190 23795 -12841 0
0 0 0 1305 25100 -11536 0
0 0 0 1182 26282 -10354 0
0 0 0 1324 27606 -9030 0
0 0 0 1215 28821 -7815 0
0 0 0 966 29787 -6849 0
0 0 0 1288 31075 -5561 0
0 0 0 1361 32436 -4200 0
0 0 0 1231 33667 -2969 0
2 1 S102 1276 34943 -1693 0
2 1 S102 1191 36134 -502 0
2 2 S102 1123 37257 621 0
2 2 S102 1416 38673 2037 0
2 2 S102 1264 39937 3301 0
2 2 S102 1219 41156 4520 0
2 2 S102 1307 42463 5827 0
2 2 S102 1154 43617 6981 0
0 0 0 1275 44892 -9400 0
0 0 0 1179 46071 -8221 0
0 0 0 1133 47204 -7088 0
0 0 0 1164 48368 -5924 0
0 0 0 984 49352 -4940 0
0 0 0 989 50341 -3951 0
0 0 0 1262 51603 -2689 0
3 1 S116 998 52601 -1691 0
3 1 S116 1123 53724 -568 0
3 2 S116 1149 54873 581 0
3 2 S116 1153 56026 1734 0
3 2 S116 1306 57332 3040 0
3 2 S116 1220 58552 4260 0
3 2 S116 1111 59663 5371 0
3 2 S116 1097 60760 6468 0
0 0 0 912 61672 -12066 0
0 0 0 1184 62856 -10882 0
0 0 0 1219 64075 -9663 0
0 0 0 1167 65242 -8496 0
0 0 0 1163 66405 -7333 0
0 0 0 975 67380 -6358 0
0 0 0 1041 68421 -5317 0
0 0 0 1151 69572 -4166 0
0 0 0 1008 70580 -3158 0
0 0 0 1108 71688 -2050 0
4 1 S106 1170 72858 -880 0
4 2 S106 1020 73878 140 0
4 2 S106 1230 75108 1370 0
4 2 S106 1207 76315 2577 0
4 2 S106 1205 77520 3782 0
4 2 S106 1138 78658 4920 0
4 2 S106 1051 79709 5971 0
0 0 0 1262 80971 -7506 0
0 0 0 1113 82084 -6393 0
0 0 0 1100 83184 -5293 0
0 0 0 1135 84319 -4158 0
0 0 0 969 85288 -3189 0
0 0 0 1145 86433 -2044 0
5 1 S116 1261 87694 -783 0
5 2 S116 1001 88695 218 0
5 2 S116 1163 89858 1381 0
5 2 S116 1281 91139 2662 0
5 2 S116 1175 92314 3837 0
5 2 S116 1242 93556 5079 0
5 2 S116 1136 94692 6215 0
0 0 0 1164 95856 -10741 0
0 0 0 1244 97100 -9497 0
0 0 0 1061 98161 -8436 0
0 0 0 1287 99448 -7149 0
0 0 0 1166 100614 -5983 0
0 0 0 919 101533 -5064 0
0 0 0 1090 102623 -3974 0
0 0 0 1161 103784 -2813 0
6 1 S106 1054 104838 -1759 0
6 1 S106 1253 106091 -506 0
6 2 S106 1214 107305 708 0
6 2 S106 1306 108611 2014 0
6 2 S106 958 109569 2972 0
6 2 S106 928 110497 3900 0
6 2 S106 1255 111752 5155 0
6 2 S106 1194 112946 6349 0
0 0 0 1091 114037 -9835 0
0 0 0 1248 115285 -8587 0
0 0 0 1055 116340 -7532 0
0 0 0 986 117326 -6546 0
0 0 0 1091 118417 -5455 0
0 0 0 1029 119446 -4426 0
0 0 0 1135 120581 -3291 0
0 0 0 1117 121698 -2174 0
7 1 S102 943 122641 -1231 0
7 1 S102 1066 123707 -165 0
7 2 S102 1205 124912 1040 0
7 2 S102 1134 126046 2174 0
7 2 S102 1271 127317 3445 0
7 2 S102 1207 128524 4652 0
7 2 S102 1078 129602 5730 0
7 2 S102 1204 130806 6934 0
0 0 0 1175 131981 -7491 0
0 0 0 1133 133114 -6358 0
0 0 0 1099 134213 -5259 0
0 0 0 936 135149 -4323 0
0 0 0 1098 136247 -3225 0
0 0 0 1150 137397 -2075 0
8 1 S112 1015 138412 -1060 0
8 2 S112 1168 139580 108 0
8 2 S112 1215 140795 1323 0
8 2 S112 1159 141954 2482 0
8 2 S112 1252 143206 3734 0
8 2 S112 1071 144277 4805 0
8 2 S112 1176 145453 5981 0
0 0 0 1248 146701 -9366 0
0 0 0 1066 147767 -8300 0
0 0 0 1227 148994 -7073 0
0 0 0 1179 150173 -5894 0
0 0 0 1262 151435 -4632 0
0 0 0 1225 152660 -3407 0
0 0 0 971 153631 -2436 0
9 1 S116 1189 154820 -1247 0
9 1 S116 1152 155972 -95 0
9 2 S116 958 156930 863 0
9 2 S116 1275 158205 2138 0
9 2 S116 1218 159423 3356 0
9 2 S116 1059 160482 4415 0
9 2 S116 1204 161686 5619 0
9 2 S116 1076 162762 6695 0
0 0 0 1107 163869 -11246 0
0 0 0 1182 165051 -10064 0
0 0 0 1014 166065 -9050 0
0 0 0 1082 167147 -7968 0
0 0 0 989 168136 -6979 0
0 0 0 945 169081 -6034 0
0 0 0 1258 170339 -4776 0
0 0 0 1173 171512 -3603 0
0 0 0 1079 172591 -2524 0
10 1 S102 1173 173764 -1351 0
10 1 S102 1059 174823 -292 0
10 2 S102 1035 175858 743 0
10 2 S102 1217 177075 1960 0
10 2 S102 1142 178217 3102 0
10 2 S102 1110 179327 4212 0
10 2 S102 1158 180485 5370 0
10 2 S102 1022 181507 6392 0
0 0 0 1204 182711 -12315 0
0 0 0 1220 183931 -11095 0
0 0 0 1135 185066 -9960 0
0 0 0 1245 186311 -8715 0
0 0 0 950 187261 -7765 0
0 0 0 1084 188345 -6681 0
0 0 0 1158 189503 -5523 0
0 0 0 923 190426 -4600 0
0 0 0 1142 191568 -3458 0
0 0 0 1138 192706 -2320 0
11 1 S112 1007 193713 -1313 0
11 1 S112 1198 194911 -115 0
11 2 S112 1118 196029 1003 0
11 2 S112 1235 197264 2238 0
11 2 S112 1265 198529 3503 0
11 2 S112 1022 199551 4525 0
11 2 S112 1174 200725 5699 0
11 2 S112 1239 201964 6938 0
0 0 0 1118 203082 -7445 0
0 0 0 1273 204355 -6172 0
0 0 0 1124 205479 -5048 0
0 0 0 1065 206544 -3983 0
0 0 0 1191 207735 -2792 0
12 1 S116 1000 208735 -1792 0
12 1 S116 1111 209846 -681 0
12 2 S116 1323 211169 642 0
12 2 S116 1249 212418 1891 0
12 2 S116 1296 213714 3187 0
12 2 S116 1149 214863 4336 0
12 2 S116 1199 216062 5535 0
12 2 S116 1257 217319 6792 0
0 0 0 1204 218523 -11450 0
0 0 0 1292 219815 -10158 0
0 0 0 1054 220869 -9104 0
0 0 0 1106 221975 -7998 0
0 0 0 1009 222984 -6989 0
0 0 0 910 223894 -6079 0
0 0 0 1236 225130 -4843 0
0 0 0 1119 226249 -3724 0
0 0 0 1149 227398 -2575 0
13 1 S112 1220 228618 -1355 0
13 1 S112 1097 229715 -258 0
13 2 S112 1153 230868 895 0
13 2 S112 1252 232120 2147 0
13 2 S112 1102 233222 3249 0
13 2 S112 1225 234447 4474 0
13 2 S112 1201 235648 5675 0
13 2 S112 1038 236686 6713 0
0 0 0 1169 237855 -11813 0
0 0 0 1187 239042 -10626 0
0 0 0 1147 240189 -9479 0
0 0 0 1196 241385 -8283 0
0 0 0 1015 242400 -7268 0
0 0 0 931 243331 -6337 0
0 0 0 1142 244473 -5195 0
0 0 0 1183 245656 -4012 0
0 0 0 1110 246766 -2902 0
14 1 S106 1238 248004 -1664 0
14 1 S106 1098 249102 -566 0
14 2 S106 1124 250226 558 0
14 2 S106 1182 251408 1740 0
14 2 S106 999 252407 2739 0
14 2 S106 1164 253571 3903 0
14 2 S106 1219 254790 5122 0
14 2 S106 991 255781 6113 0
0 0 0 1142 256923 -10484 0
0 0 0 1328 258251 -9156 0
0 0 0 989 259240 -8167 0
0 0 0 1077 260317 -7090 0
0 0 0 1095 261412 -5995 0
0 0 0 909 262321 -5086 0
0 0 0 964 263285 -4122 0
0 0 0 861 264146 -3261 0
0 0 0 962 265108 -2299 0
15 1 S116 856 265964 -1443 0
15 1 S116 1079 267043 -364 0
15 2 S116 1188 268231 824 0
15 2 S116 1105 269336 1929 0
15 2 S116 1183 270519 3112 0
15 2 S116 1070 271589 4182 0
15 2 S116 1034 272623 5216 0
15 2 S116 1157 273780 6373 0
0 0 0 1103 274883 -10064 0
0 0 0 983 275866 -9081 0
0 0 0 1064 276930 -8017 0
0 0 0 1073 278003 -6944 0
0 0 0 976 278979 -5968 0
0 0 0 1119 280098 -4849 0
0 0 0 1009 281107 -3840 0
0 0 0 1157 282264 -2683 0
16 1 S116 1240 283504 -1443 0
16 1 S116 996 284500 -447 0
16 2 S116 1233 285733 786 0
16 2 S116 1320 287053 2106 0
16 2 S116 1215 288268 3321 0
16 2 S116 1332 289600 4653 0
16 2 S116 1128 290728 5781 0
16 2 S116 1216 291944 6997 0
0 0 0 1282 293226 -8963 0
0 0 0 990 294216 -7973 0
0 0 0 1304 295520 -6669 0
0 0 0 1105 296625 -5564 0
0 0 0 1030 297655 -4534 0
0 0 0 1295 298950 -3239 0
0 0 0 1100 300050 -2139 0
17 1 S106 1212 301262 -927 0
17 2 S106 1291 302553 364 0
17 2 S106 1180 303733 1544 0
17 2 S106 1287 305020 2831 0
17 2 S106 1102 306122 3933 0
17 2 S106 1216 307338 5149 0
17 2 S106 1275 308613 6424 0
0 0 0 1082 309695 -11393 0
0 0 0 1331 311026 -10062 0
0 0 0 1166 312192 -8896 0
0 0 0 1021 313213 -7875 0
0 0 0 1085 314298 -6790 0
0 0 0 901 315199 -5889 0
0 0 0 850 316049 -5039 0
0 0 0 789 316838 -4250 0
0 0 0 1303 318141 -2947 0
18 1 S102 1054 319195 -1893 0
18 1 S102 1249 320444 -644 0
18 2 S102 1235 321679 591 0
18 2 S102 1098 322777 1689 0
18 2 S102 1216 323993 2905 0
18 2 S102 1217 325210 4122 0
18 2 S102 1049 326259 5171 0
18 2 S102 1175 327434 6346 0
0 0 0 1194 328628 -8093 0
0 0 0 973 329601 -7120 0
0 0 0 1113 330714 -6007 0
0 0 0 1280 331994 -4727 0
0 0 0 919 332913 -3808 0
0 0 0 948 333861 -2860 0
19 1 S106 997 334858 -1863 0
19 1 S106 934 335792 -929 0
19 2 S106 1032 336824 103 0
19 2 S106 1136 337960 1239 0
19 2 S106 1157 339117 2396 0
19 2 S106 1224 340341 3620 0
19 2 S106 1030 341371 4650 0
19 2 S106 1067 342438 5717 0
19 2 S106 1141 343579 6858 0
0 0 0 1068 344647 -12317 0
0 0 0 1116 345763 -11201 0
0 0 0 1310 347073 -9891 0
0 0 0 1036 348109 -8855 0
0 0 0 1190 349299 -7665 0
0 0 0 1134 350433 -6531 0
0 0 0 994 351427 -5537 0
0 0 0 1233 352660 -4304 0
0 0 0 1183 353843 -3121 0
20 1 S112 1128 354971 -1993 0
20 1 S112 1257 356228 -736 0
20 2 S112 1118 357346 382 0
20 2 S112 1234 358580 1616 0
20 2 S112 1258 359838 2874 0
20 2 S112 1058 360896 3932 0
20 2 S112 1282 362178 5214 0
20 2 S112 1173 363351 6387 0
0 0 0 1024 364375 -10079 0
0 0 0 1217 365592 -8862 0
0 0 0 1030 366622 -7832 0
0 0 0 1208 367830 -6624 0
0 0 0 1153 368983 -5471 0
0 0 0 961 369944 -4510 0
0 0 0 1185 371129 -3325 0
0 0 0 1192 372321 -2133 0
21 1 S106 1046 373367 -1087 0
21 2 S106 1234 374601 147 0
21 2 S106 1234 375835 1381 0
21 2 S106 1083 376918 2464 0
21 2 S106 1204 378122 3668 0
21 2 S106 1231 379353 4899 0
21 2 S106 1080 380433 5979 0
0 0 0 1266 381699 -13362 0
0 0 0 1202 382901 -12160 0
0 0 0 1182 384083 -10978 0
0 0 0 1260 385343 -9718 0
0 0 0 1136 386479 -8582 0
0 0 0 1181 387660 -7401 0
0 0 0 1071 388731 -6330 0
0 0 0 1123 389854 -5207 0
0 0 0 1171 391025 -4036 0
0 0 0 950 391975 -3086 0
22 1 S116 1101 393076 -1985 0
22 1 S116 1206 394282 -779 0
22 2 S116 1148 395430 369 0
22 2 S116 1288 396718 1657 0
22 2 S116 1209 397927 2866 0
22 2 S116 1030 398957 3896 0
22 2 S116 1074 400031 4970 0
22 2 S116 1017 401048 5987 0
0 0 0 1183 402231 -8596 0
0 0 0 1069 403300 -7527 0
0 0 0 1082 404382 -6445 0
0 0 0 1092 405474 -5353 0
0 0 0 851 406325 -4502 0
0 0 0 763 407088 -3739 1
0 0 0 782 407870 -2957 1
23 1 S112 1490 409360 -1467 0
23 1 S112 1393 410753 -74 0
23 2 S112 1211 411964 1137 0
23 2 S112 1282 413246 2419 0
23 2 S112 1211 414457 3630 0
23 2 S112 1106 415563 4736 0
23 2 S112 1177 416740 5913 0
0 0 0 1178 417918 -10117 0
0 0 0 1105 419023 -9012 0
0 0 0 1205 420228 -7807 0
0 0 0 1175 421403 -6632 0
0 0 0 1091 422494 -5541 0
0 0 0 1185 423679 -4356 0
0 0 0 1093 424772 -3263 0
0 0 0 1243 426015 -2020 0
24 1 S106 1294 427309 -726 0
24 2 S106 1166 428475 440 0
24 2 S106 1301 429776 1741 0
24 2 S106 1143 430919 2884 0
24 2 S106 969 431888 3853 0
24 2 S106 1337 433225 5190 0
24 2 S106 1192 434417 6382 0
0 0 0 1133 435550 -7704 0
0 0 0 1334 436884 -6370 0
0 0 0 1059 437943 -5311 0
0 0 0 1122 439065 -4189 0
0 0 0 1119 440184 -3070 0
0 0 0 1027 441211 -2043 0
25 1 S102 1274 442485 -769 0
25 2 S102 1102 443587 333 0
25 2 S102 1226 444813 1559 0
25 2 S102 1221 446034 2780 0
25 2 S102 1022 447056 3802 0
25 2 S102 1100 448156 4902 0
25 2 S102 1112 449268 6014 0
0 0 0 1078 450346 -5939 0
0 0 0 1205 451551 -4734 0
0 0 0 1015 452566 -3719 0
0 0 0 982 453548 -2737 0
26 1 S116 1117 454665 -1620 0
26 1 S116 1099 455764 -521 0
26 2 S116 1234 456998 713 0
26 2 S116 1265 458263 1978 0
26 2 S116 1133 459396 3111 0
26 2 S116 1178 460574 4289 0
26 2 S116 1070 461644 5359 0
26 2 S116 1124 462768 6483 0
0 0 0 1174 463942 -7346 0
0 0 0 1036 464978 -6310 0
0 0 0 1242 466220 -5068 0
0 0 0 1124 467344 -3944 0
0 0 0 989 468333 -2955 0
27 1 S106 1193 469526 -1762 0
27 1 S106 1106 470632 -656 0
27 2 S106 1107 471739 451 0
27 2 S106 1203 472942 1654 0
27 2 S106 1079 474021 2733 0
27 2 S106 1176 475197 3909 0
27 2 S106 1065 476262 4974 0
27 2 S106 1155 477417 6129 0
0 0 0 1274 478691 -6573 0
0 0 0 1007 479698 -5566 0
0 0 0 1145 480843 -4421 0
0 0 0 1016 481859 -3405 0
0 0 0 900 482759 -2505 0
28 1 S102 1093 483852 -1412 0
28 1 S102 1157 485009 -255 0
28 2 S102 1199 486208 944 0
28 2 S102 1244 487452 2188 0
28 2 S102 1034 488486 3222 0
28 2 S102 1115 489601 4337 0
28 2 S102 1108 490709 5445 0
28 2 S102 1001 491710 6446 0
0 0 0 1055 492765 -10901 0
0 0 0 984 493749 -9917 0
0 0 0 1063 494812 -8854 0
0 0 0 1026 495838 -7828 0
0 0 0 894 496732 -6934 0
0 0 0 963 497695 -5971 0
0 0 0 1195 498890 -4776 0
0 0 0 947 499837 -3829 0
0 0 0 1180 501017 -2649 0
29 1 S112 1227 502244 -1422 0
29 1 S112 1074 503318 -348 0
29 2 S112 1173 504491 825 0
29 2 S112 1137 505628 1962 0
29 2 S112 1195 506823 3157 0
29 2 S112 1278 508101 4435 0
29 2 S112 1098 509199 5533 0
29 2 S112 1261 510460 6794 0
0 0 0 1208 511668 -7184 0
0 0 0 1102 512770 -6082 0
0 0 0 1290 514060 -4792 0
0 0 0 1051 515111 -3741 0
0 0 0 1057 516168 -2684 0
30 1 S112 1241 517409 -1443 0
30 1 S112 1038 518447 -405 0
30 2 S112 1223 519670 818 0
30 2 S112 1311 520981 2129 0
30 2 S112 1160 522141 3289 0
30 2 S112 1346 523487 4635 0
30 2 S112 1191 524678 5826 0
30 2 S112 1199 525877 7025 0
0 0 0 1256 527133 -7750 0
0 0 0 1015 528148 -6735 0
0 0 0 1085 529233 -5650 0
0 0 0 1119 530352 -4531 0
0 0 0 1029 531381 -3502 0
0 0 0 1233 532614 -2269 0
31 1 S106 1110 533724 -1159 0
31 2 S106 1214 534938 55 0
31 2 S106 1210 536148 1265 0
31 2 S106 1093 537241 2358 0
31 2 S106 1156 538397 3514 0
31 2 S106 1061 539458 4575 0
31 2 S106 956 540414 5531 0
31 2 S106 1204 541618 6735 0
0 0 0 1134 542752 -9439 0
0 0 0 1104 543856 -8335 0
0 0 0 1315 545171 -7020 0
0 0 0 966 546137 -6054 0
0 0 0 1067 547204 -4987 0
0 0 0 1140 548344 -3847 0
0 0 0 1064 549408 -2783 0
32 1 S102 1272 550680 -1511 0
32 1 S102 1071 551751 -440 0
32 2 S102 1039 552790 599 0
32 2 S102 1234 554024 1833 0
32 2 S102 1058 555082 2891 0
32 2 S102 1123 556205 4014 0
32 2 S102 1165 557370 5179 0
32 2 S102 1011 558381 6190 0
0 0 0 1231 559612 -10434 0
0 0 0 1194 560806 -9240 0
0 0 0 1075 561881 -8165 0
0 0 0 1149 563030 -7016 0
0 0 0 1015 564045 -6001 0
0 0 0 1137 565182 -4864 0
0 0 0 1100 566282 -3764 0
0 0 0 946 567228 -2818 0
33 1 S112 1149 568377 -1669 0
33 1 S112 1232 569609 -437 0
33 2 S112 1117 570726 680 0
33 2 S112 1235 571961 1915 0
33 2 S112 1097 573058 3012 0
33 2 S112 1189 574247 4201 0
33 2 S112 1214 575461 5415 0
33 2 S112 1015 576476 6430 0
0 0 0 1202 577678 -10952 0
0 0 0 1203 578881 -9749 0
0 0 0 1005 579886 -8744 0
0 0 0 1037 580923 -7707 0
0 0 0 1091 582014 -6616 0
0 0 0 1038 583052 -5578 0
0 0 0 1248 584300 -4330 0
0 0 0 1109 585409 -3221 0
0 0 0 1117 586526 -2104 0
34 1 S106 1204 587730 -900 0
34 2 S106 1027 588757 127 0
34 2 S106 1174 589931 1301 0
34 2 S106 1216 591147 2517 0
34 2 S106 989 592136 3506 0
34 2 S106 1186 593322 4692 0
34 2 S106 1243 594565 5935 0
0 0 0 1200 595765 -10505 0
0 0 0 1311 597076 -9194 0
0 0 0 1027 598103 -8167 0
0 0 0 1247 599350 -6920 0
0 0 0 1027 600377 -5893 0
0 0 0 893 601270 -5000 0
0 0 0 1097 602367 -3903 0
0 0 0 1201 603568 -2702 0
35 1 S102 1205 604773 -1497 0
35 1 S102 1201 605974 -296 0
35 2 S102 1015 606989 719 0
35 2 S102 1237 608226 1956 0
35 2 S102 1200 609426 3156 0
35 2 S102 1043 610469 4199 0
35 2 S102 1190 611659 5389 0
35 2 S102 1125 612784 6514 0
0 0 0 1087 613871 -7253 0
0 0 0 1230 615101 -6023 0
0 0 0 1054 616155 -4969 0
0 0 0 1064 617219 -3905 0
0 0 0 1061 618280 -2844 0
36 1 S106 993 619273 -1851 0
36 1 S106 1153 620426 -698 0
36 2 S106 1079 621505 381 0
36 2 S106 1094 622599 1475 0
36 2 S106 1256 623855 2731 0
36 2 S106 1076 624931 3807 0
36 2 S106 1179 626110 4986 0
36 2 S106 1194 627304 6180 0
0 0 0 1000 628304 -10078 0
0 0 0 1283 629587 -8795 0
0 0 0 1140 630727 -7655 0
0 0 0 1066 631793 -6589 0
0 0 0 1012 632805 -5577 0
0 0 0 906 633711 -4671 0
0 0 0 1138 634849 -3533 0
0 0 0 1144 635993 -2389 0
37 1 S116 948 636941 -1441 0
37 1 S116 1157 638098 -284 0
37 2 S116 1223 639321 939 0
37 2 S116 1159 640480 2098 0
37 2 S116 1251 641731 3349 0
37 2 S116 1052 642783 4401 0
37 2 S116 1221 644004 5622 0
37 2 S116 1217 645221 6839 0
0 0 0 1131 646352 -10216 0
0 0 0 1316 647668 -8900 0
0 0 0 1087 648755 -7813 0
0 0 0 1013 649768 -6800 0
0 0 0 1143 650911 -5657 0
0 0 0 1103 652014 -4554 0
0 0 0 1136 653150 -3418 0
0 0 0 1239 654389 -2179 0
38 1 S102 1039 655428 -1140 0
38 2 S102 1236 656664 96 0
38 2 S102 1192 657856 1288 0
38 2 S102 1086 658942 2374 0
38 2 S102 1236 660178 3610 0
38 2 S102 1122 661300 4732 0
38 2 S102 1155 662455 5887 0
0 0 0 1365 663820 -10554 0
0 0 0 1099 664919 -9455 0
0 0 0 1179 666098 -8276 0
0 0 0 1247 667345 -7029 0
0 0 0 999 668344 -6030 0
0 0 0 1144 669488 -4886 0
0 0 0 987 670475 -3899 0
0 0 0 1227 671702 -2672 0
39 1 S116 1261 672963 -1411 0
39 1 S116 1006 673969 -405 0
39 2 S116 1158 675127 753 0
39 2 S116 1110 676237 1863 0
39 2 S116 1066 677303 2929 0
39 2 S116 1228 678531 4157 0
39 2 S116 1096 679627 5253 0
39 2 S116 1046 680673 6299 0
0 0 0 1268 681941 -6342 0
0 0 0 1102 683043 -5240 0
0 0 0 1089 684132 -4151 0
0 0 0 1092 685224 -3059 0
0 0 0 942 686166 -2117 0
40 1 S112 1123 687289 -994 0
40 2 S112 1032 688321 38 0
40 2 S112 988 689309 1026 0
40 2 S112 1277 690586 2303 0
40 2 S112 1208 691794 3511 0
40 2 S112 1184 692978 4695 0
40 2 S112 1247 694225 5942 0
40 2 S112 1066 695291 7008 0
0 0 0 1167 696458 -188428 0
0 0 0 1235 697693 -187193 0
0 0 0 1045 698738 -186148 0
0 0 0 1307 700045 -184841 0
0 0 0 1268 701313 -183573 0
0 0 0 1077 702390 -182496 0
0 0 0 959 703349 -181537 0
0 0 0 846 704195 -180691 0
0 0 0 855 705050 -179836 0
0 0 0 861 705911 -178975 0
0 0 0 787 706698 -178188 0
0 0 0 727 707425 -177461 1
0 0 0 706 708131 -176755 1
0 0 0 708 708839 -176047 1
0 0 0 797 709636 -175250 0
0 0 0 1069 710705 -174181 0
0 0 0 887 711592 -173294 0
0 0 0 865 712457 -172429 0
0 0 0 892 713349 -171537 0
0 0 0 863 714212 -170674 0
0 0 0 773 714985 -169901 1
0 0 0 793 715778 -169108 0
0 0 0 861 716639 -168247 0
0 0 0 861 717500 -167386 0
0 0 0 877 718377 -166509 0
0 0 0 963 719340 -165546 0
0 0 0 1019 720359 -164527 0
0 0 0 855 721214 -163672 0
0 0 0 745 721959 -162927 1
0 0 0 716 722675 -162211 1
0 0 0 1393 724068 -160818 0
0 0 0 1283 725351 -159535 0
0 0 0 1229 726580 -158306 0
0 0 0 1052 727632 -157254 0
0 0 0 1331 728963 -155923 0
0 0 0 1308 730271 -154615 0
0 0 0 1060 731331 -153555 0
0 0 0 1365 732696 -152190 0
0 0 0 1403 734099 -150787 0
0 0 0 1243 735342 -149544 0
0 0 0 1291 736633 -148253 0
0 0 0 1276 737909 -146977 0
0 0 0 1315 739224 -145662 0
0 0 0 1380 740604 -144282 0
0 0 0 1192 741796 -143090 0
0 0 0 1411 743207 -141679 0
0 0 0 1401 744608 -140278 0
0 0 0 1098 745706 -139180 0
0 0 0 1399 747105 -137781 0
0 0 0 1388 748493 -136393 0
0 0 0 889 749382 -135504 0
0 0 0 981 750363 -134523 0
0 0 0 1481 751844 -133042 0
0 0 0 1259 753103 -131783 0
0 0 0 1432 754535 -130351 0
0 0 0 1322 755857 -129029 0
0 0 0 1299 757156 -127730 0
0 0 0 1326 758482 -126404 0
0 0 0 1184 759666 -125220 0
0 0 0 1284 760950 -123936 0
0 0 0 1196 762146 -122740 0
0 0 0 1097 763243 -121643 0
0 0 0 1344 764587 -120299 0
0 0 0 1150 765737 -119149 0
0 0 0 1240 766977 -117909 0
0 0 0 1201 768178 -116708 0
0 0 0 1026 769204 -115682 0
0 0 0 1375 770579 -114307 0
0 0 0 1127 771706 -113180 0
0 0 0 1283 772989 -111897 0
0 0 0 1241 774230 -110656 0
0 0 0 1221 775451 -109435 0
0 0 0 1318 776769 -108117 0
0 0 0 1062 777831 -107055 0
0 0 0 1246 779077 -105809 0
0 0 0 1213 780290 -104596 0
0 0 0 1053 781343 -103543 0
0 0 0 1334 782677 -102209 0
0 0 0 1190 783867 -101019 0
0 0 0 1153 785020 -99866 0
0 0 0 1206 786226 -98660 0
0 0 0 1023 787249 -97637 0
0 0 0 1201 788450 -96436 0
0 0 0 1102 789552 -95334 0
0 0 0 1151 790703 -94183 0
0 0 0 1302 792005 -92881 0
0 0 0 1305 793310 -91576 0
0 0 0 1253 794563 -90323 0
0 0 0 934 795497 -89389 0
0 0 0 1163 796660 -88226 0
0 0 0 1327 797987 -86899 0
0 0 0 1172 799159 -85727 0
0 0 0 1359 800518 -84368 0
0 0 0 1280 801798 -83088 0
0 0 0 1162 802960 -81926 0
0 0 0 1314 804274 -80612 0
0 0 0 1121 805395 -79491 0
0 0 0 1141 806536 -78350 0
0 0 0 1182 807718 -77168 0
0 0 0 996 808714 -76172 0
0 0 0 1230 809944 -74942 0
0 0 0 1115 811059 -73827 0
0 0 0 976 812035 -72851 0
0 0 0 1019 813054 -71832 0
0 0 0 1015 814069 -70817 0
0 0 0 1006 815075 -69811 0
0 0 0 1271 816346 -68540 0
0 0 0 1010 817356 -67530 0
0 0 0 1075 818431 -66455 0
0 0 0 1222 819653 -65233 0
0 0 0 1004 820657 -64229 0
0 0 0 1205 821862 -63024 0
0 0 0 1224 823086 -61800 0
0 0 0 990 824076 -60810 0
0 0 0 1062 825138 -59748 0
0 0 0 1183 826321 -58565 0
0 0 0 1078 827399 -57487 0
0 0 0 1186 828585 -56301 0
0 0 0 1174 829759 -55127 0
0 0 0 1316 831075 -53811 0
0 0 0 1341 832416 -52470 0
0 0 0 1133 833549 -51337 0
0 0 0 1177 834726 -50160 0
0 0 0 1215 835941 -48945 0
0 0 0 987 836928 -47958 0
0 0 0 1191 838119 -46767 0
0 0 0 1232 839351 -45535 0
0 0 0 1040 840391 -44495 0
0 0 0 1246 841637 -43249 0
0 0 0 1168 842805 -42081 0
0 0 0 1169 843974 -40912 0
0 0 0 1328 845302 -39584 0
0 0 0 1082 846384 -38502 0
0 0 0 1179 847563 -37323 0
0 0 0 1214 848777 -36109 0
0 0 0 1038 849815 -35071 0
0 0 0 1186 851001 -33885 0
0 0 0 1131 852132 -32754 0
0 0 0 1137 853269 -31617 0
0 0 0 1351 854620 -30266 0
0 0 0 1061 855681 -29205 0
0 0 0 1072 856753 -28133 0
0 0 0 1100 857853 -27033 0
0 0 0 882 858735 -26151 0
0 0 0 1085 859820 -25066 0
0 0 0 1344 861164 -23722 0
0 0 0 1226 862390 -22496 0
0 0 0 1297 863687 -21199 0
0 0 0 1124 864811 -20075 0
0 0 0 1194 866005 -18881 0
0 0 0 1236 867241 -17645 0
0 0 0 1054 868295 -16591 0
0 0 0 1176 869471 -15415 0
0 0 0 1173 870644 -14242 0
0 0 0 1071 871715 -13171 0
0 0 0 1278 872993 -11893 0
0 0 0 1141 874134 -10752 0
0 0 0 1248 875382 -9504 0
0 0 0 1229 876611 -8275 0
0 0 0 1025 877636 -7250 0
0 0 0 1258 878894 -5992 0
0 0 0 1182 880076 -4810 0
0 0 0 1189 881265 -3621 0
0 0 0 1075 882340 -2546 0
41 1 S102 839 883179 -1707 0
41 1 S102 910 884089 -797 0
41 2 S102 1313 885402 516 0
41 2 S102 1027 886429 1543 0
41 2 S102 1262 887691 2805 0
41 2 S102 1205 888896 4010 0
41 2 S102 1138 890034 5148 0
41 2 S102 1207 891241 6355 0
0 0 0 1012 892253 -8101 0
0 0 0 986 893239 -7115 0
0 0 0 1260 894499 -5855 0
0 0 0 1154 895653 -4701 0
0 0 0 1125 896778 -3576 0
0 0 0 1122 897900 -2454 0
42 1 S112 920 898820 -1534 0
42 1 S112 1080 899900 -454 0
42 2 S112 1269 901169 815 0
42 2 S112 1277 902446 2092 0
42 2 S112 1323 903769 3415 0
42 2 S112 1147 904916 4562 0
42 2 S112 1168 906084 5730 0
42 2 S112 1251 907335 6981 0
0 0 0 1116 908451 -8265 0
0 0 0 1315 909766 -6950 0
0 0 0 1076 910842 -5874 0
0 0 0 1086 911928 -4788 0
0 0 0 1380 913308 -3408 0
0 0 0 1192 914500 -2216 0
43 1 S116 1324 915824 -892 0
43 2 S116 1248 917072 356 0
43 2 S116 1075 918147 1431 0
43 2 S116 1372 919519 2803 0
43 2 S116 1250 920769 4053 0
43 2 S116 1269 922038 5322 0
43 2 S116 1350 923388 6672 0
0 0 0 1085 924473 -6584 0
0 0 0 1230 925703 -5354 0
0 0 0 1133 926836 -4221 0
0 0 0 1004 927840 -3217 0
44 1 S102 1284 929124 -1933 0
44 1 S102 1044 930168 -889 0
44 2 S102 1300 931468 411 0
44 2 S102 1309 932777 1720 0
44 2 S102 1173 933950 2893 0
44 2 S102 1289 935239 4182 0
44 2 S102 1029 936268 5211 0
44 2 S102 1147 937415 6358 0
0 0 0 1284 938699 -7660 0
0 0 0 1161 939860 -6499 0
0 0 0 1181 941041 -5318 0
0 0 0 927 941968 -4391 0
0 0 0 1119 943087 -3272 0
0 0 0 1246 944333 -2026 0
45 1 S116 1024 945357 -1002 0
45 2 S116 1140 946497 138 0
45 2 S116 1055 947552 1193 0
45 2 S116 1204 948756 2397 0
45 2 S116 1329 950085 3726 0
45 2 S116 1124 951209 4850 0
45 2 S116 1236 952445 6086 0
0 0 0 1234 953679 -11413 0
0 0 0 1013 954692 -10400 0
0 0 0 1208 955900 -9192 0
0 0 0 1154 957054 -8038 0
0 0 0 936 957990 -7102 0
0 0 0 1178 959168 -5924 0
0 0 0 1156 960324 -4768 0
0 0 0 1101 961425 -3667 0
0 0 0 1253 962678 -2414 0
46 1 S102 1046 963724 -1368 0
46 1 S102 1177 964901 -191 0
46 2 S102 1268 966169 1077 0
46 2 S102 1105 967274 2182 0
46 2 S102 1310 968584 3492 0
46 2 S102 1167 969751 4659 0
46 2 S102 1104 970855 5763 0
0 0 0 1353 972208 -8932 0
0 0 0 1199 973407 -7733 0
0 0 0 1256 974663 -6477 0
0 0 0 1210 975873 -5267 0
0 0 0 943 976816 -4324 0
0 0 0 1259 978075 -3065 0
47 1 S112 1257 979332 -1808 0
47 1 S112 1078 980410 -730 0
47 2 S112 1276 981686 546 0
47 2 S112 1227 982913 1773 0
47 2 S112 1307 984220 3080 0
47 2 S112 1348 985568 4428 0
47 2 S112 1150 986718 5578 0
47 2 S112 1318 988036 6896 0
0 0 0 1293 989329 -12401 0
0 0 0 1093 990422 -11308 0
0 0 0 1243 991665 -10065 0
0 0 0 1059 992724 -9006 0
0 0 0 1100 993824 -7906 0
0 0 0 1045 994869 -6861 0
0 0 0 865 995734 -5996 0
0 0 0 1025 996759 -4971 0
0 0 0 1132 997891 -3839 0
0 0 0 939 998830 -2900 0
48 1 S116 1256 1000086 -1644 0
48 1 S116 1180 1001266 -464 0
48 2 S116 1030 1002296 566 0
48 2 S116 1259 1003555 1825 0
48 2 S116 1206 1004761 3031 0
48 2 S116 1046 1005807 4077 0
48 2 S116 1319 1007126 5396 0
48 2 S116 1197 1008323 6593 0
0 0 0 1170 1009493 -7092 0
0 0 0 1324 1010817 -5768 0
0 0 0 1061 1011878 -4707 0
0 0 0 1179 1013057 -3528 0
0 0 0 1131 1014188 -2397 0
49 1 S112 1077 1015265 -1320 0
49 1 S112 1227 1016492 -93 0
49 2 S112 1072 1017564 979 0
49 2 S112 1235 1018799 2214 0
49 2 S112 1247 1020046 3461 0
49 2 S112 1014 1021060 4475 0
49 2 S112 1179 1022239 5654 0
49 2 S112 1282 1023521 6936 0
0 0 0 1026 1024547 -12114 0
0 0 0 1181 1025728 -10933 0
0 0 0 1127 1026855 -9806 0
0 0 0 1100 1027955 -8706 0
0 0 0 1118 1029073 -7588 0
0 0 0 883 1029956 -6705 0
0 0 0 978 1030934 -5727 0
0 0 0 1217 1032151 -4510 0
0 0 0 943 1033094 -3567 0
0 0 0 1160 1034254 -2407 0
50 1 S106 1287 1035541 -1120 0
50 1 S106 1024 1036565 -96 0
50 2 S106 1169 1037734 1073 0
50 2 S106 1250 1038984 2323 0
50 2 S106 993 1039977 3316 0
50 2 S106 1129 1041106 4445 0
50 2 S106 1286 1042392 5731 0
50 2 S106 1012 1043404 6743 0
0 0 0 1201 1044605 -5783 0
0 0 0 1216 1045821 -4567 0
0 0 0 931 1046752 -3636 0
0 0 0 1063 1047815 -2573 0
51 1 S112 1168 1048983 -1405 0
51 1 S112 1002 1049985 -403 0
51 2 S112 1332 1051317 929 0
51 2 S112 1246 1052563 2175 0
51 2 S112 1202 1053765 3377 0
51 2 S112 1289 1055054 4666 0
51 2 S112 1094 1056148 5760 0
51 2 S112 1269 1057417 7029 0
0 0 0 1298 1058715 -6759 0
0 0 0 1085 1059800 -5674 0
0 0 0 1175 1060975 -4499 0
0 0 0 982 1061957 -3517 0
0 0 0 907 1062864 -2610 0
52 1 S116 1286 1064150 -1324 0
52 1 S116 1239 1065389 -85 0
52 2 S116 1132 1066521 1047 0
52 2 S116 1300 1067821 2347 0
52 2 S116 1180 1069001 3527 0
52 2 S116 1089 1070090 4616 0
52 2 S116 1160 1071250 5776 0
52 2 S116 991 1072241 6767 0
0 0 0 1285 1073526 -7731 0
0 0 0 1056 1074582 -6675 0
0 0 0 1102 1075684 -5573 0
0 0 0 1131 1076815 -4442 0
0 0 0 957 1077772 -3485 0
0 0 0 1222 1078994 -2263 0
53 1 S106 1247 1080241 -1016 0
53 1 S106 977 1081218 -39 0
53 2 S106 1167 1082385 1128 0
53 2 S106 1239 1083624 2367 0
53 2 S106 1153 1084777 3520 0
53 2 S106 1259 1086036 4779 0
53 2 S106 1109 1087145 5888 0
0 0 0 1166 1088311 -7004 0
0 0 0 1213 1089524 -5791 0
0 0 0 1045 1090569 -4746 0
0 0 0 1133 1091702 -3613 0
0 0 0 1075 1092777 -2538 0
54 1 S102 1051 1093828 -1487 0
54 1 S102 1220 1095048 -267 0
54 2 S102 1054 1096102 787 0
54 2 S102 1138 1097240 1925 0
54 2 S102 1231 1098471 3156 0
54 2 S102 1060 1099531 4216 0
54 2 S102 1227 1100758 5443 0
54 2 S102 1214 1101972 6657 0
0 0 0 1176 1103148 -10138 0
0 0 0 1286 1104434 -8852 0
0 0 0 1033 1105467 -7819 0
0 0 0 909 1106376 -6910 0
0 0 0 941 1107317 -5969 0
0 0 0 993 1108310 -4976 0
0 0 0 998 1109308 -3978 0
0 0 0 1358 1110666 -2620 0
55 1 S106 1270 1111936 -1350 0
55 1 S106 1186 1113122 -164 0
55 2 S106 1276 1114398 1112 0
55 2 S106 1173 1115571 2285 0
55 2 S106 1276 1116847 3561 0
55 2 S106 1222 1118069 4783 0
55 2 S106 1132 1119201 5915 0
0 0 0 1349 1120550 -8105 0
0 0 0 1271 1121821 -6834 0
0 0 0 1147 1122968 -5687 0
0 0 0 1228 1124196 -4459 0
0 0 0 968 1125164 -3491 0
0 0 0 1019 1126183 -2472 0
56 1 S116 1288 1127471 -1184 0
56 1 S116 1075 1128546 -109 0
56 2 S116 1158 1129704 1049 0
56 2 S116 1372 1131076 2421 0
56 2 S116 1152 1132228 3573 0
56 2 S116 1271 1133499 4844 0
56 2 S116 1285 1134784 6129 0
0 0 0 1110 1135894 -7665 0
0 0 0 1303 1137197 -6362 0
0 0 0 1131 1138328 -5231 0
0 0 0 1122 1139450 -4109 0
0 0 0 978 1140428 -3131 0
0 0 0 879 1141307 -2252 0
57 1 S106 1198 1142505 -1054 0
57 2 S106 1255 1143760 201 0
57 2 S106 1229 1144989 1430 0
57 2 S106 1270 1146259 2700 0
57 2 S106 1047 1147306 3747 0
57 2 S106 1199 1148505 4946 0
57 2 S106 1228 1149733 6174 0
0 0 0 1056 1150789 -8884 0
0 0 0 1216 1152005 -7668 0
0 0 0 1126 1153131 -6542 0
0 0 0 1031 1154162 -5511 0
0 0 0 1131 1155293 -4380 0
0 0 0 975 1156268 -3405 0
0 0 0 1187 1157455 -2218 0
58 1 S102 1211 1158666 -1007 0
58 1 S102 972 1159638 -35 0
58 2 S102 1295 1160933 1260 0
58 2 S102 1282 1162215 2542 0
58 2 S102 1154 1163369 3696 0
58 2 S102 1250 1164619 4946 0
58 2 S102 1105 1165724 6051 0
0 0 0 1089 1166813 -8062 0
0 0 0 1237 1168050 -6825 0
0 0 0 979 1169029 -5846 0
0 0 0 1235 1170264 -4611 0
0 0 0 1054 1171318 -3557 0
0 0 0 848 1172166 -2709 0
59 1 S112 879 1173045 -1830 0
59 1 S112 1006 1174051 -824 0
59 2 S112 883 1174934 59 0
59 2 S112 1373 1176307 1432 0
59 2 S112 1325 1177632 2757 0
59 2 S112 1114 1178746 3871 0
59 2 S112 1188 1179934 5059 0
59 2 S112 1134 1181068 6193 0
0 0 0 1044 1182112 -9176 0
0 0 0 1192 1183304 -7984 0
0 0 0 1152 1184456 -6832 0
0 0 0 909 1185365 -5923 0
0 0 0 924 1186289 -4999 0
0 0 0 991 1187280 -4008 0
0 0 0 905 1188185 -3103 0
60 1 S102 1402 1189587 -1701 0
60 1 S102 1268 1190855 -433 0
60 2 S102 978 1191833 545 0
60 2 S102 1267 1193100 1812 0
60 2 S102 1287 1194387 3099 0
60 2 S102 1196 1195583 4295 0
60 2 S102 1264 1196847 5559 0
60 2 S102 1091 1197938 6650 0
0 0 0 1279 1199217 -9727 0
0 0 0 1233 1200450 -8494 0
0 0 0 1037 1201487 -7457 0
0 0 0 1362 1202849 -6095 0
0 0 0 1082 1203931 -5013 0
0 0 0 1183 1205114 -3830 0
0 0 0 1201 1206315 -2629 0
61 1 S106 1085 1207400 -1544 0
61 1 S106 1144 1208544 -400 0
61 2 S106 1051 1209595 651 0
61 2 S106 1227 1210822 1878 0
61 2 S106 1332 1212154 3210 0
61 2 S106 1128 1213282 4338 0
61 2 S106 1321 1214603 5659 0
61 2 S106 1304 1215907 6963 0
0 0 0 1239 1217146 -6851 0
0 0 0 1390 1218536 -5461 0
0 0 0 1105 1219641 -4356 0
0 0 0 1151 1220792 -3205 0
0 0 0 975 1221767 -2230 0
62 1 S112 939 1222706 -1291 0
62 2 S112 1409 1224115 118 0
62 2 S112 1061 1225176 1179 0
62 2 S112 1328 1226504 2507 0
62 2 S112 1308 1227812 3815 0
62 2 S112 1190 1229002 5005 0
62 2 S112 1318 1230320 6323 0
0 0 0 1157 1231477 -11403 0
0 0 0 1278 1232755 -10125 0
0 0 0 1260 1234015 -8865 0
0 0 0 1027 1235042 -7838 0
0 0 0 1191 1236233 -6647 0
0 0 0 1109 1237342 -5538 0
0 0 0 1256 1238598 -4282 0
0 0 0 1293 1239891 -2989 0
0 0 0 981 1240872 -2008 0
63 1 S102 1197 1242069 -811 0
63 2 S102 1257 1243326 446 0
63 2 S102 1150 1244476 1596 0
63 2 S102 1359 1245835 2955 0
63 2 S102 1347 1247182 4302 0
63 2 S102 1191 1248373 5493 0
63 2 S102 1259 1249632 6752 0
0 0 0 1112 1250744 -7189 0
0 0 0 1049 1251793 -6140 0
0 0 0 1153 1252946 -4987 0
0 0 0 1007 1253953 -3980 0
0 0 0 1354 1255307 -2626 0
64 1 S112 1248 1256555 -1378 0
64 1 S112 1124 1257679 -254 0
64 2 S112 1188 1258867 934 0
64 2 S112 1068 1259935 2002 0
64 2 S112 1248 1261183 3250 0
64 2 S112 1219 1262402 4469 0
64 2 S112 1033 1263435 5502 0
64 2 S112 1232 1264667 6734 0
0 0 0 1144 1265811 -7938 0
0 0 0 1098 1266909 -6840 0
0 0 0 1324 1268233 -5516 0
0 0 0 1035 1269268 -4481 0
0 0 0 977 1270245 -3504 0
0 0 0 1028 1271273 -2476 0
65 1 S106 1020 1272293 -1456 0
65 1 S106 1383 1273676 -73 0
65 2 S106 1176 1274852 1103 0
65 2 S106 1275 1276127 2378 0
65 2 S106 1255 1277382 3633 0
65 2 S106 1027 1278409 4660 0
65 2 S106 1183 1279592 5843 0
65 2 S106 1185 1280777 7028 0
0 0 0 1105 1281882 -7517 0
0 0 0 1298 1283180 -6219 0
0 0 0 1122 1284302 -5097 0
0 0 0 1155 1285457 -3942 0
0 0 0 1089 1286546 -2853 0
66 1 S116 909 1287455 -1944 0
66 1 S116 1369 1288824 -575 0
66 2 S116 1310 1290134 735 0
66 2 S116 1299 1291433 2034 0
66 2 S116 1362 1292795 3396 0
66 2 S116 1192 1293987 4588 0
66 2 S116 1092 1295079 5680 0
66 2 S116 1149 1296228 6829 0
0 0 0 1088 1297316 -9589 0
0 0 0 1282 1298598 -8307 0
0 0 0 950 1299548 -7357 0
0 0 0 1088 1300636 -6269 0
0 0 0 1192 1301828 -5077 0
0 0 0 1008 1302836 -4069 0
0 0 0 1400 1304236 -2669 0
67 1 S102 1248 1305484 -1421 0
67 1 S102 1301 1306785 -120 0
67 2 S102 1304 1308089 1184 0
67 2 S102 1237 1309326 2421 0
67 2 S102 1345 1310671 3766 0
67 2 S102 1084 1311755 4850 0
67 2 S102 1234 1312989 6084 0
0 0 0 1361 1314350 -6017 0
0 0 0 1130 1315480 -4887 0
0 0 0 1041 1316521 -3846 0
0 0 0 847 1317368 -2999 0
0 0 0 797 1318165 -2202 0
68 1 S106 812 1318977 -1390 0
68 1 S106 797 1319774 -593 0
68 2 S106 1474 1321248 881 0
68 2 S106 1217 1322465 2098 0
68 2 S106 1296 1323761 3394 0
68 2 S106 1239 1325000 4633 0
68 2 S106 1033 1326033 5666 0
68 2 S106 1115 1327148 6781 0
0 0 0 1061 1328209 -11289 0
0 0 0 961 1329170 -10328 0
0 0 0 1096 1330266 -9232 0
0 0 0 958 1331224 -8274 0
0 0 0 816 1332040 -7458 0
0 0 0 827 1332867 -6631 0
0 0 0 894 1333761 -5737 0
0 0 0 882 1334643 -4855 0
0 0 0 1097 1335740 -3758 0
0 0 0 1266 1337006 -2492 0
69 1 S102 977 1337983 -1515 0
69 1 S102 1172 1339155 -343 0
69 2 S102 1233 1340388 890 0
69 2 S102 1060 1341448 1950 0
69 2 S102 1301 1342749 3251 0
69 2 S102 1239 1343988 4490 0
69 2 S102 1174 1345162 5664 0
69 2 S102 1340 1346502 7004 0
0 0 0 1111 1347613 -8381 0
0 0 0 1328 1348941 -7053 0
0 0 0 1192 1350133 -5861 0
0 0 0 995 1351128 -4866 0
0 0 0 1378 1352506 -3488 0
0 0 0 1134 1353640 -2354 0
70 1 S112 1173 1354813 -1181 0
70 2 S112 1343 1356156 162 0
70 2 S112 1142 1357298 1304 0
70 2 S112 1363 1358661 2667 0
70 2 S112 1265 1359926 3932 0
70 2 S112 1213 1361139 5145 0
70 2 S112 1343 1362482 6488 0
0 0 0 1092 1363574 -12729 0
0 0 0 1350 1364924 -11379 0
0 0 0 1318 1366242 -10061 0
0 0 0 1307 1367549 -8754 0
0 0 0 1261 1368810 -7493 0
0 0 0 996 1369806 -6497 0
0 0 0 1357 1371163 -5140 0
0 0 0 1264 1372427 -3876 0
0 0 0 1187 1373614 -2689 0
71 1 S116 1304 1374918 -1385 0
71 1 S116 1072 1375990 -313 0
71 2 S116 1312 1377302 999 0
71 2 S116 1269 1378571 2268 0
71 2 S116 1198 1379769 3466 0
71 2 S116 1260 1381029 4726 0
71 2 S116 1080 1382109 5806 0
0 0 0 1274 1383383 -8586 0
0 0 0 1259 1384642 -7327 0
0 0 0 978 1385620 -6349 0
0 0 0 1120 1386740 -5229 0
0 0 0 1196 1387936 -4033 0
0 0 0 976 1388912 -3057 0
72 1 S102 1285 1390197 -1772 0
72 1 S102 1246 1391443 -526 0
72 2 S102 1220 1392663 694 0
72 2 S102 1324 1393987 2018 0
72 2 S102 1115 1395102 3133 0
72 2 S102 1254 1396356 4387 0
72 2 S102 1314 1397670 5701 0
72 2 S102 1115 1398785 6816 0
0 0 0 1352 1400137 -6504 0
0 0 0 1273 1401410 -5231 0
0 0 0 1099 1402509 -4132 0
0 0 0 1126 1403635 -3006 0
73 1 S116 1008 1404643 -1998 0
73 1 S116 1176 1405819 -822 0
73 2 S116 1339 1407158 517 0
73 2 S116 1210 1408368 1727 0
73 2 S116 1342 1409710 3069 0
73 2 S116 1257 1410967 4326 0
73 2 S116 1154 1412121 5480 0
73 2 S116 1305 1413426 6785 0
0 0 0 1177 1414603 -8285 0
0 0 0 1166 1415769 -7119 0
0 0 0 1237 1417006 -5882 0
0 0 0 970 1417976 -4912 0
0 0 0 1174 1419150 -3738 0
0 0 0 1306 1420456 -2432 0
74 1 S106 1184 1421640 -1248 0
74 2 S106 1332 1422972 84 0
74 2 S106 1061 1424033 1145 0
74 2 S106 1299 1425332 2444 0
74 2 S106 1262 1426594 3706 0
74 2 S106 996 1427590 4702 0
74 2 S106 1267 1428857 5969 0
0 0 0 1338 1430195 -6503 0
0 0 0 1155 1431350 -5348 0
0 0 0 1250 1432600 -4098 0
0 0 0 1088 1433688 -3010 0
75 1 S112 1065 1434753 -1945 0
75 1 S112 1273 1436026 -672 0
75 2 S112 1084 1437110 412 0
75 2 S112 1347 1438457 1759 0
75 2 S112 1315 1439772 3074 0
75 2 S112 1122 1440894 4196 0
75 2 S112 1254 1442148 5450 0
75 2 S112 1154 1443302 6604 0
0 0 0 1095 1444397 -7205 0
0 0 0 1309 1445706 -5896 0
0 0 0 1038 1446744 -4858 0
0 0 0 1059 1447803 -3799 0
0 0 0 1006 1448809 -2793 0
76 1 S116 893 1449702 -1900 0
76 1 S116 1102 1450804 -798 0
76 2 S116 1223 1452027 425 0
76 2 S116 1169 1453196 1594 0
76 2 S116 1331 1454527 2925 0
76 2 S116 1174 1455701 4099 0
76 2 S116 1095 1456796 5194 0
76 2 S116 1270 1458066 6464 0
0 0 0 1138 1459204 -7484 0
0 0 0 1159 1460363 -6325 0
0 0 0 1247 1461610 -5078 0
0 0 0 994 1462604 -4084 0
0 0 0 1030 1463634 -3054 0
77 1 S106 1180 1464814 -1874 0
77 1 S106 944 1465758 -930 0
77 2 S106 1236 1466994 306 0
77 2 S106 1291 1468285 1597 0
77 2 S106 1166 1469451 2763 0
77 2 S106 1287 1470738 4050 0
77 2 S106 997 1471735 5047 0
77 2 S106 1161 1472896 6208 0
0 0 0 1286 1474182 -9035 0
0 0 0 1132 1475314 -7903 0
0 0 0 1298 1476612 -6605 0
0 0 0 1001 1477613 -5604 0
0 0 0 932 1478545 -4672 0
0 0 0 1034 1479579 -3638 0
0 0 0 949 1480528 -2689 0
78 1 S112 917 1481445 -1772 0
78 1 S112 1281 1482726 -491 0
78 2 S112 1129 1483855 638 0
78 2 S112 1384 1485239 2022 0
78 2 S112 1343 1486582 3365 0
78 2 S112 1106 1487688 4471 0
78 2 S112 1254 1488942 5725 0
78 2 S112 1183 1490125 6908 0
0 0 0 1099 1491224 -10892 0
0 0 0 1277 1492501 -9615 0
0 0 0 1142 1493643 -8473 0
0 0 0 968 1494611 -7505 0
0 0 0 1319 1495930 -6186 0
0 0 0 1245 1497175 -4941 0
0 0 0 1111 1498286 -3830 0
0 0 0 1345 1499631 -2485 0
79 1 S102 1210 1500841 -1275 0
79 1 S102 1247 1502088 -28 0
79 2 S102 1340 1503428 1312 0
79 2 S102 1088 1504516 2400 0
79 2 S102 1330 1505846 3730 0
79 2 S102 1444 1507290 5174 0
79 2 S102 1195 1508485 6369 0
0 0 0 1298 1509783 -9873 0
0 0 0 1108 1510891 -8765 0
0 0 0 1245 1512136 -7520 0
0 0 0 1190 1513326 -6330 0
0 0 0 888 1514214 -5442 0
0 0 0 978 1515192 -4464 0
0 0 0 1260 1516452 -3204 0
0 0 0 1089 1517541 -2115 0
80 1 S116 1353 1518894 -762 0
80 2 S116 1095 1519989 333 0
80 2 S116 1224 1521213 1557 0
80 2 S116 1170 1522383 2727 0
80 2 S116 1029 1523412 3756 0
80 2 S116 1137 1524549 4893 0
80 2 S116 1078 1525627 5971 0
80 2 S116 1036 1526663 7007 0
