T_0183
BeatCount Mean SD BeatCountNoOutliers MeanNoOutliers SDNoOutliers
2141 734,978514712751 47,3885165497248 2081 732,988947621336 40,2702297989893

Trial TrialStatus Trialtype IBI AbsPosition RelPosition Outlier
0 0 0 685 830 -14936 0
0 0 0 674 1504 -14262 0
0 0 0 676 2180 -13586 0
0 0 0 688 2868 -12898 0
0 0 0 691 3559 -12207 0
0 0 0 679 4238 -11528 0
0 0 0 725 4963 -10803 0
0 0 0 786 5749 -10017 0
0 0 0 846 6595 -9171 0
0 0 0 868 7463 -8303 1
0 0 0 818 8281 -7485 0
0 0 0 771 9052 -6714 0
0 0 0 736 9788 -5978 0
0 0 0 708 10496 -5270 0
0 0 0 696 11192 -4574 0
0 0 0 678 11870 -3896 0
0 0 0 673 12543 -3223 0
0 0 0 670 13213 -2553 0
1 1 S112 688 13901 -1865 0
1 1 S112 727 14628 -1138 0
1 1 S112 761 15389 -377 0
1 2 S112 786 16175 409 0
1 2 S112 781 16956 1190 0
1 2 S112 773 17729 1963 0
1 2 S112 734 18463 2697 0
1 2 S112 695 19158 3392 0
1 2 S112 692 19850 4084 0
1 2 S112 688 20538 4772 0
1 2 S112 708 21246 5480 0
1 2 S112 732 21978 6212 0
1 2 S112 737 22715 6949 0
0 0 0 757 23472 -10779 0
0 0 0 768 24240 -10011 0
0 0 0 760 25000 -9251 0
0 0 0 720 25720 -8531 0
0 0 0 710 26430 -7821 0
0 0 0 709 27139 -7112 0
0 0 0 739 27878 -6373 0
0 0 0 761 28639 -5612 0
0 0 0 760 29399 -4852 0
0 0 0 781 30180 -4071 0
0 0 0 779 30959 -3292 0
0 0 0 785 31744 -2507 0
2 1 S102 737 32481 -1770 0
2 1 S102 711 33192 -1059 0
2 1 S102 699 33891 -360 0
2 2 S102 696 34587 336 0
2 2 S102 730 35317 1066 0
2 2 S102 761 36078 1827 0
2 2 S102 737 36815 2564 0
2 2 S102 738 37553 3302 0
2 2 S102 744 38297 4046 0
2 2 S102 757 39054 4803 0
2 2 S102 751 39805 5554 0
2 2 S102 732 40537 6286 0
2 2 S102 735 41272 7021 0
0 0 0 743 42015 -10837 0
0 0 0 717 42732 -10120 0
0 0 0 719 43451 -9401 0
0 0 0 728 44179 -8673 0
0 0 0 732 44911 -7941 0
0 0 0 719 45630 -7222 0
0 0 0 730 46360 -6492 0
0 0 0 728 47088 -5764 0
0 0 0 728 47816 -5036 0
0 0 0 712 48528 -4324 0
0 0 0 725 49253 -3599 0
0 0 0 723 49976 -2876 0
0 0 0 720 50696 -2156 0
3 1 S116 707 51403 -1449 0
3 1 S116 709 52112 -740 0
3 1 S116 705 52817 -35 0
3 2 S116 708 53525 673 0
3 2 S116 697 54222 1370 0
3 2 S116 688 54910 2058 0
3 2 S116 686 55596 2744 0
3 2 S116 691 56287 3435 0
3 2 S116 712 56999 4147 0
3 2 S116 722 57721 4869 0
3 2 S116 728 58449 5597 0
3 2 S116 731 59180 6328 0
0 0 0 741 59921 -10968 0
0 0 0 736 60657 -10232 0
0 0 0 704 61361 -9528 0
0 0 0 700 62061 -8828 0
0 0 0 686 62747 -8142 0
0 0 0 685 63432 -7457 0
0 0 0 671 64103 -6786 0
0 0 0 684 64787 -6102 0
0 0 0 692 65479 -5410 0
0 0 0 692 66171 -4718 0
0 0 0 713 66884 -4005 0
0 0 0 743 67627 -3262 0
0 0 0 780 68407 -2482 0
4 1 S106 792 69199 -1690 0
4 1 S106 749 69948 -941 0
4 1 S106 742 70690 -199 0
4 2 S106 730 71420 531 0
4 2 S106 719 72139 1250 0
4 2 S106 709 72848 1959 0
4 2 S106 686 73534 2645 0
4 2 S106 675 74209 3320 0
4 2 S106 673 74882 3993 0
4 2 S106 693 75575 4686 0
4 2 S106 732 76307 5418 0
4 2 S106 767 77074 6185 0
4 2 S106 775 77849 6960 0
0 0 0 803 78652 -7323 0
0 0 0 806 79458 -6517 0
0 0 0 765 80223 -5752 0
0 0 0 740 80963 -5012 0
0 0 0 714 81677 -4298 0
0 0 0 701 82378 -3597 0
0 0 0 707 83085 -2890 0
0 0 0 724 83809 -2166 0
5 1 S116 763 84572 -1403 0
5 1 S116 793 85365 -610 0
5 2 S116 772 86137 162 0
5 2 S116 792 86929 954 0
5 2 S116 782 87711 1736 0
5 2 S116 758 88469 2494 0
5 2 S116 716 89185 3210 0
5 2 S116 704 89889 3914 0
5 2 S116 689 90578 4603 0
5 2 S116 691 91269 5294 0
5 2 S116 681 91950 5975 0
5 2 S116 679 92629 6654 0
0 0 0 693 93322 -9895 0
0 0 0 716 94038 -9179 0
0 0 0 755 94793 -8424 0
0 0 0 759 95552 -7665 0
0 0 0 735 96287 -6930 0
0 0 0 716 97003 -6214 0
0 0 0 708 97711 -5506 0
0 0 0 684 98395 -4822 0
0 0 0 676 99071 -4146 0
0 0 0 676 99747 -3470 0
0 0 0 685 100432 -2785 0
0 0 0 691 101123 -2094 0
6 1 S106 684 101807 -1410 0
6 1 S106 692 102499 -718 0
6 1 S106 697 103196 -21 0
6 2 S106 715 103911 694 0
6 2 S106 746 104657 1440 0
6 2 S106 743 105400 2183 0
6 2 S106 734 106134 2917 0
6 2 S106 730 106864 3647 0
6 2 S106 732 107596 4379 0
6 2 S106 712 108308 5091 0
6 2 S106 720 109028 5811 0
6 2 S106 724 109752 6535 0
0 0 0 749 110501 -11632 0
0 0 0 744 111245 -10888 0
0 0 0 728 111973 -10160 0
0 0 0 712 112685 -9448 0
0 0 0 711 113396 -8737 0
0 0 0 699 114095 -8038 0
0 0 0 706 114801 -7332 0
0 0 0 733 115534 -6599 0
0 0 0 760 116294 -5839 0
0 0 0 756 117050 -5083 0
0 0 0 752 117802 -4331 0
0 0 0 741 118543 -3590 0
0 0 0 738 119281 -2852 0
0 0 0 718 119999 -2134 0
7 1 S102 702 120701 -1432 0
7 1 S102 696 121397 -736 0
7 1 S102 696 122093 -40 0
7 2 S102 696 122789 656 0
7 2 S102 687 123476 1343 0
7 2 S102 691 124167 2034 0
7 2 S102 694 124861 2728 0
7 2 S102 711 125572 3439 0
7 2 S102 729 126301 4168 0
7 2 S102 727 127028 4895 0
7 2 S102 755 127783 5650 0
7 2 S102 764 128547 6414 0
0 0 0 772 129319 -9475 0
0 0 0 751 130070 -8724 0
0 0 0 743 130813 -7981 0
0 0 0 733 131546 -7248 0
0 0 0 726 132272 -6522 0
0 0 0 719 132991 -5803 0
0 0 0 723 133714 -5080 0
0 0 0 733 134447 -4347 0
0 0 0 747 135194 -3600 0
0 0 0 738 135932 -2862 0
0 0 0 730 136662 -2132 0
8 1 S112 726 137388 -1406 0
8 1 S112 738 138126 -668 0
8 2 S112 735 138861 67 0
8 2 S112 732 139593 799 0
8 2 S112 734 140327 1533 0
8 2 S112 724 141051 2257 0
8 2 S112 716 141767 2973 0
8 2 S112 701 142468 3674 0
8 2 S112 706 143174 4380 0
8 2 S112 710 143884 5090 0
8 2 S112 729 144613 5819 0
8 2 S112 747 145360 6566 0
0 0 0 732 146092 -8170 0
0 0 0 731 146823 -7439 0
0 0 0 726 147549 -6713 0
0 0 0 733 148282 -5980 0
0 0 0 706 148988 -5274 0
0 0 0 709 149697 -4565 0
0 0 0 704 150401 -3861 0
0 0 0 704 151105 -3157 0
0 0 0 688 151793 -2469 0
9 1 S116 689 152482 -1780 0
9 1 S116 692 153174 -1088 0
9 1 S116 701 153875 -387 0
9 2 S116 704 154579 317 0
9 2 S116 695 155274 1012 0
9 2 S116 704 155978 1716 0
9 2 S116 695 156673 2411 0
9 2 S116 692 157365 3103 0
9 2 S116 676 158041 3779 0
9 2 S116 673 158714 4452 0
9 2 S116 684 159398 5136 0
9 2 S116 699 160097 5835 0
9 2 S116 715 160812 6550 0
0 0 0 709 161521 -13165 0
0 0 0 716 162237 -12449 0
0 0 0 725 162962 -11724 0
0 0 0 735 163697 -10989 0
0 0 0 715 164412 -10274 0
0 0 0 717 165129 -9557 0
0 0 0 714 165843 -8843 0
0 0 0 700 166543 -8143 0
0 0 0 681 167224 -7462 0
0 0 0 684 167908 -6778 0
0 0 0 685 168593 -6093 0
0 0 0 703 169296 -5390 0
0 0 0 692 169988 -4698 0
0 0 0 699 170687 -3999 0
0 0 0 702 171389 -3297 0
0 0 0 708 172097 -2589 0
10 1 S102 702 172799 -1887 0
10 1 S102 688 173487 -1199 0
10 1 S102 687 174174 -512 0
10 2 S102 688 174862 176 0
10 2 S102 695 175557 871 0
10 2 S102 695 176252 1566 0
10 2 S102 679 176931 2245 0
10 2 S102 683 177614 2928 0
10 2 S102 686 178300 3614 0
10 2 S102 695 178995 4309 0
10 2 S102 726 179721 5035 0
10 2 S102 734 180455 5769 0
10 2 S102 742 181197 6511 0
0 0 0 740 181937 -13340 0
0 0 0 757 182694 -12583 0
0 0 0 742 183436 -11841 0
0 0 0 722 184158 -11119 0
0 0 0 703 184861 -10416 0
0 0 0 693 185554 -9723 0
0 0 0 684 186238 -9039 0
0 0 0 677 186915 -8362 0
0 0 0 678 187593 -7684 0
0 0 0 687 188280 -6997 0
0 0 0 690 188970 -6307 0
0 0 0 702 189672 -5605 0
0 0 0 707 190379 -4898 0
0 0 0 721 191100 -4177 0
0 0 0 711 191811 -3466 0
0 0 0 706 192517 -2760 0
0 0 0 696 193213 -2064 0
11 1 S112 693 193906 -1371 0
11 1 S112 681 194587 -690 0
11 1 S112 662 195249 -28 0
11 2 S112 660 195909 632 0
11 2 S112 664 196573 1296 0
11 2 S112 675 197248 1971 0
11 2 S112 679 197927 2650 0
11 2 S112 676 198603 3326 0
11 2 S112 688 199291 4014 0
11 2 S112 698 199989 4712 0
11 2 S112 723 200712 5435 0
11 2 S112 742 201454 6177 0
11 2 S112 726 202180 6903 0
0 0 0 730 202910 -7370 0
0 0 0 728 203638 -6642 0
0 0 0 728 204366 -5914 0
0 0 0 700 205066 -5214 0
0 0 0 695 205761 -4519 0
0 0 0 687 206448 -3832 0
0 0 0 696 207144 -3136 0
0 0 0 709 207853 -2427 0
12 1 S116 704 208557 -1723 0
12 1 S116 727 209284 -996 0
12 1 S116 750 210034 -246 0
12 2 S116 760 210794 514 0
12 2 S116 756 211550 1270 0
12 2 S116 754 212304 2024 0
12 2 S116 747 213051 2771 0
12 2 S116 728 213779 3499 0
12 2 S116 711 214490 4210 0
12 2 S116 689 215179 4899 0
12 2 S116 682 215861 5581 0
12 2 S116 684 216545 6265 0
12 2 S116 695 217240 6960 0
0 0 0 690 217930 -11183 0
0 0 0 696 218626 -10487 0
0 0 0 695 219321 -9792 0
0 0 0 710 220031 -9082 0
0 0 0 701 220732 -8381 0
0 0 0 703 221435 -7678 0
0 0 0 712 222147 -6966 0
0 0 0 717 222864 -6249 0
0 0 0 717 223581 -5532 0
0 0 0 697 224278 -4835 0
0 0 0 698 224976 -4137 0
0 0 0 696 225672 -3441 0
0 0 0 706 226378 -2735 0
0 0 0 697 227075 -2038 0
13 1 S112 681 227756 -1357 0
13 1 S112 672 228428 -685 0
13 1 S112 679 229107 -6 0
13 2 S112 692 229799 686 0
13 2 S112 694 230493 1380 0
13 2 S112 690 231183 2070 0
13 2 S112 690 231873 2760 0
13 2 S112 708 232581 3468 0
13 2 S112 745 233326 4213 0
13 2 S112 756 234082 4969 0
13 2 S112 743 234825 5712 0
13 2 S112 751 235576 6463 0
0 0 0 761 236337 -11675 0
0 0 0 778 237115 -10897 0
0 0 0 766 237881 -10131 0
0 0 0 728 238609 -9403 0
0 0 0 709 239318 -8694 0
0 0 0 688 240006 -8006 0
0 0 0 674 240680 -7332 0
0 0 0 664 241344 -6668 0
0 0 0 670 242014 -5998 0
0 0 0 698 242712 -5300 0
0 0 0 773 243485 -4527 0
0 0 0 834 244319 -3693 0
0 0 0 835 245154 -2858 0
14 1 S106 862 246016 -1996 1
14 1 S106 834 246850 -1162 0
14 1 S106 778 247628 -384 0
14 2 S106 753 248381 369 0
14 2 S106 733 249114 1102 0
14 2 S106 719 249833 1821 0
14 2 S106 694 250527 2515 0
14 2 S106 684 251211 3199 0
14 2 S106 684 251895 3883 0
14 2 S106 685 252580 4568 0
14 2 S106 698 253278 5266 0
14 2 S106 742 254020 6008 0
14 2 S106 743 254763 6751 0
0 0 0 761 255524 -10741 0
0 0 0 774 256298 -9967 0
0 0 0 788 257086 -9179 0
0 0 0 759 257845 -8420 0
0 0 0 747 258592 -7673 0
0 0 0 732 259324 -6941 0
0 0 0 724 260048 -6217 0
0 0 0 714 260762 -5503 0
0 0 0 708 261470 -4795 0
0 0 0 709 262179 -4086 0
0 0 0 719 262898 -3367 0
0 0 0 726 263624 -2641 0
15 1 S116 719 264343 -1922 0
15 1 S116 728 265071 -1194 0
15 1 S116 725 265796 -469 0
15 2 S116 738 266534 269 0
15 2 S116 734 267268 1003 0
15 2 S116 740 268008 1743 0
15 2 S116 724 268732 2467 0
15 2 S116 702 269434 3169 0
15 2 S116 689 270123 3858 0
15 2 S116 699 270822 4557 0
15 2 S116 728 271550 5285 0
15 2 S116 750 272300 6035 0
15 2 S116 772 273072 6807 0
0 0 0 804 273876 -10460 0
0 0 0 784 274660 -9676 0
0 0 0 768 275428 -8908 0
0 0 0 725 276153 -8183 0
0 0 0 708 276861 -7475 0
0 0 0 691 277552 -6784 0
0 0 0 684 278236 -6100 0
0 0 0 683 278919 -5417 0
0 0 0 691 279610 -4726 0
0 0 0 711 280321 -4015 0
0 0 0 737 281058 -3278 0
0 0 0 746 281804 -2532 0
16 1 S116 756 282560 -1776 0
16 1 S116 760 283320 -1016 0
16 1 S116 764 284084 -252 0
16 2 S116 760 284844 508 0
16 2 S116 756 285600 1264 0
16 2 S116 756 286356 2020 0
16 2 S116 761 287117 2781 0
16 2 S116 747 287864 3528 0
16 2 S116 748 288612 4276 0
16 2 S116 754 289366 5030 0
16 2 S116 749 290115 5779 0
16 2 S116 707 290822 6486 0
0 0 0 694 291516 -10658 0
0 0 0 698 292214 -9960 0
0 0 0 724 292938 -9236 0
0 0 0 755 293693 -8481 0
0 0 0 718 294411 -7763 0
0 0 0 730 295141 -7033 0
0 0 0 730 295871 -6303 0
0 0 0 738 296609 -5565 0
0 0 0 710 297319 -4855 0
0 0 0 718 298037 -4137 0
0 0 0 725 298762 -3412 0
0 0 0 734 299496 -2678 0
17 1 S106 754 300250 -1924 0
17 1 S106 741 300991 -1183 0
17 1 S106 731 301722 -452 0
17 2 S106 720 302442 268 0
17 2 S106 718 303160 986 0
17 2 S106 722 303882 1708 0
17 2 S106 726 304608 2434 0
17 2 S106 736 305344 3170 0
17 2 S106 751 306095 3921 0
17 2 S106 760 306855 4681 0
17 2 S106 763 307618 5444 0
17 2 S106 727 308345 6171 0
17 2 S106 717 309062 6888 0
0 0 0 710 309772 -10274 0
0 0 0 712 310484 -9562 0
0 0 0 709 311193 -8853 0
0 0 0 701 311894 -8152 0
0 0 0 724 312618 -7428 0
0 0 0 732 313350 -6696 0
0 0 0 758 314108 -5938 0
0 0 0 760 314868 -5178 0
0 0 0 750 315618 -4428 0
0 0 0 754 316372 -3674 0
0 0 0 757 317129 -2917 0
0 0 0 753 317882 -2164 0
18 1 S102 723 318605 -1441 0
18 1 S102 715 319320 -726 0
18 1 S102 708 320028 -18 0
18 2 S102 712 320740 694 0
18 2 S102 716 321456 1410 0
18 2 S102 700 322156 2110 0
18 2 S102 677 322833 2787 0
18 2 S102 681 323514 3468 0
18 2 S102 713 324227 4181 0
18 2 S102 783 325010 4964 0
18 2 S102 854 325864 5818 0
18 2 S102 838 326702 6656 0
0 0 0 785 327487 -8043 0
0 0 0 764 328251 -7279 0
0 0 0 750 329001 -6529 0
0 0 0 731 329732 -5798 0
0 0 0 700 330432 -5098 0
0 0 0 701 331133 -4397 0
0 0 0 694 331827 -3703 0
0 0 0 703 332530 -3000 0
0 0 0 698 333228 -2302 0
19 1 S106 697 333925 -1605 0
19 1 S106 704 334629 -901 0
19 1 S106 725 335354 -176 0
19 2 S106 738 336092 562 0
19 2 S106 743 336835 1305 0
19 2 S106 735 337570 2040 0
19 2 S106 733 338303 2773 0
19 2 S106 738 339041 3511 0
19 2 S106 728 339769 4239 0
19 2 S106 703 340472 4942 0
19 2 S106 712 341184 5654 0
19 2 S106 702 341886 6356 0
0 0 0 722 342608 -12484 0
0 0 0 737 343345 -11747 0
0 0 0 720 344065 -11027 0
0 0 0 735 344800 -10292 0
0 0 0 727 345527 -9565 0
0 0 0 717 346244 -8848 0
0 0 0 694 346938 -8154 0
0 0 0 690 347628 -7464 0
0 0 0 683 348311 -6781 0
0 0 0 686 348997 -6095 0
0 0 0 678 349675 -5417 0
0 0 0 681 350356 -4736 0
0 0 0 689 351045 -4047 0
0 0 0 703 351748 -3344 0
0 0 0 716 352464 -2628 0
20 1 S112 703 353167 -1925 0
20 1 S112 707 353874 -1218 0
20 1 S112 702 354576 -516 0
20 2 S112 706 355282 190 0
20 2 S112 690 355972 880 0
20 2 S112 677 356649 1557 0
20 2 S112 677 357326 2234 0
20 2 S112 676 358002 2910 0
20 2 S112 688 358690 3598 0
20 2 S112 687 359377 4285 0
20 2 S112 692 360069 4977 0
20 2 S112 710 360779 5687 0
20 2 S112 731 361510 6418 0
0 0 0 751 362261 -10835 0
0 0 0 746 363007 -10089 0
0 0 0 730 363737 -9359 0
0 0 0 716 364453 -8643 0
0 0 0 699 365152 -7944 0
0 0 0 678 365830 -7266 0
0 0 0 675 366505 -6591 0
0 0 0 665 367170 -5926 0
0 0 0 666 367836 -5260 0
0 0 0 670 368506 -4590 0
0 0 0 679 369185 -3911 0
0 0 0 682 369867 -3229 0
0 0 0 695 370562 -2534 0
21 1 S106 709 371271 -1825 0
21 1 S106 706 371977 -1119 0
21 1 S106 726 372703 -393 0
21 2 S106 731 373434 338 0
21 2 S106 742 374176 1080 0
21 2 S106 721 374897 1801 0
21 2 S106 708 375605 2509 0
21 2 S106 709 376314 3218 0
21 2 S106 711 377025 3929 0
21 2 S106 719 377744 4648 0
21 2 S106 701 378445 5349 0
21 2 S106 705 379150 6054 0
21 2 S106 707 379857 6761 0
0 0 0 724 380581 -12095 0
0 0 0 725 381306 -11370 0
0 0 0 712 382018 -10658 0
0 0 0 714 382732 -9944 0
0 0 0 713 383445 -9231 0
0 0 0 704 384149 -8527 0
0 0 0 693 384842 -7834 0
0 0 0 687 385529 -7147 0
0 0 0 692 386221 -6455 0
0 0 0 699 386920 -5756 0
0 0 0 693 387613 -5063 0
0 0 0 694 388307 -4369 0
0 0 0 695 389002 -3674 0
0 0 0 701 389703 -2973 0
0 0 0 693 390396 -2280 0
22 1 S116 678 391074 -1602 0
22 1 S116 683 391757 -919 0
22 1 S116 687 392444 -232 0
22 2 S116 706 393150 474 0
22 2 S116 722 393872 1196 0
22 2 S116 700 394572 1896 0
22 2 S116 691 395263 2587 0
22 2 S116 688 395951 3275 0
22 2 S116 697 396648 3972 0
22 2 S116 714 397362 4686 0
22 2 S116 707 398069 5393 0
22 2 S116 707 398776 6100 0
22 2 S116 726 399502 6826 0
0 0 0 753 400255 -9894 0
0 0 0 757 401012 -9137 0
0 0 0 738 401750 -8399 0
0 0 0 749 402499 -7650 0
0 0 0 742 403241 -6908 0
0 0 0 731 403972 -6177 0
0 0 0 706 404678 -5471 0
0 0 0 691 405369 -4780 0
0 0 0 690 406059 -4090 0
0 0 0 695 406754 -3395 0
0 0 0 686 407440 -2709 0
0 0 0 671 408111 -2038 0
23 1 S112 671 408782 -1367 0
23 1 S112 672 409454 -695 0
23 1 S112 693 410147 -2 0
23 2 S112 731 410878 729 0
23 2 S112 738 411616 1467 0
23 2 S112 757 412373 2224 0
23 2 S112 767 413140 2991 0
23 2 S112 773 413913 3764 0
23 2 S112 766 414679 4530 0
23 2 S112 717 415396 5247 0
23 2 S112 699 416095 5946 0
23 2 S112 697 416792 6643 0
0 0 0 700 417492 -10147 0
0 0 0 731 418223 -9416 0
0 0 0 746 418969 -8670 0
0 0 0 739 419708 -7931 0
0 0 0 752 420460 -7179 0
0 0 0 766 421226 -6413 0
0 0 0 764 421990 -5649 0
0 0 0 746 422736 -4903 0
0 0 0 750 423486 -4153 0
0 0 0 760 424246 -3393 0
0 0 0 754 425000 -2639 0
24 1 S106 718 425718 -1921 0
24 1 S106 701 426419 -1220 0
24 1 S106 700 427119 -520 0
24 2 S106 717 427836 197 0
24 2 S106 744 428580 941 0
24 2 S106 742 429322 1683 0
24 2 S106 732 430054 2415 0
24 2 S106 720 430774 3135 0
24 2 S106 717 431491 3852 0
24 2 S106 729 432220 4581 0
24 2 S106 723 432943 5304 0
24 2 S106 709 433652 6013 0
24 2 S106 712 434364 6725 0
0 0 0 720 435084 -8620 0
0 0 0 730 435814 -7890 0
0 0 0 720 436534 -7170 0
0 0 0 732 437266 -6438 0
0 0 0 736 438002 -5702 0
0 0 0 742 438744 -4960 0
0 0 0 713 439457 -4247 0
0 0 0 709 440166 -3538 0
0 0 0 704 440870 -2834 0
0 0 0 702 441572 -2132 0
25 1 S102 697 442269 -1435 0
25 1 S102 677 442946 -758 0
25 1 S102 673 443619 -85 0
25 2 S102 674 444293 589 0
25 2 S102 696 444989 1285 0
25 2 S102 741 445730 2026 0
25 2 S102 739 446469 2765 0
25 2 S102 747 447216 3512 0
25 2 S102 753 447969 4265 0
25 2 S102 764 448733 5029 0
25 2 S102 761 449494 5790 0
25 2 S102 730 450224 6520 0
0 0 0 727 450951 -7856 0
0 0 0 725 451676 -7131 0
0 0 0 724 452400 -6407 0
0 0 0 718 453118 -5689 0
0 0 0 707 453825 -4982 0
0 0 0 700 454525 -4282 0
0 0 0 708 455233 -3574 0
0 0 0 711 455944 -2863 0
0 0 0 705 456649 -2158 0
26 1 S116 719 457368 -1439 0
26 1 S116 718 458086 -721 0
26 1 S116 718 458804 -3 0
26 2 S116 699 459503 696 0
26 2 S116 699 460202 1395 0
26 2 S116 687 460889 2082 0
26 2 S116 677 461566 2759 0
26 2 S116 675 462241 3434 0
26 2 S116 676 462917 4110 0
26 2 S116 700 463617 4810 0
26 2 S116 718 464335 5528 0
26 2 S116 752 465087 6280 0
0 0 0 778 465865 -7265 0
0 0 0 761 466626 -6504 0
0 0 0 755 467381 -5749 0
0 0 0 737 468118 -5012 0
0 0 0 714 468832 -4298 0
0 0 0 686 469518 -3612 0
0 0 0 685 470203 -2927 0
0 0 0 686 470889 -2241 0
27 1 S106 708 471597 -1533 0
27 1 S106 741 472338 -792 0
27 1 S106 741 473079 -51 0
27 2 S106 781 473860 730 0
27 2 S106 774 474634 1504 0
27 2 S106 772 475406 2276 0
27 2 S106 731 476137 3007 0
27 2 S106 706 476843 3713 0
27 2 S106 692 477535 4405 0
27 2 S106 694 478229 5099 0
27 2 S106 712 478941 5811 0
27 2 S106 712 479653 6523 0
0 0 0 727 480380 -7638 0
0 0 0 748 481128 -6890 0
0 0 0 772 481900 -6118 0
0 0 0 744 482644 -5374 0
0 0 0 732 483376 -4642 0
0 0 0 712 484088 -3930 0
0 0 0 705 484793 -3225 0
0 0 0 676 485469 -2549 0
28 1 S102 673 486142 -1876 0
28 1 S102 671 486813 -1205 0
28 1 S102 677 487490 -528 0
28 2 S102 694 488184 166 0
28 2 S102 704 488888 870 0
28 2 S102 724 489612 1594 0
28 2 S102 731 490343 2325 0
28 2 S102 732 491075 3057 0
28 2 S102 710 491785 3767 0
28 2 S102 697 492482 4464 0
28 2 S102 694 493176 5158 0
28 2 S102 709 493885 5867 0
28 2 S102 738 494623 6605 0
0 0 0 730 495353 -10835 0
0 0 0 730 496083 -10105 0
0 0 0 730 496813 -9375 0
0 0 0 726 497539 -8649 0
0 0 0 691 498230 -7958 0
0 0 0 684 498914 -7274 0
0 0 0 681 499595 -6593 0
0 0 0 692 500287 -5901 0
0 0 0 710 500997 -5191 0
0 0 0 699 501696 -4492 0
0 0 0 701 502397 -3791 0
0 0 0 708 503105 -3083 0
0 0 0 738 503843 -2345 0
29 1 S112 762 504605 -1583 0
29 1 S112 734 505339 -849 0
29 1 S112 728 506067 -121 0
29 2 S112 730 506797 609 0
29 2 S112 732 507529 1341 0
29 2 S112 733 508262 2074 0
29 2 S112 741 509003 2815 0
29 2 S112 711 509714 3526 0
29 2 S112 706 510420 4232 0
29 2 S112 700 511120 4932 0
29 2 S112 705 511825 5637 0
29 2 S112 719 512544 6356 0
0 0 0 715 513259 -7070 0
0 0 0 730 513989 -6340 0
0 0 0 723 514712 -5617 0
0 0 0 721 515433 -4896 0
0 0 0 696 516129 -4200 0
0 0 0 707 516836 -3493 0
0 0 0 700 517536 -2793 0
0 0 0 701 518237 -2092 0
30 1 S112 684 518921 -1408 0
30 1 S112 673 519594 -735 0
30 1 S112 666 520260 -69 0
30 2 S112 667 520927 598 0
30 2 S112 678 521605 1276 0
30 2 S112 682 522287 1958 0
30 2 S112 692 522979 2650 0
30 2 S112 716 523695 3366 0
30 2 S112 756 524451 4122 0
30 2 S112 785 525236 4907 0
30 2 S112 778 526014 5685 0
30 2 S112 769 526783 6454 0
0 0 0 762 527545 -10689 0
0 0 0 764 528309 -9925 0
0 0 0 747 529056 -9178 0
0 0 0 704 529760 -8474 0
0 0 0 701 530461 -7773 0
0 0 0 696 531157 -7077 0
0 0 0 699 531856 -6378 0
0 0 0 689 532545 -5689 0
0 0 0 694 533239 -4995 0
0 0 0 715 533954 -4280 0
0 0 0 746 534700 -3534 0
0 0 0 775 535475 -2759 0
0 0 0 750 536225 -2009 0
31 1 S106 751 536976 -1258 0
31 1 S106 739 537715 -519 0
31 2 S106 738 538453 219 0
31 2 S106 718 539171 937 0
31 2 S106 706 539877 1643 0
31 2 S106 706 540583 2349 0
31 2 S106 699 541282 3048 0
31 2 S106 700 541982 3748 0
31 2 S106 713 542695 4461 0
31 2 S106 721 543416 5182 0
31 2 S106 750 544166 5932 0
31 2 S106 771 544937 6703 0
0 0 0 793 545730 -11055 0
0 0 0 768 546498 -10287 0
0 0 0 752 547250 -9535 0
0 0 0 728 547978 -8807 0
0 0 0 712 548690 -8095 0
0 0 0 708 549398 -7387 0
0 0 0 719 550117 -6668 0
0 0 0 726 550843 -5942 0
0 0 0 734 551577 -5208 0
0 0 0 713 552290 -4495 0
0 0 0 721 553011 -3774 0
0 0 0 724 553735 -3050 0
0 0 0 739 554474 -2311 0
32 1 S102 741 555215 -1570 0
32 1 S102 723 555938 -847 0
32 1 S102 734 556672 -113 0
32 2 S102 729 557401 616 0
32 2 S102 747 558148 1363 0
32 2 S102 754 558902 2117 0
32 2 S102 745 559647 2862 0
32 2 S102 748 560395 3610 0
32 2 S102 746 561141 4356 0
32 2 S102 754 561895 5110 0
32 2 S102 734 562629 5844 0
32 2 S102 736 563365 6580 0
0 0 0 742 564107 -11246 0
0 0 0 773 564880 -10473 0
0 0 0 756 565636 -9717 0
0 0 0 770 566406 -8947 0
0 0 0 759 567165 -8188 0
0 0 0 762 567927 -7426 0
0 0 0 722 568649 -6704 0
0 0 0 714 569363 -5990 0
0 0 0 707 570070 -5283 0
0 0 0 708 570778 -4575 0
0 0 0 702 571480 -3873 0
0 0 0 704 572184 -3169 0
0 0 0 712 572896 -2457 0
33 1 S112 724 573620 -1733 0
33 1 S112 740 574360 -993 0
33 1 S112 725 575085 -268 0
33 2 S112 729 575814 461 0
33 2 S112 728 576542 1189 0
33 2 S112 745 577287 1934 0
33 2 S112 752 578039 2686 0
33 2 S112 733 578772 3419 0
33 2 S112 738 579510 4157 0
33 2 S112 751 580261 4908 0
33 2 S112 768 581029 5676 0
33 2 S112 768 581797 6444 0
0 0 0 750 582547 -12153 0
0 0 0 765 583312 -11388 0
0 0 0 765 584077 -10623 0
0 0 0 772 584849 -9851 0
0 0 0 737 585586 -9114 0
0 0 0 735 586321 -8379 0
0 0 0 725 587046 -7654 0
0 0 0 732 587778 -6922 0
0 0 0 718 588496 -6204 0
0 0 0 706 589202 -5498 0
0 0 0 706 589908 -4792 0
0 0 0 706 590614 -4086 0
0 0 0 728 591342 -3358 0
0 0 0 746 592088 -2612 0
34 1 S106 723 592811 -1889 0
34 1 S106 730 593541 -1159 0
34 1 S106 720 594261 -439 0
34 2 S106 733 594994 294 0
34 2 S106 725 595719 1019 0
34 2 S106 713 596432 1732 0
34 2 S106 712 597144 2444 0
34 2 S106 713 597857 3157 0
34 2 S106 725 598582 3882 0
34 2 S106 743 599325 4625 0
34 2 S106 739 600064 5364 0
34 2 S106 744 600808 6108 0
34 2 S106 743 601551 6851 0
0 0 0 749 602300 -9824 0
0 0 0 734 603034 -9090 0
0 0 0 704 603738 -8386 0
0 0 0 705 604443 -7681 0
0 0 0 703 605146 -6978 0
0 0 0 697 605843 -6281 0
0 0 0 680 606523 -5601 0
0 0 0 681 607204 -4920 0
0 0 0 690 607894 -4230 0
0 0 0 715 608609 -3515 0
0 0 0 750 609359 -2765 0
0 0 0 741 610100 -2024 0
35 1 S102 750 610850 -1274 0
35 1 S102 746 611596 -528 0
35 2 S102 747 612343 219 0
35 2 S102 756 613099 975 0
35 2 S102 721 613820 1696 0
35 2 S102 715 614535 2411 0
35 2 S102 714 615249 3125 0
35 2 S102 721 615970 3846 0
35 2 S102 745 616715 4591 0
35 2 S102 726 617441 5317 0
35 2 S102 719 618160 6036 0
35 2 S102 724 618884 6760 0
0 0 0 743 619627 -7699 0
0 0 0 754 620381 -6945 0
0 0 0 732 621113 -6213 0
0 0 0 712 621825 -5501 0
0 0 0 712 622537 -4789 0
0 0 0 704 623241 -4085 0
0 0 0 698 623939 -3387 0
0 0 0 691 624630 -2696 0
36 1 S106 700 625330 -1996 0
36 1 S106 708 626038 -1288 0
36 1 S106 723 626761 -565 0
36 2 S106 711 627472 146 0
36 2 S106 694 628166 840 0
36 2 S106 702 628868 1542 0
36 2 S106 708 629576 2250 0
36 2 S106 716 630292 2966 0
36 2 S106 715 631007 3681 0
36 2 S106 694 631701 4375 0
36 2 S106 695 632396 5070 0
36 2 S106 695 633091 5765 0
36 2 S106 710 633801 6475 0
0 0 0 740 634541 -10938 0
0 0 0 753 635294 -10185 0
0 0 0 773 636067 -9412 0
0 0 0 776 636843 -8636 0
0 0 0 770 637613 -7866 0
0 0 0 754 638367 -7112 0
0 0 0 730 639097 -6382 0
0 0 0 717 639814 -5665 0
0 0 0 690 640504 -4975 0
0 0 0 682 641186 -4293 0
0 0 0 677 641863 -3616 0
0 0 0 677 642540 -2939 0
0 0 0 683 643223 -2256 0
37 1 S116 678 643901 -1578 0
37 1 S116 693 644594 -885 0
37 1 S116 710 645304 -175 0
37 2 S116 737 646041 562 0
37 2 S116 743 646784 1305 0
37 2 S116 730 647514 2035 0
37 2 S116 718 648232 2753 0
37 2 S116 721 648953 3474 0
37 2 S116 720 649673 4194 0
37 2 S116 695 650368 4889 0
37 2 S116 694 651062 5583 0
37 2 S116 696 651758 6279 0
37 2 S116 741 652499 7020 0
0 0 0 811 653310 -12180 0
0 0 0 800 654110 -11380 0
0 0 0 804 654914 -10576 0
0 0 0 795 655709 -9781 0
0 0 0 770 656479 -9011 0
0 0 0 734 657213 -8277 0
0 0 0 719 657932 -7558 0
0 0 0 717 658649 -6841 0
0 0 0 699 659348 -6142 0
0 0 0 673 660021 -5469 0
0 0 0 668 660689 -4801 0
0 0 0 684 661373 -4117 0
0 0 0 728 662101 -3389 0
0 0 0 803 662904 -2586 0
38 1 S102 789 663693 -1797 0
38 1 S102 779 664472 -1018 0
38 1 S102 760 665232 -258 0
38 2 S102 754 665986 496 0
38 2 S102 732 666718 1228 0
38 2 S102 699 667417 1927 0
38 2 S102 674 668091 2601 0
38 2 S102 669 668760 3270 0
38 2 S102 663 669423 3933 0
38 2 S102 674 670097 4607 0
38 2 S102 730 670827 5337 0
38 2 S102 888 671715 6225 1
0 0 0 934 672649 -9651 1
0 0 0 914 673563 -8737 1
0 0 0 850 674413 -7887 0
0 0 0 796 675209 -7091 0
0 0 0 745 675954 -6346 0
0 0 0 710 676664 -5636 0
0 0 0 687 677351 -4949 0
0 0 0 661 678012 -4288 0
0 0 0 651 678663 -3637 0
0 0 0 637 679300 -3000 0
0 0 0 637 679937 -2363 0
39 1 S116 627 680564 -1736 0
39 1 S116 644 681208 -1092 0
39 1 S116 666 681874 -426 0
39 2 S116 676 682550 250 0
39 2 S116 710 683260 960 0
39 2 S116 737 683997 1697 0
39 2 S116 763 684760 2460 0
39 2 S116 759 685519 3219 0
39 2 S116 722 686241 3941 0
39 2 S116 716 686957 4657 0
39 2 S116 719 687676 5376 0
39 2 S116 718 688394 6094 0
39 2 S116 708 689102 6802 0
0 0 0 728 689830 -7921 0
0 0 0 739 690569 -7182 0
0 0 0 755 691324 -6427 0
0 0 0 752 692076 -5675 0
0 0 0 776 692852 -4899 0
0 0 0 765 693617 -4134 0
0 0 0 755 694372 -3379 0
0 0 0 741 695113 -2638 0
40 1 S112 740 695853 -1898 0
40 1 S112 741 696594 -1157 0
40 1 S112 743 697337 -414 0
40 2 S112 719 698056 305 0
40 2 S112 722 698778 1027 0
40 2 S112 722 699500 1749 0
40 2 S112 722 700222 2471 0
40 2 S112 714 700936 3185 0
40 2 S112 694 701630 3879 0
40 2 S112 706 702336 4585 0
40 2 S112 716 703052 5301 0
40 2 S112 740 703792 6041 0
40 2 S112 750 704542 6791 0
0 0 0 759 705301 -188373 0
0 0 0 764 706065 -187609 0
0 0 0 764 706829 -186845 0
0 0 0 738 707567 -186107 0
0 0 0 724 708291 -185383 0
0 0 0 721 709012 -184662 0
0 0 0 720 709732 -183942 0
0 0 0 714 710446 -183228 0
0 0 0 699 711145 -182529 0
0 0 0 701 711846 -181828 0
0 0 0 705 712551 -181123 0
0 0 0 683 713234 -180440 0
0 0 0 670 713904 -179770 0
0 0 0 678 714582 -179092 0
0 0 0 681 715263 -178411 0
0 0 0 719 715982 -177692 0
0 0 0 770 716752 -176922 0
0 0 0 727 717479 -176195 0
0 0 0 697 718176 -175498 0
0 0 0 683 718859 -174815 0
0 0 0 691 719550 -174124 0
0 0 0 748 720298 -173376 0
0 0 0 840 721138 -172536 0
0 0 0 889 722027 -171647 1
0 0 0 880 722907 -170767 1
0 0 0 861 723768 -169906 1
0 0 0 839 724607 -169067 0
0 0 0 822 725429 -168245 0
0 0 0 808 726237 -167437 0
0 0 0 799 727036 -166638 0
0 0 0 799 727835 -165839 0
0 0 0 819 728654 -165020 0
0 0 0 857 729511 -164163 0
0 0 0 899 730410 -163264 1
0 0 0 946 731356 -162318 1
0 0 0 932 732288 -161386 1
0 0 0 890 733178 -160496 1
0 0 0 852 734030 -159644 0
0 0 0 813 734843 -158831 0
0 0 0 773 735616 -158058 0
0 0 0 731 736347 -157327 0
0 0 0 707 737054 -156620 0
0 0 0 689 737743 -155931 0
0 0 0 677 738420 -155254 0
0 0 0 668 739088 -154586 0
0 0 0 676 739764 -153910 0
0 0 0 687 740451 -153223 0
0 0 0 708 741159 -152515 0
0 0 0 728 741887 -151787 0
0 0 0 754 742641 -151033 0
0 0 0 747 743388 -150286 0
0 0 0 725 744113 -149561 0
0 0 0 715 744828 -148846 0
0 0 0 703 745531 -148143 0
0 0 0 700 746231 -147443 0
0 0 0 698 746929 -146745 0
0 0 0 720 747649 -146025 0
0 0 0 746 748395 -145279 0
0 0 0 781 749176 -144498 0
0 0 0 780 749956 -143718 0
0 0 0 773 750729 -142945 0
0 0 0 743 751472 -142202 0
0 0 0 688 752160 -141514 0
0 0 0 679 752839 -140835 0
0 0 0 656 753495 -140179 0
0 0 0 636 754131 -139543 0
0 0 0 632 754763 -138911 0
0 0 0 618 755381 -138293 0
0 0 0 615 755996 -137678 0
0 0 0 609 756605 -137069 1
0 0 0 610 757215 -136459 1
0 0 0 610 757825 -135849 1
0 0 0 606 758431 -135243 1
0 0 0 607 759038 -134636 1
0 0 0 604 759642 -134032 1
0 0 0 604 760246 -133428 1
0 0 0 601 760847 -132827 1
0 0 0 595 761442 -132232 1
0 0 0 585 762027 -131647 1
0 0 0 577 762604 -131070 1
0 0 0 570 763174 -130500 1
0 0 0 561 763735 -129939 1
0 0 0 558 764293 -129381 1
0 0 0 558 764851 -128823 1
0 0 0 558 765409 -128265 1
0 0 0 572 765981 -127693 1
0 0 0 660 766641 -127033 0
0 0 0 945 767586 -126088 1
0 0 0 901 768487 -125187 1
0 0 0 874 769361 -124313 1
0 0 0 799 770160 -123514 0
0 0 0 725 770885 -122789 0
0 0 0 716 771601 -122073 0
0 0 0 678 772279 -121395 0
0 0 0 654 772933 -120741 0
0 0 0 635 773568 -120106 0
0 0 0 634 774202 -119472 0
0 0 0 650 774852 -118822 0
0 0 0 681 775533 -118141 0
0 0 0 703 776236 -117438 0
0 0 0 702 776938 -116736 0
0 0 0 688 777626 -116048 0
0 0 0 672 778298 -115376 0
0 0 0 660 778958 -114716 0
0 0 0 648 779606 -114068 0
0 0 0 642 780248 -113426 0
0 0 0 638 780886 -112788 0
0 0 0 637 781523 -112151 0
0 0 0 647 782170 -111504 0
0 0 0 674 782844 -110830 0
0 0 0 722 783566 -110108 0
0 0 0 879 784445 -109229 1
0 0 0 893 785338 -108336 1
0 0 0 865 786203 -107471 1
0 0 0 849 787052 -106622 0
0 0 0 818 787870 -105804 0
0 0 0 790 788660 -105014 0
0 0 0 776 789436 -104238 0
0 0 0 763 790199 -103475 0
0 0 0 771 790970 -102704 0
0 0 0 785 791755 -101919 0
0 0 0 830 792585 -101089 0
0 0 0 848 793433 -100241 0
0 0 0 803 794236 -99438 0
0 0 0 778 795014 -98660 0
0 0 0 775 795789 -97885 0
0 0 0 804 796593 -97081 0
0 0 0 834 797427 -96247 0
0 0 0 834 798261 -95413 0
0 0 0 791 799052 -94622 0
0 0 0 787 799839 -93835 0
0 0 0 777 800616 -93058 0
0 0 0 810 801426 -92248 0
0 0 0 879 802305 -91369 1
0 0 0 867 803172 -90502 1
0 0 0 802 803974 -89700 0
0 0 0 785 804759 -88915 0
0 0 0 760 805519 -88155 0
0 0 0 701 806220 -87454 0
0 0 0 697 806917 -86757 0
0 0 0 690 807607 -86067 0
0 0 0 703 808310 -85364 0
0 0 0 780 809090 -84584 0
0 0 0 854 809944 -83730 0
0 0 0 793 810737 -82937 0
0 0 0 752 811489 -82185 0
0 0 0 706 812195 -81479 0
0 0 0 694 812889 -80785 0
0 0 0 671 813560 -80114 0
0 0 0 650 814210 -79464 0
0 0 0 643 814853 -78821 0
0 0 0 635 815488 -78186 0
0 0 0 632 816120 -77554 0
0 0 0 661 816781 -76893 0
0 0 0 717 817498 -76176 0
0 0 0 798 818296 -75378 0
0 0 0 816 819112 -74562 0
0 0 0 787 819899 -73775 0
0 0 0 775 820674 -73000 0
0 0 0 749 821423 -72251 0
0 0 0 737 822160 -71514 0
0 0 0 716 822876 -70798 0
0 0 0 687 823563 -70111 0
0 0 0 672 824235 -69439 0
0 0 0 667 824902 -68772 0
0 0 0 665 825567 -68107 0
0 0 0 673 826240 -67434 0
0 0 0 707 826947 -66727 0
0 0 0 718 827665 -66009 0
0 0 0 757 828422 -65252 0
0 0 0 780 829202 -64472 0
0 0 0 802 830004 -63670 0
0 0 0 813 830817 -62857 0
0 0 0 785 831602 -62072 0
0 0 0 770 832372 -61302 0
0 0 0 764 833136 -60538 0
0 0 0 765 833901 -59773 0
0 0 0 767 834668 -59006 0
0 0 0 755 835423 -58251 0
0 0 0 737 836160 -57514 0
0 0 0 724 836884 -56790 0
0 0 0 708 837592 -56082 0
0 0 0 683 838275 -55399 0
0 0 0 679 838954 -54720 0
0 0 0 680 839634 -54040 0
0 0 0 705 840339 -53335 0
0 0 0 791 841130 -52544 0
0 0 0 856 841986 -51688 0
0 0 0 871 842857 -50817 1
0 0 0 832 843689 -49985 0
0 0 0 817 844506 -49168 0
0 0 0 794 845300 -48374 0
0 0 0 774 846074 -47600 0
0 0 0 772 846846 -46828 0
0 0 0 761 847607 -46067 0
0 0 0 763 848370 -45304 0
0 0 0 755 849125 -44549 0
0 0 0 745 849870 -43804 0
0 0 0 737 850607 -43067 0
0 0 0 723 851330 -42344 0
0 0 0 729 852059 -41615 0
0 0 0 721 852780 -40894 0
0 0 0 719 853499 -40175 0
0 0 0 712 854211 -39463 0
0 0 0 704 854915 -38759 0
0 0 0 697 855612 -38062 0
0 0 0 681 856293 -37381 0
0 0 0 700 856993 -36681 0
0 0 0 731 857724 -35950 0
0 0 0 830 858554 -35120 0
0 0 0 908 859462 -34212 1
0 0 0 886 860348 -33326 1
0 0 0 817 861165 -32509 0
0 0 0 770 861935 -31739 0
0 0 0 717 862652 -31022 0
0 0 0 685 863337 -30337 0
0 0 0 674 864011 -29663 0
0 0 0 646 864657 -29017 0
0 0 0 637 865294 -28380 0
0 0 0 628 865922 -27752 0
0 0 0 620 866542 -27132 0
0 0 0 627 867169 -26505 0
0 0 0 676 867845 -25829 0
0 0 0 778 868623 -25051 0
0 0 0 766 869389 -24285 0
0 0 0 774 870163 -23511 0
0 0 0 800 870963 -22711 0
0 0 0 849 871812 -21862 0
0 0 0 871 872683 -20991 1
0 0 0 839 873522 -20152 0
0 0 0 790 874312 -19362 0
0 0 0 767 875079 -18595 0
0 0 0 750 875829 -17845 0
0 0 0 735 876564 -17110 0
0 0 0 724 877288 -16386 0
0 0 0 729 878017 -15657 0
0 0 0 749 878766 -14908 0
0 0 0 825 879591 -14083 0
0 0 0 889 880480 -13194 1
0 0 0 884 881364 -12310 1
0 0 0 875 882239 -11435 1
0 0 0 829 883068 -10606 0
0 0 0 779 883847 -9827 0
0 0 0 698 884545 -9129 0
0 0 0 674 885219 -8455 0
0 0 0 665 885884 -7790 0
0 0 0 665 886549 -7125 0
0 0 0 700 887249 -6425 0
0 0 0 837 888086 -5588 0
0 0 0 899 888985 -4689 1
0 0 0 883 889868 -3806 1
0 0 0 772 890640 -3034 0
0 0 0 725 891365 -2309 0
41 1 S102 696 892061 -1613 0
41 1 S102 685 892746 -928 0
41 1 S102 680 893426 -248 0
41 2 S102 657 894083 409 0
41 2 S102 653 894736 1062 0
41 2 S102 651 895387 1713 0
41 2 S102 651 896038 2364 0
41 2 S102 672 896710 3036 0
41 2 S102 713 897423 3749 0
41 2 S102 717 898140 4466 0
41 2 S102 732 898872 5198 0
41 2 S102 751 899623 5949 0
41 2 S102 785 900408 6734 0
0 0 0 797 901205 -8169 0
0 0 0 762 901967 -7407 0
0 0 0 754 902721 -6653 0
0 0 0 739 903460 -5914 0
0 0 0 741 904201 -5173 0
0 0 0 717 904918 -4456 0
0 0 0 704 905622 -3752 0
0 0 0 692 906314 -3060 0
0 0 0 692 907006 -2368 0
42 1 S112 679 907685 -1689 0
42 1 S112 673 908358 -1016 0
42 1 S112 688 909046 -328 0
42 2 S112 667 909713 339 0
42 2 S112 664 910377 1003 0
42 2 S112 668 911045 1671 0
42 2 S112 691 911736 2362 0
42 2 S112 739 912475 3101 0
42 2 S112 777 913252 3878 0
42 2 S112 789 914041 4667 0
42 2 S112 767 914808 5434 0
42 2 S112 754 915562 6188 0
42 2 S112 734 916296 6922 0
0 0 0 726 917022 -10837 0
0 0 0 716 917738 -10121 0
0 0 0 708 918446 -9413 0
0 0 0 724 919170 -8689 0
0 0 0 741 919911 -7948 0
0 0 0 794 920705 -7154 0
0 0 0 783 921488 -6371 0
0 0 0 787 922275 -5584 0
0 0 0 795 923070 -4789 0
0 0 0 794 923864 -3995 0
0 0 0 771 924635 -3224 0
0 0 0 747 925382 -2477 0
43 1 S116 733 926115 -1744 0
43 1 S116 735 926850 -1009 0
43 1 S116 739 927589 -270 0
43 2 S116 735 928324 465 0
43 2 S116 773 929097 1238 0
43 2 S116 818 929915 2056 0
43 2 S116 864 930779 2920 1
43 2 S116 826 931605 3746 0
43 2 S116 824 932429 4570 0
43 2 S116 795 933224 5365 0
43 2 S116 790 934014 6155 0
43 2 S116 778 934792 6933 0
0 0 0 754 935546 -7996 0
0 0 0 769 936315 -7227 0
0 0 0 786 937101 -6441 0
0 0 0 797 937898 -5644 0
0 0 0 784 938682 -4860 0
0 0 0 783 939465 -4077 0
0 0 0 768 940233 -3309 0
0 0 0 734 940967 -2575 0
44 1 S102 701 941668 -1874 0
44 1 S102 689 942357 -1185 0
44 1 S102 683 943040 -502 0
44 2 S102 695 943735 193 0
44 2 S102 721 944456 914 0
44 2 S102 717 945173 1631 0
44 2 S102 723 945896 2354 0
44 2 S102 732 946628 3086 0
44 2 S102 768 947396 3854 0
44 2 S102 839 948235 4693 0
44 2 S102 842 949077 5535 0
44 2 S102 819 949896 6354 0
0 0 0 810 950706 -10161 0
0 0 0 801 951507 -9360 0
0 0 0 789 952296 -8571 0
0 0 0 746 953042 -7825 0
0 0 0 747 953789 -7078 0
0 0 0 736 954525 -6342 0
0 0 0 761 955286 -5581 0
0 0 0 777 956063 -4804 0
0 0 0 782 956845 -4022 0
0 0 0 790 957635 -3232 0
0 0 0 796 958431 -2436 0
45 1 S116 757 959188 -1679 0
45 1 S116 743 959931 -936 0
45 1 S116 735 960666 -201 0
45 2 S116 739 961405 538 0
45 2 S116 745 962150 1283 0
45 2 S116 742 962892 2025 0
45 2 S116 764 963656 2789 0
45 2 S116 775 964431 3564 0
45 2 S116 804 965235 4368 0
45 2 S116 787 966022 5155 0
45 2 S116 769 966791 5924 0
45 2 S116 747 967538 6671 0
0 0 0 754 968292 -12369 0
0 0 0 736 969028 -11633 0
0 0 0 728 969756 -10905 0
0 0 0 727 970483 -10178 0
0 0 0 739 971222 -9439 0
0 0 0 746 971968 -8693 0
0 0 0 746 972714 -7947 0
0 0 0 761 973475 -7186 0
0 0 0 758 974233 -6428 0
0 0 0 775 975008 -5653 0
0 0 0 762 975770 -4891 0
0 0 0 776 976546 -4115 0
0 0 0 775 977321 -3340 0
0 0 0 769 978090 -2571 0
46 1 S102 753 978843 -1818 0
46 1 S102 761 979604 -1057 0
46 1 S102 775 980379 -282 0
46 2 S102 800 981179 518 0
46 2 S102 798 981977 1316 0
46 2 S102 798 982775 2114 0
46 2 S102 795 983570 2909 0
46 2 S102 796 984366 3705 0
46 2 S102 779 985145 4484 0
46 2 S102 751 985896 5235 0
46 2 S102 753 986649 5988 0
46 2 S102 758 987407 6746 0
0 0 0 782 988189 -11073 0
0 0 0 774 988963 -10299 0
0 0 0 769 989732 -9530 0
0 0 0 770 990502 -8760 0
0 0 0 768 991270 -7992 0
0 0 0 756 992026 -7236 0
0 0 0 750 992776 -6486 0
0 0 0 730 993506 -5756 0
0 0 0 721 994227 -5035 0
0 0 0 701 994928 -4334 0
0 0 0 719 995647 -3615 0
0 0 0 731 996378 -2884 0
0 0 0 753 997131 -2131 0
47 1 S112 761 997892 -1370 0
47 1 S112 737 998629 -633 0
47 2 S112 711 999340 78 0
47 2 S112 717 1000057 795 0
47 2 S112 754 1000811 1549 0
47 2 S112 871 1001682 2420 1
47 2 S112 930 1002612 3350 1
47 2 S112 860 1003472 4210 1
47 2 S112 844 1004316 5054 0
47 2 S112 808 1005124 5862 0
47 2 S112 792 1005916 6654 0
0 0 0 752 1006668 -12090 0
0 0 0 738 1007406 -11352 0
0 0 0 723 1008129 -10629 0
0 0 0 722 1008851 -9907 0
0 0 0 718 1009569 -9189 0
0 0 0 712 1010281 -8477 0
0 0 0 705 1010986 -7772 0
0 0 0 706 1011692 -7066 0
0 0 0 722 1012414 -6344 0
0 0 0 712 1013126 -5632 0
0 0 0 727 1013853 -4905 0
0 0 0 740 1014593 -4165 0
0 0 0 769 1015362 -3396 0
0 0 0 754 1016116 -2642 0
48 1 S116 735 1016851 -1907 0
48 1 S116 724 1017575 -1183 0
48 1 S116 704 1018279 -479 0
48 2 S116 698 1018977 219 0
48 2 S116 680 1019657 899 0
48 2 S116 676 1020333 1575 0
48 2 S116 667 1021000 2242 0
48 2 S116 661 1021661 2903 0
48 2 S116 670 1022331 3573 0
48 2 S116 691 1023022 4264 0
48 2 S116 711 1023733 4975 0
48 2 S116 745 1024478 5720 0
48 2 S116 792 1025270 6512 0
0 0 0 849 1026119 -8173 0
0 0 0 886 1027005 -7287 1
0 0 0 816 1027821 -6471 0
0 0 0 805 1028626 -5666 0
0 0 0 786 1029412 -4880 0
0 0 0 774 1030186 -4106 0
0 0 0 740 1030926 -3366 0
0 0 0 749 1031675 -2617 0
49 1 S112 756 1032431 -1861 0
49 1 S112 783 1033214 -1078 0
49 1 S112 783 1033997 -295 0
49 2 S112 746 1034743 451 0
49 2 S112 747 1035490 1198 0
49 2 S112 747 1036237 1945 0
49 2 S112 747 1036984 2692 0
49 2 S112 757 1037741 3449 0
49 2 S112 745 1038486 4194 0
49 2 S112 759 1039245 4953 0
49 2 S112 782 1040027 5735 0
49 2 S112 801 1040828 6536 0
0 0 0 786 1041614 -12523 0
0 0 0 792 1042406 -11731 0
0 0 0 782 1043188 -10949 0
0 0 0 776 1043964 -10173 0
0 0 0 765 1044729 -9408 0
0 0 0 766 1045495 -8642 0
0 0 0 757 1046252 -7885 0
0 0 0 768 1047020 -7117 0
0 0 0 758 1047778 -6359 0
0 0 0 769 1048547 -5590 0
0 0 0 794 1049341 -4796 0
0 0 0 810 1050151 -3986 0
0 0 0 792 1050943 -3194 0
0 0 0 760 1051703 -2434 0
50 1 S106 740 1052443 -1694 0
50 1 S106 720 1053163 -974 0
50 1 S106 713 1053876 -261 0
50 2 S106 703 1054579 442 0
50 2 S106 712 1055291 1154 0
50 2 S106 728 1056019 1882 0
50 2 S106 762 1056781 2644 0
50 2 S106 820 1057601 3464 0
50 2 S106 816 1058417 4280 0
50 2 S106 825 1059242 5105 0
50 2 S106 813 1060055 5918 0
50 2 S106 804 1060859 6722 0
0 0 0 766 1061625 -7217 0
0 0 0 744 1062369 -6473 0
0 0 0 736 1063105 -5737 0
0 0 0 761 1063866 -4976 0
0 0 0 733 1064599 -4243 0
0 0 0 727 1065326 -3516 0
0 0 0 706 1066032 -2810 0
0 0 0 695 1066727 -2115 0
51 1 S112 716 1067443 -1399 0
51 1 S112 717 1068160 -682 0
51 2 S112 710 1068870 28 0
51 2 S112 721 1069591 749 0
51 2 S112 733 1070324 1482 0
51 2 S112 741 1071065 2223 0
51 2 S112 723 1071788 2946 0
51 2 S112 713 1072501 3659 0
51 2 S112 717 1073218 4376 0
51 2 S112 727 1073945 5103 0
51 2 S112 773 1074718 5876 0
51 2 S112 798 1075516 6674 0
0 0 0 781 1076297 -8012 0
0 0 0 785 1077082 -7227 0
0 0 0 778 1077860 -6449 0
0 0 0 776 1078636 -5673 0
0 0 0 769 1079405 -4904 0
0 0 0 766 1080171 -4138 0
0 0 0 762 1080933 -3376 0
0 0 0 757 1081690 -2619 0
52 1 S116 744 1082434 -1875 0
52 1 S116 740 1083174 -1135 0
52 1 S116 743 1083917 -392 0
52 2 S116 750 1084667 358 0
52 2 S116 745 1085412 1103 0
52 2 S116 762 1086174 1865 0
52 2 S116 771 1086945 2636 0
52 2 S116 789 1087734 3425 0
52 2 S116 787 1088521 4212 0
52 2 S116 759 1089280 4971 0
52 2 S116 763 1090043 5734 0
52 2 S116 757 1090800 6491 0
0 0 0 779 1091579 -9325 0
0 0 0 774 1092353 -8551 0
0 0 0 792 1093145 -7759 0
0 0 0 784 1093929 -6975 0
0 0 0 783 1094712 -6192 0
0 0 0 765 1095477 -5427 0
0 0 0 751 1096228 -4676 0
0 0 0 760 1096988 -3916 0
0 0 0 785 1097773 -3131 0
0 0 0 809 1098582 -2322 0
53 1 S106 777 1099359 -1545 0
53 1 S106 789 1100148 -756 0
53 2 S106 792 1100940 36 0
53 2 S106 812 1101752 848 0
53 2 S106 799 1102551 1647 0
53 2 S106 778 1103329 2425 0
53 2 S106 775 1104104 3200 0
53 2 S106 782 1104886 3982 0
53 2 S106 800 1105686 4782 0
53 2 S106 779 1106465 5561 0
53 2 S106 789 1107254 6350 0
0 0 0 791 1108045 -7913 0
0 0 0 805 1108850 -7108 0
0 0 0 773 1109623 -6335 0
0 0 0 773 1110396 -5562 0
0 0 0 765 1111161 -4797 0
0 0 0 760 1111921 -4037 0
0 0 0 753 1112674 -3284 0
0 0 0 762 1113436 -2522 0
54 1 S102 789 1114225 -1733 0
54 1 S102 805 1115030 -928 0
54 1 S102 790 1115820 -138 0
54 2 S102 792 1116612 654 0
54 2 S102 800 1117412 1454 0
54 2 S102 787 1118199 2241 0
54 2 S102 745 1118944 2986 0
54 2 S102 736 1119680 3722 0
54 2 S102 728 1120408 4450 0
54 2 S102 723 1121131 5173 0
54 2 S102 721 1121852 5894 0
54 2 S102 716 1122568 6610 0
0 0 0 726 1123294 -11447 0
0 0 0 739 1124033 -10708 0
0 0 0 750 1124783 -9958 0
0 0 0 761 1125544 -9197 0
0 0 0 771 1126315 -8426 0
0 0 0 776 1127091 -7650 0
0 0 0 770 1127861 -6880 0
0 0 0 753 1128614 -6127 0
0 0 0 753 1129367 -5374 0
0 0 0 754 1130121 -4620 0
0 0 0 763 1130884 -3857 0
0 0 0 740 1131624 -3117 0
0 0 0 727 1132351 -2390 0
55 1 S106 736 1133087 -1654 0
55 1 S106 770 1133857 -884 0
55 1 S106 831 1134688 -53 0
55 2 S106 836 1135524 783 0
55 2 S106 829 1136353 1612 0
55 2 S106 837 1137190 2449 0
55 2 S106 837 1138027 3286 0
55 2 S106 810 1138837 4096 0
55 2 S106 760 1139597 4856 0
55 2 S106 745 1140342 5601 0
55 2 S106 746 1141088 6347 0
0 0 0 774 1141862 -8031 0
0 0 0 791 1142653 -7240 0
0 0 0 773 1143426 -6467 0
0 0 0 764 1144190 -5703 0
0 0 0 748 1144938 -4955 0
0 0 0 734 1145672 -4221 0
0 0 0 729 1146401 -3492 0
0 0 0 739 1147140 -2753 0
56 1 S116 755 1147895 -1998 0
56 1 S116 738 1148633 -1260 0
56 1 S116 723 1149356 -537 0
56 2 S116 698 1150054 161 0
56 2 S116 675 1150729 836 0
56 2 S116 680 1151409 1516 0
56 2 S116 696 1152105 2212 0
56 2 S116 690 1152795 2902 0
56 2 S116 690 1153485 3592 0
56 2 S116 693 1154178 4285 0
56 2 S116 705 1154883 4990 0
56 2 S116 747 1155630 5737 0
56 2 S116 771 1156401 6508 0
0 0 0 769 1157170 -8158 0
0 0 0 788 1157958 -7370 0
0 0 0 787 1158745 -6583 0
0 0 0 784 1159529 -5799 0
0 0 0 785 1160314 -5014 0
0 0 0 756 1161070 -4258 0
0 0 0 748 1161818 -3510 0
0 0 0 723 1162541 -2787 0
0 0 0 702 1163243 -2085 0
57 1 S106 704 1163947 -1381 0
57 1 S106 713 1164660 -668 0
57 2 S106 742 1165402 74 0
57 2 S106 752 1166154 826 0
57 2 S106 760 1166914 1586 0
57 2 S106 773 1167687 2359 0
57 2 S106 779 1168466 3138 0
57 2 S106 768 1169234 3906 0
57 2 S106 757 1169991 4663 0
57 2 S106 757 1170748 5420 0
57 2 S106 758 1171506 6178 0
57 2 S106 757 1172263 6935 0
0 0 0 732 1172995 -8696 0
0 0 0 742 1173737 -7954 0
0 0 0 747 1174484 -7207 0
0 0 0 772 1175256 -6435 0
0 0 0 771 1176027 -5664 0
0 0 0 768 1176795 -4896 0
0 0 0 757 1177552 -4139 0
0 0 0 744 1178296 -3395 0
0 0 0 736 1179032 -2659 0
58 1 S102 713 1179745 -1946 0
58 1 S102 705 1180450 -1241 0
58 1 S102 698 1181148 -543 0
58 2 S102 707 1181855 164 0
58 2 S102 705 1182560 869 0
58 2 S102 696 1183256 1565 0
58 2 S102 683 1183939 2248 0
58 2 S102 686 1184625 2934 0
58 2 S102 722 1185347 3656 0
58 2 S102 867 1186214 4523 1
58 2 S102 916 1187130 5439 1
58 2 S102 856 1187986 6295 0
0 0 0 797 1188783 -8243 0
0 0 0 785 1189568 -7458 0
0 0 0 756 1190324 -6702 0
0 0 0 737 1191061 -5965 0
0 0 0 695 1191756 -5270 0
0 0 0 681 1192437 -4589 0
0 0 0 668 1193105 -3921 0
0 0 0 662 1193767 -3259 0
0 0 0 661 1194428 -2598 0
59 1 S112 659 1195087 -1939 0
59 1 S112 673 1195760 -1266 0
59 1 S112 699 1196459 -567 0
59 2 S112 753 1197212 186 0
59 2 S112 832 1198044 1018 0
59 2 S112 831 1198875 1849 0
59 2 S112 832 1199707 2681 0
59 2 S112 819 1200526 3500 0
59 2 S112 815 1201341 4315 0
59 2 S112 780 1202121 5095 0
59 2 S112 758 1202879 5853 0
59 2 S112 744 1203623 6597 0
0 0 0 732 1204355 -11255 0
0 0 0 741 1205096 -10514 0
0 0 0 744 1205840 -9770 0
0 0 0 763 1206603 -9007 0
0 0 0 751 1207354 -8256 0
0 0 0 751 1208105 -7505 0
0 0 0 742 1208847 -6763 0
0 0 0 741 1209588 -6022 0
0 0 0 747 1210335 -5275 0
0 0 0 738 1211073 -4537 0
0 0 0 746 1211819 -3791 0
0 0 0 748 1212567 -3043 0
0 0 0 753 1213320 -2290 0
60 1 S102 762 1214082 -1528 0
60 1 S102 750 1214832 -778 0
60 1 S102 747 1215579 -31 0
60 2 S102 737 1216316 706 0
60 2 S102 746 1217062 1452 0
60 2 S102 732 1217794 2184 0
60 2 S102 728 1218522 2912 0
60 2 S102 718 1219240 3630 0
60 2 S102 726 1219966 4356 0
60 2 S102 746 1220712 5102 0
60 2 S102 753 1221465 5855 0
60 2 S102 757 1222222 6612 0
0 0 0 768 1222990 -10890 0
0 0 0 785 1223775 -10105 0
0 0 0 780 1224555 -9325 0
0 0 0 755 1225310 -8570 0
0 0 0 750 1226060 -7820 0
0 0 0 746 1226806 -7074 0
0 0 0 759 1227565 -6315 0
0 0 0 736 1228301 -5579 0
0 0 0 732 1229033 -4847 0
0 0 0 725 1229758 -4122 0
0 0 0 713 1230471 -3409 0
0 0 0 694 1231165 -2715 0
0 0 0 687 1231852 -2028 0
61 1 S106 675 1232527 -1353 0
61 1 S106 660 1233187 -693 0
61 1 S106 670 1233857 -23 0
61 2 S106 686 1234543 663 0
61 2 S106 685 1235228 1348 0
61 2 S106 696 1235924 2044 0
61 2 S106 704 1236628 2748 0
61 2 S106 711 1237339 3459 0
61 2 S106 725 1238064 4184 0
61 2 S106 735 1238799 4919 0
61 2 S106 741 1239540 5660 0
61 2 S106 736 1240276 6396 0
0 0 0 750 1241026 -7625 0
0 0 0 770 1241796 -6855 0
0 0 0 749 1242545 -6106 0
0 0 0 762 1243307 -5344 0
0 0 0 759 1244066 -4585 0
0 0 0 754 1244820 -3831 0
0 0 0 727 1245547 -3104 0
0 0 0 749 1246296 -2355 0
62 1 S112 766 1247062 -1589 0
62 1 S112 791 1247853 -798 0
62 1 S112 786 1248639 -12 0
62 2 S112 783 1249422 771 0
62 2 S112 778 1250200 1549 0
62 2 S112 771 1250971 2320 0
62 2 S112 754 1251725 3074 0
62 2 S112 732 1252457 3806 0
62 2 S112 731 1253188 4537 0
62 2 S112 733 1253921 5270 0
62 2 S112 748 1254669 6018 0
62 2 S112 762 1255431 6780 0
0 0 0 777 1256208 -11906 0
0 0 0 782 1256990 -11124 0
0 0 0 794 1257784 -10330 0
0 0 0 800 1258584 -9530 0
0 0 0 783 1259367 -8747 0
0 0 0 766 1260133 -7981 0
0 0 0 768 1260901 -7213 0
0 0 0 780 1261681 -6433 0
0 0 0 760 1262441 -5673 0
0 0 0 775 1263216 -4898 0
0 0 0 788 1264004 -4110 0
0 0 0 804 1264808 -3306 0
0 0 0 767 1265575 -2539 0
63 1 S102 754 1266329 -1785 0
63 1 S102 742 1267071 -1043 0
63 1 S102 750 1267821 -293 0
63 2 S102 736 1268557 443 0
63 2 S102 734 1269291 1177 0
63 2 S102 738 1270029 1915 0
63 2 S102 763 1270792 2678 0
63 2 S102 793 1271585 3471 0
63 2 S102 797 1272382 4268 0
63 2 S102 805 1273187 5073 0
63 2 S102 798 1273985 5871 0
63 2 S102 804 1274789 6675 0
0 0 0 790 1275579 -10108 0
0 0 0 777 1276356 -9331 0
0 0 0 762 1277118 -8569 0
0 0 0 764 1277882 -7805 0
0 0 0 744 1278626 -7061 0
0 0 0 741 1279367 -6320 0
0 0 0 734 1280101 -5586 0
0 0 0 745 1280846 -4841 0
0 0 0 734 1281580 -4107 0
0 0 0 744 1282324 -3363 0
0 0 0 755 1283079 -2608 0
64 1 S112 782 1283861 -1826 0
64 1 S112 778 1284639 -1048 0
64 1 S112 776 1285415 -272 0
64 2 S112 776 1286191 504 0
64 2 S112 772 1286963 1276 0
64 2 S112 772 1287735 2048 0
64 2 S112 762 1288497 2810 0
64 2 S112 766 1289263 3576 0
64 2 S112 767 1290030 4343 0
64 2 S112 770 1290800 5113 0
64 2 S112 781 1291581 5894 0
64 2 S112 782 1292363 6676 0
0 0 0 803 1293166 -9133 0
0 0 0 864 1294030 -8269 1
0 0 0 887 1294917 -7382 1
0 0 0 843 1295760 -6539 0
0 0 0 820 1296580 -5719 0
0 0 0 792 1297372 -4927 0
0 0 0 746 1298118 -4181 0
0 0 0 727 1298845 -3454 0
0 0 0 710 1299555 -2744 0
0 0 0 710 1300265 -2034 0
65 1 S106 707 1300972 -1327 0
65 1 S106 715 1301687 -612 0
65 2 S106 723 1302410 111 0
65 2 S106 751 1303161 862 0
65 2 S106 773 1303934 1635 0
65 2 S106 762 1304696 2397 0
65 2 S106 782 1305478 3179 0
65 2 S106 786 1306264 3965 0
65 2 S106 796 1307060 4761 0
65 2 S106 785 1307845 5546 0
65 2 S106 765 1308610 6311 0
0 0 0 758 1309368 -9526 0
0 0 0 752 1310120 -8774 0
0 0 0 769 1310889 -8005 0
0 0 0 759 1311648 -7246 0
0 0 0 763 1312411 -6483 0
0 0 0 760 1313171 -5723 0
0 0 0 748 1313919 -4975 0
0 0 0 730 1314649 -4245 0
0 0 0 733 1315382 -3512 0
0 0 0 757 1316139 -2755 0
66 1 S116 781 1316920 -1974 0
66 1 S116 778 1317698 -1196 0
66 1 S116 791 1318489 -405 0
66 2 S116 794 1319283 389 0
66 2 S116 779 1320062 1168 0
66 2 S116 755 1320817 1923 0
66 2 S116 738 1321555 2661 0
66 2 S116 712 1322267 3373 0
66 2 S116 705 1322972 4078 0
66 2 S116 693 1323665 4771 0
66 2 S116 690 1324355 5461 0
66 2 S116 691 1325046 6152 0
66 2 S116 704 1325750 6856 0
0 0 0 732 1326482 -11261 0
0 0 0 759 1327241 -10502 0
0 0 0 752 1327993 -9750 0
0 0 0 755 1328748 -8995 0
0 0 0 755 1329503 -8240 0
0 0 0 748 1330251 -7492 0
0 0 0 726 1330977 -6766 0
0 0 0 722 1331699 -6044 0
0 0 0 730 1332429 -5314 0
0 0 0 734 1333163 -4580 0
0 0 0 713 1333876 -3867 0
0 0 0 709 1334585 -3158 0
0 0 0 707 1335292 -2451 0
67 1 S102 715 1336007 -1736 0
67 1 S102 724 1336731 -1012 0
67 1 S102 711 1337442 -301 0
67 2 S102 716 1338158 415 0
67 2 S102 725 1338883 1140 0
67 2 S102 753 1339636 1893 0
67 2 S102 754 1340390 2647 0
67 2 S102 720 1341110 3367 0
67 2 S102 682 1341792 4049 0
67 2 S102 688 1342480 4737 0
67 2 S102 692 1343172 5429 0
67 2 S102 695 1343867 6124 0
67 2 S102 742 1344609 6866 0
0 0 0 864 1345473 -6809 1
0 0 0 927 1346400 -5882 1
0 0 0 940 1347340 -4942 1
0 0 0 844 1348184 -4098 0
0 0 0 785 1348969 -3313 0
0 0 0 745 1349714 -2568 0
68 1 S106 721 1350435 -1847 0
68 1 S106 696 1351131 -1151 0
68 1 S106 672 1351803 -479 0
68 2 S106 662 1352465 183 0
68 2 S106 657 1353122 840 0
68 2 S106 663 1353785 1503 0
68 2 S106 694 1354479 2197 0
68 2 S106 728 1355207 2925 0
68 2 S106 750 1355957 3675 0
68 2 S106 762 1356719 4437 0
68 2 S106 780 1357499 5217 0
68 2 S106 782 1358281 5999 0
68 2 S106 777 1359058 6776 0
0 0 0 755 1359813 -12181 0
0 0 0 742 1360555 -11439 0
0 0 0 722 1361277 -10717 0
0 0 0 722 1361999 -9995 0
0 0 0 721 1362720 -9274 0
0 0 0 725 1363445 -8549 0
0 0 0 729 1364174 -7820 0
0 0 0 752 1364926 -7068 0
0 0 0 761 1365687 -6307 0
0 0 0 753 1366440 -5554 0
0 0 0 740 1367180 -4814 0
0 0 0 742 1367922 -4072 0
0 0 0 741 1368663 -3331 0
0 0 0 760 1369423 -2571 0
69 1 S102 751 1370174 -1820 0
69 1 S102 745 1370919 -1075 0
69 1 S102 735 1371654 -340 0
69 2 S102 727 1372381 387 0
69 2 S102 721 1373102 1108 0
69 2 S102 721 1373823 1829 0
69 2 S102 724 1374547 2553 0
69 2 S102 730 1375277 3283 0
69 2 S102 739 1376016 4022 0
69 2 S102 726 1376742 4748 0
69 2 S102 737 1377479 5485 0
69 2 S102 741 1378220 6226 0
69 2 S102 760 1378980 6986 0
0 0 0 759 1379739 -8701 0
0 0 0 729 1380468 -7972 0
0 0 0 715 1381183 -7257 0
0 0 0 708 1381891 -6549 0
0 0 0 698 1382589 -5851 0
0 0 0 693 1383282 -5158 0
0 0 0 703 1383985 -4455 0
0 0 0 719 1384704 -3736 0
0 0 0 764 1385468 -2972 0
0 0 0 768 1386236 -2204 0
70 1 S112 779 1387015 -1425 0
70 1 S112 785 1387800 -640 0
70 2 S112 787 1388587 147 0
70 2 S112 742 1389329 889 0
70 2 S112 724 1390053 1613 0
70 2 S112 700 1390753 2313 0
70 2 S112 693 1391446 3006 0
70 2 S112 699 1392145 3705 0
70 2 S112 698 1392843 4403 0
70 2 S112 716 1393559 5119 0
70 2 S112 726 1394285 5845 0
70 2 S112 760 1395045 6605 0
0 0 0 774 1395819 -12299 0
0 0 0 767 1396586 -11532 0
0 0 0 763 1397349 -10769 0
0 0 0 739 1398088 -10030 0
0 0 0 726 1398814 -9304 0
0 0 0 711 1399525 -8593 0
0 0 0 701 1400226 -7892 0
0 0 0 695 1400921 -7197 0
0 0 0 683 1401604 -6514 0
0 0 0 665 1402269 -5849 0
0 0 0 653 1402922 -5196 0
0 0 0 647 1403569 -4549 0
0 0 0 653 1404222 -3896 0
0 0 0 665 1404887 -3231 0
0 0 0 699 1405586 -2532 0
71 1 S116 791 1406377 -1741 0
71 1 S116 884 1407261 -857 1
71 2 S116 862 1408123 5 1
71 2 S116 803 1408926 808 0
71 2 S116 762 1409688 1570 0
71 2 S116 728 1410416 2298 0
71 2 S116 700 1411116 2998 0
71 2 S116 679 1411795 3677 0
71 2 S116 661 1412456 4338 0
71 2 S116 649 1413105 4987 0
71 2 S116 640 1413745 5627 0
71 2 S116 635 1414380 6262 0
71 2 S116 639 1415019 6901 0
0 0 0 643 1415662 -8720 0
0 0 0 656 1416318 -8064 0
0 0 0 667 1416985 -7397 0
0 0 0 696 1417681 -6701 0
0 0 0 744 1418425 -5957 0
0 0 0 764 1419189 -5193 0
0 0 0 783 1419972 -4410 0
0 0 0 806 1420778 -3604 0
0 0 0 811 1421589 -2793 0
0 0 0 790 1422379 -2003 0
72 1 S102 762 1423141 -1241 0
72 1 S102 752 1423893 -489 0
72 2 S102 740 1424633 251 0
72 2 S102 741 1425374 992 0
72 2 S102 724 1426098 1716 0
72 2 S102 703 1426801 2419 0
72 2 S102 694 1427495 3113 0
72 2 S102 706 1428201 3819 0
72 2 S102 737 1428938 4556 0
72 2 S102 774 1429712 5330 0
72 2 S102 825 1430537 6155 0
72 2 S102 840 1431377 6995 0
0 0 0 837 1432214 -7718 0
0 0 0 792 1433006 -6926 0
0 0 0 780 1433786 -6146 0
0 0 0 760 1434546 -5386 0
0 0 0 746 1435292 -4640 0
0 0 0 721 1436013 -3919 0
0 0 0 728 1436741 -3191 0
0 0 0 733 1437474 -2458 0
73 1 S116 765 1438239 -1693 0
73 1 S116 761 1439000 -932 0
73 1 S116 756 1439756 -176 0
73 2 S116 757 1440513 581 0
73 2 S116 786 1441299 1367 0
73 2 S116 779 1442078 2146 0
73 2 S116 752 1442830 2898 0
73 2 S116 751 1443581 3649 0
73 2 S116 738 1444319 4387 0
73 2 S116 738 1445057 5125 0
73 2 S116 719 1445776 5844 0
73 2 S116 720 1446496 6564 0
0 0 0 727 1447223 -9205 0
0 0 0 749 1447972 -8456 0
0 0 0 751 1448723 -7705 0
0 0 0 755 1449478 -6950 0
0 0 0 747 1450225 -6203 0
0 0 0 762 1450987 -5441 0
0 0 0 755 1451742 -4686 0
0 0 0 750 1452492 -3936 0
0 0 0 747 1453239 -3189 0
0 0 0 739 1453978 -2450 0
74 1 S106 741 1454719 -1709 0
74 1 S106 725 1455444 -984 0
74 1 S106 726 1456170 -258 0
74 2 S106 724 1456894 466 0
74 2 S106 743 1457637 1209 0
74 2 S106 760 1458397 1969 0
74 2 S106 741 1459138 2710 0
74 2 S106 763 1459901 3473 0
74 2 S106 765 1460666 4238 0
74 2 S106 775 1461441 5013 0
74 2 S106 756 1462197 5769 0
74 2 S106 748 1462945 6517 0
0 0 0 747 1463692 -8054 0
0 0 0 756 1464448 -7298 0
0 0 0 755 1465203 -6543 0
0 0 0 749 1465952 -5794 0
0 0 0 765 1466717 -5029 0
0 0 0 755 1467472 -4274 0
0 0 0 753 1468225 -3521 0
0 0 0 729 1468954 -2792 0
0 0 0 728 1469682 -2064 0
75 1 S112 738 1470420 -1326 0
75 1 S112 754 1471174 -572 0
75 2 S112 739 1471913 167 0
75 2 S112 735 1472648 902 0
75 2 S112 738 1473386 1640 0
75 2 S112 757 1474143 2397 0
75 2 S112 778 1474921 3175 0
75 2 S112 795 1475716 3970 0
75 2 S112 793 1476509 4763 0
75 2 S112 795 1477304 5558 0
75 2 S112 808 1478112 6366 0
0 0 0 765 1478877 -7740 0
0 0 0 741 1479618 -6999 0
0 0 0 728 1480346 -6271 0
0 0 0 719 1481065 -5552 0
0 0 0 714 1481779 -4838 0
0 0 0 694 1482473 -4144 0
0 0 0 709 1483182 -3435 0
0 0 0 734 1483916 -2701 0
76 1 S116 779 1484695 -1922 0
76 1 S116 796 1485491 -1126 0
76 1 S116 795 1486286 -331 0
76 2 S116 797 1487083 466 0
76 2 S116 809 1487892 1275 0
76 2 S116 785 1488677 2060 0
76 2 S116 755 1489432 2815 0
76 2 S116 735 1490167 3550 0
76 2 S116 726 1490893 4276 0
76 2 S116 716 1491609 4992 0
76 2 S116 703 1492312 5695 0
76 2 S116 701 1493013 6396 0
0 0 0 701 1493714 -8155 0
0 0 0 720 1494434 -7435 0
0 0 0 727 1495161 -6708 0
0 0 0 735 1495896 -5973 0
0 0 0 752 1496648 -5221 0
0 0 0 767 1497415 -4454 0
0 0 0 750 1498165 -3704 0
0 0 0 729 1498894 -2975 0
0 0 0 729 1499623 -2246 0
77 1 S106 735 1500358 -1511 0
77 1 S106 755 1501113 -756 0
77 1 S106 734 1501847 -22 0
77 2 S106 697 1502544 675 0
77 2 S106 697 1503241 1372 0
77 2 S106 701 1503942 2073 0
77 2 S106 740 1504682 2813 0
77 2 S106 819 1505501 3632 0
77 2 S106 831 1506332 4463 0
77 2 S106 814 1507146 5277 0
77 2 S106 814 1507960 6091 0
77 2 S106 797 1508757 6888 0
0 0 0 767 1509524 -10300 0
0 0 0 756 1510280 -9544 0
0 0 0 732 1511012 -8812 0
0 0 0 719 1511731 -8093 0
0 0 0 711 1512442 -7382 0
0 0 0 712 1513154 -6670 0
0 0 0 725 1513879 -5945 0
0 0 0 738 1514617 -5207 0
0 0 0 758 1515375 -4449 0
0 0 0 769 1516144 -3680 0
0 0 0 775 1516919 -2905 0
0 0 0 760 1517679 -2145 0
78 1 S112 736 1518415 -1409 0
78 1 S112 727 1519142 -682 0
78 2 S112 717 1519859 35 0
78 2 S112 719 1520578 754 0
78 2 S112 734 1521312 1488 0
78 2 S112 730 1522042 2218 0
78 2 S112 742 1522784 2960 0
78 2 S112 751 1523535 3711 0
78 2 S112 763 1524298 4474 0
78 2 S112 762 1525060 5236 0
78 2 S112 763 1525823 5999 0
78 2 S112 766 1526589 6765 0
0 0 0 783 1527372 -12047 0
0 0 0 799 1528171 -11248 0
0 0 0 775 1528946 -10473 0
0 0 0 770 1529716 -9703 0
0 0 0 767 1530483 -8936 0
0 0 0 754 1531237 -8182 0
0 0 0 739 1531976 -7443 0
0 0 0 740 1532716 -6703 0
0 0 0 733 1533449 -5970 0
0 0 0 730 1534179 -5240 0
0 0 0 717 1534896 -4523 0
0 0 0 718 1535614 -3805 0
0 0 0 721 1536335 -3084 0
0 0 0 749 1537084 -2335 0
79 1 S102 787 1537871 -1548 0
79 1 S102 789 1538660 -759 0
79 1 S102 755 1539415 -4 0
79 2 S102 724 1540139 720 0
79 2 S102 705 1540844 1425 0
79 2 S102 688 1541532 2113 0
79 2 S102 683 1542215 2796 0
79 2 S102 671 1542886 3467 0
79 2 S102 662 1543548 4129 0
79 2 S102 666 1544214 4795 0
79 2 S102 676 1544890 5471 0
79 2 S102 701 1545591 6172 0
79 2 S102 740 1546331 6912 0
0 0 0 760 1547091 -10548 0
0 0 0 781 1547872 -9767 0
0 0 0 799 1548671 -8968 0
0 0 0 786 1549457 -8182 0
0 0 0 778 1550235 -7404 0
0 0 0 762 1550997 -6642 0
0 0 0 746 1551743 -5896 0
0 0 0 727 1552470 -5169 0
0 0 0 721 1553191 -4448 0
0 0 0 723 1553914 -3725 0
0 0 0 730 1554644 -2995 0
0 0 0 740 1555384 -2255 0
80 1 S116 736 1556120 -1519 0
80 1 S116 727 1556847 -792 0
80 1 S116 713 1557560 -79 0
80 2 S116 692 1558252 613 0
80 2 S116 690 1558942 1303 0
80 2 S116 704 1559646 2007 0
80 2 S116 715 1560361 2722 0
80 2 S116 733 1561094 3455 0
80 2 S116 746 1561840 4201 0
80 2 S116 762 1562602 4963 0
80 2 S116 726 1563328 5689 0
80 2 S116 712 1564040 6401 0
