T_0167
BeatCount Mean SD BeatCountNoOutliers MeanNoOutliers SDNoOutliers
1690 918,394674556213 85,8885634057429 1666 915,894957983193 79,4112826108884

Trial TrialStatus Trialtype IBI AbsPosition RelPosition Outlier
0 0 0 996 1883 -14040 0
0 0 0 1008 2891 -13032 0
0 0 0 1039 3930 -11993 0
0 0 0 980 4910 -11013 0
0 0 0 918 5828 -10095 0
0 0 0 936 6764 -9159 0
0 0 0 972 7736 -8187 0
0 0 0 963 8699 -7224 0
0 0 0 946 9645 -6278 0
0 0 0 903 10548 -5375 0
0 0 0 882 11430 -4493 0
0 0 0 925 12355 -3568 0
0 0 0 967 13322 -2601 0
1 1 S112 1001 14323 -1600 0
1 1 S112 969 15292 -631 0
1 2 S112 919 16211 288 0
1 2 S112 974 17185 1262 0
1 2 S112 1031 18216 2293 0
1 2 S112 992 19208 3285 0
1 2 S112 996 20204 4281 0
1 2 S112 995 21199 5276 0
1 2 S112 971 22170 6247 0
0 0 0 953 23123 -10771 0
0 0 0 933 24056 -9838 0
0 0 0 930 24986 -8908 0
0 0 0 889 25875 -8019 0
0 0 0 819 26694 -7200 0
0 0 0 775 27469 -6425 0
0 0 0 780 28249 -5645 0
0 0 0 843 29092 -4802 0
0 0 0 1101 30193 -3701 0
0 0 0 1196 31389 -2505 1
2 1 S102 1192 32581 -1313 1
2 1 S102 1082 33663 -231 0
2 2 S102 1074 34737 843 0
2 2 S102 1086 35823 1929 0
2 2 S102 1069 36892 2998 0
2 2 S102 985 37877 3983 0
2 2 S102 940 38817 4923 0
2 2 S102 925 39742 5848 0
2 2 S102 944 40686 6792 0
0 0 0 961 41647 -9489 0
0 0 0 986 42633 -8503 0
0 0 0 918 43551 -7585 0
0 0 0 929 44480 -6656 0
0 0 0 915 45395 -5741 0
0 0 0 916 46311 -4825 0
0 0 0 910 47221 -3915 0
0 0 0 816 48037 -3099 0
0 0 0 830 48867 -2269 0
3 1 S116 871 49738 -1398 0
3 1 S116 992 50730 -406 0
3 2 S116 1065 51795 659 0
3 2 S116 1061 52856 1720 0
3 2 S116 1025 53881 2745 0
3 2 S116 1033 54914 3778 0
3 2 S116 1021 55935 4799 0
3 2 S116 1004 56939 5803 0
3 2 S116 999 57938 6802 0
0 0 0 875 58813 -11935 0
0 0 0 793 59606 -11142 0
0 0 0 807 60413 -10335 0
0 0 0 841 61254 -9494 0
0 0 0 927 62181 -8567 0
0 0 0 931 63112 -7636 0
0 0 0 978 64090 -6658 0
0 0 0 1031 65121 -5627 0
0 0 0 967 66088 -4660 0
0 0 0 905 66993 -3755 0
0 0 0 840 67833 -2915 0
0 0 0 778 68611 -2137 0
4 1 S106 810 69421 -1327 0
4 1 S106 834 70255 -493 0
4 2 S106 877 71132 384 0
4 2 S106 935 72067 1319 0
4 2 S106 975 73042 2294 0
4 2 S106 999 74041 3293 0
4 2 S106 978 75019 4271 0
4 2 S106 936 75955 5207 0
4 2 S106 897 76852 6104 0
4 2 S106 924 77776 7028 0
0 0 0 944 78720 -6982 0
0 0 0 986 79706 -5996 0
0 0 0 939 80645 -5057 0
0 0 0 814 81459 -4243 0
0 0 0 835 82294 -3408 0
0 0 0 826 83120 -2582 0
5 1 S116 903 84023 -1679 0
5 1 S116 993 85016 -686 0
5 2 S116 1011 86027 325 0
5 2 S116 1031 87058 1356 0
5 2 S116 950 88008 2306 0
5 2 S116 950 88958 3256 0
5 2 S116 978 89936 4234 0
5 2 S116 976 90912 5210 0
5 2 S116 962 91874 6172 0
0 0 0 927 92801 -9662 0
0 0 0 845 93646 -8817 0
0 0 0 858 94504 -7959 0
0 0 0 880 95384 -7079 0
0 0 0 867 96251 -6212 0
0 0 0 799 97050 -5413 0
0 0 0 900 97950 -4513 0
0 0 0 954 98904 -3559 0
0 0 0 1043 99947 -2516 0
6 1 S106 1048 100995 -1468 0
6 1 S106 1000 101995 -468 0
6 2 S106 929 102924 461 0
6 2 S106 940 103864 1401 0
6 2 S106 940 104804 2341 0
6 2 S106 855 105659 3196 0
6 2 S106 829 106488 4025 0
6 2 S106 851 107339 4876 0
6 2 S106 912 108251 5788 0
6 2 S106 956 109207 6744 0
0 0 0 954 110161 -11052 0
0 0 0 878 111039 -10174 0
0 0 0 889 111928 -9285 0
0 0 0 936 112864 -8349 0
0 0 0 941 113805 -7408 0
0 0 0 994 114799 -6414 0
0 0 0 908 115707 -5506 0
0 0 0 913 116620 -4593 0
0 0 0 921 117541 -3672 0
0 0 0 951 118492 -2721 0
7 1 S102 969 119461 -1752 0
7 1 S102 978 120439 -774 0
7 2 S102 979 121418 205 0
7 2 S102 997 122415 1202 0
7 2 S102 995 123410 2197 0
7 2 S102 923 124333 3120 0
7 2 S102 916 125249 4036 0
7 2 S102 935 126184 4971 0
7 2 S102 971 127155 5942 0
7 2 S102 1020 128175 6962 0
0 0 0 1021 129196 -9291 0
0 0 0 947 130143 -8344 0
0 0 0 930 131073 -7414 0
0 0 0 957 132030 -6457 0
0 0 0 947 132977 -5510 0
0 0 0 964 133941 -4546 0
0 0 0 914 134855 -3632 0
0 0 0 839 135694 -2793 0
8 1 S112 839 136533 -1954 0
8 1 S112 861 137394 -1093 0
8 1 S112 907 138301 -186 0
8 2 S112 983 139284 797 0
8 2 S112 997 140281 1794 0
8 2 S112 983 141264 2777 0
8 2 S112 989 142253 3766 0
8 2 S112 971 143224 4737 0
8 2 S112 975 144199 5712 0
8 2 S112 934 145133 6646 0
0 0 0 868 146001 -7888 0
0 0 0 861 146862 -7027 0
0 0 0 852 147714 -6175 0
0 0 0 865 148579 -5310 0
0 0 0 900 149479 -4410 0
0 0 0 885 150364 -3525 0
0 0 0 901 151265 -2624 0
9 1 S116 895 152160 -1729 0
9 1 S116 852 153012 -877 0
9 1 S116 812 153824 -65 0
9 2 S116 792 154616 727 0
9 2 S116 818 155434 1545 0
9 2 S116 845 156279 2390 0
9 2 S116 876 157155 3266 0
9 2 S116 925 158080 4191 0
9 2 S116 957 159037 5148 0
9 2 S116 968 160005 6116 0
9 2 S116 878 160883 6994 0
0 0 0 865 161748 -10941 0
0 0 0 882 162630 -10059 0
0 0 0 893 163523 -9166 0
0 0 0 887 164410 -8279 0
0 0 0 887 165297 -7392 0
0 0 0 906 166203 -6486 0
0 0 0 848 167051 -5638 0
0 0 0 891 167942 -4747 0
0 0 0 981 168923 -3766 0
0 0 0 1048 169971 -2718 0
10 1 S102 1037 171008 -1681 0
10 1 S102 980 171988 -701 0
10 2 S102 1006 172994 305 0
10 2 S102 1017 174011 1322 0
10 2 S102 1031 175042 2353 0
10 2 S102 977 176019 3330 0
10 2 S102 945 176964 4275 0
10 2 S102 967 177931 5242 0
10 2 S102 976 178907 6218 0
0 0 0 998 179905 -11235 0
0 0 0 979 180884 -10256 0
0 0 0 950 181834 -9306 0
0 0 0 950 182784 -8356 0
0 0 0 962 183746 -7394 0
0 0 0 949 184695 -6445 0
0 0 0 875 185570 -5570 0
0 0 0 894 186464 -4676 0
0 0 0 917 187381 -3759 0
0 0 0 956 188337 -2803 0
11 1 S112 981 189318 -1822 0
11 1 S112 957 190275 -865 0
11 2 S112 960 191235 95 0
11 2 S112 986 192221 1081 0
11 2 S112 1010 193231 2091 0
11 2 S112 1044 194275 3135 0
11 2 S112 1018 195293 4153 0
11 2 S112 1019 196312 5172 0
11 2 S112 1054 197366 6226 0
0 0 0 1024 198390 -7522 0
0 0 0 972 199362 -6550 0
0 0 0 975 200337 -5575 0
0 0 0 957 201294 -4618 0
0 0 0 897 202191 -3721 0
0 0 0 849 203040 -2872 0
0 0 0 831 203871 -2041 0
12 1 S116 770 204641 -1271 0
12 1 S116 762 205403 -509 0
12 2 S116 783 206186 274 0
12 2 S116 835 207021 1109 0
12 2 S116 933 207954 2042 0
12 2 S116 1000 208954 3042 0
12 2 S116 1039 209993 4081 0
12 2 S116 988 210981 5069 0
12 2 S116 936 211917 6005 0
12 2 S116 941 212858 6946 0
0 0 0 958 213816 -11061 0
0 0 0 972 214788 -10089 0
0 0 0 926 215714 -9163 0
0 0 0 873 216587 -8290 0
0 0 0 878 217465 -7412 0
0 0 0 855 218320 -6557 0
0 0 0 842 219162 -5715 0
0 0 0 779 219941 -4936 0
0 0 0 785 220726 -4151 0
0 0 0 822 221548 -3329 0
0 0 0 938 222486 -2391 0
13 1 S112 1059 223545 -1332 0
13 1 S112 995 224540 -337 0
13 2 S112 952 225492 615 0
13 2 S112 965 226457 1580 0
13 2 S112 940 227397 2520 0
13 2 S112 903 228300 3423 0
13 2 S112 904 229204 4327 0
13 2 S112 914 230118 5241 0
13 2 S112 919 231037 6160 0
0 0 0 947 231984 -12539 0
0 0 0 957 232941 -11582 0
0 0 0 921 233862 -10661 0
0 0 0 938 234800 -9723 0
0 0 0 919 235719 -8804 0
0 0 0 806 236525 -7998 0
0 0 0 775 237300 -7223 0
0 0 0 785 238085 -6438 0
0 0 0 854 238939 -5584 0
0 0 0 984 239923 -4600 0
0 0 0 1032 240955 -3568 0
0 0 0 1010 241965 -2558 0
14 1 S106 927 242892 -1631 0
14 1 S106 953 243845 -678 0
14 2 S106 1007 244852 329 0
14 2 S106 1016 245868 1345 0
14 2 S106 985 246853 2330 0
14 2 S106 958 247811 3288 0
14 2 S106 922 248733 4210 0
14 2 S106 922 249655 5132 0
14 2 S106 939 250594 6071 0
0 0 0 981 251575 -11880 0
0 0 0 987 252562 -10893 0
0 0 0 938 253500 -9955 0
0 0 0 921 254421 -9034 0
0 0 0 898 255319 -8136 0
0 0 0 904 256223 -7232 0
0 0 0 882 257105 -6350 0
0 0 0 842 257947 -5508 0
0 0 0 857 258804 -4651 0
0 0 0 803 259607 -3848 0
0 0 0 828 260435 -3020 0
0 0 0 898 261333 -2122 0
15 1 S116 958 262291 -1164 0
15 1 S116 960 263251 -204 0
15 2 S116 915 264166 711 0
15 2 S116 964 265130 1675 0
15 2 S116 984 266114 2659 0
15 2 S116 998 267112 3657 0
15 2 S116 960 268072 4617 0
15 2 S116 980 269052 5597 0
15 2 S116 983 270035 6580 0
0 0 0 1004 271039 -10636 0
0 0 0 933 271972 -9703 0
0 0 0 925 272897 -8778 0
0 0 0 930 273827 -7848 0
0 0 0 982 274809 -6866 0
0 0 0 884 275693 -5982 0
0 0 0 862 276555 -5120 0
0 0 0 881 277436 -4239 0
0 0 0 941 278377 -3298 0
0 0 0 993 279370 -2305 0
16 1 S116 1000 280370 -1305 0
16 1 S116 997 281367 -308 0
16 2 S116 982 282349 674 0
16 2 S116 949 283298 1623 0
16 2 S116 903 284201 2526 0
16 2 S116 911 285112 3437 0
16 2 S116 934 286046 4371 0
16 2 S116 935 286981 5306 0
16 2 S116 916 287897 6222 0
0 0 0 861 288758 -9711 0
0 0 0 872 289630 -8839 0
0 0 0 875 290505 -7964 0
0 0 0 909 291414 -7055 0
0 0 0 912 292326 -6143 0
0 0 0 906 293232 -5237 0
0 0 0 874 294106 -4363 0
0 0 0 883 294989 -3480 0
0 0 0 919 295908 -2561 0
17 1 S106 964 296872 -1597 0
17 1 S106 975 297847 -622 0
17 2 S106 962 298809 340 0
17 2 S106 940 299749 1280 0
17 2 S106 900 300649 2180 0
17 2 S106 890 301539 3070 0
17 2 S106 919 302458 3989 0
17 2 S106 942 303400 4931 0
17 2 S106 953 304353 5884 0
17 2 S106 931 305284 6815 0
0 0 0 965 306249 -11550 0
0 0 0 963 307212 -10587 0
0 0 0 958 308170 -9629 0
0 0 0 911 309081 -8718 0
0 0 0 910 309991 -7808 0
0 0 0 951 310942 -6857 0
0 0 0 995 311937 -5862 0
0 0 0 957 312894 -4905 0
0 0 0 898 313792 -4007 0
0 0 0 901 314693 -3106 0
0 0 0 909 315602 -2197 0
18 1 S102 922 316524 -1275 0
18 1 S102 939 317463 -336 0
18 2 S102 933 318396 597 0
18 2 S102 939 319335 1536 0
18 2 S102 878 320213 2414 0
18 2 S102 878 321091 3292 0
18 2 S102 916 322007 4208 0
18 2 S102 975 322982 5183 0
18 2 S102 1004 323986 6187 0
0 0 0 953 324939 -8311 0
0 0 0 934 325873 -7377 0
0 0 0 956 326829 -6421 0
0 0 0 968 327797 -5453 0
0 0 0 936 328733 -4517 0
0 0 0 840 329573 -3677 0
0 0 0 851 330424 -2826 0
19 1 S106 828 331252 -1998 0
19 1 S106 806 332058 -1192 0
19 1 S106 870 332928 -322 0
19 2 S106 816 333744 494 0
19 2 S106 862 334606 1356 0
19 2 S106 916 335522 2272 0
19 2 S106 976 336498 3248 0
19 2 S106 955 337453 4203 0
19 2 S106 934 338387 5137 0
19 2 S106 970 339357 6107 0
0 0 0 1010 340367 -11103 0
0 0 0 1020 341387 -10083 0
0 0 0 1007 342394 -9076 0
0 0 0 933 343327 -8143 0
0 0 0 894 344221 -7249 0
0 0 0 920 345141 -6329 0
0 0 0 944 346085 -5385 0
0 0 0 954 347039 -4431 0
0 0 0 930 347969 -3501 0
0 0 0 944 348913 -2557 0
20 1 S112 947 349860 -1610 0
20 1 S112 906 350766 -704 0
20 2 S112 867 351633 163 0
20 2 S112 882 352515 1045 0
20 2 S112 942 353457 1987 0
20 2 S112 993 354450 2980 0
20 2 S112 1013 355463 3993 0
20 2 S112 1019 356482 5012 0
20 2 S112 1012 357494 6024 0
20 2 S112 1001 358495 7025 0
0 0 0 933 359428 -9250 0
0 0 0 832 360260 -8418 0
0 0 0 760 361020 -7658 0
0 0 0 764 361784 -6894 0
0 0 0 773 362557 -6121 0
0 0 0 862 363419 -5259 0
0 0 0 1011 364430 -4248 0
0 0 0 1114 365544 -3134 0
0 0 0 1099 366643 -2035 0
21 1 S106 1010 367653 -1025 0
21 1 S106 1018 368671 -7 0
21 2 S106 1040 369711 1033 0
21 2 S106 1036 370747 2069 0
21 2 S106 1016 371763 3085 0
21 2 S106 1016 372779 4101 0
21 2 S106 1003 373782 5104 0
21 2 S106 982 374764 6086 0
0 0 0 951 375715 -12128 0
0 0 0 895 376610 -11233 0
0 0 0 886 377496 -10347 0
0 0 0 889 378385 -9458 0
0 0 0 908 379293 -8550 0
0 0 0 903 380196 -7647 0
0 0 0 908 381104 -6739 0
0 0 0 971 382075 -5768 0
0 0 0 911 382986 -4857 0
0 0 0 929 383915 -3928 0
0 0 0 1032 384947 -2896 0
22 1 S116 1047 385994 -1849 0
22 1 S116 1065 387059 -784 0
22 2 S116 1031 388090 247 0
22 2 S116 934 389024 1181 0
22 2 S116 906 389930 2087 0
22 2 S116 912 390842 2999 0
22 2 S116 889 391731 3888 0
22 2 S116 819 392550 4707 0
22 2 S116 850 393400 5557 0
22 2 S116 863 394263 6420 0
0 0 0 903 395166 -9836 0
0 0 0 928 396094 -8908 0
0 0 0 948 397042 -7960 0
0 0 0 900 397942 -7060 0
0 0 0 820 398762 -6240 0
0 0 0 796 399558 -5444 0
0 0 0 761 400319 -4683 0
0 0 0 771 401090 -3912 0
0 0 0 788 401878 -3124 0
0 0 0 884 402762 -2240 0
23 1 S112 896 403658 -1344 0
23 1 S112 910 404568 -434 0
23 2 S112 908 405476 474 0
23 2 S112 936 406412 1410 0
23 2 S112 937 407349 2347 0
23 2 S112 918 408267 3265 0
23 2 S112 881 409148 4146 0
23 2 S112 849 409997 4995 0
23 2 S112 858 410855 5853 0
23 2 S112 933 411788 6786 0
0 0 0 1017 412805 -10698 0
0 0 0 985 413790 -9713 0
0 0 0 967 414757 -8746 0
0 0 0 976 415733 -7770 0
0 0 0 937 416670 -6833 0
0 0 0 849 417519 -5984 0
0 0 0 870 418389 -5114 0
0 0 0 878 419267 -4236 0
0 0 0 798 420065 -3438 0
0 0 0 787 420852 -2651 0
24 1 S106 796 421648 -1855 0
24 1 S106 872 422520 -983 0
24 1 S106 979 423499 -4 0
24 2 S106 1010 424509 1006 0
24 2 S106 999 425508 2005 0
24 2 S106 964 426472 2969 0
24 2 S106 937 427409 3906 0
24 2 S106 920 428329 4826 0
24 2 S106 913 429242 5739 0
24 2 S106 918 430160 6657 0
0 0 0 928 431088 -9624 0
0 0 0 936 432024 -8688 0
0 0 0 925 432949 -7763 0
0 0 0 933 433882 -6830 0
0 0 0 835 434717 -5995 0
0 0 0 807 435524 -5188 0
0 0 0 801 436325 -4387 0
0 0 0 885 437210 -3502 0
0 0 0 958 438168 -2544 0
25 1 S102 1004 439172 -1540 0
25 1 S102 1005 440177 -535 0
25 2 S102 1014 441191 479 0
25 2 S102 986 442177 1465 0
25 2 S102 955 443132 2420 0
25 2 S102 991 444123 3411 0
25 2 S102 1022 445145 4433 0
25 2 S102 995 446140 5428 0
25 2 S102 939 447079 6367 0
0 0 0 976 448055 -8074 0
0 0 0 971 449026 -7103 0
0 0 0 965 449991 -6138 0
0 0 0 946 450937 -5192 0
0 0 0 902 451839 -4290 0
0 0 0 911 452750 -3379 0
0 0 0 880 453630 -2499 0
26 1 S116 858 454488 -1641 0
26 1 S116 849 455337 -792 0
26 2 S116 830 456167 38 0
26 2 S116 846 457013 884 0
26 2 S116 897 457910 1781 0
26 2 S116 927 458837 2708 0
26 2 S116 958 459795 3666 0
26 2 S116 931 460726 4597 0
26 2 S116 953 461679 5550 0
26 2 S116 951 462630 6501 0
0 0 0 949 463579 -7289 0
0 0 0 901 464480 -6388 0
0 0 0 871 465351 -5517 0
0 0 0 866 466217 -4651 0
0 0 0 876 467093 -3775 0
0 0 0 910 468003 -2865 0
27 1 S106 931 468934 -1934 0
27 1 S106 891 469825 -1043 0
27 1 S106 914 470739 -129 0
27 2 S106 929 471668 800 0
27 2 S106 935 472603 1735 0
27 2 S106 922 473525 2657 0
27 2 S106 900 474425 3557 0
27 2 S106 877 475302 4434 0
27 2 S106 816 476118 5250 0
27 2 S106 814 476932 6064 0
27 2 S106 817 477749 6881 0
0 0 0 870 478619 -7103 0
0 0 0 907 479526 -6196 0
0 0 0 930 480456 -5266 0
0 0 0 915 481371 -4351 0
0 0 0 857 482228 -3494 0
0 0 0 813 483041 -2681 0
28 1 S102 830 483871 -1851 0
28 1 S102 862 484733 -989 0
28 1 S102 917 485650 -72 0
28 2 S102 901 486551 829 0
28 2 S102 882 487433 1711 0
28 2 S102 920 488353 2631 0
28 2 S102 967 489320 3598 0
28 2 S102 984 490304 4582 0
28 2 S102 990 491294 5572 0
28 2 S102 946 492240 6518 0
0 0 0 925 493165 -11771 0
0 0 0 919 494084 -10852 0
0 0 0 944 495028 -9908 0
0 0 0 926 495954 -8982 0
0 0 0 862 496816 -8120 0
0 0 0 862 497678 -7258 0
0 0 0 867 498545 -6391 0
0 0 0 832 499377 -5559 0
0 0 0 900 500277 -4659 0
0 0 0 935 501212 -3724 0
0 0 0 899 502111 -2825 0
29 1 S112 927 503038 -1898 0
29 1 S112 955 503993 -943 0
29 1 S112 931 504924 -12 0
29 2 S112 882 505806 870 0
29 2 S112 890 506696 1760 0
29 2 S112 935 507631 2695 0
29 2 S112 937 508568 3632 0
29 2 S112 942 509510 4574 0
29 2 S112 954 510464 5528 0
29 2 S112 960 511424 6488 0
0 0 0 910 512334 -7921 0
0 0 0 893 513227 -7028 0
0 0 0 910 514137 -6118 0
0 0 0 921 515058 -5197 0
0 0 0 907 515965 -4290 0
0 0 0 853 516818 -3437 0
0 0 0 819 517637 -2618 0
30 1 S112 838 518475 -1780 0
30 1 S112 887 519362 -893 0
30 2 S112 984 520346 91 0
30 2 S112 1007 521353 1098 0
30 2 S112 1050 522403 2148 0
30 2 S112 1018 523421 3166 0
30 2 S112 967 524388 4133 0
30 2 S112 972 525360 5105 0
30 2 S112 988 526348 6093 0
0 0 0 975 527323 -10256 0
0 0 0 934 528257 -9322 0
0 0 0 839 529096 -8483 0
0 0 0 773 529869 -7710 0
0 0 0 741 530610 -6969 0
0 0 0 761 531371 -6208 0
0 0 0 1043 532414 -5165 0
0 0 0 1181 533595 -3984 1
0 0 0 1147 534742 -2837 1
31 1 S106 1153 535895 -1684 1
31 1 S106 1199 537094 -485 1
31 2 S106 1135 538229 650 0
31 2 S106 1092 539321 1742 0
31 2 S106 1009 540330 2751 0
31 2 S106 1001 541331 3752 0
31 2 S106 999 542330 4751 0
31 2 S106 1013 543343 5764 0
31 2 S106 995 544338 6759 0
0 0 0 962 545300 -8924 0
0 0 0 935 546235 -7989 0
0 0 0 895 547130 -7094 0
0 0 0 835 547965 -6259 0
0 0 0 774 548739 -5485 0
0 0 0 754 549493 -4731 0
0 0 0 727 550220 -4004 0
0 0 0 722 550942 -3282 0
0 0 0 744 551686 -2538 0
32 1 S102 849 552535 -1689 0
32 1 S102 992 553527 -697 0
32 2 S102 1013 554540 316 0
32 2 S102 1010 555550 1326 0
32 2 S102 1003 556553 2329 0
32 2 S102 988 557541 3317 0
32 2 S102 958 558499 4275 0
32 2 S102 931 559430 5206 0
32 2 S102 883 560313 6089 0
32 2 S102 826 561139 6915 0
0 0 0 786 561925 -10502 0
0 0 0 788 562713 -9714 0
0 0 0 862 563575 -8852 0
0 0 0 919 564494 -7933 0
0 0 0 937 565431 -6996 0
0 0 0 883 566314 -6113 0
0 0 0 859 567173 -5254 0
0 0 0 854 568027 -4400 0
0 0 0 867 568894 -3533 0
0 0 0 904 569798 -2629 0
33 1 S112 906 570704 -1723 0
33 1 S112 902 571606 -821 0
33 2 S112 934 572540 113 0
33 2 S112 940 573480 1053 0
33 2 S112 929 574409 1982 0
33 2 S112 906 575315 2888 0
33 2 S112 899 576214 3787 0
33 2 S112 925 577139 4712 0
33 2 S112 952 578091 5664 0
33 2 S112 940 579031 6604 0
0 0 0 906 579937 -12218 0
0 0 0 883 580820 -11335 0
0 0 0 877 581697 -10458 0
0 0 0 887 582584 -9571 0
0 0 0 870 583454 -8701 0
0 0 0 795 584249 -7906 0
0 0 0 819 585068 -7087 0
0 0 0 833 585901 -6254 0
0 0 0 934 586835 -5320 0
0 0 0 936 587771 -4384 0
0 0 0 868 588639 -3516 0
0 0 0 878 589517 -2638 0
34 1 S106 899 590416 -1739 0
34 1 S106 924 591340 -815 0
34 2 S106 943 592283 128 0
34 2 S106 921 593204 1049 0
34 2 S106 937 594141 1986 0
34 2 S106 921 595062 2907 0
34 2 S106 872 595934 3779 0
34 2 S106 833 596767 4612 0
34 2 S106 831 597598 5443 0
34 2 S106 871 598469 6314 0
0 0 0 901 599370 -9314 0
0 0 0 907 600277 -8407 0
0 0 0 884 601161 -7523 0
0 0 0 837 601998 -6686 0
0 0 0 794 602792 -5892 0
0 0 0 805 603597 -5087 0
0 0 0 819 604416 -4268 0
0 0 0 841 605257 -3427 0
0 0 0 841 606098 -2586 0
35 1 S102 911 607009 -1675 0
35 1 S102 875 607884 -800 0
35 2 S102 855 608739 55 0
35 2 S102 856 609595 911 0
35 2 S102 856 610451 1767 0
35 2 S102 845 611296 2612 0
35 2 S102 850 612146 3462 0
35 2 S102 835 612981 4297 0
35 2 S102 791 613772 5088 0
35 2 S102 802 614574 5890 0
35 2 S102 825 615399 6715 0
0 0 0 899 616298 -7754 0
0 0 0 962 617260 -6792 0
0 0 0 932 618192 -5860 0
0 0 0 932 619124 -4928 0
0 0 0 864 619988 -4064 0
0 0 0 783 620771 -3281 0
0 0 0 772 621543 -2509 0
36 1 S106 799 622342 -1710 0
36 1 S106 858 623200 -852 0
36 2 S106 918 624118 66 0
36 2 S106 982 625100 1048 0
36 2 S106 971 626071 2019 0
36 2 S106 994 627065 3013 0
36 2 S106 968 628033 3981 0
36 2 S106 909 628942 4890 0
36 2 S106 914 629856 5804 0
36 2 S106 926 630782 6730 0
0 0 0 933 631715 -9943 0
0 0 0 915 632630 -9028 0
0 0 0 866 633496 -8162 0
0 0 0 836 634332 -7326 0
0 0 0 846 635178 -6480 0
0 0 0 871 636049 -5609 0
0 0 0 913 636962 -4696 0
0 0 0 947 637909 -3749 0
0 0 0 975 638884 -2774 0
37 1 S116 907 639791 -1867 0
37 1 S116 866 640657 -1001 0
37 1 S116 907 641564 -94 0
37 2 S116 961 642525 867 0
37 2 S116 962 643487 1829 0
37 2 S116 934 644421 2763 0
37 2 S116 888 645309 3651 0
37 2 S116 861 646170 4512 0
37 2 S116 835 647005 5347 0
37 2 S116 811 647816 6158 0
37 2 S116 802 648618 6960 0
0 0 0 793 649411 -11064 0
0 0 0 825 650236 -10239 0
0 0 0 830 651066 -9409 0
0 0 0 804 651870 -8605 0
0 0 0 764 652634 -7841 0
0 0 0 758 653392 -7083 0
0 0 0 742 654134 -6341 0
0 0 0 795 654929 -5546 0
0 0 0 880 655809 -4666 0
0 0 0 1007 656816 -3659 0
0 0 0 999 657815 -2660 0
38 1 S102 990 658805 -1670 0
38 1 S102 981 659786 -689 0
38 2 S102 957 660743 268 0
38 2 S102 1005 661748 1273 0
38 2 S102 976 662724 2249 0
38 2 S102 993 663717 3242 0
38 2 S102 936 664653 4178 0
38 2 S102 895 665548 5073 0
38 2 S102 900 666448 5973 0
38 2 S102 919 667367 6892 0
0 0 0 958 668325 -8612 0
0 0 0 988 669313 -7624 0
0 0 0 958 670271 -6666 0
0 0 0 862 671133 -5804 0
0 0 0 895 672028 -4909 0
0 0 0 958 672986 -3951 0
0 0 0 1011 673997 -2940 0
39 1 S116 1019 675016 -1921 0
39 1 S116 1009 676025 -912 0
39 2 S116 958 676983 46 0
39 2 S116 895 677878 941 0
39 2 S116 911 678789 1852 0
39 2 S116 927 679716 2779 0
39 2 S116 960 680676 3739 0
39 2 S116 931 681607 4670 0
39 2 S116 932 682539 5602 0
39 2 S116 941 683480 6543 0
0 0 0 971 684451 -7970 0
0 0 0 974 685425 -6996 0
0 0 0 911 686336 -6085 0
0 0 0 879 687215 -5206 0
0 0 0 900 688115 -4306 0
0 0 0 898 689013 -3408 0
0 0 0 939 689952 -2469 0
40 1 S112 919 690871 -1550 0
40 1 S112 879 691750 -671 0
40 2 S112 857 692607 186 0
40 2 S112 884 693491 1070 0
40 2 S112 922 694413 1992 0
40 2 S112 910 695323 2902 0
40 2 S112 904 696227 3806 0
40 2 S112 902 697129 4708 0
40 2 S112 910 698039 5618 0
40 2 S112 930 698969 6548 0
0 0 0 940 699909 -188386 0
0 0 0 947 700856 -187439 0
0 0 0 914 701770 -186525 0
0 0 0 926 702696 -185599 0
0 0 0 866 703562 -184733 0
0 0 0 825 704387 -183908 0
0 0 0 829 705216 -183079 0
0 0 0 863 706079 -182216 0
0 0 0 957 707036 -181259 0
0 0 0 1017 708053 -180242 0
0 0 0 983 709036 -179259 0
0 0 0 957 709993 -178302 0
0 0 0 990 710983 -177312 0
0 0 0 988 711971 -176324 0
0 0 0 925 712896 -175399 0
0 0 0 844 713740 -174555 0
0 0 0 776 714516 -173779 0
0 0 0 735 715251 -173044 0
0 0 0 753 716004 -172291 0
0 0 0 769 716773 -171522 0
0 0 0 816 717589 -170706 0
0 0 0 823 718412 -169883 0
0 0 0 784 719196 -169099 0
0 0 0 751 719947 -168348 0
0 0 0 723 720670 -167625 0
0 0 0 709 721379 -166916 0
0 0 0 682 722061 -166234 1
0 0 0 654 722715 -165580 1
0 0 0 641 723356 -164939 1
0 0 0 643 723999 -164296 1
0 0 0 677 724676 -163619 1
0 0 0 813 725489 -162806 0
0 0 0 1003 726492 -161803 0
0 0 0 1048 727540 -160755 0
0 0 0 1040 728580 -159715 0
0 0 0 1073 729653 -158642 0
0 0 0 1070 730723 -157572 0
0 0 0 1055 731778 -156517 0
0 0 0 1026 732804 -155491 0
0 0 0 998 733802 -154493 0
0 0 0 974 734776 -153519 0
0 0 0 973 735749 -152546 0
0 0 0 911 736660 -151635 0
0 0 0 940 737600 -150695 0
0 0 0 943 738543 -149752 0
0 0 0 939 739482 -148813 0
0 0 0 978 740460 -147835 0
0 0 0 959 741419 -146876 0
0 0 0 907 742326 -145969 0
0 0 0 915 743241 -145054 0
0 0 0 975 744216 -144079 0
0 0 0 1070 745286 -143009 0
0 0 0 1045 746331 -141964 0
0 0 0 969 747300 -140995 0
0 0 0 980 748280 -140015 0
0 0 0 1007 749287 -139008 0
0 0 0 1026 750313 -137982 0
0 0 0 1007 751320 -136975 0
0 0 0 991 752311 -135984 0
0 0 0 923 753234 -135061 0
0 0 0 906 754140 -134155 0
0 0 0 919 755059 -133236 0
0 0 0 936 755995 -132300 0
0 0 0 908 756903 -131392 0
0 0 0 1030 757933 -130362 0
0 0 0 1179 759112 -129183 1
0 0 0 1087 760199 -128096 0
0 0 0 948 761147 -127148 0
0 0 0 886 762033 -126262 0
0 0 0 943 762976 -125319 0
0 0 0 1057 764033 -124262 0
0 0 0 1074 765107 -123188 0
0 0 0 960 766067 -122228 0
0 0 0 958 767025 -121270 0
0 0 0 1025 768050 -120245 0
0 0 0 1134 769184 -119111 0
0 0 0 1109 770293 -118002 0
0 0 0 1072 771365 -116930 0
0 0 0 979 772344 -115951 0
0 0 0 938 773282 -115013 0
0 0 0 962 774244 -114051 0
0 0 0 878 775122 -113173 0
0 0 0 879 776001 -112294 0
0 0 0 848 776849 -111446 0
0 0 0 912 777761 -110534 0
0 0 0 865 778626 -109669 0
0 0 0 815 779441 -108854 0
0 0 0 835 780276 -108019 0
0 0 0 868 781144 -107151 0
0 0 0 828 781972 -106323 0
0 0 0 783 782755 -105540 0
0 0 0 815 783570 -104725 0
0 0 0 876 784446 -103849 0
0 0 0 946 785392 -102903 0
0 0 0 867 786259 -102036 0
0 0 0 854 787113 -101182 0
0 0 0 851 787964 -100331 0
0 0 0 854 788818 -99477 0
0 0 0 794 789612 -98683 0
0 0 0 801 790413 -97882 0
0 0 0 807 791220 -97075 0
0 0 0 848 792068 -96227 0
0 0 0 906 792974 -95321 0
0 0 0 924 793898 -94397 0
0 0 0 928 794826 -93469 0
0 0 0 936 795762 -92533 0
0 0 0 894 796656 -91639 0
0 0 0 884 797540 -90755 0
0 0 0 928 798468 -89827 0
0 0 0 958 799426 -88869 0
0 0 0 971 800397 -87898 0
0 0 0 922 801319 -86976 0
0 0 0 920 802239 -86056 0
0 0 0 977 803216 -85079 0
0 0 0 1001 804217 -84078 0
0 0 0 933 805150 -83145 0
0 0 0 897 806047 -82248 0
0 0 0 870 806917 -81378 0
0 0 0 845 807762 -80533 0
0 0 0 779 808541 -79754 0
0 0 0 776 809317 -78978 0
0 0 0 812 810129 -78166 0
0 0 0 890 811019 -77276 0
0 0 0 980 811999 -76296 0
0 0 0 959 812958 -75337 0
0 0 0 939 813897 -74398 0
0 0 0 919 814816 -73479 0
0 0 0 867 815683 -72612 0
0 0 0 786 816469 -71826 0
0 0 0 807 817276 -71019 0
0 0 0 825 818101 -70194 0
0 0 0 860 818961 -69334 0
0 0 0 846 819807 -68488 0
0 0 0 880 820687 -67608 0
0 0 0 899 821586 -66709 0
0 0 0 918 822504 -65791 0
0 0 0 897 823401 -64894 0
0 0 0 887 824288 -64007 0
0 0 0 849 825137 -63158 0
0 0 0 821 825958 -62337 0
0 0 0 846 826804 -61491 0
0 0 0 876 827680 -60615 0
0 0 0 937 828617 -59678 0
0 0 0 958 829575 -58720 0
0 0 0 872 830447 -57848 0
0 0 0 927 831374 -56921 0
0 0 0 971 832345 -55950 0
0 0 0 1025 833370 -54925 0
0 0 0 1047 834417 -53878 0
0 0 0 1045 835462 -52833 0
0 0 0 966 836428 -51867 0
0 0 0 952 837380 -50915 0
0 0 0 921 838301 -49994 0
0 0 0 861 839162 -49133 0
0 0 0 903 840065 -48230 0
0 0 0 970 841035 -47260 0
0 0 0 1005 842040 -46255 0
0 0 0 1016 843056 -45239 0
0 0 0 943 843999 -44296 0
0 0 0 943 844942 -43353 0
0 0 0 953 845895 -42400 0
0 0 0 994 846889 -41406 0
0 0 0 937 847826 -40469 0
0 0 0 971 848797 -39498 0
0 0 0 1031 849828 -38467 0
0 0 0 1019 850847 -37448 0
0 0 0 969 851816 -36479 0
0 0 0 949 852765 -35530 0
0 0 0 1016 853781 -34514 0
0 0 0 1073 854854 -33441 0
0 0 0 1057 855911 -32384 0
0 0 0 964 856875 -31420 0
0 0 0 943 857818 -30477 0
0 0 0 990 858808 -29487 0
0 0 0 1013 859821 -28474 0
0 0 0 938 860759 -27536 0
0 0 0 929 861688 -26607 0
0 0 0 949 862637 -25658 0
0 0 0 985 863622 -24673 0
0 0 0 990 864612 -23683 0
0 0 0 998 865610 -22685 0
0 0 0 914 866524 -21771 0
0 0 0 859 867383 -20912 0
0 0 0 873 868256 -20039 0
0 0 0 825 869081 -19214 0
0 0 0 841 869922 -18373 0
0 0 0 925 870847 -17448 0
0 0 0 968 871815 -16480 0
0 0 0 1060 872875 -15420 0
0 0 0 1009 873884 -14411 0
0 0 0 970 874854 -13441 0
0 0 0 985 875839 -12456 0
0 0 0 1023 876862 -11433 0
0 0 0 1037 877899 -10396 0
0 0 0 1020 878919 -9376 0
0 0 0 1026 879945 -8350 0
0 0 0 982 880927 -7368 0
0 0 0 914 881841 -6454 0
0 0 0 860 882701 -5594 0
0 0 0 903 883604 -4691 0
0 0 0 995 884599 -3696 0
0 0 0 1061 885660 -2635 0
41 1 S102 1008 886668 -1627 0
41 1 S102 1023 887691 -604 0
41 2 S102 957 888648 353 0
41 2 S102 879 889527 1232 0
41 2 S102 871 890398 2103 0
41 2 S102 863 891261 2966 0
41 2 S102 962 892223 3928 0
41 2 S102 997 893220 4925 0
41 2 S102 949 894169 5874 0
41 2 S102 935 895104 6809 0
0 0 0 992 896096 -7501 0
0 0 0 990 897086 -6511 0
0 0 0 990 898076 -5521 0
0 0 0 975 899051 -4546 0
0 0 0 930 899981 -3616 0
0 0 0 852 900833 -2764 0
42 1 S112 874 901707 -1890 0
42 1 S112 899 902606 -991 0
42 2 S112 1030 903636 39 0
42 2 S112 1070 904706 1109 0
42 2 S112 1112 905818 2221 0
42 2 S112 1042 906860 3263 0
42 2 S112 1008 907868 4271 0
42 2 S112 1070 908938 5341 0
42 2 S112 1091 910029 6432 0
0 0 0 1022 911051 -10152 0
0 0 0 973 912024 -9179 0
0 0 0 975 912999 -8204 0
0 0 0 952 913951 -7252 0
0 0 0 889 914840 -6363 0
0 0 0 811 915651 -5552 0
0 0 0 798 916449 -4754 0
0 0 0 786 917235 -3968 0
0 0 0 876 918111 -3092 0
0 0 0 953 919064 -2139 0
43 1 S116 1007 920071 -1132 0
43 1 S116 1041 921112 -91 0
43 2 S116 1000 922112 909 0
43 2 S116 982 923094 1891 0
43 2 S116 1029 924123 2920 0
43 2 S116 1076 925199 3996 0
43 2 S116 1049 926248 5045 0
43 2 S116 982 927230 6027 0
43 2 S116 960 928190 6987 0
0 0 0 997 929187 -7650 0
0 0 0 999 930186 -6651 0
0 0 0 994 931180 -5657 0
0 0 0 939 932119 -4718 0
0 0 0 831 932950 -3887 0
0 0 0 833 933783 -3054 0
0 0 0 868 934651 -2186 0
44 1 S102 827 935478 -1359 0
44 1 S102 800 936278 -559 0
44 2 S102 769 937047 210 0
44 2 S102 788 937835 998 0
44 2 S102 841 938676 1839 0
44 2 S102 920 939596 2759 0
44 2 S102 942 940538 3701 0
44 2 S102 866 941404 4567 0
44 2 S102 875 942279 5442 0
44 2 S102 887 943166 6329 0
0 0 0 940 944106 -8414 0
0 0 0 971 945077 -7443 0
0 0 0 924 946001 -6519 0
0 0 0 857 946858 -5662 0
0 0 0 853 947711 -4809 0
0 0 0 847 948558 -3962 0
0 0 0 927 949485 -3035 0
0 0 0 967 950452 -2068 0
45 1 S116 1023 951475 -1045 0
45 1 S116 1019 952494 -26 0
45 2 S116 992 953486 966 0
45 2 S116 1046 954532 2012 0
45 2 S116 1064 955596 3076 0
45 2 S116 1046 956642 4122 0
45 2 S116 970 957612 5092 0
45 2 S116 936 958548 6028 0
45 2 S116 946 959494 6974 0
0 0 0 927 960421 -11048 0
0 0 0 926 961347 -10122 0
0 0 0 880 962227 -9242 0
0 0 0 816 963043 -8426 0
0 0 0 757 963800 -7669 0
0 0 0 772 964572 -6897 0
0 0 0 820 965392 -6077 0
0 0 0 971 966363 -5106 0
0 0 0 1004 967367 -4102 0
0 0 0 1017 968384 -3085 0
0 0 0 986 969370 -2099 0
46 1 S102 984 970354 -1115 0
46 1 S102 1024 971378 -91 0
46 2 S102 985 972363 894 0
46 2 S102 981 973344 1875 0
46 2 S102 1006 974350 2881 0
46 2 S102 1035 975385 3916 0
46 2 S102 1020 976405 4936 0
46 2 S102 1009 977414 5945 0
46 2 S102 996 978410 6941 0
0 0 0 999 979409 -9550 0
0 0 0 1015 980424 -8535 0
0 0 0 957 981381 -7578 0
0 0 0 887 982268 -6691 0
0 0 0 869 983137 -5822 0
0 0 0 837 983974 -4985 0
0 0 0 842 984816 -4143 0
0 0 0 809 985625 -3334 0
0 0 0 853 986478 -2481 0
47 1 S112 841 987319 -1640 0
47 1 S112 802 988121 -838 0
47 1 S112 815 988936 -23 0
47 2 S112 831 989767 808 0
47 2 S112 893 990660 1701 0
47 2 S112 992 991652 2693 0
47 2 S112 1008 992660 3701 0
47 2 S112 998 993658 4699 0
47 2 S112 995 994653 5694 0
47 2 S112 965 995618 6659 0
0 0 0 905 996523 -12927 0
0 0 0 889 997412 -12038 0
0 0 0 901 998313 -11137 0
0 0 0 932 999245 -10205 0
0 0 0 910 1000155 -9295 0
0 0 0 840 1000995 -8455 0
0 0 0 762 1001757 -7693 0
0 0 0 737 1002494 -6956 0
0 0 0 744 1003238 -6212 0
0 0 0 789 1004027 -5423 0
0 0 0 915 1004942 -4508 0
0 0 0 1022 1005964 -3486 0
0 0 0 1044 1007008 -2442 0
48 1 S116 1038 1008046 -1404 0
48 1 S116 1005 1009051 -399 0
48 2 S116 962 1010013 563 0
48 2 S116 949 1010962 1512 0
48 2 S116 954 1011916 2466 0
48 2 S116 987 1012903 3453 0
48 2 S116 980 1013883 4433 0
48 2 S116 974 1014857 5407 0
48 2 S116 987 1015844 6394 0
0 0 0 1013 1016857 -7828 0
0 0 0 970 1017827 -6858 0
0 0 0 928 1018755 -5930 0
0 0 0 851 1019606 -5079 0
0 0 0 787 1020393 -4292 0
0 0 0 745 1021138 -3547 0
0 0 0 758 1021896 -2789 0
49 1 S112 868 1022764 -1921 0
49 1 S112 1004 1023768 -917 0
49 2 S112 1208 1024976 291 1
49 2 S112 1173 1026149 1464 1
49 2 S112 1104 1027253 2568 0
49 2 S112 1117 1028370 3685 0
49 2 S112 1081 1029451 4766 0
49 2 S112 1068 1030519 5834 0
49 2 S112 1040 1031559 6874 0
0 0 0 996 1032555 -11013 0
0 0 0 957 1033512 -10056 0
0 0 0 889 1034401 -9167 0
0 0 0 790 1035191 -8377 0
0 0 0 749 1035940 -7628 0
0 0 0 717 1036657 -6911 0
0 0 0 710 1037367 -6201 0
0 0 0 760 1038127 -5441 0
0 0 0 887 1039014 -4554 0
0 0 0 1107 1040121 -3447 0
0 0 0 1172 1041293 -2275 1
50 1 S106 1109 1042402 -1166 0
50 1 S106 1094 1043496 -72 0
50 2 S106 1084 1044580 1012 0
50 2 S106 1069 1045649 2081 0
50 2 S106 1032 1046681 3113 0
50 2 S106 960 1047641 4073 0
50 2 S106 915 1048556 4988 0
50 2 S106 879 1049435 5867 0
50 2 S106 960 1050395 6827 0
0 0 0 988 1051383 -7520 0
0 0 0 1034 1052417 -6486 0
0 0 0 1014 1053431 -5472 0
0 0 0 981 1054412 -4491 0
0 0 0 917 1055329 -3574 0
0 0 0 843 1056172 -2731 0
51 1 S112 833 1057005 -1898 0
51 1 S112 877 1057882 -1021 0
51 1 S112 1005 1058887 -16 0
51 2 S112 1113 1060000 1097 0
51 2 S112 1062 1061062 2159 0
51 2 S112 1038 1062100 3197 0
51 2 S112 987 1063087 4184 0
51 2 S112 966 1064053 5150 0
51 2 S112 953 1065006 6103 0
0 0 0 962 1065968 -7359 0
0 0 0 945 1066913 -6414 0
0 0 0 957 1067870 -5457 0
0 0 0 921 1068791 -4536 0
0 0 0 859 1069650 -3677 0
0 0 0 811 1070461 -2866 0
0 0 0 805 1071266 -2061 0
52 1 S116 804 1072070 -1257 0
52 1 S116 843 1072913 -414 0
52 2 S116 923 1073836 509 0
52 2 S116 942 1074778 1451 0
52 2 S116 908 1075686 2359 0
52 2 S116 939 1076625 3298 0
52 2 S116 952 1077577 4250 0
52 2 S116 992 1078569 5242 0
52 2 S116 953 1079522 6195 0
0 0 0 922 1080444 -10572 0
0 0 0 855 1081299 -9717 0
0 0 0 800 1082099 -8917 0
0 0 0 731 1082830 -8186 0
0 0 0 719 1083549 -7467 0
0 0 0 724 1084273 -6743 0
0 0 0 777 1085050 -5966 0
0 0 0 809 1085859 -5157 0
0 0 0 863 1086722 -4294 0
0 0 0 875 1087597 -3419 0
0 0 0 901 1088498 -2518 0
53 1 S106 850 1089348 -1668 0
53 1 S106 842 1090190 -826 0
53 2 S106 836 1091026 10 0
53 2 S106 811 1091837 821 0
53 2 S106 841 1092678 1662 0
53 2 S106 857 1093535 2519 0
53 2 S106 857 1094392 3376 0
53 2 S106 850 1095242 4226 0
53 2 S106 841 1096083 5067 0
53 2 S106 784 1096867 5851 0
53 2 S106 782 1097649 6633 0
0 0 0 790 1098439 -6536 0
0 0 0 811 1099250 -5725 0
0 0 0 797 1100047 -4928 0
0 0 0 764 1100811 -4164 0
0 0 0 789 1101600 -3375 0
0 0 0 818 1102418 -2557 0
54 1 S102 861 1103279 -1696 0
54 1 S102 922 1104201 -774 0
54 2 S102 952 1105153 178 0
54 2 S102 949 1106102 1127 0
54 2 S102 937 1107039 2064 0
54 2 S102 896 1107935 2960 0
54 2 S102 875 1108810 3835 0
54 2 S102 886 1109696 4721 0
54 2 S102 908 1110604 5629 0
54 2 S102 900 1111504 6529 0
0 0 0 858 1112362 -10252 0
0 0 0 851 1113213 -9401 0
0 0 0 855 1114068 -8546 0
0 0 0 861 1114929 -7685 0
0 0 0 861 1115790 -6824 0
0 0 0 852 1116642 -5972 0
0 0 0 829 1117471 -5143 0
0 0 0 849 1118320 -4294 0
0 0 0 877 1119197 -3417 0
0 0 0 890 1120087 -2527 0
55 1 S106 904 1120991 -1623 0
55 1 S106 923 1121914 -700 0
55 2 S106 900 1122814 200 0
55 2 S106 883 1123697 1083 0
55 2 S106 888 1124585 1971 0
55 2 S106 920 1125505 2891 0
55 2 S106 878 1126383 3769 0
55 2 S106 824 1127207 4593 0
55 2 S106 774 1127981 5367 0
55 2 S106 756 1128737 6123 0
55 2 S106 765 1129502 6888 0
0 0 0 834 1130336 -7199 0
0 0 0 920 1131256 -6279 0
0 0 0 1027 1132283 -5252 0
0 0 0 975 1133258 -4277 0
0 0 0 879 1134137 -3398 0
0 0 0 884 1135021 -2514 0
56 1 S116 878 1135899 -1636 0
56 1 S116 913 1136812 -723 0
56 2 S116 957 1137769 234 0
56 2 S116 990 1138759 1224 0
56 2 S116 978 1139737 2202 0
56 2 S116 954 1140691 3156 0
56 2 S116 917 1141608 4073 0
56 2 S116 893 1142501 4966 0
56 2 S116 923 1143424 5889 0
56 2 S116 981 1144405 6870 0
0 0 0 980 1145385 -7766 0
0 0 0 902 1146287 -6864 0
0 0 0 841 1147128 -6023 0
0 0 0 812 1147940 -5211 0
0 0 0 836 1148776 -4375 0
0 0 0 851 1149627 -3524 0
0 0 0 941 1150568 -2583 0
57 1 S106 977 1151545 -1606 0
57 1 S106 897 1152442 -709 0
57 2 S106 903 1153345 194 0
57 2 S106 963 1154308 1157 0
57 2 S106 922 1155230 2079 0
57 2 S106 844 1156074 2923 0
57 2 S106 848 1156922 3771 0
57 2 S106 841 1157763 4612 0
57 2 S106 864 1158627 5476 0
57 2 S106 882 1159509 6358 0
0 0 0 887 1160396 -8919 0
0 0 0 860 1161256 -8059 0
0 0 0 780 1162036 -7279 0
0 0 0 722 1162758 -6557 0
0 0 0 704 1163462 -5853 0
0 0 0 710 1164172 -5143 0
0 0 0 753 1164925 -4390 0
0 0 0 956 1165881 -3434 0
0 0 0 1243 1167124 -2191 1
58 1 S102 1141 1168265 -1050 1
58 2 S102 1115 1169380 65 0
58 2 S102 1122 1170502 1187 0
58 2 S102 1113 1171615 2300 0
58 2 S102 1062 1172677 3362 0
58 2 S102 992 1173669 4354 0
58 2 S102 977 1174646 5331 0
58 2 S102 993 1175639 6324 0
0 0 0 987 1176626 -7709 0
0 0 0 952 1177578 -6757 0
0 0 0 877 1178455 -5880 0
0 0 0 816 1179271 -5064 0
0 0 0 769 1180040 -4295 0
0 0 0 767 1180807 -3528 0
0 0 0 776 1181583 -2752 0
59 1 S112 819 1182402 -1933 0
59 1 S112 908 1183310 -1025 0
59 1 S112 1013 1184323 -12 0
59 2 S112 1078 1185401 1066 0
59 2 S112 1077 1186478 2143 0
59 2 S112 1021 1187499 3164 0
59 2 S112 954 1188453 4118 0
59 2 S112 970 1189423 5088 0
59 2 S112 964 1190387 6052 0
59 2 S112 951 1191338 7003 0
0 0 0 931 1192269 -8595 0
0 0 0 874 1193143 -7721 0
0 0 0 826 1193969 -6895 0
0 0 0 847 1194816 -6048 0
0 0 0 889 1195705 -5159 0
0 0 0 1013 1196718 -4146 0
0 0 0 1023 1197741 -3123 0
0 0 0 964 1198705 -2159 0
60 1 S102 938 1199643 -1221 0
60 1 S102 932 1200575 -289 0
60 2 S102 943 1201518 654 0
60 2 S102 915 1202433 1569 0
60 2 S102 922 1203355 2491 0
60 2 S102 947 1204302 3438 0
60 2 S102 962 1205264 4400 0
60 2 S102 966 1206230 5366 0
60 2 S102 975 1207205 6341 0
0 0 0 971 1208176 -11471 0
0 0 0 872 1209048 -10599 0
0 0 0 815 1209863 -9784 0
0 0 0 789 1210652 -8995 0
0 0 0 740 1211392 -8255 0
0 0 0 720 1212112 -7535 0
0 0 0 715 1212827 -6820 0
0 0 0 725 1213552 -6095 0
0 0 0 821 1214373 -5274 0
0 0 0 1029 1215402 -4245 0
0 0 0 1089 1216491 -3156 0
0 0 0 1061 1217552 -2095 0
61 1 S106 995 1218547 -1100 0
61 1 S106 1005 1219552 -95 0
61 2 S106 1008 1220560 913 0
61 2 S106 986 1221546 1899 0
61 2 S106 972 1222518 2871 0
61 2 S106 982 1223500 3853 0
61 2 S106 982 1224482 4835 0
61 2 S106 938 1225420 5773 0
61 2 S106 906 1226326 6679 0
0 0 0 922 1227248 -7652 0
0 0 0 889 1228137 -6763 0
0 0 0 875 1229012 -5888 0
0 0 0 814 1229826 -5074 0
0 0 0 772 1230598 -4302 0
0 0 0 769 1231367 -3533 0
0 0 0 793 1232160 -2740 0
62 1 S112 937 1233097 -1803 0
62 1 S112 972 1234069 -831 0
62 2 S112 967 1235036 136 0
62 2 S112 966 1236002 1102 0
62 2 S112 947 1236949 2049 0
62 2 S112 982 1237931 3031 0
62 2 S112 998 1238929 4029 0
62 2 S112 994 1239923 5023 0
62 2 S112 966 1240889 5989 0
62 2 S112 943 1241832 6932 0
0 0 0 932 1242764 -10571 0
0 0 0 889 1243653 -9682 0
0 0 0 805 1244458 -8877 0
0 0 0 751 1245209 -8126 0
0 0 0 735 1245944 -7391 0
0 0 0 736 1246680 -6655 0
0 0 0 804 1247484 -5851 0
0 0 0 923 1248407 -4928 0
0 0 0 989 1249396 -3939 0
0 0 0 1016 1250412 -2923 0
63 1 S102 1031 1251443 -1892 0
63 1 S102 1063 1252506 -829 0
63 2 S102 1059 1253565 230 0
63 2 S102 1037 1254602 1267 0
63 2 S102 1027 1255629 2294 0
63 2 S102 988 1256617 3282 0
63 2 S102 964 1257581 4246 0
63 2 S102 967 1258548 5213 0
63 2 S102 940 1259488 6153 0
63 2 S102 869 1260357 7022 0
0 0 0 812 1261169 -7948 0
0 0 0 794 1261963 -7154 0
0 0 0 791 1262754 -6363 0
0 0 0 800 1263554 -5563 0
0 0 0 836 1264390 -4727 0
0 0 0 891 1265281 -3836 0
0 0 0 913 1266194 -2923 0
0 0 0 920 1267114 -2003 0
64 1 S112 961 1268075 -1042 0
64 1 S112 999 1269074 -43 0
64 2 S112 964 1270038 921 0
64 2 S112 977 1271015 1898 0
64 2 S112 946 1271961 2844 0
64 2 S112 920 1272881 3764 0
64 2 S112 938 1273819 4702 0
64 2 S112 920 1274739 5622 0
64 2 S112 919 1275658 6541 0
0 0 0 847 1276505 -7715 0
0 0 0 799 1277304 -6916 0
0 0 0 751 1278055 -6165 0
0 0 0 735 1278790 -5430 0
0 0 0 788 1279578 -4642 0
0 0 0 869 1280447 -3773 0
0 0 0 1060 1281507 -2713 0
65 1 S106 1019 1282526 -1694 0
65 1 S106 937 1283463 -757 0
65 2 S106 961 1284424 204 0
65 2 S106 924 1285348 1128 0
65 2 S106 960 1286308 2088 0
65 2 S106 1025 1287333 3113 0
65 2 S106 1027 1288360 4140 0
65 2 S106 982 1289342 5122 0
65 2 S106 906 1290248 6028 0
65 2 S106 866 1291114 6894 0
0 0 0 856 1291970 -7337 0
0 0 0 847 1292817 -6490 0
0 0 0 867 1293684 -5623 0
0 0 0 877 1294561 -4746 0
0 0 0 808 1295369 -3938 0
0 0 0 807 1296176 -3131 0
0 0 0 840 1297016 -2291 0
66 1 S116 922 1297938 -1369 0
66 1 S116 1012 1298950 -357 0
66 2 S116 1042 1299992 685 0
66 2 S116 1016 1301008 1701 0
66 2 S116 1042 1302050 2743 0
66 2 S116 998 1303048 3741 0
66 2 S116 991 1304039 4732 0
66 2 S116 976 1305015 5708 0
66 2 S116 1009 1306024 6717 0
0 0 0 1014 1307038 -10886 0
0 0 0 980 1308018 -9906 0
0 0 0 878 1308896 -9028 0
0 0 0 793 1309689 -8235 0
0 0 0 748 1310437 -7487 0
0 0 0 781 1311218 -6706 0
0 0 0 871 1312089 -5835 0
0 0 0 1330 1313419 -4505 1
0 0 0 1299 1314718 -3206 1
67 1 S102 1289 1316007 -1917 1
67 1 S102 1254 1317261 -663 1
67 2 S102 1227 1318488 564 1
67 2 S102 1185 1319673 1749 1
67 2 S102 1141 1320814 2890 1
67 2 S102 1113 1321927 4003 0
67 2 S102 1036 1322963 5039 0
67 2 S102 1029 1323992 6068 0
0 0 0 1029 1325021 -7558 0
0 0 0 1021 1326042 -6537 0
0 0 0 1000 1327042 -5537 0
0 0 0 948 1327990 -4589 0
0 0 0 852 1328842 -3737 0
0 0 0 825 1329667 -2912 0
0 0 0 856 1330523 -2056 0
68 1 S106 831 1331354 -1225 0
68 1 S106 802 1332156 -423 0
68 2 S106 826 1332982 403 0
68 2 S106 835 1333817 1238 0
68 2 S106 832 1334649 2070 0
68 2 S106 875 1335524 2945 0
68 2 S106 909 1336433 3854 0
68 2 S106 942 1337375 4796 0
68 2 S106 962 1338337 5758 0
68 2 S106 993 1339330 6751 0
0 0 0 949 1340279 -11531 0
0 0 0 903 1341182 -10628 0
0 0 0 861 1342043 -9767 0
0 0 0 866 1342909 -8901 0
0 0 0 882 1343791 -8019 0
0 0 0 894 1344685 -7125 0
0 0 0 893 1345578 -6232 0
0 0 0 885 1346463 -5347 0
0 0 0 837 1347300 -4510 0
0 0 0 791 1348091 -3719 0
0 0 0 788 1348879 -2931 0
0 0 0 810 1349689 -2121 0
69 1 S102 893 1350582 -1228 0
69 1 S102 983 1351565 -245 0
69 2 S102 1008 1352573 763 0
69 2 S102 981 1353554 1744 0
69 2 S102 967 1354521 2711 0
69 2 S102 987 1355508 3698 0
69 2 S102 940 1356448 4638 0
69 2 S102 874 1357322 5512 0
69 2 S102 858 1358180 6370 0
0 0 0 870 1359050 -9654 0
0 0 0 877 1359927 -8777 0
0 0 0 840 1360767 -7937 0
0 0 0 814 1361581 -7123 0
0 0 0 824 1362405 -6299 0
0 0 0 850 1363255 -5449 0
0 0 0 903 1364158 -4546 0
0 0 0 916 1365074 -3630 0
0 0 0 892 1365966 -2738 0
70 1 S112 886 1366852 -1852 0
70 1 S112 886 1367738 -966 0
70 1 S112 865 1368603 -101 0
70 2 S112 837 1369440 736 0
70 2 S112 822 1370262 1558 0
70 2 S112 835 1371097 2393 0
70 2 S112 883 1371980 3276 0
70 2 S112 945 1372925 4221 0
70 2 S112 991 1373916 5212 0
70 2 S112 980 1374896 6192 0
0 0 0 1007 1375903 -11684 0
0 0 0 1026 1376929 -10658 0
0 0 0 951 1377880 -9707 0
0 0 0 871 1378751 -8836 0
0 0 0 818 1379569 -8018 0
0 0 0 749 1380318 -7269 0
0 0 0 735 1381053 -6534 0
0 0 0 738 1381791 -5796 0
0 0 0 769 1382560 -5027 0
0 0 0 819 1383379 -4208 0
0 0 0 863 1384242 -3345 0
0 0 0 848 1385090 -2497 0
71 1 S116 889 1385979 -1608 0
71 1 S116 936 1386915 -672 0
71 2 S116 938 1387853 266 0
71 2 S116 950 1388803 1216 0
71 2 S116 941 1389744 2157 0
71 2 S116 946 1390690 3103 0
71 2 S116 944 1391634 4047 0
71 2 S116 944 1392578 4991 0
71 2 S116 917 1393495 5908 0
71 2 S116 863 1394358 6771 0
0 0 0 795 1395153 -9708 0
0 0 0 791 1395944 -8917 0
0 0 0 807 1396751 -8110 0
0 0 0 910 1397661 -7200 0
0 0 0 947 1398608 -6253 0
0 0 0 892 1399500 -5361 0
0 0 0 843 1400343 -4518 0
0 0 0 773 1401116 -3745 0
0 0 0 759 1401875 -2986 0
0 0 0 753 1402628 -2233 0
72 1 S102 779 1403407 -1454 0
72 1 S102 865 1404272 -589 0
72 2 S102 892 1405164 303 0
72 2 S102 991 1406155 1294 0
72 2 S102 992 1407147 2286 0
72 2 S102 1004 1408151 3290 0
72 2 S102 1000 1409151 4290 0
72 2 S102 1012 1410163 5302 0
72 2 S102 969 1411132 6271 0
0 0 0 909 1412041 -8520 0
0 0 0 907 1412948 -7613 0
0 0 0 911 1413859 -6702 0
0 0 0 850 1414709 -5852 0
0 0 0 804 1415513 -5048 0
0 0 0 774 1416287 -4274 0
0 0 0 772 1417059 -3502 0
0 0 0 784 1417843 -2718 0
73 1 S116 806 1418649 -1912 0
73 1 S116 822 1419471 -1090 0
73 1 S116 813 1420284 -277 0
73 2 S116 800 1421084 523 0
73 2 S116 790 1421874 1313 0
73 2 S116 818 1422692 2131 0
73 2 S116 878 1423570 3009 0
73 2 S116 923 1424493 3932 0
73 2 S116 948 1425441 4880 0
73 2 S116 917 1426358 5797 0
73 2 S116 854 1427212 6651 0
0 0 0 839 1428051 -9950 0
0 0 0 845 1428896 -9105 0
0 0 0 851 1429747 -8254 0
0 0 0 834 1430581 -7420 0
0 0 0 791 1431372 -6629 0
0 0 0 781 1432153 -5848 0
0 0 0 807 1432960 -5041 0
0 0 0 913 1433873 -4128 0
0 0 0 1017 1434890 -3111 0
0 0 0 980 1435870 -2131 0
74 1 S106 921 1436791 -1210 0
74 1 S106 875 1437666 -335 0
74 2 S106 844 1438510 509 0
74 2 S106 832 1439342 1341 0
74 2 S106 793 1440135 2134 0
74 2 S106 803 1440938 2937 0
74 2 S106 829 1441767 3766 0
74 2 S106 893 1442660 4659 0
74 2 S106 918 1443578 5577 0
74 2 S106 939 1444517 6516 0
0 0 0 959 1445476 -6153 0
0 0 0 897 1446373 -5256 0
0 0 0 808 1447181 -4448 0
0 0 0 795 1447976 -3653 0
0 0 0 902 1448878 -2751 0
75 1 S112 928 1449806 -1823 0
75 1 S112 920 1450726 -903 0
75 1 S112 847 1451573 -56 0
75 2 S112 854 1452427 798 0
75 2 S112 889 1453316 1687 0
75 2 S112 881 1454197 2568 0
75 2 S112 861 1455058 3429 0
75 2 S112 873 1455931 4302 0
75 2 S112 905 1456836 5207 0
75 2 S112 958 1457794 6165 0
0 0 0 997 1458791 -8786 0
0 0 0 997 1459788 -7789 0
0 0 0 938 1460726 -6851 0
0 0 0 869 1461595 -5982 0
0 0 0 836 1462431 -5146 0
0 0 0 815 1463246 -4331 0
0 0 0 851 1464097 -3480 0
0 0 0 910 1465007 -2570 0
76 1 S116 957 1465964 -1613 0
76 1 S116 956 1466920 -657 0
76 2 S116 984 1467904 327 0
76 2 S116 981 1468885 1308 0
76 2 S116 987 1469872 2295 0
76 2 S116 975 1470847 3270 0
76 2 S116 969 1471816 4239 0
76 2 S116 976 1472792 5215 0
76 2 S116 973 1473765 6188 0
0 0 0 896 1474661 -7870 0
0 0 0 859 1475520 -7011 0
0 0 0 864 1476384 -6147 0
0 0 0 886 1477270 -5261 0
0 0 0 927 1478197 -4334 0
0 0 0 892 1479089 -3442 0
0 0 0 854 1479943 -2588 0
77 1 S106 806 1480749 -1782 0
77 1 S106 798 1481547 -984 0
77 1 S106 770 1482317 -214 0
77 2 S106 762 1483079 548 0
77 2 S106 778 1483857 1326 0
77 2 S106 827 1484684 2153 0
77 2 S106 890 1485574 3043 0
77 2 S106 941 1486515 3984 0
77 2 S106 946 1487461 4930 0
77 2 S106 964 1488425 5894 0
77 2 S106 965 1489390 6859 0
0 0 0 962 1490352 -9172 0
0 0 0 896 1491248 -8276 0
0 0 0 824 1492072 -7452 0
0 0 0 814 1492886 -6638 0
0 0 0 828 1493714 -5810 0
0 0 0 844 1494558 -4966 0
0 0 0 874 1495432 -4092 0
0 0 0 844 1496276 -3248 0
0 0 0 864 1497140 -2384 0
78 1 S112 900 1498040 -1484 0
78 1 S112 905 1498945 -579 0
78 2 S112 844 1499789 265 0
78 2 S112 856 1500645 1121 0
78 2 S112 871 1501516 1992 0
78 2 S112 902 1502418 2894 0
78 2 S112 952 1503370 3846 0
78 2 S112 951 1504321 4797 0
78 2 S112 929 1505250 5726 0
78 2 S112 923 1506173 6649 0
0 0 0 910 1507083 -12749 0
0 0 0 881 1507964 -11868 0
0 0 0 871 1508835 -10997 0
0 0 0 851 1509686 -10146 0
0 0 0 909 1510595 -9237 0
0 0 0 862 1511457 -8375 0
0 0 0 822 1512279 -7553 0
0 0 0 868 1513147 -6685 0
0 0 0 956 1514103 -5729 0
0 0 0 997 1515100 -4732 0
0 0 0 1014 1516114 -3718 0
0 0 0 1031 1517145 -2687 0
79 1 S102 1006 1518151 -1681 0
79 1 S102 970 1519121 -711 0
79 2 S102 929 1520050 218 0
79 2 S102 927 1520977 1145 0
79 2 S102 916 1521893 2061 0
79 2 S102 896 1522789 2957 0
79 2 S102 882 1523671 3839 0
79 2 S102 873 1524544 4712 0
79 2 S102 878 1525422 5590 0
79 2 S102 890 1526312 6480 0
0 0 0 889 1527201 -8547 0
0 0 0 838 1528039 -7709 0
0 0 0 810 1528849 -6899 0
0 0 0 805 1529654 -6094 0
0 0 0 822 1530476 -5272 0
0 0 0 926 1531402 -4346 0
0 0 0 896 1532298 -3450 0
0 0 0 876 1533174 -2574 0
80 1 S116 876 1534050 -1698 0
80 1 S116 874 1534924 -824 0
80 2 S116 866 1535790 42 0
80 2 S116 925 1536715 967 0
80 2 S116 941 1537656 1908 0
80 2 S116 949 1538605 2857 0
80 2 S116 945 1539550 3802 0
80 2 S116 937 1540487 4739 0
80 2 S116 990 1541477 5729 0
80 2 S116 991 1542468 6720 0
