T_0126
BeatCount Mean SD BeatCountNoOutliers MeanNoOutliers SDNoOutliers
1821 837,538165842943 54,4050670185541 1768 842,926470588235 43,2766089647966

Trial TrialStatus Trialtype IBI AbsPosition RelPosition Outlier
0 0 0 591 1084 -14451 1
0 0 0 576 1660 -13875 1
0 0 0 567 2227 -13308 1
0 0 0 582 2809 -12726 1
0 0 0 646 3455 -12080 1
0 0 0 739 4194 -11341 0
0 0 0 755 4949 -10586 0
0 0 0 758 5707 -9828 0
0 0 0 752 6459 -9076 0
0 0 0 683 7142 -8393 1
0 0 0 724 7866 -7669 0
0 0 0 748 8614 -6921 0
0 0 0 808 9422 -6113 0
0 0 0 816 10238 -5297 0
0 0 0 842 11080 -4455 0
0 0 0 885 11965 -3570 0
0 0 0 829 12794 -2741 0
1 1 S112 789 13583 -1952 0
1 1 S112 744 14327 -1208 0
1 1 S112 718 15045 -490 0
1 2 S112 795 15840 305 0
1 2 S112 842 16682 1147 0
1 2 S112 789 17471 1936 0
1 2 S112 797 18268 2733 0
1 2 S112 809 19077 3542 0
1 2 S112 810 19887 4352 0
1 2 S112 811 20698 5163 0
1 2 S112 804 21502 5967 0
1 2 S112 800 22302 6767 0
0 0 0 759 23061 -11340 0
0 0 0 739 23800 -10601 0
0 0 0 706 24506 -9895 0
0 0 0 797 25303 -9098 0
0 0 0 792 26095 -8306 0
0 0 0 801 26896 -7505 0
0 0 0 813 27709 -6692 0
0 0 0 878 28587 -5814 0
0 0 0 846 29433 -4968 0
0 0 0 812 30245 -4156 0
0 0 0 822 31067 -3334 0
0 0 0 817 31884 -2517 0
2 1 S102 797 32681 -1720 0
2 1 S102 780 33461 -940 0
2 1 S102 782 34243 -158 0
2 2 S102 805 35048 647 0
2 2 S102 814 35862 1461 0
2 2 S102 817 36679 2278 0
2 2 S102 817 37496 3095 0
2 2 S102 880 38376 3975 0
2 2 S102 863 39239 4838 0
2 2 S102 842 40081 5680 0
2 2 S102 842 40923 6522 0
0 0 0 885 41808 -9967 0
0 0 0 871 42679 -9096 0
0 0 0 872 43551 -8224 0
0 0 0 909 44460 -7315 0
0 0 0 863 45323 -6452 0
0 0 0 865 46188 -5587 0
0 0 0 869 47057 -4718 0
0 0 0 877 47934 -3841 0
0 0 0 852 48786 -2989 0
0 0 0 881 49667 -2108 0
3 1 S116 910 50577 -1198 0
3 1 S116 904 51481 -294 0
3 2 S116 882 52363 588 0
3 2 S116 885 53248 1473 0
3 2 S116 890 54138 2363 0
3 2 S116 851 54989 3214 0
3 2 S116 832 55821 4046 0
3 2 S116 831 56652 4877 0
3 2 S116 858 57510 5735 0
3 2 S116 830 58340 6565 0
0 0 0 846 59186 -11057 0
0 0 0 891 60077 -10166 0
0 0 0 869 60946 -9297 0
0 0 0 859 61805 -8438 0
0 0 0 869 62674 -7569 0
0 0 0 841 63515 -6728 0
0 0 0 832 64347 -5896 0
0 0 0 890 65237 -5006 0
0 0 0 902 66139 -4104 0
0 0 0 869 67008 -3235 0
0 0 0 884 67892 -2351 0
4 1 S106 885 68777 -1466 0
4 1 S106 851 69628 -615 0
4 2 S106 840 70468 225 0
4 2 S106 850 71318 1075 0
4 2 S106 850 72168 1925 0
4 2 S106 821 72989 2746 0
4 2 S106 854 73843 3600 0
4 2 S106 861 74704 4461 0
4 2 S106 827 75531 5288 0
4 2 S106 867 76398 6155 0
0 0 0 893 77291 -7475 0
0 0 0 874 78165 -6601 0
0 0 0 854 79019 -5747 0
0 0 0 872 79891 -4875 0
0 0 0 864 80755 -4011 0
0 0 0 853 81608 -3158 0
0 0 0 853 82461 -2305 0
5 1 S116 880 83341 -1425 0
5 1 S116 876 84217 -549 0
5 2 S116 863 85080 314 0
5 2 S116 911 85991 1225 0
5 2 S116 931 86922 2156 0
5 2 S116 901 87823 3057 0
5 2 S116 908 88731 3965 0
5 2 S116 904 89635 4869 0
5 2 S116 897 90532 5766 0
5 2 S116 828 91360 6594 0
0 0 0 828 92188 -8908 0
0 0 0 854 93042 -8054 0
0 0 0 842 93884 -7212 0
0 0 0 828 94712 -6384 0
0 0 0 857 95569 -5527 0
0 0 0 885 96454 -4642 0
0 0 0 898 97352 -3744 0
0 0 0 918 98270 -2826 0
6 1 S106 927 99197 -1899 0
6 1 S106 902 100099 -997 0
6 1 S106 869 100968 -128 0
6 2 S106 878 101846 750 0
6 2 S106 894 102740 1644 0
6 2 S106 907 103647 2551 0
6 2 S106 868 104515 3419 0
6 2 S106 869 105384 4288 0
6 2 S106 873 106257 5161 0
6 2 S106 859 107116 6020 0
6 2 S106 890 108006 6910 0
0 0 0 905 108911 -9575 0
0 0 0 831 109742 -8744 0
0 0 0 838 110580 -7906 0
0 0 0 858 111438 -7048 0
0 0 0 883 112321 -6165 0
0 0 0 882 113203 -5283 0
0 0 0 919 114122 -4364 0
0 0 0 916 115038 -3448 0
0 0 0 911 115949 -2537 0
7 1 S102 865 116814 -1672 0
7 1 S102 867 117681 -805 0
7 2 S102 877 118558 72 0
7 2 S102 863 119421 935 0
7 2 S102 833 120254 1768 0
7 2 S102 847 121101 2615 0
7 2 S102 872 121973 3487 0
7 2 S102 842 122815 4329 0
7 2 S102 898 123713 5227 0
7 2 S102 905 124618 6132 0
7 2 S102 872 125490 7004 0
0 0 0 879 126369 -9409 0
0 0 0 904 127273 -8505 0
0 0 0 876 128149 -7629 0
0 0 0 859 129008 -6770 0
0 0 0 880 129888 -5890 0
0 0 0 889 130777 -5001 0
0 0 0 892 131669 -4109 0
0 0 0 912 132581 -3197 0
0 0 0 917 133498 -2280 0
8 1 S112 905 134403 -1375 0
8 1 S112 872 135275 -503 0
8 2 S112 904 136179 401 0
8 2 S112 929 137108 1330 0
8 2 S112 906 138014 2236 0
8 2 S112 873 138887 3109 0
8 2 S112 891 139778 4000 0
8 2 S112 908 140686 4908 0
8 2 S112 849 141535 5757 0
8 2 S112 878 142413 6635 0
0 0 0 883 143296 -7701 0
0 0 0 899 144195 -6802 0
0 0 0 841 145036 -5961 0
0 0 0 884 145920 -5077 0
0 0 0 908 146828 -4169 0
0 0 0 858 147686 -3311 0
0 0 0 869 148555 -2442 0
9 1 S116 891 149446 -1551 0
9 1 S116 887 150333 -664 0
9 2 S116 841 151174 177 0
9 2 S116 878 152052 1055 0
9 2 S116 895 152947 1950 0
9 2 S116 877 153824 2827 0
9 2 S116 851 154675 3678 0
9 2 S116 884 155559 4562 0
9 2 S116 894 156453 5456 0
9 2 S116 859 157312 6315 0
0 0 0 832 158144 -12266 0
0 0 0 862 159006 -11404 0
0 0 0 871 159877 -10533 0
0 0 0 823 160700 -9710 0
0 0 0 856 161556 -8854 0
0 0 0 860 162416 -7994 0
0 0 0 848 163264 -7146 0
0 0 0 832 164096 -6314 0
0 0 0 865 164961 -5449 0
0 0 0 883 165844 -4566 0
0 0 0 864 166708 -3702 0
0 0 0 889 167597 -2813 0
10 1 S102 908 168505 -1905 0
10 1 S102 871 169376 -1034 0
10 1 S102 847 170223 -187 0
10 2 S102 864 171087 677 0
10 2 S102 845 171932 1522 0
10 2 S102 820 172752 2342 0
10 2 S102 867 173619 3209 0
10 2 S102 897 174516 4106 0
10 2 S102 862 175378 4968 0
10 2 S102 856 176234 5824 0
10 2 S102 865 177099 6689 0
0 0 0 867 177966 -11575 0
0 0 0 825 178791 -10750 0
0 0 0 813 179604 -9937 0
0 0 0 857 180461 -9080 0
0 0 0 829 181290 -8251 0
0 0 0 848 182138 -7403 0
0 0 0 885 183023 -6518 0
0 0 0 886 183909 -5632 0
0 0 0 859 184768 -4773 0
0 0 0 867 185635 -3906 0
0 0 0 887 186522 -3019 0
0 0 0 871 187393 -2148 0
11 1 S112 857 188250 -1291 0
11 1 S112 897 189147 -394 0
11 2 S112 909 190056 515 0
11 2 S112 850 190906 1365 0
11 2 S112 878 191784 2243 0
11 2 S112 890 192674 3133 0
11 2 S112 830 193504 3963 0
11 2 S112 827 194331 4790 0
11 2 S112 826 195157 5616 0
11 2 S112 829 195986 6445 0
0 0 0 832 196818 -8141 0
0 0 0 868 197686 -7273 0
0 0 0 827 198513 -6446 0
0 0 0 828 199341 -5618 0
0 0 0 830 200171 -4788 0
0 0 0 812 200983 -3976 0
0 0 0 809 201792 -3167 0
0 0 0 812 202604 -2355 0
12 1 S116 831 203435 -1524 0
12 1 S116 805 204240 -719 0
12 2 S116 827 205067 108 0
12 2 S116 823 205890 931 0
12 2 S116 807 206697 1738 0
12 2 S116 854 207551 2592 0
12 2 S116 896 208447 3488 0
12 2 S116 868 209315 4356 0
12 2 S116 835 210150 5191 0
12 2 S116 855 211005 6046 0
12 2 S116 861 211866 6907 0
0 0 0 849 212715 -11044 0
0 0 0 857 213572 -10187 0
0 0 0 877 214449 -9310 0
0 0 0 816 215265 -8494 0
0 0 0 822 216087 -7672 0
0 0 0 870 216957 -6802 0
0 0 0 886 217843 -5916 0
0 0 0 860 218703 -5056 0
0 0 0 898 219601 -4158 0
0 0 0 908 220509 -3250 0
0 0 0 883 221392 -2367 0
13 1 S112 908 222300 -1459 0
13 1 S112 964 223264 -495 0
13 2 S112 984 224248 489 1
13 2 S112 923 225171 1412 0
13 2 S112 932 226103 2344 0
13 2 S112 916 227019 3260 0
13 2 S112 886 227905 4146 0
13 2 S112 854 228759 5000 0
13 2 S112 864 229623 5864 0
13 2 S112 833 230456 6697 0
0 0 0 820 231276 -12328 0
0 0 0 831 232107 -11497 0
0 0 0 839 232946 -10658 0
0 0 0 813 233759 -9845 0
0 0 0 824 234583 -9021 0
0 0 0 858 235441 -8163 0
0 0 0 849 236290 -7314 0
0 0 0 832 237122 -6482 0
0 0 0 835 237957 -5647 0
0 0 0 819 238776 -4828 0
0 0 0 792 239568 -4036 0
0 0 0 799 240367 -3237 0
0 0 0 794 241161 -2443 0
14 1 S106 793 241954 -1650 0
14 1 S106 762 242716 -888 0
14 1 S106 781 243497 -107 0
14 2 S106 817 244314 710 0
14 2 S106 807 245121 1517 0
14 2 S106 807 245928 2324 0
14 2 S106 860 246788 3184 0
14 2 S106 851 247639 4035 0
14 2 S106 819 248458 4854 0
14 2 S106 821 249279 5675 0
14 2 S106 807 250086 6482 0
0 0 0 797 250883 -11952 0
0 0 0 812 251695 -11140 0
0 0 0 808 252503 -10332 0
0 0 0 777 253280 -9555 0
0 0 0 806 254086 -8749 0
0 0 0 825 254911 -7924 0
0 0 0 849 255760 -7075 0
0 0 0 814 256574 -6261 0
0 0 0 851 257425 -5410 0
0 0 0 881 258306 -4529 0
0 0 0 858 259164 -3671 0
0 0 0 832 259996 -2839 0
0 0 0 823 260819 -2016 0
15 1 S116 870 261689 -1146 0
15 1 S116 851 262540 -295 0
15 2 S116 822 263362 527 0
15 2 S116 819 264181 1346 0
15 2 S116 826 265007 2172 0
15 2 S116 821 265828 2993 0
15 2 S116 812 266640 3805 0
15 2 S116 861 267501 4666 0
15 2 S116 851 268352 5517 0
15 2 S116 852 269204 6369 0
0 0 0 903 270107 -11030 0
0 0 0 880 270987 -10150 0
0 0 0 870 271857 -9280 0
0 0 0 878 272735 -8402 0
0 0 0 891 273626 -7511 0
0 0 0 866 274492 -6645 0
0 0 0 864 275356 -5781 0
0 0 0 889 276245 -4892 0
0 0 0 859 277104 -4033 0
0 0 0 885 277989 -3148 0
0 0 0 905 278894 -2243 0
16 1 S116 911 279805 -1332 0
16 1 S116 888 280693 -444 0
16 2 S116 901 281594 457 0
16 2 S116 904 282498 1361 0
16 2 S116 885 283383 2246 0
16 2 S116 887 284270 3133 0
16 2 S116 894 285164 4027 0
16 2 S116 848 286012 4875 0
16 2 S116 859 286871 5734 0
16 2 S116 876 287747 6610 0
0 0 0 891 288638 -8497 0
0 0 0 859 289497 -7638 0
0 0 0 882 290379 -6756 0
0 0 0 867 291246 -5889 0
0 0 0 836 292082 -5053 0
0 0 0 824 292906 -4229 0
0 0 0 831 293737 -3398 0
0 0 0 804 294541 -2594 0
17 1 S106 785 295326 -1809 0
17 1 S106 767 296093 -1042 0
17 1 S106 777 296870 -265 0
17 2 S106 776 297646 511 0
17 2 S106 794 298440 1305 0
17 2 S106 820 299260 2125 0
17 2 S106 851 300111 2976 0
17 2 S106 840 300951 3816 0
17 2 S106 823 301774 4639 0
17 2 S106 821 302595 5460 0
17 2 S106 830 303425 6290 0
0 0 0 821 304246 -10910 0
0 0 0 817 305063 -10093 0
0 0 0 845 305908 -9248 0
0 0 0 840 306748 -8408 0
0 0 0 806 307554 -7602 0
0 0 0 810 308364 -6792 0
0 0 0 797 309161 -5995 0
0 0 0 783 309944 -5212 0
0 0 0 765 310709 -4447 0
0 0 0 779 311488 -3668 0
0 0 0 758 312246 -2910 0
0 0 0 749 312995 -2161 0
18 1 S102 803 313798 -1358 0
18 1 S102 819 314617 -539 0
18 2 S102 808 315425 269 0
18 2 S102 821 316246 1090 0
18 2 S102 818 317064 1908 0
18 2 S102 806 317870 2714 0
18 2 S102 817 318687 3531 0
18 2 S102 814 319501 4345 0
18 2 S102 790 320291 5135 0
18 2 S102 804 321095 5939 0
18 2 S102 810 321905 6749 0
0 0 0 814 322719 -8833 0
0 0 0 815 323534 -8018 0
0 0 0 837 324371 -7181 0
0 0 0 811 325182 -6370 0
0 0 0 803 325985 -5567 0
0 0 0 840 326825 -4727 0
0 0 0 836 327661 -3891 0
0 0 0 804 328465 -3087 0
0 0 0 790 329255 -2297 0
19 1 S106 782 330037 -1515 0
19 1 S106 695 330732 -820 1
19 1 S106 649 331381 -171 1
19 2 S106 629 332010 458 1
19 2 S106 651 332661 1109 1
19 2 S106 722 333383 1831 0
19 2 S106 770 334153 2601 0
19 2 S106 745 334898 3346 0
19 2 S106 806 335704 4152 0
19 2 S106 800 336504 4952 0
19 2 S106 794 337298 5746 0
19 2 S106 775 338073 6521 0
0 0 0 805 338878 -10811 0
0 0 0 860 339738 -9951 0
0 0 0 818 340556 -9133 0
0 0 0 807 341363 -8326 0
0 0 0 822 342185 -7504 0
0 0 0 853 343038 -6651 0
0 0 0 848 343886 -5803 0
0 0 0 845 344731 -4958 0
0 0 0 866 345597 -4092 0
0 0 0 878 346475 -3214 0
0 0 0 828 347303 -2386 0
20 1 S112 848 348151 -1538 0
20 1 S112 862 349013 -676 0
20 2 S112 858 349871 182 0
20 2 S112 822 350693 1004 0
20 2 S112 810 351503 1814 0
20 2 S112 840 352343 2654 0
20 2 S112 866 353209 3520 0
20 2 S112 820 354029 4340 0
20 2 S112 854 354883 5194 0
20 2 S112 882 355765 6076 0
20 2 S112 858 356623 6934 0
0 0 0 826 357449 -10310 0
0 0 0 812 358261 -9498 0
0 0 0 806 359067 -8692 0
0 0 0 794 359861 -7898 0
0 0 0 846 360707 -7052 0
0 0 0 821 361528 -6231 0
0 0 0 846 362374 -5385 0
0 0 0 876 363250 -4509 0
0 0 0 853 364103 -3656 0
0 0 0 848 364951 -2808 0
21 1 S106 862 365813 -1946 0
21 1 S106 881 366694 -1065 0
21 1 S106 841 367535 -224 0
21 2 S106 838 368373 614 0
21 2 S106 849 369222 1463 0
21 2 S106 851 370073 2314 0
21 2 S106 815 370888 3129 0
21 2 S106 861 371749 3990 0
21 2 S106 880 372629 4870 0
21 2 S106 876 373505 5746 0
21 2 S106 826 374331 6572 0
0 0 0 853 375184 -11823 0
0 0 0 857 376041 -10966 0
0 0 0 814 376855 -10152 0
0 0 0 813 377668 -9339 0
0 0 0 831 378499 -8508 0
0 0 0 924 379423 -7584 0
0 0 0 912 380335 -6672 0
0 0 0 908 381243 -5764 0
0 0 0 906 382149 -4858 0
0 0 0 887 383036 -3971 0
0 0 0 863 383899 -3108 0
0 0 0 895 384794 -2213 0
22 1 S116 909 385703 -1304 0
22 1 S116 837 386540 -467 0
22 2 S116 847 387387 380 0
22 2 S116 871 388258 1251 0
22 2 S116 861 389119 2112 0
22 2 S116 886 390005 2998 0
22 2 S116 943 390948 3941 0
22 2 S116 937 391885 4878 0
22 2 S116 879 392764 5757 0
22 2 S116 890 393654 6647 0
0 0 0 875 394529 -10134 0
0 0 0 850 395379 -9284 0
0 0 0 846 396225 -8438 0
0 0 0 863 397088 -7575 0
0 0 0 893 397981 -6682 0
0 0 0 873 398854 -5809 0
0 0 0 915 399769 -4894 0
0 0 0 929 400698 -3965 0
0 0 0 886 401584 -3079 0
0 0 0 902 402486 -2177 0
23 1 S112 909 403395 -1268 0
23 1 S112 905 404300 -363 0
23 2 S112 877 405177 514 0
23 2 S112 888 406065 1402 0
23 2 S112 908 406973 2310 0
23 2 S112 888 407861 3198 0
23 2 S112 897 408758 4095 0
23 2 S112 916 409674 5011 0
23 2 S112 913 410587 5924 0
23 2 S112 895 411482 6819 0
0 0 0 883 412365 -10899 0
0 0 0 883 413248 -10016 0
0 0 0 855 414103 -9161 0
0 0 0 819 414922 -8342 0
0 0 0 857 415779 -7485 0
0 0 0 896 416675 -6589 0
0 0 0 883 417558 -5706 0
0 0 0 912 418470 -4794 0
0 0 0 920 419390 -3874 0
0 0 0 916 420306 -2958 0
0 0 0 914 421220 -2044 0
24 1 S106 922 422142 -1122 0
24 1 S106 918 423060 -204 0
24 2 S106 850 423910 646 0
24 2 S106 830 424740 1476 0
24 2 S106 836 425576 2312 0
24 2 S106 823 426399 3135 0
24 2 S106 815 427214 3950 0
24 2 S106 853 428067 4803 0
24 2 S106 854 428921 5657 0
24 2 S106 833 429754 6490 0
0 0 0 824 430578 -9695 0
0 0 0 841 431419 -8854 0
0 0 0 819 432238 -8035 0
0 0 0 846 433084 -7189 0
0 0 0 870 433954 -6319 0
0 0 0 837 434791 -5482 0
0 0 0 822 435613 -4660 0
0 0 0 821 436434 -3839 0
0 0 0 857 437291 -2982 0
0 0 0 819 438110 -2163 0
25 1 S102 824 438934 -1339 0
25 1 S102 857 439791 -482 0
25 2 S102 896 440687 414 0
25 2 S102 854 441541 1268 0
25 2 S102 876 442417 2144 0
25 2 S102 881 443298 3025 0
25 2 S102 870 444168 3895 0
25 2 S102 849 445017 4744 0
25 2 S102 859 445876 5603 0
25 2 S102 873 446749 6476 0
0 0 0 839 447588 -7838 0
0 0 0 859 448447 -6979 0
0 0 0 862 449309 -6117 0
0 0 0 839 450148 -5278 0
0 0 0 850 450998 -4428 0
0 0 0 883 451881 -3545 0
0 0 0 847 452728 -2698 0
26 1 S116 829 453557 -1869 0
26 1 S116 866 454423 -1003 0
26 1 S116 901 455324 -102 0
26 2 S116 833 456157 731 0
26 2 S116 843 457000 1574 0
26 2 S116 846 457846 2420 0
26 2 S116 836 458682 3256 0
26 2 S116 821 459503 4077 0
26 2 S116 828 460331 4905 0
26 2 S116 859 461190 5764 0
26 2 S116 843 462033 6607 0
0 0 0 873 462906 -7241 0
0 0 0 882 463788 -6359 0
0 0 0 861 464649 -5498 0
0 0 0 831 465480 -4667 0
0 0 0 821 466301 -3846 0
0 0 0 865 467166 -2981 0
0 0 0 844 468010 -2137 0
27 1 S106 847 468857 -1290 0
27 1 S106 868 469725 -422 0
27 2 S106 905 470630 483 0
27 2 S106 854 471484 1337 0
27 2 S106 846 472330 2183 0
27 2 S106 850 473180 3033 0
27 2 S106 814 473994 3847 0
27 2 S106 854 474848 4701 0
27 2 S106 873 475721 5574 0
27 2 S106 901 476622 6475 0
0 0 0 871 477493 -8023 0
0 0 0 882 478375 -7141 0
0 0 0 874 479249 -6267 0
0 0 0 824 480073 -5443 0
0 0 0 824 480897 -4619 0
0 0 0 833 481730 -3786 0
0 0 0 826 482556 -2960 0
0 0 0 843 483399 -2117 0
28 1 S102 903 484302 -1214 0
28 1 S102 904 485206 -310 0
28 2 S102 883 486089 573 0
28 2 S102 904 486993 1477 0
28 2 S102 925 487918 2402 0
28 2 S102 907 488825 3309 0
28 2 S102 878 489703 4187 0
28 2 S102 883 490586 5070 0
28 2 S102 897 491483 5967 0
28 2 S102 855 492338 6822 0
0 0 0 828 493166 -12343 0
0 0 0 836 494002 -11507 0
0 0 0 832 494834 -10675 0
0 0 0 820 495654 -9855 0
0 0 0 838 496492 -9017 0
0 0 0 849 497341 -8168 0
0 0 0 827 498168 -7341 0
0 0 0 823 498991 -6518 0
0 0 0 878 499869 -5640 0
0 0 0 892 500761 -4748 0
0 0 0 844 501605 -3904 0
0 0 0 865 502470 -3039 0
0 0 0 843 503313 -2196 0
29 1 S112 794 504107 -1402 0
29 1 S112 786 504893 -616 0
29 2 S112 797 505690 181 0
29 2 S112 849 506539 1030 0
29 2 S112 851 507390 1881 0
29 2 S112 836 508226 2717 0
29 2 S112 875 509101 3592 0
29 2 S112 878 509979 4470 0
29 2 S112 883 510862 5353 0
29 2 S112 891 511753 6244 0
0 0 0 878 512631 -8197 0
0 0 0 823 513454 -7374 0
0 0 0 824 514278 -6550 0
0 0 0 822 515100 -5728 0
0 0 0 832 515932 -4896 0
0 0 0 813 516745 -4083 0
0 0 0 870 517615 -3213 0
0 0 0 905 518520 -2308 0
30 1 S112 853 519373 -1455 0
30 1 S112 872 520245 -583 0
30 2 S112 901 521146 318 0
30 2 S112 824 521970 1142 0
30 2 S112 813 522783 1955 0
30 2 S112 802 523585 2757 0
30 2 S112 795 524380 3552 0
30 2 S112 799 525179 4351 0
30 2 S112 836 526015 5187 0
30 2 S112 906 526921 6093 0
30 2 S112 878 527799 6971 0
0 0 0 906 528705 -10723 0
0 0 0 913 529618 -9810 0
0 0 0 858 530476 -8952 0
0 0 0 857 531333 -8095 0
0 0 0 894 532227 -7201 0
0 0 0 910 533137 -6291 0
0 0 0 873 534010 -5418 0
0 0 0 902 534912 -4516 0
0 0 0 945 535857 -3571 0
0 0 0 951 536808 -2620 0
31 1 S106 927 537735 -1693 0
31 1 S106 961 538696 -732 0
31 2 S106 944 539640 212 0
31 2 S106 908 540548 1120 0
31 2 S106 920 541468 2040 0
31 2 S106 921 542389 2961 0
31 2 S106 899 543288 3860 0
31 2 S106 918 544206 4778 0
31 2 S106 930 545136 5708 0
31 2 S106 907 546043 6615 0
0 0 0 879 546922 -8389 0
0 0 0 882 547804 -7507 0
0 0 0 875 548679 -6632 0
0 0 0 838 549517 -5794 0
0 0 0 857 550374 -4937 0
0 0 0 918 551292 -4019 0
0 0 0 921 552213 -3098 0
0 0 0 904 553117 -2194 0
32 1 S102 908 554025 -1286 0
32 1 S102 908 554933 -378 0
32 2 S102 870 555803 492 0
32 2 S102 865 556668 1357 0
32 2 S102 897 557565 2254 0
32 2 S102 881 558446 3135 0
32 2 S102 828 559274 3963 0
32 2 S102 861 560135 4824 0
32 2 S102 886 561021 5710 0
32 2 S102 848 561869 6558 0
0 0 0 863 562732 -12257 0
0 0 0 859 563591 -11398 0
0 0 0 874 564465 -10524 0
0 0 0 816 565281 -9708 0
0 0 0 855 566136 -8853 0
0 0 0 884 567020 -7969 0
0 0 0 863 567883 -7106 0
0 0 0 835 568718 -6271 0
0 0 0 871 569589 -5400 0
0 0 0 914 570503 -4486 0
0 0 0 879 571382 -3607 0
0 0 0 880 572262 -2727 0
33 1 S112 883 573145 -1844 0
33 1 S112 887 574032 -957 0
33 1 S112 863 574895 -94 0
33 2 S112 864 575759 770 0
33 2 S112 871 576630 1641 0
33 2 S112 853 577483 2494 0
33 2 S112 891 578374 3385 0
33 2 S112 925 579299 4310 0
33 2 S112 931 580230 5241 0
33 2 S112 885 581115 6126 0
33 2 S112 877 581992 7003 0
0 0 0 869 582861 -11376 0
0 0 0 826 583687 -10550 0
0 0 0 816 584503 -9734 0
0 0 0 899 585402 -8835 0
0 0 0 906 586308 -7929 0
0 0 0 867 587175 -7062 0
0 0 0 909 588084 -6153 0
0 0 0 920 589004 -5233 0
0 0 0 868 589872 -4365 0
0 0 0 848 590720 -3517 0
0 0 0 865 591585 -2652 0
34 1 S106 880 592465 -1772 0
34 1 S106 834 593299 -938 0
34 1 S106 833 594132 -105 0
34 2 S106 821 594953 716 0
34 2 S106 809 595762 1525 0
34 2 S106 813 596575 2338 0
34 2 S106 832 597407 3170 0
34 2 S106 856 598263 4026 0
34 2 S106 835 599098 4861 0
34 2 S106 876 599974 5737 0
34 2 S106 901 600875 6638 0
0 0 0 849 601724 -9025 0
0 0 0 873 602597 -8152 0
0 0 0 895 603492 -7257 0
0 0 0 871 604363 -6386 0
0 0 0 833 605196 -5553 0
0 0 0 862 606058 -4691 0
0 0 0 887 606945 -3804 0
0 0 0 879 607824 -2925 0
0 0 0 920 608744 -2005 0
35 1 S102 400 609144 -1605 1
35 1 S102 553 609697 -1052 1
35 1 S102 943 610640 -109 0
35 2 S102 897 611537 788 0
35 2 S102 893 612430 1681 0
35 2 S102 968 613398 2649 0
35 2 S102 990 614388 3639 1
35 2 S102 913 615301 4552 0
35 2 S102 842 616143 5394 0
35 2 S102 763 616906 6157 0
35 2 S102 692 617598 6849 1
0 0 0 771 618369 -7615 0
0 0 0 911 619280 -6704 0
0 0 0 882 620162 -5822 0
0 0 0 860 621022 -4962 0
0 0 0 881 621903 -4081 0
0 0 0 880 622783 -3201 0
0 0 0 828 623611 -2373 0
36 1 S106 806 624417 -1567 0
36 1 S106 801 625218 -766 0
36 1 S106 758 625976 -8 0
36 2 S106 741 626717 733 0
36 2 S106 793 627510 1526 0
36 2 S106 841 628351 2367 0
36 2 S106 823 629174 3190 0
36 2 S106 818 629992 4008 0
36 2 S106 861 630853 4869 0
36 2 S106 885 631738 5754 0
36 2 S106 841 632579 6595 0
0 0 0 847 633426 -10214 0
0 0 0 885 634311 -9329 0
0 0 0 874 635185 -8455 0
0 0 0 824 636009 -7631 0
0 0 0 856 636865 -6775 0
0 0 0 864 637729 -5911 0
0 0 0 844 638573 -5067 0
0 0 0 850 639423 -4217 0
0 0 0 890 640313 -3327 0
0 0 0 892 641205 -2435 0
37 1 S116 844 642049 -1591 0
37 1 S116 844 642893 -747 0
37 2 S116 890 643783 143 0
37 2 S116 885 644668 1028 0
37 2 S116 867 645535 1895 0
37 2 S116 891 646426 2786 0
37 2 S116 892 647318 3678 0
37 2 S116 854 648172 4532 0
37 2 S116 883 649055 5415 0
37 2 S116 885 649940 6300 0
0 0 0 893 650833 -10712 0
0 0 0 858 651691 -9854 0
0 0 0 868 652559 -8986 0
0 0 0 882 653441 -8104 0
0 0 0 851 654292 -7253 0
0 0 0 878 655170 -6375 0
0 0 0 896 656066 -5479 0
0 0 0 905 656971 -4574 0
0 0 0 866 657837 -3708 0
0 0 0 867 658704 -2841 0
0 0 0 832 659536 -2009 0
38 1 S102 812 660348 -1197 0
38 1 S102 815 661163 -382 0
38 2 S102 859 662022 477 0
38 2 S102 863 662885 1340 0
38 2 S102 858 663743 2198 0
38 2 S102 874 664617 3072 0
38 2 S102 872 665489 3944 0
38 2 S102 829 666318 4773 0
38 2 S102 820 667138 5593 0
38 2 S102 845 667983 6438 0
0 0 0 869 668852 -9852 0
0 0 0 847 669699 -9005 0
0 0 0 880 670579 -8125 0
0 0 0 898 671477 -7227 0
0 0 0 884 672361 -6343 0
0 0 0 828 673189 -5515 0
0 0 0 856 674045 -4659 0
0 0 0 859 674904 -3800 0
0 0 0 812 675716 -2988 0
0 0 0 801 676517 -2187 0
39 1 S116 813 677330 -1374 0
39 1 S116 818 678148 -556 0
39 2 S116 859 679007 303 0
39 2 S116 818 679825 1121 0
39 2 S116 839 680664 1960 0
39 2 S116 839 681503 2799 0
39 2 S116 874 682377 3673 0
39 2 S116 827 683204 4500 0
39 2 S116 859 684063 5359 0
39 2 S116 877 684940 6236 0
0 0 0 859 685799 -6698 0
0 0 0 831 686630 -5867 0
0 0 0 834 687464 -5033 0
0 0 0 815 688279 -4218 0
0 0 0 802 689081 -3416 0
0 0 0 803 689884 -2613 0
40 1 S112 809 690693 -1804 0
40 1 S112 855 691548 -949 0
40 1 S112 820 692368 -129 0
40 2 S112 826 693194 697 0
40 2 S112 868 694062 1565 0
40 2 S112 847 694909 2412 0
40 2 S112 820 695729 3232 0
40 2 S112 831 696560 4063 0
40 2 S112 873 697433 4936 0
40 2 S112 858 698291 5794 0
40 2 S112 835 699126 6629 0
0 0 0 869 699995 -188790 0
0 0 0 871 700866 -187919 0
0 0 0 820 701686 -187099 0
0 0 0 852 702538 -186247 0
0 0 0 883 703421 -185364 0
0 0 0 897 704318 -184467 0
0 0 0 835 705153 -183632 0
0 0 0 853 706006 -182779 0
0 0 0 894 706900 -181885 0
0 0 0 889 707789 -180996 0
0 0 0 865 708654 -180131 0
0 0 0 909 709563 -179222 0
0 0 0 912 710475 -178310 0
0 0 0 899 711374 -177411 0
0 0 0 905 712279 -176506 0
0 0 0 947 713226 -175559 0
0 0 0 936 714162 -174623 0
0 0 0 903 715065 -173720 0
0 0 0 896 715961 -172824 0
0 0 0 914 716875 -171910 0
0 0 0 928 717803 -170982 0
0 0 0 894 718697 -170088 0
0 0 0 922 719619 -169166 0
0 0 0 931 720550 -168235 0
0 0 0 918 721468 -167317 0
0 0 0 920 722388 -166397 0
0 0 0 930 723318 -165467 0
0 0 0 936 724254 -164531 0
0 0 0 868 725122 -163663 0
0 0 0 811 725933 -162852 0
0 0 0 791 726724 -162061 0
0 0 0 788 727512 -161273 0
0 0 0 805 728317 -160468 0
0 0 0 832 729149 -159636 0
0 0 0 885 730034 -158751 0
0 0 0 896 730930 -157855 0
0 0 0 924 731854 -156931 0
0 0 0 940 732794 -155991 0
0 0 0 914 733708 -155077 0
0 0 0 922 734630 -154155 0
0 0 0 919 735549 -153236 0
0 0 0 899 736448 -152337 0
0 0 0 839 737287 -151498 0
0 0 0 813 738100 -150685 0
0 0 0 800 738900 -149885 0
0 0 0 771 739671 -149114 0
0 0 0 788 740459 -148326 0
0 0 0 794 741253 -147532 0
0 0 0 745 741998 -146787 0
0 0 0 690 742688 -146097 1
0 0 0 673 743361 -145424 1
0 0 0 707 744068 -144717 0
0 0 0 762 744830 -143955 0
0 0 0 768 745598 -143187 0
0 0 0 799 746397 -142388 0
0 0 0 828 747225 -141560 0
0 0 0 811 748036 -140749 0
0 0 0 792 748828 -139957 0
0 0 0 805 749633 -139152 0
0 0 0 817 750450 -138335 0
0 0 0 805 751255 -137530 0
0 0 0 803 752058 -136727 0
0 0 0 831 752889 -135896 0
0 0 0 837 753726 -135059 0
0 0 0 813 754539 -134246 0
0 0 0 826 755365 -133420 0
0 0 0 839 756204 -132581 0
0 0 0 809 757013 -131772 0
0 0 0 802 757815 -130970 0
0 0 0 817 758632 -130153 0
0 0 0 828 759460 -129325 0
0 0 0 824 760284 -128501 0
0 0 0 833 761117 -127668 0
0 0 0 889 762006 -126779 0
0 0 0 884 762890 -125895 0
0 0 0 844 763734 -125051 0
0 0 0 867 764601 -124184 0
0 0 0 871 765472 -123313 0
0 0 0 854 766326 -122459 0
0 0 0 823 767149 -121636 0
0 0 0 855 768004 -120781 0
0 0 0 888 768892 -119893 0
0 0 0 865 769757 -119028 0
0 0 0 869 770626 -118159 0
0 0 0 896 771522 -117263 0
0 0 0 899 772421 -116364 0
0 0 0 844 773265 -115520 0
0 0 0 872 774137 -114648 0
0 0 0 864 775001 -113784 0
0 0 0 818 775819 -112966 0
0 0 0 801 776620 -112165 0
0 0 0 814 777434 -111351 0
0 0 0 826 778260 -110525 0
0 0 0 813 779073 -109712 0
0 0 0 809 779882 -108903 0
0 0 0 836 780718 -108067 0
0 0 0 869 781587 -107198 0
0 0 0 849 782436 -106349 0
0 0 0 850 783286 -105499 0
0 0 0 865 784151 -104634 0
0 0 0 869 785020 -103765 0
0 0 0 816 785836 -102949 0
0 0 0 804 786640 -102145 0
0 0 0 792 787432 -101353 0
0 0 0 789 788221 -100564 0
0 0 0 760 788981 -99804 0
0 0 0 799 789780 -99005 0
0 0 0 840 790620 -98165 0
0 0 0 828 791448 -97337 0
0 0 0 821 792269 -96516 0
0 0 0 850 793119 -95666 0
0 0 0 859 793978 -94807 0
0 0 0 820 794798 -93987 0
0 0 0 849 795647 -93138 0
0 0 0 861 796508 -92277 0
0 0 0 819 797327 -91458 0
0 0 0 844 798171 -90614 0
0 0 0 867 799038 -89747 0
0 0 0 828 799866 -88919 0
0 0 0 784 800650 -88135 0
0 0 0 786 801436 -87349 0
0 0 0 787 802223 -86562 0
0 0 0 773 802996 -85789 0
0 0 0 725 803721 -85064 0
0 0 0 768 804489 -84296 0
0 0 0 796 805285 -83500 0
0 0 0 805 806090 -82695 0
0 0 0 854 806944 -81841 0
0 0 0 868 807812 -80973 0
0 0 0 881 808693 -80092 0
0 0 0 836 809529 -79256 0
0 0 0 844 810373 -78412 0
0 0 0 833 811206 -77579 0
0 0 0 828 812034 -76751 0
0 0 0 857 812891 -75894 0
0 0 0 833 813724 -75061 0
0 0 0 829 814553 -74232 0
0 0 0 854 815407 -73378 0
0 0 0 870 816277 -72508 0
0 0 0 885 817162 -71623 0
0 0 0 835 817997 -70788 0
0 0 0 859 818856 -69929 0
0 0 0 835 819691 -69094 0
0 0 0 798 820489 -68296 0
0 0 0 787 821276 -67509 0
0 0 0 791 822067 -66718 0
0 0 0 879 822946 -65839 0
0 0 0 909 823855 -64930 0
0 0 0 835 824690 -64095 0
0 0 0 866 825556 -63229 0
0 0 0 860 826416 -62369 0
0 0 0 853 827269 -61516 0
0 0 0 814 828083 -60702 0
0 0 0 816 828899 -59886 0
0 0 0 859 829758 -59027 0
0 0 0 819 830577 -58208 0
0 0 0 820 831397 -57388 0
0 0 0 841 832238 -56547 0
0 0 0 843 833081 -55704 0
0 0 0 838 833919 -54866 0
0 0 0 809 834728 -54057 0
0 0 0 837 835565 -53220 0
0 0 0 881 836446 -52339 0
0 0 0 858 837304 -51481 0
0 0 0 833 838137 -50648 0
0 0 0 865 839002 -49783 0
0 0 0 893 839895 -48890 0
0 0 0 877 840772 -48013 0
0 0 0 826 841598 -47187 0
0 0 0 843 842441 -46344 0
0 0 0 846 843287 -45498 0
0 0 0 867 844154 -44631 0
0 0 0 854 845008 -43777 0
0 0 0 895 845903 -42882 0
0 0 0 914 846817 -41968 0
0 0 0 902 847719 -41066 0
0 0 0 867 848586 -40199 0
0 0 0 889 849475 -39310 0
0 0 0 882 850357 -38428 0
0 0 0 838 851195 -37590 0
0 0 0 857 852052 -36733 0
0 0 0 863 852915 -35870 0
0 0 0 854 853769 -35016 0
0 0 0 814 854583 -34202 0
0 0 0 815 855398 -33387 0
0 0 0 805 856203 -32582 0
0 0 0 790 856993 -31792 0
0 0 0 803 857796 -30989 0
0 0 0 844 858640 -30145 0
0 0 0 897 859537 -29248 0
0 0 0 848 860385 -28400 0
0 0 0 855 861240 -27545 0
0 0 0 865 862105 -26680 0
0 0 0 868 862973 -25812 0
0 0 0 825 863798 -24987 0
0 0 0 856 864654 -24131 0
0 0 0 870 865524 -23261 0
0 0 0 850 866374 -22411 0
0 0 0 841 867215 -21570 0
0 0 0 859 868074 -20711 0
0 0 0 870 868944 -19841 0
0 0 0 824 869768 -19017 0
0 0 0 833 870601 -18184 0
0 0 0 836 871437 -17348 0
0 0 0 845 872282 -16503 0
0 0 0 823 873105 -15680 0
0 0 0 860 873965 -14820 0
0 0 0 862 874827 -13958 0
0 0 0 832 875659 -13126 0
0 0 0 831 876490 -12295 0
0 0 0 858 877348 -11437 0
0 0 0 882 878230 -10555 0
0 0 0 828 879058 -9727 0
0 0 0 854 879912 -8873 0
0 0 0 868 880780 -8005 0
0 0 0 874 881654 -7131 0
0 0 0 829 882483 -6302 0
0 0 0 846 883329 -5456 0
0 0 0 855 884184 -4601 0
0 0 0 875 885059 -3726 0
0 0 0 850 885909 -2876 0
0 0 0 809 886718 -2067 0
41 1 S102 784 887502 -1283 0
41 1 S102 759 888261 -524 0
41 2 S102 777 889038 253 0
41 2 S102 795 889833 1048 0
41 2 S102 774 890607 1822 0
41 2 S102 780 891387 2602 0
41 2 S102 800 892187 3402 0
41 2 S102 805 892992 4207 0
41 2 S102 812 893804 5019 0
41 2 S102 829 894633 5848 0
41 2 S102 839 895472 6687 0
0 0 0 809 896281 -6662 0
0 0 0 808 897089 -5854 0
0 0 0 826 897915 -5028 0
0 0 0 804 898719 -4224 0
0 0 0 749 899468 -3475 0
0 0 0 779 900247 -2696 0
42 1 S112 795 901042 -1901 0
42 1 S112 785 901827 -1116 0
42 1 S112 778 902605 -338 0
42 2 S112 799 903404 461 0
42 2 S112 804 904208 1265 0
42 2 S112 807 905015 2072 0
42 2 S112 829 905844 2901 0
42 2 S112 871 906715 3772 0
42 2 S112 871 907586 4643 0
42 2 S112 856 908442 5499 0
42 2 S112 852 909294 6351 0
0 0 0 803 910097 -10286 0
0 0 0 799 910896 -9487 0
0 0 0 807 911703 -8680 0
0 0 0 870 912573 -7810 0
0 0 0 831 913404 -6979 0
0 0 0 861 914265 -6118 0
0 0 0 851 915116 -5267 0
0 0 0 816 915932 -4451 0
0 0 0 841 916773 -3610 0
0 0 0 794 917567 -2816 0
0 0 0 781 918348 -2035 0
43 1 S116 790 919138 -1245 0
43 1 S116 791 919929 -454 0
43 2 S116 795 920724 341 0
43 2 S116 832 921556 1173 0
43 2 S116 879 922435 2052 0
43 2 S116 839 923274 2891 0
43 2 S116 878 924152 3769 0
43 2 S116 911 925063 4680 0
43 2 S116 834 925897 5514 0
43 2 S116 882 926779 6396 0
0 0 0 855 927634 -6659 0
0 0 0 842 928476 -5817 0
0 0 0 814 929290 -5003 0
0 0 0 847 930137 -4156 0
0 0 0 882 931019 -3274 0
0 0 0 877 931896 -2397 0
44 1 S102 848 932744 -1549 0
44 1 S102 845 933589 -704 0
44 2 S102 800 934389 96 0
44 2 S102 761 935150 857 0
44 2 S102 711 935861 1568 0
44 2 S102 683 936544 2251 1
44 2 S102 770 937314 3021 0
44 2 S102 871 938185 3892 0
44 2 S102 868 939053 4760 0
44 2 S102 845 939898 5605 0
44 2 S102 828 940726 6433 0
0 0 0 862 941588 -9084 0
0 0 0 891 942479 -8193 0
0 0 0 849 943328 -7344 0
0 0 0 831 944159 -6513 0
0 0 0 837 944996 -5676 0
0 0 0 851 945847 -4825 0
0 0 0 810 946657 -4015 0
0 0 0 851 947508 -3164 0
0 0 0 843 948351 -2321 0
45 1 S116 816 949167 -1505 0
45 1 S116 802 949969 -703 0
45 2 S116 838 950807 135 0
45 2 S116 844 951651 979 0
45 2 S116 866 952517 1845 0
45 2 S116 829 953346 2674 0
45 2 S116 843 954189 3517 0
45 2 S116 867 955056 4384 0
45 2 S116 893 955949 5277 0
45 2 S116 862 956811 6139 0
45 2 S116 873 957684 7012 0
0 0 0 885 958569 -11085 0
0 0 0 871 959440 -10214 0
0 0 0 828 960268 -9386 0
0 0 0 842 961110 -8544 0
0 0 0 860 961970 -7684 0
0 0 0 841 962811 -6843 0
0 0 0 876 963687 -5967 0
0 0 0 905 964592 -5062 0
0 0 0 901 965493 -4161 0
0 0 0 830 966323 -3331 0
0 0 0 845 967168 -2486 0
46 1 S102 860 968028 -1626 0
46 1 S102 860 968888 -766 0
46 2 S102 824 969712 58 0
46 2 S102 848 970560 906 0
46 2 S102 872 971432 1778 0
46 2 S102 822 972254 2600 0
46 2 S102 875 973129 3475 0
46 2 S102 895 974024 4370 0
46 2 S102 867 974891 5237 0
46 2 S102 872 975763 6109 0
46 2 S102 888 976651 6997 0
0 0 0 851 977502 -7869 0
0 0 0 814 978316 -7055 0
0 0 0 821 979137 -6234 0
0 0 0 854 979991 -5380 0
0 0 0 825 980816 -4555 0
0 0 0 822 981638 -3733 0
0 0 0 828 982466 -2905 0
0 0 0 811 983277 -2094 0
47 1 S112 818 984095 -1276 0
47 1 S112 828 984923 -448 0
47 2 S112 860 985783 412 0
47 2 S112 832 986615 1244 0
47 2 S112 860 987475 2104 0
47 2 S112 888 988363 2992 0
47 2 S112 861 989224 3853 0
47 2 S112 847 990071 4700 0
47 2 S112 863 990934 5563 0
47 2 S112 870 991804 6433 0
0 0 0 823 992627 -11544 0
0 0 0 830 993457 -10714 0
0 0 0 848 994305 -9866 0
0 0 0 833 995138 -9033 0
0 0 0 813 995951 -8220 0
0 0 0 814 996765 -7406 0
0 0 0 841 997606 -6565 0
0 0 0 852 998458 -5713 0
0 0 0 824 999282 -4889 0
0 0 0 835 1000117 -4054 0
0 0 0 825 1000942 -3229 0
0 0 0 811 1001753 -2418 0
48 1 S116 831 1002584 -1587 0
48 1 S116 795 1003379 -792 0
48 1 S116 775 1004154 -17 0
48 2 S116 778 1004932 761 0
48 2 S116 782 1005714 1543 0
48 2 S116 791 1006505 2334 0
48 2 S116 797 1007302 3131 0
48 2 S116 842 1008144 3973 0
48 2 S116 898 1009042 4871 0
48 2 S116 870 1009912 5741 0
48 2 S116 894 1010806 6635 0
0 0 0 890 1011696 -7395 0
0 0 0 860 1012556 -6535 0
0 0 0 836 1013392 -5699 0
0 0 0 874 1014266 -4825 0
0 0 0 841 1015107 -3984 0
0 0 0 807 1015914 -3177 0
0 0 0 816 1016730 -2361 0
49 1 S112 833 1017563 -1528 0
49 1 S112 817 1018380 -711 0
49 2 S112 852 1019232 141 0
49 2 S112 878 1020110 1019 0
49 2 S112 805 1020915 1824 0
49 2 S112 780 1021695 2604 0
49 2 S112 789 1022484 3393 0
49 2 S112 797 1023281 4190 0
49 2 S112 802 1024083 4992 0
49 2 S112 809 1024892 5801 0
49 2 S112 858 1025750 6659 0
0 0 0 830 1026580 -10913 0
0 0 0 807 1027387 -10106 0
0 0 0 846 1028233 -9260 0
0 0 0 860 1029093 -8400 0
0 0 0 819 1029912 -7581 0
0 0 0 813 1030725 -6768 0
0 0 0 839 1031564 -5929 0
0 0 0 803 1032367 -5126 0
0 0 0 802 1033169 -4324 0
0 0 0 737 1033906 -3587 0
0 0 0 689 1034595 -2898 1
0 0 0 663 1035258 -2235 1
50 1 S106 657 1035915 -1578 1
50 1 S106 715 1036630 -863 0
50 1 S106 813 1037443 -50 0
50 2 S106 875 1038318 825 0
50 2 S106 842 1039160 1667 0
50 2 S106 826 1039986 2493 0
50 2 S106 826 1040812 3319 0
50 2 S106 807 1041619 4126 0
50 2 S106 795 1042414 4921 0
50 2 S106 805 1043219 5726 0
50 2 S106 811 1044030 6537 0
0 0 0 800 1044830 -7534 0
0 0 0 788 1045618 -6746 0
0 0 0 787 1046405 -5959 0
0 0 0 796 1047201 -5163 0
0 0 0 803 1048004 -4360 0
0 0 0 811 1048815 -3549 0
0 0 0 814 1049629 -2735 0
51 1 S112 814 1050443 -1921 0
51 1 S112 805 1051248 -1116 0
51 1 S112 797 1052045 -319 0
51 2 S112 812 1052857 493 0
51 2 S112 829 1053686 1322 0
51 2 S112 814 1054500 2136 0
51 2 S112 807 1055307 2943 0
51 2 S112 820 1056127 3763 0
51 2 S112 823 1056950 4586 0
51 2 S112 824 1057774 5410 0
51 2 S112 813 1058587 6223 0
0 0 0 817 1059404 -6753 0
0 0 0 841 1060245 -5912 0
0 0 0 857 1061102 -5055 0
0 0 0 826 1061928 -4229 0
0 0 0 830 1062758 -3399 0
0 0 0 839 1063597 -2560 0
52 1 S116 825 1064422 -1735 0
52 1 S116 811 1065233 -924 0
52 1 S116 841 1066074 -83 0
52 2 S116 868 1066942 785 0
52 2 S116 852 1067794 1637 0
52 2 S116 882 1068676 2519 0
52 2 S116 895 1069571 3414 0
52 2 S116 871 1070442 4285 0
52 2 S116 854 1071296 5139 0
52 2 S116 836 1072132 5975 0
52 2 S116 842 1072974 6817 0
0 0 0 804 1073778 -8460 0
0 0 0 809 1074587 -7651 0
0 0 0 812 1075399 -6839 0
0 0 0 796 1076195 -6043 0
0 0 0 787 1076982 -5256 0
0 0 0 805 1077787 -4451 0
0 0 0 808 1078595 -3643 0
0 0 0 796 1079391 -2847 0
0 0 0 793 1080184 -2054 0
53 1 S106 803 1080987 -1251 0
53 1 S106 834 1081821 -417 0
53 2 S106 897 1082718 480 0
53 2 S106 876 1083594 1356 0
53 2 S106 876 1084470 2232 0
53 2 S106 881 1085351 3113 0
53 2 S106 872 1086223 3985 0
53 2 S106 815 1087038 4800 0
53 2 S106 860 1087898 5660 0
53 2 S106 836 1088734 6496 0
0 0 0 823 1089557 -7469 0
0 0 0 820 1090377 -6649 0
0 0 0 820 1091197 -5829 0
0 0 0 859 1092056 -4970 0
0 0 0 822 1092878 -4148 0
0 0 0 817 1093695 -3331 0
0 0 0 886 1094581 -2445 0
54 1 S102 883 1095464 -1562 0
54 1 S102 819 1096283 -743 0
54 2 S102 856 1097139 113 0
54 2 S102 873 1098012 986 0
54 2 S102 851 1098863 1837 0
54 2 S102 863 1099726 2700 0
54 2 S102 871 1100597 3571 0
54 2 S102 863 1101460 4434 0
54 2 S102 804 1102264 5238 0
54 2 S102 803 1103067 6041 0
54 2 S102 808 1103875 6849 0
0 0 0 807 1104682 -11260 0
0 0 0 802 1105484 -10458 0
0 0 0 853 1106337 -9605 0
0 0 0 885 1107222 -8720 0
0 0 0 832 1108054 -7888 0
0 0 0 849 1108903 -7039 0
0 0 0 880 1109783 -6159 0
0 0 0 888 1110671 -5271 0
0 0 0 840 1111511 -4431 0
0 0 0 856 1112367 -3575 0
0 0 0 825 1113192 -2750 0
55 1 S106 793 1113985 -1957 0
55 1 S106 755 1114740 -1202 0
55 1 S106 783 1115523 -419 0
55 2 S106 792 1116315 373 0
55 2 S106 774 1117089 1147 0
55 2 S106 809 1117898 1956 0
55 2 S106 815 1118713 2771 0
55 2 S106 809 1119522 3580 0
55 2 S106 818 1120340 4398 0
55 2 S106 817 1121157 5215 0
55 2 S106 809 1121966 6024 0
55 2 S106 867 1122833 6891 0
0 0 0 876 1123709 -6723 0
0 0 0 834 1124543 -5889 0
0 0 0 827 1125370 -5062 0
0 0 0 817 1126187 -4245 0
0 0 0 809 1126996 -3436 0
0 0 0 804 1127800 -2632 0
56 1 S116 814 1128614 -1818 0
56 1 S116 851 1129465 -967 0
56 1 S116 842 1130307 -125 0
56 2 S116 816 1131123 691 0
56 2 S116 842 1131965 1533 0
56 2 S116 845 1132810 2378 0
56 2 S116 853 1133663 3231 0
56 2 S116 805 1134468 4036 0
56 2 S116 811 1135279 4847 0
56 2 S116 816 1136095 5663 0
56 2 S116 809 1136904 6472 0
0 0 0 805 1137709 -7792 0
0 0 0 846 1138555 -6946 0
0 0 0 825 1139380 -6121 0
0 0 0 819 1140199 -5302 0
0 0 0 817 1141016 -4485 0
0 0 0 794 1141810 -3691 0
0 0 0 789 1142599 -2902 0
0 0 0 788 1143387 -2114 0
57 1 S106 802 1144189 -1312 0
57 1 S106 809 1144998 -503 0
57 2 S106 801 1145799 298 0
57 2 S106 811 1146610 1109 0
57 2 S106 819 1147429 1928 0
57 2 S106 807 1148236 2735 0
57 2 S106 814 1149050 3549 0
57 2 S106 820 1149870 4369 0
57 2 S106 874 1150744 5243 0
57 2 S106 903 1151647 6146 0
57 2 S106 864 1152511 7010 0
0 0 0 888 1153399 -9128 0
0 0 0 892 1154291 -8236 0
0 0 0 886 1155177 -7350 0
0 0 0 832 1156009 -6518 0
0 0 0 831 1156840 -5687 0
0 0 0 841 1157681 -4846 0
0 0 0 814 1158495 -4032 0
0 0 0 809 1159304 -3223 0
0 0 0 813 1160117 -2410 0
58 1 S102 809 1160926 -1601 0
58 1 S102 706 1161632 -895 0
58 1 S102 671 1162303 -224 1
58 2 S102 635 1162938 411 1
58 2 S102 619 1163557 1030 1
58 2 S102 613 1164170 1643 1
58 2 S102 624 1164794 2267 1
58 2 S102 659 1165453 2926 1
58 2 S102 671 1166124 3597 1
58 2 S102 685 1166809 4282 1
58 2 S102 649 1167458 4931 1
58 2 S102 524 1167982 5455 1
58 2 S102 800 1168782 6255 0
58 2 S102 647 1169429 6902 1
0 0 0 627 1170056 -6348 1
0 0 0 633 1170689 -5715 1
0 0 0 630 1171319 -5085 1
0 0 0 639 1171958 -4446 1
0 0 0 649 1172607 -3797 1
0 0 0 682 1173289 -3115 1
0 0 0 687 1173976 -2428 1
59 1 S112 674 1174650 -1754 1
59 1 S112 696 1175346 -1058 1
59 1 S112 701 1176047 -357 0
59 2 S112 727 1176774 370 0
59 2 S112 716 1177490 1086 0
59 2 S112 697 1178187 1783 1
59 2 S112 702 1178889 2485 0
59 2 S112 717 1179606 3202 0
59 2 S112 739 1180345 3941 0
59 2 S112 746 1181091 4687 0
59 2 S112 745 1181836 5432 0
59 2 S112 758 1182594 6190 0
59 2 S112 807 1183401 6997 0
0 0 0 833 1184234 -7803 0
0 0 0 804 1185038 -6999 0
0 0 0 816 1185854 -6183 0
0 0 0 820 1186674 -5363 0
0 0 0 792 1187466 -4571 0
0 0 0 780 1188246 -3791 0
0 0 0 809 1189055 -2982 0
0 0 0 821 1189876 -2161 0
60 1 S102 785 1190661 -1376 0
60 1 S102 734 1191395 -642 0
60 2 S102 741 1192136 99 0
60 2 S102 791 1192927 890 0
60 2 S102 781 1193708 1671 0
60 2 S102 785 1194493 2456 0
60 2 S102 814 1195307 3270 0
60 2 S102 847 1196154 4117 0
60 2 S102 809 1196963 4926 0
60 2 S102 817 1197780 5743 0
60 2 S102 847 1198627 6590 0
0 0 0 776 1199403 -10257 0
0 0 0 793 1200196 -9464 0
0 0 0 823 1201019 -8641 0
0 0 0 813 1201832 -7828 0
0 0 0 801 1202633 -7027 0
0 0 0 820 1203453 -6207 0
0 0 0 810 1204263 -5397 0
0 0 0 833 1205096 -4564 0
0 0 0 806 1205902 -3758 0
0 0 0 815 1206717 -2943 0
0 0 0 828 1207545 -2115 0
61 1 S106 823 1208368 -1292 0
61 1 S106 807 1209175 -485 0
61 2 S106 838 1210013 353 0
61 2 S106 874 1210887 1227 0
61 2 S106 869 1211756 2096 0
61 2 S106 831 1212587 2927 0
61 2 S106 866 1213453 3793 0
61 2 S106 890 1214343 4683 0
61 2 S106 855 1215198 5538 0
61 2 S106 856 1216054 6394 0
0 0 0 881 1216935 -7579 0
0 0 0 902 1217837 -6677 0
0 0 0 856 1218693 -5821 0
0 0 0 873 1219566 -4948 0
0 0 0 868 1220434 -4080 0
0 0 0 842 1221276 -3238 0
0 0 0 853 1222129 -2385 0
62 1 S112 859 1222988 -1526 0
62 1 S112 844 1223832 -682 0
62 2 S112 839 1224671 157 0
62 2 S112 881 1225552 1038 0
62 2 S112 903 1226455 1941 0
62 2 S112 867 1227322 2808 0
62 2 S112 890 1228212 3698 0
62 2 S112 895 1229107 4593 0
62 2 S112 864 1229971 5457 0
62 2 S112 842 1230813 6299 0
0 0 0 881 1231694 -11388 0
0 0 0 914 1232608 -10474 0
0 0 0 888 1233496 -9586 0
0 0 0 879 1234375 -8707 0
0 0 0 893 1235268 -7814 0
0 0 0 903 1236171 -6911 0
0 0 0 892 1237063 -6019 0
0 0 0 913 1237976 -5106 0
0 0 0 923 1238899 -4183 0
0 0 0 912 1239811 -3271 0
0 0 0 818 1240629 -2453 0
63 1 S102 806 1241435 -1647 0
63 1 S102 796 1242231 -851 0
63 1 S102 792 1243023 -59 0
63 2 S102 778 1243801 719 0
63 2 S102 807 1244608 1526 0
63 2 S102 846 1245454 2372 0
63 2 S102 887 1246341 3259 0
63 2 S102 860 1247201 4119 0
63 2 S102 910 1248111 5029 0
63 2 S102 921 1249032 5950 0
63 2 S102 907 1249939 6857 0
0 0 0 928 1250867 -9456 0
0 0 0 947 1251814 -8509 0
0 0 0 930 1252744 -7579 0
0 0 0 899 1253643 -6680 0
0 0 0 887 1254530 -5793 0
0 0 0 880 1255410 -4913 0
0 0 0 844 1256254 -4069 0
0 0 0 864 1257118 -3205 0
0 0 0 893 1258011 -2312 0
64 1 S112 896 1258907 -1416 0
64 1 S112 880 1259787 -536 0
64 2 S112 906 1260693 370 0
64 2 S112 913 1261606 1283 0
64 2 S112 898 1262504 2181 0
64 2 S112 904 1263408 3085 0
64 2 S112 909 1264317 3994 0
64 2 S112 896 1265213 4890 0
64 2 S112 862 1266075 5752 0
64 2 S112 870 1266945 6622 0
0 0 0 888 1267833 -6648 0
0 0 0 843 1268676 -5805 0
0 0 0 837 1269513 -4968 0
0 0 0 883 1270396 -4085 0
0 0 0 868 1271264 -3217 0
0 0 0 823 1272087 -2394 0
65 1 S106 825 1272912 -1569 0
65 1 S106 860 1273772 -709 0
65 2 S106 817 1274589 108 0
65 2 S106 790 1275379 898 0
65 2 S106 778 1276157 1676 0
65 2 S106 696 1276853 2372 1
65 2 S106 657 1277510 3029 1
65 2 S106 706 1278216 3735 0
65 2 S106 810 1279026 4545 0
65 2 S106 897 1279923 5442 0
65 2 S106 843 1280766 6285 0
0 0 0 858 1281624 -6634 0
0 0 0 873 1282497 -5761 0
0 0 0 886 1283383 -4875 0
0 0 0 875 1284258 -4000 0
0 0 0 856 1285114 -3144 0
0 0 0 820 1285934 -2324 0
66 1 S116 806 1286740 -1518 0
66 1 S116 747 1287487 -771 0
66 2 S116 778 1288265 7 0
66 2 S116 830 1289095 837 0
66 2 S116 890 1289985 1727 0
66 2 S116 897 1290882 2624 0
66 2 S116 909 1291791 3533 0
66 2 S116 953 1292744 4486 0
66 2 S116 945 1293689 5431 0
66 2 S116 914 1294603 6345 0
0 0 0 881 1295484 -11309 0
0 0 0 835 1296319 -10474 0
0 0 0 802 1297121 -9672 0
0 0 0 800 1297921 -8872 0
0 0 0 793 1298714 -8079 0
0 0 0 785 1299499 -7294 0
0 0 0 808 1300307 -6486 0
0 0 0 806 1301113 -5680 0
0 0 0 806 1301919 -4874 0
0 0 0 819 1302738 -4055 0
0 0 0 807 1303545 -3248 0
0 0 0 753 1304298 -2495 0
67 1 S102 711 1305009 -1784 0
67 1 S102 699 1305708 -1085 0
67 1 S102 703 1306411 -382 0
67 2 S102 705 1307116 323 0
67 2 S102 706 1307822 1029 0
67 2 S102 710 1308532 1739 0
67 2 S102 723 1309255 2462 0
67 2 S102 762 1310017 3224 0
67 2 S102 757 1310774 3981 0
67 2 S102 781 1311555 4762 0
67 2 S102 802 1312357 5564 0
67 2 S102 805 1313162 6369 0
0 0 0 807 1313969 -7081 0
0 0 0 789 1314758 -6292 0
0 0 0 811 1315569 -5481 0
0 0 0 823 1316392 -4658 0
0 0 0 808 1317200 -3850 0
0 0 0 790 1317990 -3060 0
0 0 0 795 1318785 -2265 0
68 1 S106 835 1319620 -1430 0
68 1 S106 775 1320395 -655 0
68 2 S106 718 1321113 63 0
68 2 S106 703 1321816 766 0
68 2 S106 712 1322528 1478 0
68 2 S106 734 1323262 2212 0
68 2 S106 766 1324028 2978 0
68 2 S106 802 1324830 3780 0
68 2 S106 837 1325667 4617 0
68 2 S106 861 1326528 5478 0
68 2 S106 826 1327354 6304 0
0 0 0 862 1328216 -11021 0
0 0 0 838 1329054 -10183 0
0 0 0 800 1329854 -9383 0
0 0 0 771 1330625 -8612 0
0 0 0 770 1331395 -7842 0
0 0 0 753 1332148 -7089 0
0 0 0 767 1332915 -6322 0
0 0 0 832 1333747 -5490 0
0 0 0 871 1334618 -4619 0
0 0 0 851 1335469 -3768 0
0 0 0 816 1336285 -2952 0
0 0 0 832 1337117 -2120 0
69 1 S102 845 1337962 -1275 0
69 1 S102 863 1338825 -412 0
69 2 S102 845 1339670 433 0
69 2 S102 865 1340535 1298 0
69 2 S102 870 1341405 2168 0
69 2 S102 848 1342253 3016 0
69 2 S102 818 1343071 3834 0
69 2 S102 840 1343911 4674 0
69 2 S102 816 1344727 5490 0
69 2 S102 807 1345534 6297 0
0 0 0 803 1346337 -8815 0
0 0 0 815 1347152 -8000 0
0 0 0 833 1347985 -7167 0
0 0 0 807 1348792 -6360 0
0 0 0 795 1349587 -5565 0
0 0 0 805 1350392 -4760 0
0 0 0 813 1351205 -3947 0
0 0 0 808 1352013 -3139 0
0 0 0 842 1352855 -2297 0
70 1 S112 812 1353667 -1485 0
70 1 S112 804 1354471 -681 0
70 2 S112 754 1355225 73 0
70 2 S112 708 1355933 781 0
70 2 S112 679 1356612 1460 1
70 2 S112 669 1357281 2129 1
70 2 S112 694 1357975 2823 1
70 2 S112 775 1358750 3598 0
70 2 S112 801 1359551 4399 0
70 2 S112 756 1360307 5155 0
70 2 S112 792 1361099 5947 0
70 2 S112 795 1361894 6742 0
0 0 0 744 1362638 -9921 0
0 0 0 729 1363367 -9192 0
0 0 0 743 1364110 -8449 0
0 0 0 756 1364866 -7693 0
0 0 0 778 1365644 -6915 0
0 0 0 778 1366422 -6137 0
0 0 0 807 1367229 -5330 0
0 0 0 827 1368056 -4503 0
0 0 0 799 1368855 -3704 0
0 0 0 792 1369647 -2912 0
0 0 0 841 1370488 -2071 0
71 1 S116 843 1371331 -1228 0
71 1 S116 847 1372178 -381 0
71 2 S116 812 1372990 431 0
71 2 S116 853 1373843 1284 0
71 2 S116 871 1374714 2155 0
71 2 S116 862 1375576 3017 0
71 2 S116 833 1376409 3850 0
71 2 S116 859 1377268 4709 0
71 2 S116 872 1378140 5581 0
71 2 S116 889 1379029 6470 0
0 0 0 883 1379912 -8446 0
0 0 0 893 1380805 -7553 0
0 0 0 881 1381686 -6672 0
0 0 0 806 1382492 -5866 0
0 0 0 792 1383284 -5074 0
0 0 0 745 1384029 -4329 0
0 0 0 781 1384810 -3548 0
0 0 0 804 1385614 -2744 0
72 1 S102 808 1386422 -1936 0
72 1 S102 842 1387264 -1094 0
72 1 S102 847 1388111 -247 0
72 2 S102 863 1388974 616 0
72 2 S102 848 1389822 1464 0
72 2 S102 804 1390626 2268 0
72 2 S102 807 1391433 3075 0
72 2 S102 814 1392247 3889 0
72 2 S102 830 1393077 4719 0
72 2 S102 825 1393902 5544 0
72 2 S102 837 1394739 6381 0
0 0 0 829 1395568 -6434 0
0 0 0 852 1396420 -5582 0
0 0 0 813 1397233 -4769 0
0 0 0 805 1398038 -3964 0
0 0 0 764 1398802 -3200 0
0 0 0 778 1399580 -2422 0
73 1 S116 757 1400337 -1665 0
73 1 S116 807 1401144 -858 0
73 1 S116 830 1401974 -28 0
73 2 S116 829 1402803 801 0
73 2 S116 825 1403628 1626 0
73 2 S116 837 1404465 2463 0
73 2 S116 878 1405343 3341 0
73 2 S116 869 1406212 4210 0
73 2 S116 829 1407041 5039 0
73 2 S116 832 1407873 5871 0
73 2 S116 869 1408742 6740 0
0 0 0 864 1409606 -9290 0
0 0 0 828 1410434 -8462 0
0 0 0 837 1411271 -7625 0
0 0 0 823 1412094 -6802 0
0 0 0 806 1412900 -5996 0
0 0 0 805 1413705 -5191 0
0 0 0 834 1414539 -4357 0
0 0 0 853 1415392 -3504 0
0 0 0 860 1416252 -2644 0
74 1 S106 876 1417128 -1768 0
74 1 S106 890 1418018 -878 0
74 1 S106 877 1418895 -1 0
74 2 S106 845 1419740 844 0
74 2 S106 815 1420555 1659 0
74 2 S106 821 1421376 2480 0
74 2 S106 839 1422215 3319 0
74 2 S106 864 1423079 4183 0
74 2 S106 839 1423918 5022 0
74 2 S106 849 1424767 5871 0
74 2 S106 856 1425623 6727 0
0 0 0 843 1426466 -6521 0
0 0 0 827 1427293 -5694 0
0 0 0 843 1428136 -4851 0
0 0 0 843 1428979 -4008 0
0 0 0 814 1429793 -3194 0
0 0 0 819 1430612 -2375 0
75 1 S112 841 1431453 -1534 0
75 1 S112 879 1432332 -655 0
75 2 S112 856 1433188 201 0
75 2 S112 816 1434004 1017 0
75 2 S112 826 1434830 1843 0
75 2 S112 821 1435651 2664 0
75 2 S112 811 1436462 3475 0
75 2 S112 803 1437265 4278 0
75 2 S112 817 1438082 5095 0
75 2 S112 807 1438889 5902 0
75 2 S112 789 1439678 6691 0
0 0 0 800 1440478 -6037 0
0 0 0 809 1441287 -5228 0
0 0 0 809 1442096 -4419 0
0 0 0 812 1442908 -3607 0
0 0 0 828 1443736 -2779 0
76 1 S116 864 1444600 -1915 0
76 1 S116 860 1445460 -1055 0
76 1 S116 846 1446306 -209 0
76 2 S116 826 1447132 617 0
76 2 S116 823 1447955 1440 0
76 2 S116 835 1448790 2275 0
76 2 S116 818 1449608 3093 0
76 2 S116 815 1450423 3908 0
76 2 S116 823 1451246 4731 0
76 2 S116 845 1452091 5576 0
76 2 S116 825 1452916 6401 0
0 0 0 828 1453744 -6730 0
0 0 0 811 1454555 -5919 0
0 0 0 803 1455358 -5116 0
0 0 0 793 1456151 -4323 0
0 0 0 800 1456951 -3523 0
0 0 0 819 1457770 -2704 0
77 1 S106 848 1458618 -1856 0
77 1 S106 764 1459382 -1092 0
77 1 S106 731 1460113 -361 0
77 2 S106 673 1460786 312 1
77 2 S106 657 1461443 969 1
77 2 S106 624 1462067 1593 1
77 2 S106 622 1462689 2215 1
77 2 S106 650 1463339 2865 1
77 2 S106 688 1464027 3553 1
77 2 S106 726 1464753 4279 0
77 2 S106 719 1465472 4998 0
77 2 S106 782 1466254 5780 0
77 2 S106 807 1467061 6587 0
0 0 0 844 1467905 -7904 0
0 0 0 818 1468723 -7086 0
0 0 0 855 1469578 -6231 0
0 0 0 864 1470442 -5367 0
0 0 0 878 1471320 -4489 0
0 0 0 805 1472125 -3684 0
0 0 0 886 1473011 -2798 0
78 1 S112 888 1473899 -1910 0
78 1 S112 828 1474727 -1082 0
78 1 S112 848 1475575 -234 0
78 2 S112 862 1476437 628 0
78 2 S112 879 1477316 1507 0
78 2 S112 854 1478170 2361 0
78 2 S112 876 1479046 3237 0
78 2 S112 876 1479922 4113 0
78 2 S112 837 1480759 4950 0
78 2 S112 819 1481578 5769 0
78 2 S112 827 1482405 6596 0
0 0 0 870 1483275 -11069 0
0 0 0 819 1484094 -10250 0
0 0 0 820 1484914 -9430 0
0 0 0 809 1485723 -8621 0
0 0 0 793 1486516 -7828 0
0 0 0 776 1487292 -7052 0
0 0 0 810 1488102 -6242 0
0 0 0 842 1488944 -5400 0
0 0 0 835 1489779 -4565 0
0 0 0 862 1490641 -3703 0
0 0 0 885 1491526 -2818 0
79 1 S102 831 1492357 -1987 0
79 1 S102 814 1493171 -1173 0
79 1 S102 808 1493979 -365 0
79 2 S102 850 1494829 485 0
79 2 S102 883 1495712 1368 0
79 2 S102 849 1496561 2217 0
79 2 S102 881 1497442 3098 0
79 2 S102 893 1498335 3991 0
79 2 S102 869 1499204 4860 0
79 2 S102 895 1500099 5755 0
79 2 S102 904 1501003 6659 0
0 0 0 882 1501885 -9054 0
0 0 0 875 1502760 -8179 0
0 0 0 851 1503611 -7328 0
0 0 0 826 1504437 -6502 0
0 0 0 794 1505231 -5708 0
0 0 0 815 1506046 -4893 0
0 0 0 828 1506874 -4065 0
0 0 0 846 1507720 -3219 0
0 0 0 818 1508538 -2401 0
80 1 S116 805 1509343 -1596 0
80 1 S116 835 1510178 -761 0
80 2 S116 881 1511059 120 0
80 2 S116 877 1511936 997 0
80 2 S116 855 1512791 1852 0
80 2 S116 876 1513667 2728 0
80 2 S116 898 1514565 3626 0
80 2 S116 861 1515426 4487 0
80 2 S116 874 1516300 5361 0
80 2 S116 888 1517188 6249 0
