T_0152
BeatCount Mean SD BeatCountNoOutliers MeanNoOutliers SDNoOutliers
1673 917,554094441124 78,6961836865422 1656 915,81461352657 74,8923126229463

Trial TrialStatus Trialtype IBI AbsPosition RelPosition Outlier
0 0 0 906 1366 -14543 0
0 0 0 839 2205 -13704 0
0 0 0 895 3100 -12809 0
0 0 0 919 4019 -11890 0
0 0 0 1047 5066 -10843 0
0 0 0 982 6048 -9861 0
0 0 0 924 6972 -8937 0
0 0 0 974 7946 -7963 0
0 0 0 924 8870 -7039 0
0 0 0 824 9694 -6215 0
0 0 0 784 10478 -5431 0
0 0 0 792 11270 -4639 0
0 0 0 823 12093 -3816 0
0 0 0 873 12966 -2943 0
0 0 0 863 13829 -2080 0
1 1 S112 835 14664 -1245 0
1 1 S112 932 15596 -313 0
1 2 S112 935 16531 622 0
1 2 S112 976 17507 1598 0
1 2 S112 992 18499 2590 0
1 2 S112 995 19494 3585 0
1 2 S112 997 20491 4582 0
1 2 S112 966 21457 5548 0
1 2 S112 899 22356 6447 0
0 0 0 851 23207 -12977 0
0 0 0 881 24088 -12096 0
0 0 0 905 24993 -11191 0
0 0 0 1074 26067 -10117 0
0 0 0 1005 27072 -9112 0
0 0 0 943 28015 -8169 0
0 0 0 863 28878 -7306 0
0 0 0 781 29659 -6525 0
0 0 0 774 30433 -5751 0
0 0 0 779 31212 -4972 0
0 0 0 828 32040 -4144 0
0 0 0 875 32915 -3269 0
0 0 0 798 33713 -2471 0
2 1 S102 813 34526 -1658 0
2 1 S102 867 35393 -791 0
2 2 S102 876 36269 85 0
2 2 S102 907 37176 992 0
2 2 S102 885 38061 1877 0
2 2 S102 896 38957 2773 0
2 2 S102 891 39848 3664 0
2 2 S102 875 40723 4539 0
2 2 S102 827 41550 5366 0
2 2 S102 861 42411 6227 0
0 0 0 946 43357 -9257 0
0 0 0 1040 44397 -8217 0
0 0 0 922 45319 -7295 0
0 0 0 913 46232 -6382 0
0 0 0 862 47094 -5520 0
0 0 0 871 47965 -4649 0
0 0 0 834 48799 -3815 0
0 0 0 870 49669 -2945 0
0 0 0 941 50610 -2004 0
3 1 S116 950 51560 -1054 0
3 1 S116 864 52424 -190 0
3 2 S116 875 53299 685 0
3 2 S116 959 54258 1644 0
3 2 S116 1001 55259 2645 0
3 2 S116 891 56150 3536 0
3 2 S116 889 57039 4425 0
3 2 S116 945 57984 5370 0
3 2 S116 1062 59046 6432 0
0 0 0 928 59974 -12815 0
0 0 0 977 60951 -11838 0
0 0 0 983 61934 -10855 0
0 0 0 909 62843 -9946 0
0 0 0 1050 63893 -8896 0
0 0 0 976 64869 -7920 0
0 0 0 907 65776 -7013 0
0 0 0 940 66716 -6073 0
0 0 0 962 67678 -5111 0
0 0 0 973 68651 -4138 0
0 0 0 898 69549 -3240 0
0 0 0 944 70493 -2296 0
4 1 S106 967 71460 -1329 0
4 1 S106 991 72451 -338 0
4 2 S106 899 73350 561 0
4 2 S106 929 74279 1490 0
4 2 S106 960 75239 2450 0
4 2 S106 969 76208 3419 0
4 2 S106 922 77130 4341 0
4 2 S106 918 78048 5259 0
4 2 S106 942 78990 6201 0
0 0 0 982 79972 -7771 0
0 0 0 945 80917 -6826 0
0 0 0 875 81792 -5951 0
0 0 0 943 82735 -5008 0
0 0 0 890 83625 -4118 0
0 0 0 819 84444 -3299 0
0 0 0 851 85295 -2448 0
5 1 S116 858 86153 -1590 0
5 1 S116 891 87044 -699 0
5 2 S116 864 87908 165 0
5 2 S116 906 88814 1071 0
5 2 S116 953 89767 2024 0
5 2 S116 978 90745 3002 0
5 2 S116 981 91726 3983 0
5 2 S116 909 92635 4892 0
5 2 S116 920 93555 5812 0
5 2 S116 913 94468 6725 0
0 0 0 931 95399 -10929 0
0 0 0 839 96238 -10090 0
0 0 0 891 97129 -9199 0
0 0 0 1009 98138 -8190 0
0 0 0 1050 99188 -7140 0
0 0 0 881 100069 -6259 0
0 0 0 850 100919 -5409 0
0 0 0 881 101800 -4528 0
0 0 0 909 102709 -3619 0
0 0 0 907 103616 -2712 0
6 1 S106 871 104487 -1841 0
6 1 S106 897 105384 -944 0
6 1 S106 912 106296 -32 0
6 2 S106 880 107176 848 0
6 2 S106 888 108064 1736 0
6 2 S106 948 109012 2684 0
6 2 S106 983 109995 3667 0
6 2 S106 996 110991 4663 0
6 2 S106 885 111876 5548 0
6 2 S106 926 112802 6474 0
0 0 0 966 113768 -12653 0
0 0 0 972 114740 -11681 0
0 0 0 922 115662 -10759 0
0 0 0 1089 116751 -9670 0
0 0 0 1069 117820 -8601 0
0 0 0 860 118680 -7741 0
0 0 0 804 119484 -6937 0
0 0 0 848 120332 -6089 0
0 0 0 878 121210 -5211 0
0 0 0 918 122128 -4293 0
0 0 0 928 123056 -3365 0
0 0 0 963 124019 -2402 0
7 1 S102 972 124991 -1430 0
7 1 S102 922 125913 -508 0
7 2 S102 896 126809 388 0
7 2 S102 934 127743 1322 0
7 2 S102 1035 128778 2357 0
7 2 S102 929 129707 3286 0
7 2 S102 872 130579 4158 0
7 2 S102 908 131487 5066 0
7 2 S102 969 132456 6035 0
0 0 0 1026 133482 -10910 0
0 0 0 951 134433 -9959 0
0 0 0 1004 135437 -8955 0
0 0 0 1059 136496 -7896 0
0 0 0 1032 137528 -6864 0
0 0 0 923 138451 -5941 0
0 0 0 898 139349 -5043 0
0 0 0 906 140255 -4137 0
0 0 0 854 141109 -3283 0
0 0 0 895 142004 -2388 0
8 1 S112 934 142938 -1454 0
8 1 S112 952 143890 -502 0
8 2 S112 874 144764 372 0
8 2 S112 935 145699 1307 0
8 2 S112 1068 146767 2375 0
8 2 S112 1026 147793 3401 0
8 2 S112 933 148726 4334 0
8 2 S112 938 149664 5272 0
8 2 S112 955 150619 6227 0
0 0 0 979 151598 -9389 0
0 0 0 910 152508 -8479 0
0 0 0 955 153463 -7524 0
0 0 0 1028 154491 -6496 0
0 0 0 933 155424 -5563 0
0 0 0 986 156410 -4577 0
0 0 0 959 157369 -3618 0
0 0 0 851 158220 -2767 0
9 1 S116 780 159000 -1987 0
9 1 S116 819 159819 -1168 0
9 1 S116 910 160729 -258 0
9 2 S116 824 161553 566 0
9 2 S116 826 162379 1392 0
9 2 S116 909 163288 2301 0
9 2 S116 846 164134 3147 0
9 2 S116 842 164976 3989 0
9 2 S116 865 165841 4854 0
9 2 S116 934 166775 5788 0
9 2 S116 991 167766 6779 0
0 0 0 881 168647 -12947 0
0 0 0 893 169540 -12054 0
0 0 0 908 170448 -11146 0
0 0 0 886 171334 -10260 0
0 0 0 902 172236 -9358 0
0 0 0 981 173217 -8377 0
0 0 0 963 174180 -7414 0
0 0 0 855 175035 -6559 0
0 0 0 811 175846 -5748 0
0 0 0 814 176660 -4934 0
0 0 0 798 177458 -4136 0
0 0 0 818 178276 -3318 0
0 0 0 811 179087 -2507 0
10 1 S102 826 179913 -1681 0
10 1 S102 802 180715 -879 0
10 1 S102 817 181532 -62 0
10 2 S102 805 182337 743 0
10 2 S102 825 183162 1568 0
10 2 S102 802 183964 2370 0
10 2 S102 765 184729 3135 0
10 2 S102 769 185498 3904 0
10 2 S102 794 186292 4698 0
10 2 S102 856 187148 5554 0
10 2 S102 812 187960 6366 0
0 0 0 866 188826 -12264 0
0 0 0 965 189791 -11299 0
0 0 0 874 190665 -10425 0
0 0 0 871 191536 -9554 0
0 0 0 951 192487 -8603 0
0 0 0 876 193363 -7727 0
0 0 0 797 194160 -6930 0
0 0 0 769 194929 -6161 0
0 0 0 760 195689 -5401 0
0 0 0 809 196498 -4592 0
0 0 0 982 197480 -3610 0
0 0 0 915 198395 -2695 0
11 1 S112 951 199346 -1744 0
11 1 S112 978 200324 -766 0
11 2 S112 989 201313 223 0
11 2 S112 896 202209 1119 0
11 2 S112 924 203133 2043 0
11 2 S112 947 204080 2990 0
11 2 S112 1027 205107 4017 0
11 2 S112 896 206003 4913 0
11 2 S112 881 206884 5794 0
11 2 S112 944 207828 6738 0
0 0 0 1018 208846 -7695 0
0 0 0 903 209749 -6792 0
0 0 0 946 210695 -5846 0
0 0 0 1037 211732 -4809 0
0 0 0 955 212687 -3854 0
0 0 0 855 213542 -2999 0
0 0 0 857 214399 -2142 0
12 1 S116 841 215240 -1301 0
12 1 S116 850 216090 -451 0
12 2 S116 861 216951 410 0
12 2 S116 952 217903 1362 0
12 2 S116 1090 218993 2452 0
12 2 S116 1063 220056 3515 0
12 2 S116 972 221028 4487 0
12 2 S116 965 221993 5452 0
12 2 S116 962 222955 6414 0
0 0 0 920 223875 -11101 0
0 0 0 853 224728 -10248 0
0 0 0 914 225642 -9334 0
0 0 0 925 226567 -8409 0
0 0 0 819 227386 -7590 0
0 0 0 828 228214 -6762 0
0 0 0 826 229040 -5936 0
0 0 0 924 229964 -5012 0
0 0 0 1006 230970 -4006 0
0 0 0 933 231903 -3073 0
0 0 0 973 232876 -2100 0
13 1 S112 973 233849 -1127 0
13 1 S112 941 234790 -186 0
13 2 S112 930 235720 744 0
13 2 S112 954 236674 1698 0
13 2 S112 987 237661 2685 0
13 2 S112 881 238542 3566 0
13 2 S112 942 239484 4508 0
13 2 S112 1131 240615 5639 1
13 2 S112 1077 241692 6716 0
0 0 0 951 242643 -10553 0
0 0 0 963 243606 -9590 0
0 0 0 986 244592 -8604 0
0 0 0 883 245475 -7721 0
0 0 0 814 246289 -6907 0
0 0 0 892 247181 -6015 0
0 0 0 995 248176 -5020 0
0 0 0 1060 249236 -3960 0
0 0 0 920 250156 -3040 0
0 0 0 987 251143 -2053 0
14 1 S106 1002 252145 -1051 0
14 1 S106 953 253098 -98 0
14 2 S106 851 253949 753 0
14 2 S106 892 254841 1645 0
14 2 S106 905 255746 2550 0
14 2 S106 983 256729 3533 0
14 2 S106 895 257624 4428 0
14 2 S106 900 258524 5328 0
14 2 S106 918 259442 6246 0
0 0 0 903 260345 -11120 0
0 0 0 876 261221 -10244 0
0 0 0 913 262134 -9331 0
0 0 0 976 263110 -8355 0
0 0 0 854 263964 -7501 0
0 0 0 864 264828 -6637 0
0 0 0 893 265721 -5744 0
0 0 0 886 266607 -4858 0
0 0 0 877 267484 -3981 0
0 0 0 875 268359 -3106 0
0 0 0 890 269249 -2216 0
15 1 S116 968 270217 -1248 0
15 1 S116 895 271112 -353 0
15 2 S116 848 271960 495 0
15 2 S116 858 272818 1353 0
15 2 S116 926 273744 2279 0
15 2 S116 958 274702 3237 0
15 2 S116 895 275597 4132 0
15 2 S116 965 276562 5097 0
15 2 S116 969 277531 6066 0
0 0 0 987 278518 -9973 0
0 0 0 890 279408 -9083 0
0 0 0 912 280320 -8171 0
0 0 0 991 281311 -7180 0
0 0 0 886 282197 -6294 0
0 0 0 838 283035 -5456 0
0 0 0 893 283928 -4563 0
0 0 0 1020 284948 -3543 0
0 0 0 924 285872 -2619 0
16 1 S116 937 286809 -1682 0
16 1 S116 954 287763 -728 0
16 2 S116 963 288726 235 0
16 2 S116 935 289661 1170 0
16 2 S116 893 290554 2063 0
16 2 S116 882 291436 2945 0
16 2 S116 888 292324 3833 0
16 2 S116 818 293142 4651 0
16 2 S116 808 293950 5459 0
16 2 S116 825 294775 6284 0
0 0 0 900 295675 -9627 0
0 0 0 874 296549 -8753 0
0 0 0 846 297395 -7907 0
0 0 0 982 298377 -6925 0
0 0 0 932 299309 -5993 0
0 0 0 872 300181 -5121 0
0 0 0 949 301130 -4172 0
0 0 0 953 302083 -3219 0
0 0 0 960 303043 -2259 0
17 1 S106 890 303933 -1369 0
17 1 S106 929 304862 -440 0
17 2 S106 978 305840 538 0
17 2 S106 934 306774 1472 0
17 2 S106 855 307629 2327 0
17 2 S106 860 308489 3187 0
17 2 S106 868 309357 4055 0
17 2 S106 867 310224 4922 0
17 2 S106 832 311056 5754 0
17 2 S106 896 311952 6650 0
0 0 0 992 312944 -10213 0
0 0 0 1008 313952 -9205 0
0 0 0 893 314845 -8312 0
0 0 0 848 315693 -7464 0
0 0 0 828 316521 -6636 0
0 0 0 822 317343 -5814 0
0 0 0 837 318180 -4977 0
0 0 0 932 319112 -4045 0
0 0 0 987 320099 -3058 0
0 0 0 995 321094 -2063 0
18 1 S102 962 322056 -1101 0
18 1 S102 1009 323065 -92 0
18 2 S102 954 324019 862 0
18 2 S102 893 324912 1755 0
18 2 S102 872 325784 2627 0
18 2 S102 872 326656 3499 0
18 2 S102 857 327513 4356 0
18 2 S102 855 328368 5211 0
18 2 S102 869 329237 6080 0
18 2 S102 932 330169 7012 0
0 0 0 989 331158 -7102 0
0 0 0 886 332044 -6216 0
0 0 0 969 333013 -5247 0
0 0 0 940 333953 -4307 0
0 0 0 864 334817 -3443 0
0 0 0 848 335665 -2595 0
19 1 S106 862 336527 -1733 0
19 1 S106 933 337460 -800 0
19 2 S106 992 338452 192 0
19 2 S106 1026 339478 1218 0
19 2 S106 950 340428 2168 0
19 2 S106 943 341371 3111 0
19 2 S106 955 342326 4066 0
19 2 S106 942 343268 5008 0
19 2 S106 885 344153 5893 0
19 2 S106 918 345071 6811 0
0 0 0 946 346017 -11192 0
0 0 0 964 346981 -10228 0
0 0 0 919 347900 -9309 0
0 0 0 891 348791 -8418 0
0 0 0 861 349652 -7557 0
0 0 0 876 350528 -6681 0
0 0 0 873 351401 -5808 0
0 0 0 888 352289 -4920 0
0 0 0 921 353210 -3999 0
0 0 0 902 354112 -3097 0
0 0 0 843 354955 -2254 0
20 1 S112 865 355820 -1389 0
20 1 S112 914 356734 -475 0
20 2 S112 894 357628 419 0
20 2 S112 868 358496 1287 0
20 2 S112 881 359377 2168 0
20 2 S112 898 360275 3066 0
20 2 S112 946 361221 4012 0
20 2 S112 960 362181 4972 0
20 2 S112 917 363098 5889 0
20 2 S112 929 364027 6818 0
0 0 0 948 364975 -8613 0
0 0 0 870 365845 -7743 0
0 0 0 873 366718 -6870 0
0 0 0 843 367561 -6027 0
0 0 0 834 368395 -5193 0
0 0 0 795 369190 -4398 0
0 0 0 761 369951 -3637 0
0 0 0 785 370736 -2852 0
0 0 0 752 371488 -2100 0
21 1 S106 781 372269 -1319 0
21 1 S106 789 373058 -530 0
21 2 S106 752 373810 222 0
21 2 S106 780 374590 1002 0
21 2 S106 802 375392 1804 0
21 2 S106 764 376156 2568 0
21 2 S106 768 376924 3336 0
21 2 S106 779 377703 4115 0
21 2 S106 790 378493 4905 0
21 2 S106 797 379290 5702 0
21 2 S106 772 380062 6474 0
0 0 0 737 380799 -11208 0
0 0 0 753 381552 -10455 0
0 0 0 784 382336 -9671 0
0 0 0 867 383203 -8804 0
0 0 0 837 384040 -7967 0
0 0 0 791 384831 -7176 0
0 0 0 835 385666 -6341 0
0 0 0 912 386578 -5429 0
0 0 0 1032 387610 -4397 0
0 0 0 879 388489 -3518 0
0 0 0 864 389353 -2654 0
22 1 S116 962 390315 -1692 0
22 1 S116 1002 391317 -690 0
22 2 S116 986 392303 296 0
22 2 S116 985 393288 1281 0
22 2 S116 1000 394288 2281 0
22 2 S116 996 395284 3277 0
22 2 S116 968 396252 4245 0
22 2 S116 848 397100 5093 0
22 2 S116 906 398006 5999 0
22 2 S116 928 398934 6927 0
0 0 0 990 399924 -9175 0
0 0 0 864 400788 -8311 0
0 0 0 969 401757 -7342 0
0 0 0 970 402727 -6372 0
0 0 0 842 403569 -5530 0
0 0 0 871 404440 -4659 0
0 0 0 934 405374 -3725 0
0 0 0 1150 406524 -2575 1
23 1 S112 978 407502 -1597 0
23 1 S112 988 408490 -609 0
23 2 S112 1021 409511 412 0
23 2 S112 1010 410521 1422 0
23 2 S112 991 411512 2413 0
23 2 S112 1009 412521 3422 0
23 2 S112 1020 413541 4442 0
23 2 S112 880 414421 5322 0
23 2 S112 947 415368 6269 0
0 0 0 999 416367 -8979 0
0 0 0 1000 417367 -7979 0
0 0 0 896 418263 -7083 0
0 0 0 930 419193 -6153 0
0 0 0 955 420148 -5198 0
0 0 0 902 421050 -4296 0
0 0 0 908 421958 -3388 0
0 0 0 942 422900 -2446 0
24 1 S106 969 423869 -1477 0
24 1 S106 909 424778 -568 0
24 2 S106 948 425726 380 0
24 2 S106 960 426686 1340 0
24 2 S106 908 427594 2248 0
24 2 S106 835 428429 3083 0
24 2 S106 864 429293 3947 0
24 2 S106 864 430157 4811 0
24 2 S106 939 431096 5750 0
24 2 S106 899 431995 6649 0
0 0 0 875 432870 -8110 0
0 0 0 957 433827 -7153 0
0 0 0 937 434764 -6216 0
0 0 0 856 435620 -5360 0
0 0 0 867 436487 -4493 0
0 0 0 876 437363 -3617 0
0 0 0 956 438319 -2661 0
25 1 S102 923 439242 -1738 0
25 1 S102 892 440134 -846 0
25 2 S102 886 441020 40 0
25 2 S102 912 441932 952 0
25 2 S102 868 442800 1820 0
25 2 S102 885 443685 2705 0
25 2 S102 935 444620 3640 0
25 2 S102 980 445600 4620 0
25 2 S102 880 446480 5500 0
25 2 S102 913 447393 6413 0
0 0 0 926 448319 -7813 0
0 0 0 961 449280 -6852 0
0 0 0 869 450149 -5983 0
0 0 0 940 451089 -5043 0
0 0 0 903 451992 -4140 0
0 0 0 843 452835 -3297 0
0 0 0 834 453669 -2463 0
26 1 S116 863 454532 -1600 0
26 1 S116 902 455434 -698 0
26 2 S116 911 456345 213 0
26 2 S116 898 457243 1111 0
26 2 S116 933 458176 2044 0
26 2 S116 924 459100 2968 0
26 2 S116 851 459951 3819 0
26 2 S116 873 460824 4692 0
26 2 S116 864 461688 5556 0
26 2 S116 863 462551 6419 0
0 0 0 826 463377 -7510 0
0 0 0 845 464222 -6665 0
0 0 0 860 465082 -5805 0
0 0 0 1098 466180 -4707 0
0 0 0 846 467026 -3861 0
0 0 0 882 467908 -2979 0
0 0 0 904 468812 -2075 0
27 1 S106 959 469771 -1116 0
27 1 S106 928 470699 -188 0
27 2 S106 915 471614 727 0
27 2 S106 956 472570 1683 0
27 2 S106 986 473556 2669 0
27 2 S106 976 474532 3645 0
27 2 S106 899 475431 4544 0
27 2 S106 899 476330 5443 0
27 2 S106 944 477274 6387 0
0 0 0 961 478235 -6230 0
0 0 0 863 479098 -5367 0
0 0 0 911 480009 -4456 0
0 0 0 831 480840 -3625 0
0 0 0 801 481641 -2824 0
0 0 0 780 482421 -2044 0
28 1 S102 758 483179 -1286 0
28 1 S102 850 484029 -436 0
28 2 S102 877 484906 441 0
28 2 S102 908 485814 1349 0
28 2 S102 945 486759 2294 0
28 2 S102 958 487717 3252 0
28 2 S102 893 488610 4145 0
28 2 S102 865 489475 5010 0
28 2 S102 855 490330 5865 0
28 2 S102 841 491171 6706 0
0 0 0 803 491974 -11175 0
0 0 0 800 492774 -10375 0
0 0 0 834 493608 -9541 0
0 0 0 941 494549 -8600 0
0 0 0 840 495389 -7760 0
0 0 0 816 496205 -6944 0
0 0 0 899 497104 -6045 0
0 0 0 1008 498112 -5037 0
0 0 0 1025 499137 -4012 0
0 0 0 951 500088 -3061 0
0 0 0 1013 501101 -2048 0
29 1 S112 1004 502105 -1044 0
29 1 S112 922 503027 -122 0
29 2 S112 941 503968 819 0
29 2 S112 973 504941 1792 0
29 2 S112 1048 505989 2840 0
29 2 S112 945 506934 3785 0
29 2 S112 961 507895 4746 0
29 2 S112 1075 508970 5821 0
29 2 S112 1117 510087 6938 0
0 0 0 980 511067 -6405 0
0 0 0 1039 512106 -5366 0
0 0 0 1014 513120 -4352 0
0 0 0 919 514039 -3433 0
0 0 0 902 514941 -2531 0
30 1 S112 935 515876 -1596 0
30 1 S112 1128 517004 -468 1
30 2 S112 1062 518066 594 0
30 2 S112 1007 519073 1601 0
30 2 S112 1007 520080 2608 0
30 2 S112 1058 521138 3666 0
30 2 S112 974 522112 4640 0
30 2 S112 1030 523142 5670 0
30 2 S112 1061 524203 6731 0
0 0 0 993 525196 -8092 0
0 0 0 1022 526218 -7070 0
0 0 0 931 527149 -6139 0
0 0 0 910 528059 -5229 0
0 0 0 889 528948 -4340 0
0 0 0 986 529934 -3354 0
0 0 0 1058 530992 -2296 0
31 1 S106 1005 531997 -1291 0
31 1 S106 950 532947 -341 0
31 2 S106 991 533938 650 0
31 2 S106 1091 535029 1741 0
31 2 S106 973 536002 2714 0
31 2 S106 978 536980 3692 0
31 2 S106 1007 537987 4699 0
31 2 S106 1023 539010 5722 0
31 2 S106 923 539933 6645 0
0 0 0 913 540846 -8954 0
0 0 0 980 541826 -7974 0
0 0 0 1043 542869 -6931 0
0 0 0 856 543725 -6075 0
0 0 0 873 544598 -5202 0
0 0 0 891 545489 -4311 0
0 0 0 912 546401 -3399 0
0 0 0 854 547255 -2545 0
32 1 S102 848 548103 -1697 0
32 1 S102 886 548989 -811 0
32 2 S102 930 549919 119 0
32 2 S102 971 550890 1090 0
32 2 S102 909 551799 1999 0
32 2 S102 955 552754 2954 0
32 2 S102 985 553739 3939 0
32 2 S102 979 554718 4918 0
32 2 S102 880 555598 5798 0
32 2 S102 942 556540 6740 0
0 0 0 1011 557551 -11580 0
0 0 0 962 558513 -10618 0
0 0 0 920 559433 -9698 0
0 0 0 1033 560466 -8665 0
0 0 0 897 561363 -7768 0
0 0 0 792 562155 -6976 0
0 0 0 827 562982 -6149 0
0 0 0 796 563778 -5353 0
0 0 0 779 564557 -4574 0
0 0 0 769 565326 -3805 0
0 0 0 775 566101 -3030 0
0 0 0 822 566923 -2208 0
33 1 S112 845 567768 -1363 0
33 1 S112 843 568611 -520 0
33 2 S112 847 569458 327 0
33 2 S112 831 570289 1158 0
33 2 S112 858 571147 2016 0
33 2 S112 861 572008 2877 0
33 2 S112 862 572870 3739 0
33 2 S112 809 573679 4548 0
33 2 S112 864 574543 5412 0
33 2 S112 915 575458 6327 0
0 0 0 1034 576492 -11372 0
0 0 0 916 577408 -10456 0
0 0 0 938 578346 -9518 0
0 0 0 955 579301 -8563 0
0 0 0 934 580235 -7629 0
0 0 0 849 581084 -6780 0
0 0 0 895 581979 -5885 0
0 0 0 963 582942 -4922 0
0 0 0 942 583884 -3980 0
0 0 0 889 584773 -3091 0
0 0 0 912 585685 -2179 0
34 1 S106 991 586676 -1188 0
34 1 S106 967 587643 -221 0
34 2 S106 944 588587 723 0
34 2 S106 992 589579 1715 0
34 2 S106 975 590554 2690 0
34 2 S106 882 591436 3572 0
34 2 S106 886 592322 4458 0
34 2 S106 936 593258 5394 0
34 2 S106 991 594249 6385 0
0 0 0 930 595179 -10043 0
0 0 0 925 596104 -9118 0
0 0 0 987 597091 -8131 0
0 0 0 1182 598273 -6949 1
0 0 0 916 599189 -6033 0
0 0 0 874 600063 -5159 0
0 0 0 870 600933 -4289 0
0 0 0 911 601844 -3378 0
0 0 0 886 602730 -2492 0
35 1 S102 995 603725 -1497 0
35 1 S102 981 604706 -516 0
35 2 S102 996 605702 480 0
35 2 S102 905 606607 1385 0
35 2 S102 984 607591 2369 0
35 2 S102 1000 608591 3369 0
35 2 S102 961 609552 4330 0
35 2 S102 927 610479 5257 0
35 2 S102 1033 611512 6290 0
0 0 0 1124 612636 -7175 1
0 0 0 990 613626 -6185 0
0 0 0 931 614557 -5254 0
0 0 0 951 615508 -4303 0
0 0 0 925 616433 -3378 0
0 0 0 884 617317 -2494 0
36 1 S106 910 618227 -1584 0
36 1 S106 994 619221 -590 0
36 2 S106 1086 620307 496 0
36 2 S106 1014 621321 1510 0
36 2 S106 960 622281 2470 0
36 2 S106 964 623245 3434 0
36 2 S106 979 624224 4413 0
36 2 S106 894 625118 5307 0
36 2 S106 943 626061 6250 0
0 0 0 941 627002 -10249 0
0 0 0 958 627960 -9291 0
0 0 0 872 628832 -8419 0
0 0 0 974 629806 -7445 0
0 0 0 1064 630870 -6381 0
0 0 0 912 631782 -5469 0
0 0 0 907 632689 -4562 0
0 0 0 914 633603 -3648 0
0 0 0 918 634521 -2730 0
37 1 S116 963 635484 -1767 0
37 1 S116 943 636427 -824 0
37 2 S116 982 637409 158 0
37 2 S116 997 638406 1155 0
37 2 S116 915 639321 2070 0
37 2 S116 966 640287 3036 0
37 2 S116 1036 641323 4072 0
37 2 S116 1044 642367 5116 0
37 2 S116 920 643287 6036 0
37 2 S116 924 644211 6960 0
0 0 0 973 645184 -11729 0
0 0 0 938 646122 -10791 0
0 0 0 864 646986 -9927 0
0 0 0 979 647965 -8948 0
0 0 0 947 648912 -8001 0
0 0 0 871 649783 -7130 0
0 0 0 847 650630 -6283 0
0 0 0 820 651450 -5463 0
0 0 0 817 652267 -4646 0
0 0 0 786 653053 -3860 0
0 0 0 804 653857 -3056 0
0 0 0 793 654650 -2263 0
38 1 S102 800 655450 -1463 0
38 1 S102 760 656210 -703 0
38 2 S102 766 656976 63 0
38 2 S102 774 657750 837 0
38 2 S102 800 658550 1637 0
38 2 S102 839 659389 2476 0
38 2 S102 775 660164 3251 0
38 2 S102 791 660955 4042 0
38 2 S102 819 661774 4861 0
38 2 S102 960 662734 5821 0
38 2 S102 1001 663735 6822 0
0 0 0 899 664634 -8410 0
0 0 0 954 665588 -7456 0
0 0 0 1066 666654 -6390 0
0 0 0 920 667574 -5470 0
0 0 0 876 668450 -4594 0
0 0 0 875 669325 -3719 0
0 0 0 899 670224 -2820 0
39 1 S116 881 671105 -1939 0
39 1 S116 944 672049 -995 0
39 2 S116 1036 673085 41 0
39 2 S116 1071 674156 1112 0
39 2 S116 966 675122 2078 0
39 2 S116 1006 676128 3084 0
39 2 S116 1027 677155 4111 0
39 2 S116 974 678129 5085 0
39 2 S116 932 679061 6017 0
39 2 S116 976 680037 6993 0
0 0 0 1179 681216 -4909 1
0 0 0 901 682117 -4008 0
0 0 0 913 683030 -3095 0
0 0 0 954 683984 -2141 0
40 1 S112 1090 685074 -1051 0
40 1 S112 971 686045 -80 0
40 2 S112 1114 687159 1034 0
40 2 S112 1103 688262 2137 0
40 2 S112 999 689261 3136 0
40 2 S112 985 690246 4121 0
40 2 S112 993 691239 5114 0
40 2 S112 985 692224 6099 0
0 0 0 935 693159 -188193 0
0 0 0 952 694111 -187241 0
0 0 0 932 695043 -186309 0
0 0 0 951 695994 -185358 0
0 0 0 1006 697000 -184352 0
0 0 0 967 697967 -183385 0
0 0 0 988 698955 -182397 0
0 0 0 911 699866 -181486 0
0 0 0 977 700843 -180509 0
0 0 0 1014 701857 -179495 0
0 0 0 987 702844 -178508 0
0 0 0 874 703718 -177634 0
0 0 0 906 704624 -176728 0
0 0 0 956 705580 -175772 0
0 0 0 980 706560 -174792 0
0 0 0 994 707554 -173798 0
0 0 0 925 708479 -172873 0
0 0 0 893 709372 -171980 0
0 0 0 894 710266 -171086 0
0 0 0 920 711186 -170166 0
0 0 0 949 712135 -169217 0
0 0 0 926 713061 -168291 0
0 0 0 958 714019 -167333 0
0 0 0 940 714959 -166393 0
0 0 0 957 715916 -165436 0
0 0 0 910 716826 -164526 0
0 0 0 886 717712 -163640 0
0 0 0 901 718613 -162739 0
0 0 0 870 719483 -161869 0
0 0 0 881 720364 -160988 0
0 0 0 901 721265 -160087 0
0 0 0 1006 722271 -159081 0
0 0 0 935 723206 -158146 0
0 0 0 943 724149 -157203 0
0 0 0 972 725121 -156231 0
0 0 0 993 726114 -155238 0
0 0 0 947 727061 -154291 0
0 0 0 883 727944 -153408 0
0 0 0 896 728840 -152512 0
0 0 0 921 729761 -151591 0
0 0 0 996 730757 -150595 0
0 0 0 911 731668 -149684 0
0 0 0 876 732544 -148808 0
0 0 0 883 733427 -147925 0
0 0 0 897 734324 -147028 0
0 0 0 935 735259 -146093 0
0 0 0 871 736130 -145222 0
0 0 0 900 737030 -144322 0
0 0 0 963 737993 -143359 0
0 0 0 1019 739012 -142340 0
0 0 0 1000 740012 -141340 0
0 0 0 908 740920 -140432 0
0 0 0 878 741798 -139554 0
0 0 0 923 742721 -138631 0
0 0 0 958 743679 -137673 0
0 0 0 967 744646 -136706 0
0 0 0 911 745557 -135795 0
0 0 0 900 746457 -134895 0
0 0 0 928 747385 -133967 0
0 0 0 1027 748412 -132940 0
0 0 0 995 749407 -131945 0
0 0 0 927 750334 -131018 0
0 0 0 923 751257 -130095 0
0 0 0 906 752163 -129189 0
0 0 0 929 753092 -128260 0
0 0 0 912 754004 -127348 0
0 0 0 867 754871 -126481 0
0 0 0 899 755770 -125582 0
0 0 0 912 756682 -124670 0
0 0 0 971 757653 -123699 0
0 0 0 983 758636 -122716 0
0 0 0 884 759520 -121832 0
0 0 0 899 760419 -120933 0
0 0 0 935 761354 -119998 0
0 0 0 964 762318 -119034 0
0 0 0 913 763231 -118121 0
0 0 0 919 764150 -117202 0
0 0 0 950 765100 -116252 0
0 0 0 958 766058 -115294 0
0 0 0 900 766958 -114394 0
0 0 0 892 767850 -113502 0
0 0 0 892 768742 -112610 0
0 0 0 891 769633 -111719 0
0 0 0 890 770523 -110829 0
0 0 0 913 771436 -109916 0
0 0 0 941 772377 -108975 0
0 0 0 961 773338 -108014 0
0 0 0 918 774256 -107096 0
0 0 0 900 775156 -106196 0
0 0 0 912 776068 -105284 0
0 0 0 956 777024 -104328 0
0 0 0 915 777939 -103413 0
0 0 0 912 778851 -102501 0
0 0 0 935 779786 -101566 0
0 0 0 968 780754 -100598 0
0 0 0 906 781660 -99692 0
0 0 0 865 782525 -98827 0
0 0 0 863 783388 -97964 0
0 0 0 874 784262 -97090 0
0 0 0 954 785216 -96136 0
0 0 0 850 786066 -95286 0
0 0 0 882 786948 -94404 0
0 0 0 916 787864 -93488 0
0 0 0 1003 788867 -92485 0
0 0 0 945 789812 -91540 0
0 0 0 956 790768 -90584 0
0 0 0 957 791725 -89627 0
0 0 0 980 792705 -88647 0
0 0 0 970 793675 -87677 0
0 0 0 901 794576 -86776 0
0 0 0 947 795523 -85829 0
0 0 0 1052 796575 -84777 0
0 0 0 1062 797637 -83715 0
0 0 0 981 798618 -82734 0
0 0 0 965 799583 -81769 0
0 0 0 970 800553 -80799 0
0 0 0 926 801479 -79873 0
0 0 0 870 802349 -79003 0
0 0 0 890 803239 -78113 0
0 0 0 894 804133 -77219 0
0 0 0 935 805068 -76284 0
0 0 0 867 805935 -75417 0
0 0 0 900 806835 -74517 0
0 0 0 871 807706 -73646 0
0 0 0 856 808562 -72790 0
0 0 0 798 809360 -71992 0
0 0 0 815 810175 -71177 0
0 0 0 845 811020 -70332 0
0 0 0 889 811909 -69443 0
0 0 0 888 812797 -68555 0
0 0 0 907 813704 -67648 0
0 0 0 966 814670 -66682 0
0 0 0 965 815635 -65717 0
0 0 0 923 816558 -64794 0
0 0 0 891 817449 -63903 0
0 0 0 909 818358 -62994 0
0 0 0 903 819261 -62091 0
0 0 0 864 820125 -61227 0
0 0 0 856 820981 -60371 0
0 0 0 871 821852 -59500 0
0 0 0 900 822752 -58600 0
0 0 0 926 823678 -57674 0
0 0 0 921 824599 -56753 0
0 0 0 1002 825601 -55751 0
0 0 0 1015 826616 -54736 0
0 0 0 952 827568 -53784 0
0 0 0 894 828462 -52890 0
0 0 0 899 829361 -51991 0
0 0 0 915 830276 -51076 0
0 0 0 899 831175 -50177 0
0 0 0 842 832017 -49335 0
0 0 0 885 832902 -48450 0
0 0 0 937 833839 -47513 0
0 0 0 977 834816 -46536 0
0 0 0 920 835736 -45616 0
0 0 0 864 836600 -44752 0
0 0 0 926 837526 -43826 0
0 0 0 958 838484 -42868 0
0 0 0 982 839466 -41886 0
0 0 0 962 840428 -40924 0
0 0 0 985 841413 -39939 0
0 0 0 998 842411 -38941 0
0 0 0 985 843396 -37956 0
0 0 0 910 844306 -37046 0
0 0 0 971 845277 -36075 0
0 0 0 975 846252 -35100 0
0 0 0 1001 847253 -34099 0
0 0 0 963 848216 -33136 0
0 0 0 942 849158 -32194 0
0 0 0 912 850070 -31282 0
0 0 0 913 850983 -30369 0
0 0 0 855 851838 -29514 0
0 0 0 896 852734 -28618 0
0 0 0 943 853677 -27675 0
0 0 0 940 854617 -26735 0
0 0 0 841 855458 -25894 0
0 0 0 872 856330 -25022 0
0 0 0 861 857191 -24161 0
0 0 0 832 858023 -23329 0
0 0 0 787 858810 -22542 0
0 0 0 774 859584 -21768 0
0 0 0 760 860344 -21008 0
0 0 0 746 861090 -20262 0
0 0 0 748 861838 -19514 0
0 0 0 736 862574 -18778 0
0 0 0 735 863309 -18043 0
0 0 0 736 864045 -17307 0
0 0 0 733 864778 -16574 0
0 0 0 705 865483 -15869 1
0 0 0 712 866195 -15157 1
0 0 0 719 866914 -14438 0
0 0 0 807 867721 -13631 0
0 0 0 984 868705 -12647 0
0 0 0 1026 869731 -11621 0
0 0 0 1003 870734 -10618 0
0 0 0 1071 871805 -9547 0
0 0 0 1033 872838 -8514 0
0 0 0 949 873787 -7565 0
0 0 0 933 874720 -6632 0
0 0 0 889 875609 -5743 0
0 0 0 912 876521 -4831 0
0 0 0 1012 877533 -3819 0
0 0 0 863 878396 -2956 0
0 0 0 810 879206 -2146 0
41 1 S102 853 880059 -1293 0
41 1 S102 867 880926 -426 0
41 2 S102 864 881790 438 0
41 2 S102 865 882655 1303 0
41 2 S102 868 883523 2171 0
41 2 S102 881 884404 3052 0
41 2 S102 821 885225 3873 0
41 2 S102 830 886055 4703 0
41 2 S102 862 886917 5565 0
41 2 S102 917 887834 6482 0
0 0 0 888 888722 -8396 0
0 0 0 855 889577 -7541 0
0 0 0 820 890397 -6721 0
0 0 0 825 891222 -5896 0
0 0 0 829 892051 -5067 0
0 0 0 792 892843 -4275 0
0 0 0 759 893602 -3516 0
0 0 0 779 894381 -2737 0
42 1 S112 788 895169 -1949 0
42 1 S112 761 895930 -1188 0
42 1 S112 785 896715 -403 0
42 2 S112 829 897544 426 0
42 2 S112 951 898495 1377 0
42 2 S112 988 899483 2365 0
42 2 S112 930 900413 3295 0
42 2 S112 895 901308 4190 0
42 2 S112 893 902201 5083 0
42 2 S112 910 903111 5993 0
42 2 S112 926 904037 6919 0
0 0 0 823 904860 -9649 0
0 0 0 816 905676 -8833 0
0 0 0 803 906479 -8030 0
0 0 0 874 907353 -7156 0
0 0 0 816 908169 -6340 0
0 0 0 801 908970 -5539 0
0 0 0 803 909773 -4736 0
0 0 0 850 910623 -3886 0
0 0 0 971 911594 -2915 0
43 1 S116 935 912529 -1980 0
43 1 S116 916 913445 -1064 0
43 1 S116 891 914336 -173 0
43 2 S116 865 915201 692 0
43 2 S116 808 916009 1500 0
43 2 S116 782 916791 2282 0
43 2 S116 786 917577 3068 0
43 2 S116 823 918400 3891 0
43 2 S116 853 919253 4744 0
43 2 S116 798 920051 5542 0
43 2 S116 835 920886 6377 0
0 0 0 899 921785 -8142 0
0 0 0 954 922739 -7188 0
0 0 0 847 923586 -6341 0
0 0 0 936 924522 -5405 0
0 0 0 961 925483 -4444 0
0 0 0 900 926383 -3544 0
0 0 0 843 927226 -2701 0
44 1 S102 853 928079 -1848 0
44 1 S102 843 928922 -1005 0
44 1 S102 857 929779 -148 0
44 2 S102 848 930627 700 0
44 2 S102 895 931522 1595 0
44 2 S102 898 932420 2493 0
44 2 S102 893 933313 3386 0
44 2 S102 831 934144 4217 0
44 2 S102 839 934983 5056 0
44 2 S102 843 935826 5899 0
44 2 S102 878 936704 6777 0
0 0 0 869 937573 -8783 0
0 0 0 847 938420 -7936 0
0 0 0 856 939276 -7080 0
0 0 0 903 940179 -6177 0
0 0 0 823 941002 -5354 0
0 0 0 817 941819 -4537 0
0 0 0 830 942649 -3707 0
0 0 0 872 943521 -2835 0
45 1 S116 913 944434 -1922 0
45 1 S116 830 945264 -1092 0
45 1 S116 840 946104 -252 0
45 2 S116 837 946941 585 0
45 2 S116 871 947812 1456 0
45 2 S116 856 948668 2312 0
45 2 S116 859 949527 3171 0
45 2 S116 878 950405 4049 0
45 2 S116 950 951355 4999 0
45 2 S116 870 952225 5869 0
45 2 S116 876 953101 6745 0
0 0 0 899 954000 -11637 0
0 0 0 893 954893 -10744 0
0 0 0 853 955746 -9891 0
0 0 0 923 956669 -8968 0
0 0 0 875 957544 -8093 0
0 0 0 775 958319 -7318 0
0 0 0 794 959113 -6524 0
0 0 0 765 959878 -5759 0
0 0 0 756 960634 -5003 0
0 0 0 765 961399 -4238 0
0 0 0 751 962150 -3487 0
0 0 0 770 962920 -2717 0
46 1 S102 825 963745 -1892 0
46 1 S102 841 964586 -1051 0
46 1 S102 879 965465 -172 0
46 2 S102 859 966324 687 0
46 2 S102 836 967160 1523 0
46 2 S102 817 967977 2340 0
46 2 S102 795 968772 3135 0
46 2 S102 757 969529 3892 0
46 2 S102 743 970272 4635 0
46 2 S102 746 971018 5381 0
46 2 S102 740 971758 6121 0
46 2 S102 780 972538 6901 0
0 0 0 820 973358 -8161 0
0 0 0 804 974162 -7357 0
0 0 0 939 975101 -6418 0
0 0 0 992 976093 -5426 0
0 0 0 902 976995 -4524 0
0 0 0 946 977941 -3578 0
0 0 0 902 978843 -2676 0
47 1 S112 870 979713 -1806 0
47 1 S112 973 980686 -833 0
47 2 S112 855 981541 22 0
47 2 S112 893 982434 915 0
47 2 S112 1030 983464 1945 0
47 2 S112 1204 984668 3149 1
47 2 S112 1073 985741 4222 0
47 2 S112 1001 986742 5223 0
47 2 S112 1101 987843 6324 0
0 0 0 1151 988994 -11607 1
0 0 0 991 989985 -10616 0
0 0 0 987 990972 -9629 0
0 0 0 994 991966 -8635 0
0 0 0 841 992807 -7794 0
0 0 0 845 993652 -6949 0
0 0 0 985 994637 -5964 0
0 0 0 883 995520 -5081 0
0 0 0 877 996397 -4204 0
0 0 0 974 997371 -3230 0
0 0 0 956 998327 -2274 0
48 1 S116 1129 999456 -1145 1
48 2 S116 1148 1000604 3 1
48 2 S116 1065 1001669 1068 0
48 2 S116 968 1002637 2036 0
48 2 S116 945 1003582 2981 0
48 2 S116 987 1004569 3968 0
48 2 S116 910 1005479 4878 0
48 2 S116 954 1006433 5832 0
48 2 S116 1072 1007505 6904 0
0 0 0 1090 1008595 -7191 0
0 0 0 917 1009512 -6274 0
0 0 0 1031 1010543 -5243 0
0 0 0 1022 1011565 -4221 0
0 0 0 889 1012454 -3332 0
0 0 0 873 1013327 -2459 0
49 1 S112 929 1014256 -1530 0
49 1 S112 1103 1015359 -427 0
49 2 S112 996 1016355 569 0
49 2 S112 999 1017354 1568 0
49 2 S112 1031 1018385 2599 0
49 2 S112 1131 1019516 3730 1
49 2 S112 976 1020492 4706 0
49 2 S112 993 1021485 5699 0
49 2 S112 1068 1022553 6767 0
0 0 0 1071 1023624 -11178 0
0 0 0 934 1024558 -10244 0
0 0 0 1017 1025575 -9227 0
0 0 0 1027 1026602 -8200 0
0 0 0 875 1027477 -7325 0
0 0 0 902 1028379 -6423 0
0 0 0 933 1029312 -5490 0
0 0 0 993 1030305 -4497 0
0 0 0 883 1031188 -3614 0
0 0 0 930 1032118 -2684 0
50 1 S106 1023 1033141 -1661 0
50 1 S106 1038 1034179 -623 0
50 2 S106 940 1035119 317 0
50 2 S106 960 1036079 1277 0
50 2 S106 947 1037026 2224 0
50 2 S106 922 1037948 3146 0
50 2 S106 882 1038830 4028 0
50 2 S106 964 1039794 4992 0
50 2 S106 1001 1040795 5993 0
0 0 0 1073 1041868 -7738 0
0 0 0 942 1042810 -6796 0
0 0 0 958 1043768 -5838 0
0 0 0 1030 1044798 -4808 0
0 0 0 906 1045704 -3902 0
0 0 0 842 1046546 -3060 0
0 0 0 903 1047449 -2157 0
51 1 S112 989 1048438 -1168 0
51 1 S112 1070 1049508 -98 0
51 2 S112 941 1050449 843 0
51 2 S112 988 1051437 1831 0
51 2 S112 1031 1052468 2862 0
51 2 S112 963 1053431 3825 0
51 2 S112 947 1054378 4772 0
51 2 S112 965 1055343 5737 0
51 2 S112 1050 1056393 6787 0
0 0 0 927 1057320 -8052 0
0 0 0 927 1058247 -7125 0
0 0 0 919 1059166 -6206 0
0 0 0 1024 1060190 -5182 0
0 0 0 965 1061155 -4217 0
0 0 0 929 1062084 -3288 0
0 0 0 905 1062989 -2383 0
52 1 S116 889 1063878 -1494 0
52 1 S116 920 1064798 -574 0
52 2 S116 962 1065760 388 0
52 2 S116 938 1066698 1326 0
52 2 S116 975 1067673 2301 0
52 2 S116 955 1068628 3256 0
52 2 S116 939 1069567 4195 0
52 2 S116 861 1070428 5056 0
52 2 S116 888 1071316 5944 0
52 2 S116 938 1072254 6882 0
0 0 0 1091 1073345 -9087 0
0 0 0 930 1074275 -8157 0
0 0 0 1024 1075299 -7133 0
0 0 0 988 1076287 -6145 0
0 0 0 929 1077216 -5216 0
0 0 0 918 1078134 -4298 0
0 0 0 934 1079068 -3364 0
0 0 0 947 1080015 -2417 0
53 1 S106 874 1080889 -1543 0
53 1 S106 915 1081804 -628 0
53 2 S106 959 1082763 331 0
53 2 S106 1021 1083784 1352 0
53 2 S106 959 1084743 2311 0
53 2 S106 968 1085711 3279 0
53 2 S106 1033 1086744 4312 0
53 2 S106 1045 1087789 5357 0
53 2 S106 916 1088705 6273 0
0 0 0 939 1089644 -7741 0
0 0 0 1030 1090674 -6711 0
0 0 0 1088 1091762 -5623 0
0 0 0 1051 1092813 -4572 0
0 0 0 957 1093770 -3615 0
0 0 0 959 1094729 -2656 0
54 1 S102 941 1095670 -1715 0
54 1 S102 953 1096623 -762 0
54 2 S102 955 1097578 193 0
54 2 S102 987 1098565 1180 0
54 2 S102 890 1099455 2070 0
54 2 S102 945 1100400 3015 0
54 2 S102 961 1101361 3976 0
54 2 S102 965 1102326 4941 0
54 2 S102 922 1103248 5863 0
54 2 S102 1005 1104253 6868 0
0 0 0 1073 1105326 -11688 0
0 0 0 937 1106263 -10751 0
0 0 0 925 1107188 -9826 0
0 0 0 1000 1108188 -8826 0
0 0 0 915 1109103 -7911 0
0 0 0 834 1109937 -7077 0
0 0 0 872 1110809 -6205 0
0 0 0 967 1111776 -5238 0
0 0 0 1091 1112867 -4147 0
0 0 0 981 1113848 -3166 0
0 0 0 1062 1114910 -2104 0
55 1 S106 1023 1115933 -1081 0
55 1 S106 998 1116931 -83 0
55 2 S106 973 1117904 890 0
55 2 S106 1018 1118922 1908 0
55 2 S106 1018 1119940 2926 0
55 2 S106 995 1120935 3921 0
55 2 S106 989 1121924 4910 0
55 2 S106 962 1122886 5872 0
55 2 S106 943 1123829 6815 0
0 0 0 926 1124755 -5986 0
0 0 0 1010 1125765 -4976 0
0 0 0 967 1126732 -4009 0
0 0 0 895 1127627 -3114 0
0 0 0 936 1128563 -2178 0
56 1 S116 993 1129556 -1185 0
56 1 S116 961 1130517 -224 0
56 2 S116 889 1131406 665 0
56 2 S116 947 1132353 1612 0
56 2 S116 990 1133343 2602 0
56 2 S116 1022 1134365 3624 0
56 2 S116 934 1135299 4558 0
56 2 S116 956 1136255 5514 0
56 2 S116 984 1137239 6498 0
0 0 0 1013 1138252 -7741 0
0 0 0 953 1139205 -6788 0
0 0 0 977 1140182 -5811 0
0 0 0 1000 1141182 -4811 0
0 0 0 827 1142009 -3984 0
0 0 0 877 1142886 -3107 0
0 0 0 927 1143813 -2180 0
57 1 S106 948 1144761 -1232 0
57 1 S106 905 1145666 -327 0
57 2 S106 936 1146602 609 0
57 2 S106 1013 1147615 1622 0
57 2 S106 979 1148594 2601 0
57 2 S106 875 1149469 3476 0
57 2 S106 912 1150381 4388 0
57 2 S106 939 1151320 5327 0
57 2 S106 978 1152298 6305 0
0 0 0 890 1153188 -9483 0
0 0 0 946 1154134 -8537 0
0 0 0 950 1155084 -7587 0
0 0 0 1035 1156119 -6552 0
0 0 0 850 1156969 -5702 0
0 0 0 854 1157823 -4848 0
0 0 0 932 1158755 -3916 0
0 0 0 994 1159749 -2922 0
58 1 S102 1097 1160846 -1825 0
58 1 S102 1015 1161861 -810 0
58 2 S102 1086 1162947 276 0
58 2 S102 1139 1164086 1415 1
58 2 S102 1064 1165150 2479 0
58 2 S102 939 1166089 3418 0
58 2 S102 946 1167035 4364 0
58 2 S102 981 1168016 5345 0
58 2 S102 1085 1169101 6430 0
0 0 0 991 1170092 -7831 0
0 0 0 1016 1171108 -6815 0
0 0 0 1043 1172151 -5772 0
0 0 0 1030 1173181 -4742 0
0 0 0 902 1174083 -3840 0
0 0 0 892 1174975 -2948 0
0 0 0 897 1175872 -2051 0
59 1 S112 854 1176726 -1197 0
59 1 S112 907 1177633 -290 0
59 2 S112 969 1178602 679 0
59 2 S112 1040 1179642 1719 0
59 2 S112 930 1180572 2649 0
59 2 S112 983 1181555 3632 0
59 2 S112 976 1182531 4608 0
59 2 S112 901 1183432 5509 0
59 2 S112 871 1184303 6380 0
0 0 0 900 1185203 -9199 0
0 0 0 952 1186155 -8247 0
0 0 0 1017 1187172 -7230 0
0 0 0 876 1188048 -6354 0
0 0 0 884 1188932 -5470 0
0 0 0 915 1189847 -4555 0
0 0 0 924 1190771 -3631 0
0 0 0 872 1191643 -2759 0
60 1 S102 900 1192543 -1859 0
60 1 S102 994 1193537 -865 0
60 2 S102 1027 1194564 162 0
60 2 S102 977 1195541 1139 0
60 2 S102 977 1196518 2116 0
60 2 S102 968 1197486 3084 0
60 2 S102 958 1198444 4042 0
60 2 S102 870 1199314 4912 0
60 2 S102 902 1200216 5814 0
60 2 S102 946 1201162 6760 0
0 0 0 1037 1202199 -10539 0
0 0 0 920 1203119 -9619 0
0 0 0 962 1204081 -8657 0
0 0 0 894 1204975 -7763 0
0 0 0 887 1205862 -6876 0
0 0 0 829 1206691 -6047 0
0 0 0 892 1207583 -5155 0
0 0 0 819 1208402 -4336 0
0 0 0 917 1209319 -3419 0
0 0 0 1004 1210323 -2415 0
61 1 S106 920 1211243 -1495 0
61 1 S106 922 1212165 -573 0
61 2 S106 943 1213108 370 0
61 2 S106 976 1214084 1346 0
61 2 S106 893 1214977 2239 0
61 2 S106 858 1215835 3097 0
61 2 S106 864 1216699 3961 0
61 2 S106 914 1217613 4875 0
61 2 S106 995 1218608 5870 0
61 2 S106 883 1219491 6753 0
0 0 0 971 1220462 -7279 0
0 0 0 1011 1221473 -6268 0
0 0 0 1028 1222501 -5240 0
0 0 0 934 1223435 -4306 0
0 0 0 898 1224333 -3408 0
0 0 0 931 1225264 -2477 0
62 1 S112 869 1226133 -1608 0
62 1 S112 897 1227030 -711 0
62 2 S112 965 1227995 254 0
62 2 S112 1051 1229046 1305 0
62 2 S112 1004 1230050 2309 0
62 2 S112 962 1231012 3271 0
62 2 S112 1027 1232039 4298 0
62 2 S112 1092 1233131 5390 0
62 2 S112 1037 1234168 6427 0
0 0 0 1004 1235172 -11651 0
0 0 0 1038 1236210 -10613 0
0 0 0 1010 1237220 -9603 0
0 0 0 947 1238167 -8656 0
0 0 0 924 1239091 -7732 0
0 0 0 930 1240021 -6802 0
0 0 0 977 1240998 -5825 0
0 0 0 955 1241953 -4870 0
0 0 0 982 1242935 -3888 0
0 0 0 1012 1243947 -2876 0
63 1 S102 996 1244943 -1880 0
63 1 S102 892 1245835 -988 0
63 1 S102 908 1246743 -80 0
63 2 S102 963 1247706 883 0
63 2 S102 967 1248673 1850 0
63 2 S102 884 1249557 2734 0
63 2 S102 906 1250463 3640 0
63 2 S102 954 1251417 4594 0
63 2 S102 986 1252403 5580 0
63 2 S102 1045 1253448 6625 0
0 0 0 926 1254374 -9558 0
0 0 0 971 1255345 -8587 0
0 0 0 971 1256316 -7616 0
0 0 0 1039 1257355 -6577 0
0 0 0 858 1258213 -5719 0
0 0 0 821 1259034 -4898 0
0 0 0 782 1259816 -4116 0
0 0 0 839 1260655 -3277 0
0 0 0 908 1261563 -2369 0
64 1 S112 902 1262465 -1467 0
64 1 S112 902 1263367 -565 0
64 2 S112 952 1264319 387 0
64 2 S112 1012 1265331 1399 0
64 2 S112 986 1266317 2385 0
64 2 S112 900 1267217 3285 0
64 2 S112 893 1268110 4178 0
64 2 S112 904 1269014 5082 0
64 2 S112 985 1269999 6067 0
64 2 S112 925 1270924 6992 0
0 0 0 963 1271887 -7247 0
0 0 0 940 1272827 -6307 0
0 0 0 936 1273763 -5371 0
0 0 0 934 1274697 -4437 0
0 0 0 931 1275628 -3506 0
0 0 0 976 1276604 -2530 0
65 1 S106 920 1277524 -1610 0
65 1 S106 988 1278512 -622 0
65 2 S106 1009 1279521 387 0
65 2 S106 1055 1280576 1442 0
65 2 S106 922 1281498 2364 0
65 2 S106 918 1282416 3282 0
65 2 S106 921 1283337 4203 0
65 2 S106 931 1284268 5134 0
65 2 S106 889 1285157 6023 0
65 2 S106 952 1286109 6975 0
0 0 0 1006 1287115 -6608 0
0 0 0 1077 1288192 -5531 0
0 0 0 955 1289147 -4576 0
0 0 0 897 1290044 -3679 0
0 0 0 904 1290948 -2775 0
66 1 S116 949 1291897 -1826 0
66 1 S116 938 1292835 -888 0
66 2 S116 1093 1293928 205 0
66 2 S116 1082 1295010 1287 0
66 2 S116 1014 1296024 2301 0
66 2 S116 917 1296941 3218 0
66 2 S116 907 1297848 4125 0
66 2 S116 922 1298770 5047 0
66 2 S116 976 1299746 6023 0
66 2 S116 927 1300673 6950 0
0 0 0 967 1301640 -10320 0
0 0 0 1002 1302642 -9318 0
0 0 0 930 1303572 -8388 0
0 0 0 873 1304445 -7515 0
0 0 0 860 1305305 -6655 0
0 0 0 908 1306213 -5747 0
0 0 0 912 1307125 -4835 0
0 0 0 887 1308012 -3948 0
0 0 0 924 1308936 -3024 0
0 0 0 1022 1309958 -2002 0
67 1 S102 961 1310919 -1041 0
67 1 S102 893 1311812 -148 0
67 2 S102 953 1312765 805 0
67 2 S102 976 1313741 1781 0
67 2 S102 995 1314736 2776 0
67 2 S102 934 1315670 3710 0
67 2 S102 941 1316611 4651 0
67 2 S102 996 1317607 5647 0
67 2 S102 1037 1318644 6684 0
0 0 0 893 1319537 -5719 0
0 0 0 943 1320480 -4776 0
0 0 0 867 1321347 -3909 0
0 0 0 873 1322220 -3036 0
0 0 0 812 1323032 -2224 0
68 1 S106 806 1323838 -1418 0
68 1 S106 828 1324666 -590 0
68 2 S106 854 1325520 264 0
68 2 S106 906 1326426 1170 0
68 2 S106 824 1327250 1994 0
68 2 S106 836 1328086 2830 0
68 2 S106 850 1328936 3680 0
68 2 S106 819 1329755 4499 0
68 2 S106 822 1330577 5321 0
68 2 S106 799 1331376 6120 0
68 2 S106 782 1332158 6902 0
0 0 0 789 1332947 -11971 0
0 0 0 761 1333708 -11210 0
0 0 0 739 1334447 -10471 0
0 0 0 704 1335151 -9767 1
0 0 0 718 1335869 -9049 0
0 0 0 719 1336588 -8330 0
0 0 0 750 1337338 -7580 0
0 0 0 786 1338124 -6794 0
0 0 0 854 1338978 -5940 0
0 0 0 1384 1340362 -4556 1
0 0 0 964 1341326 -3592 0
0 0 0 870 1342196 -2722 0
69 1 S102 952 1343148 -1770 0
69 1 S102 941 1344089 -829 0
69 2 S102 973 1345062 144 0
69 2 S102 1012 1346074 1156 0
69 2 S102 963 1347037 2119 0
69 2 S102 914 1347951 3033 0
69 2 S102 933 1348884 3966 0
69 2 S102 978 1349862 4944 0
69 2 S102 1087 1350949 6031 0
0 0 0 1086 1352035 -10273 0
0 0 0 1023 1353058 -9250 0
0 0 0 979 1354037 -8271 0
0 0 0 974 1355011 -7297 0
0 0 0 873 1355884 -6424 0
0 0 0 882 1356766 -5542 0
0 0 0 884 1357650 -4658 0
0 0 0 984 1358634 -3674 0
0 0 0 860 1359494 -2814 0
70 1 S112 1022 1360516 -1792 0
70 1 S112 1178 1361694 -614 1
70 2 S112 1067 1362761 453 0
70 2 S112 976 1363737 1429 0
70 2 S112 1007 1364744 2436 0
70 2 S112 1009 1365753 3445 0
70 2 S112 973 1366726 4418 0
70 2 S112 911 1367637 5329 0
70 2 S112 972 1368609 6301 0
0 0 0 1013 1369622 -11785 0
0 0 0 990 1370612 -10795 0
0 0 0 943 1371555 -9852 0
0 0 0 971 1372526 -8881 0
0 0 0 888 1373414 -7993 0
0 0 0 825 1374239 -7168 0
0 0 0 866 1375105 -6302 0
0 0 0 919 1376024 -5383 0
0 0 0 1013 1377037 -4370 0
0 0 0 918 1377955 -3452 0
0 0 0 901 1378856 -2551 0
71 1 S116 889 1379745 -1662 0
71 1 S116 898 1380643 -764 0
71 2 S116 927 1381570 163 0
71 2 S116 871 1382441 1034 0
71 2 S116 903 1383344 1937 0
71 2 S116 885 1384229 2822 0
71 2 S116 872 1385101 3694 0
71 2 S116 865 1385966 4559 0
71 2 S116 817 1386783 5376 0
71 2 S116 869 1387652 6245 0
0 0 0 913 1388565 -9006 0
0 0 0 1035 1389600 -7971 0
0 0 0 960 1390560 -7011 0
0 0 0 863 1391423 -6148 0
0 0 0 849 1392272 -5299 0
0 0 0 838 1393110 -4461 0
0 0 0 844 1393954 -3617 0
0 0 0 844 1394798 -2773 0
72 1 S102 848 1395646 -1925 0
72 1 S102 876 1396522 -1049 0
72 1 S102 917 1397439 -132 0
72 2 S102 870 1398309 738 0
72 2 S102 928 1399237 1666 0
72 2 S102 947 1400184 2613 0
72 2 S102 929 1401113 3542 0
72 2 S102 870 1401983 4412 0
72 2 S102 911 1402894 5323 0
72 2 S102 939 1403833 6262 0
0 0 0 1062 1404895 -6253 0
0 0 0 943 1405838 -5310 0
0 0 0 932 1406770 -4378 0
0 0 0 906 1407676 -3472 0
0 0 0 886 1408562 -2586 0
73 1 S116 847 1409409 -1739 0
73 1 S116 914 1410323 -825 0
73 2 S116 977 1411300 152 0
73 2 S116 1118 1412418 1270 0
73 2 S116 1009 1413427 2279 0
73 2 S116 969 1414396 3248 0
73 2 S116 916 1415312 4164 0
73 2 S116 835 1416147 4999 0
73 2 S116 812 1416959 5811 0
73 2 S116 830 1417789 6641 0
0 0 0 883 1418672 -8673 0
0 0 0 909 1419581 -7764 0
0 0 0 828 1420409 -6936 0
0 0 0 831 1421240 -6105 0
0 0 0 803 1422043 -5302 0
0 0 0 774 1422817 -4528 0
0 0 0 792 1423609 -3736 0
0 0 0 768 1424377 -2968 0
0 0 0 751 1425128 -2217 0
74 1 S106 778 1425906 -1439 0
74 1 S106 799 1426705 -640 0
74 2 S106 791 1427496 151 0
74 2 S106 832 1428328 983 0
74 2 S106 839 1429167 1822 0
74 2 S106 863 1430030 2685 0
74 2 S106 869 1430899 3554 0
74 2 S106 834 1431733 4388 0
74 2 S106 806 1432539 5194 0
74 2 S106 828 1433367 6022 0
74 2 S106 906 1434273 6928 0
0 0 0 965 1435238 -5868 0
0 0 0 877 1436115 -4991 0
0 0 0 902 1437017 -4089 0
0 0 0 915 1437932 -3174 0
0 0 0 972 1438904 -2202 0
75 1 S112 844 1439748 -1358 0
75 1 S112 826 1440574 -532 0
75 2 S112 803 1441377 271 0
75 2 S112 815 1442192 1086 0
75 2 S112 865 1443057 1951 0
75 2 S112 817 1443874 2768 0
75 2 S112 853 1444727 3621 0
75 2 S112 935 1445662 4556 0
75 2 S112 933 1446595 5489 0
75 2 S112 958 1447553 6447 0
0 0 0 942 1448495 -6205 0
0 0 0 911 1449406 -5294 0
0 0 0 831 1450237 -4463 0
0 0 0 793 1451030 -3670 0
0 0 0 779 1451809 -2891 0
0 0 0 801 1452610 -2090 0
76 1 S116 841 1453451 -1249 0
76 1 S116 800 1454251 -449 0
76 2 S116 775 1455026 326 0
76 2 S116 846 1455872 1172 0
76 2 S116 1007 1456879 2179 0
76 2 S116 1079 1457958 3258 0
76 2 S116 1006 1458964 4264 0
76 2 S116 872 1459836 5136 0
76 2 S116 872 1460708 6008 0
76 2 S116 902 1461610 6910 0
0 0 0 972 1462582 -6806 0
0 0 0 997 1463579 -5809 0
0 0 0 982 1464561 -4827 0
0 0 0 960 1465521 -3867 0
0 0 0 1004 1466525 -2863 0
77 1 S106 939 1467464 -1924 0
77 1 S106 905 1468369 -1019 0
77 1 S106 919 1469288 -100 0
77 2 S106 988 1470276 888 0
77 2 S106 938 1471214 1826 0
77 2 S106 925 1472139 2751 0
77 2 S106 988 1473127 3739 0
77 2 S106 1036 1474163 4775 0
77 2 S106 1029 1475192 5804 0
77 2 S106 937 1476129 6741 0
0 0 0 984 1477113 -7726 0
0 0 0 1055 1478168 -6671 0
0 0 0 920 1479088 -5751 0
0 0 0 879 1479967 -4872 0
0 0 0 899 1480866 -3973 0
0 0 0 971 1481837 -3002 0
78 1 S112 1009 1482846 -1993 0
78 1 S112 904 1483750 -1089 0
78 1 S112 928 1484678 -161 0
78 2 S112 943 1485621 782 0
78 2 S112 1007 1486628 1789 0
78 2 S112 951 1487579 2740 0
78 2 S112 901 1488480 3641 0
78 2 S112 887 1489367 4528 0
78 2 S112 898 1490265 5426 0
78 2 S112 909 1491174 6335 0
0 0 0 841 1492015 -10298 0
0 0 0 859 1492874 -9439 0
0 0 0 841 1493715 -8598 0
0 0 0 847 1494562 -7751 0
0 0 0 858 1495420 -6893 0
0 0 0 868 1496288 -6025 0
0 0 0 924 1497212 -5101 0
0 0 0 845 1498057 -4256 0
0 0 0 831 1498888 -3425 0
0 0 0 816 1499704 -2609 0
79 1 S102 814 1500518 -1795 0
79 1 S102 801 1501319 -994 0
79 1 S102 790 1502109 -204 0
79 2 S102 781 1502890 577 0
79 2 S102 787 1503677 1364 0
79 2 S102 787 1504464 2151 0
79 2 S102 782 1505246 2933 0
79 2 S102 810 1506056 3743 0
79 2 S102 837 1506893 4580 0
79 2 S102 930 1507823 5510 0
79 2 S102 952 1508775 6462 0
0 0 0 859 1509634 -10749 0
0 0 0 901 1510535 -9848 0
0 0 0 931 1511466 -8917 0
0 0 0 938 1512404 -7979 0
0 0 0 915 1513319 -7064 0
0 0 0 889 1514208 -6175 0
0 0 0 831 1515039 -5344 0
0 0 0 795 1515834 -4549 0
0 0 0 757 1516591 -3792 0
0 0 0 734 1517325 -3058 0
0 0 0 732 1518057 -2326 0
80 1 S116 724 1518781 -1602 0
80 1 S116 738 1519519 -864 0
80 1 S116 760 1520279 -104 0
80 2 S116 756 1521035 652 0
80 2 S116 761 1521796 1413 0
80 2 S116 765 1522561 2178 0
80 2 S116 755 1523316 2933 0
80 2 S116 754 1524070 3687 0
80 2 S116 749 1524819 4436 0
80 2 S116 781 1525600 5217 0
80 2 S116 762 1526362 5979 0
80 2 S116 748 1527110 6727 0
