T_0128
BeatCount Mean SD BeatCountNoOutliers MeanNoOutliers SDNoOutliers
1929 774,81544841887 41,6635549991174 1893 776,638140517697 38,3276879197832

Trial TrialStatus Trialtype IBI AbsPosition RelPosition Outlier
0 0 0 760 947 -15204 0
0 0 0 687 1634 -14517 0
0 0 0 706 2340 -13811 0
0 0 0 702 3042 -13109 0
0 0 0 738 3780 -12371 0
0 0 0 705 4485 -11666 0
0 0 0 704 5189 -10962 0
0 0 0 766 5955 -10196 0
0 0 0 819 6774 -9377 0
0 0 0 829 7603 -8548 0
0 0 0 779 8382 -7769 0
0 0 0 816 9198 -6953 0
0 0 0 829 10027 -6124 0
0 0 0 801 10828 -5323 0
0 0 0 723 11551 -4600 0
0 0 0 760 12311 -3840 0
0 0 0 804 13115 -3036 0
0 0 0 879 13994 -2157 0
1 1 S112 805 14799 -1352 0
1 1 S112 828 15627 -524 0
1 2 S112 873 16500 349 0
1 2 S112 899 17399 1248 1
1 2 S112 873 18272 2121 0
1 2 S112 778 19050 2899 0
1 2 S112 856 19906 3755 0
1 2 S112 864 20770 4619 0
1 2 S112 863 21633 5482 0
1 2 S112 767 22400 6249 0
0 0 0 801 23201 -11799 0
0 0 0 865 24066 -10934 0
0 0 0 865 24931 -10069 0
0 0 0 777 25708 -9292 0
0 0 0 844 26552 -8448 0
0 0 0 849 27401 -7599 0
0 0 0 760 28161 -6839 0
0 0 0 795 28956 -6044 0
0 0 0 820 29776 -5224 0
0 0 0 856 30632 -4368 0
0 0 0 797 31429 -3571 0
0 0 0 774 32203 -2797 0
2 1 S102 818 33021 -1979 0
2 1 S102 847 33868 -1132 0
2 1 S102 868 34736 -264 0
2 2 S102 797 35533 533 0
2 2 S102 786 36319 1319 0
2 2 S102 832 37151 2151 0
2 2 S102 866 38017 3017 0
2 2 S102 857 38874 3874 0
2 2 S102 769 39643 4643 0
2 2 S102 769 40412 5412 0
2 2 S102 821 41233 6233 0
0 0 0 857 42090 -8627 0
0 0 0 828 42918 -7799 0
0 0 0 841 43759 -6958 0
0 0 0 845 44604 -6113 0
0 0 0 833 45437 -5280 0
0 0 0 766 46203 -4514 0
0 0 0 788 46991 -3726 0
0 0 0 829 47820 -2897 0
0 0 0 855 48675 -2042 0
3 1 S116 811 49486 -1231 0
3 1 S116 795 50281 -436 0
3 2 S116 817 51098 381 0
3 2 S116 836 51934 1217 0
3 2 S116 801 52735 2018 0
3 2 S116 780 53515 2798 0
3 2 S116 834 54349 3632 0
3 2 S116 868 55217 4500 0
3 2 S116 869 56086 5369 0
3 2 S116 777 56863 6146 0
3 2 S116 830 57693 6976 0
0 0 0 860 58553 -11444 0
0 0 0 843 59396 -10601 0
0 0 0 761 60157 -9840 0
0 0 0 814 60971 -9026 0
0 0 0 826 61797 -8200 0
0 0 0 761 62558 -7439 0
0 0 0 787 63345 -6652 0
0 0 0 790 64135 -5862 0
0 0 0 722 64857 -5140 0
0 0 0 731 65588 -4409 0
0 0 0 766 66354 -3643 0
0 0 0 819 67173 -2824 0
4 1 S106 826 67999 -1998 0
4 1 S106 818 68817 -1180 0
4 1 S106 851 69668 -329 0
4 2 S106 867 70535 538 0
4 2 S106 829 71364 1367 0
4 2 S106 762 72126 2129 0
4 2 S106 806 72932 2935 0
4 2 S106 819 73751 3754 0
4 2 S106 837 74588 4591 0
4 2 S106 770 75358 5361 0
4 2 S106 828 76186 6189 0
0 0 0 846 77032 -7438 0
0 0 0 844 77876 -6594 0
0 0 0 778 78654 -5816 0
0 0 0 832 79486 -4984 0
0 0 0 828 80314 -4156 0
0 0 0 745 81059 -3411 0
0 0 0 743 81802 -2668 0
5 1 S116 773 82575 -1895 0
5 1 S116 802 83377 -1093 0
5 1 S116 765 84142 -328 0
5 2 S116 757 84899 429 0
5 2 S116 791 85690 1220 0
5 2 S116 816 86506 2036 0
5 2 S116 810 87316 2846 0
5 2 S116 751 88067 3597 0
5 2 S116 784 88851 4381 0
5 2 S116 831 89682 5212 0
5 2 S116 849 90531 6061 0
5 2 S116 787 91318 6848 0
0 0 0 792 92110 -9337 0
0 0 0 817 92927 -8520 0
0 0 0 824 93751 -7696 0
0 0 0 779 94530 -6917 0
0 0 0 797 95327 -6120 0
0 0 0 806 96133 -5314 0
0 0 0 768 96901 -4546 0
0 0 0 717 97618 -3829 0
0 0 0 760 98378 -3069 0
0 0 0 767 99145 -2302 0
6 1 S106 783 99928 -1519 0
6 1 S106 733 100661 -786 0
6 1 S106 744 101405 -42 0
6 2 S106 772 102177 730 0
6 2 S106 822 102999 1552 0
6 2 S106 834 103833 2386 0
6 2 S106 757 104590 3143 0
6 2 S106 794 105384 3937 0
6 2 S106 820 106204 4757 0
6 2 S106 812 107016 5569 0
6 2 S106 730 107746 6299 0
0 0 0 746 108492 -10213 0
0 0 0 764 109256 -9449 0
0 0 0 788 110044 -8661 0
0 0 0 744 110788 -7917 0
0 0 0 727 111515 -7190 0
0 0 0 774 112289 -6416 0
0 0 0 800 113089 -5616 0
0 0 0 776 113865 -4840 0
0 0 0 735 114600 -4105 0
0 0 0 787 115387 -3318 0
0 0 0 801 116188 -2517 0
7 1 S102 768 116956 -1749 0
7 1 S102 697 117653 -1052 0
7 1 S102 733 118386 -319 0
7 2 S102 745 119131 426 0
7 2 S102 802 119933 1228 0
7 2 S102 786 120719 2014 0
7 2 S102 748 121467 2762 0
7 2 S102 803 122270 3565 0
7 2 S102 828 123098 4393 0
7 2 S102 779 123877 5172 0
7 2 S102 764 124641 5936 0
7 2 S102 793 125434 6729 0
0 0 0 821 126255 -8100 0
0 0 0 824 127079 -7276 0
0 0 0 753 127832 -6523 0
0 0 0 787 128619 -5736 0
0 0 0 795 129414 -4941 0
0 0 0 782 130196 -4159 0
0 0 0 727 130923 -3432 0
0 0 0 766 131689 -2666 0
8 1 S112 796 132485 -1870 0
8 1 S112 805 133290 -1065 0
8 1 S112 749 134039 -316 0
8 2 S112 799 134838 483 0
8 2 S112 835 135673 1318 0
8 2 S112 848 136521 2166 0
8 2 S112 778 137299 2944 0
8 2 S112 764 138063 3708 0
8 2 S112 791 138854 4499 0
8 2 S112 800 139654 5299 0
8 2 S112 774 140428 6073 0
8 2 S112 724 141152 6797 0
0 0 0 752 141904 -6758 0
0 0 0 790 142694 -5968 0
0 0 0 813 143507 -5155 0
0 0 0 776 144283 -4379 0
0 0 0 745 145028 -3634 0
0 0 0 783 145811 -2851 0
0 0 0 795 146606 -2056 0
9 1 S116 749 147355 -1307 0
9 1 S116 748 148103 -559 0
9 2 S116 778 148881 219 0
9 2 S116 805 149686 1024 0
9 2 S116 795 150481 1819 0
9 2 S116 748 151229 2567 0
9 2 S116 783 152012 3350 0
9 2 S116 797 152809 4147 0
9 2 S116 810 153619 4957 0
9 2 S116 755 154374 5712 0
9 2 S116 792 155166 6504 0
0 0 0 824 155990 -12052 0
0 0 0 833 156823 -11219 0
0 0 0 758 157581 -10461 0
0 0 0 775 158356 -9686 0
0 0 0 797 159153 -8889 0
0 0 0 779 159932 -8110 0
0 0 0 710 160642 -7400 0
0 0 0 750 161392 -6650 0
0 0 0 763 162155 -5887 0
0 0 0 766 162921 -5121 0
0 0 0 724 163645 -4397 0
0 0 0 773 164418 -3624 0
0 0 0 798 165216 -2826 0
0 0 0 790 166006 -2036 0
10 1 S102 734 166740 -1302 0
10 1 S102 776 167516 -526 0
10 2 S102 803 168319 277 0
10 2 S102 786 169105 1063 0
10 2 S102 743 169848 1806 0
10 2 S102 790 170638 2596 0
10 2 S102 818 171456 3414 0
10 2 S102 795 172251 4209 0
10 2 S102 722 172973 4931 0
10 2 S102 743 173716 5674 0
10 2 S102 785 174501 6459 0
0 0 0 831 175332 -9952 0
0 0 0 807 176139 -9145 0
0 0 0 761 176900 -8384 0
0 0 0 809 177709 -7575 0
0 0 0 814 178523 -6761 0
0 0 0 766 179289 -5995 0
0 0 0 718 180007 -5277 0
0 0 0 749 180756 -4528 0
0 0 0 759 181515 -3769 0
0 0 0 770 182285 -2999 0
0 0 0 731 183016 -2268 0
11 1 S112 780 183796 -1488 0
11 1 S112 784 184580 -704 0
11 2 S112 753 185333 49 0
11 2 S112 742 186075 791 0
11 2 S112 788 186863 1579 0
11 2 S112 821 187684 2400 0
11 2 S112 770 188454 3170 0
11 2 S112 796 189250 3966 0
11 2 S112 838 190088 4804 0
11 2 S112 871 190959 5675 0
11 2 S112 797 191756 6472 0
0 0 0 782 192538 -7384 0
0 0 0 819 193357 -6565 0
0 0 0 812 194169 -5753 0
0 0 0 774 194943 -4979 0
0 0 0 722 195665 -4257 0
0 0 0 757 196422 -3500 0
0 0 0 765 197187 -2735 0
12 1 S116 771 197958 -1964 0
12 1 S116 715 198673 -1249 0
12 1 S116 741 199414 -508 0
12 2 S116 735 200149 227 0
12 2 S116 744 200893 971 0
12 2 S116 726 201619 1697 0
12 2 S116 750 202369 2447 0
12 2 S116 809 203178 3256 0
12 2 S116 860 204038 4116 0
12 2 S116 818 204856 4934 0
12 2 S116 815 205671 5749 0
12 2 S116 857 206528 6606 0
0 0 0 855 207383 -10858 0
0 0 0 773 208156 -10085 0
0 0 0 801 208957 -9284 0
0 0 0 789 209746 -8495 0
0 0 0 759 210505 -7736 0
0 0 0 727 211232 -7009 0
0 0 0 778 212010 -6231 0
0 0 0 817 212827 -5414 0
0 0 0 776 213603 -4638 0
0 0 0 740 214343 -3898 0
0 0 0 780 215123 -3118 0
0 0 0 789 215912 -2329 0
13 1 S112 742 216654 -1587 0
13 1 S112 767 217421 -820 0
13 1 S112 787 218208 -33 0
13 2 S112 780 218988 747 0
13 2 S112 751 219739 1498 0
13 2 S112 781 220520 2279 0
13 2 S112 818 221338 3097 0
13 2 S112 797 222135 3894 0
13 2 S112 745 222880 4639 0
13 2 S112 776 223656 5415 0
13 2 S112 805 224461 6220 0
0 0 0 846 225307 -11933 0
0 0 0 814 226121 -11119 0
0 0 0 790 226911 -10329 0
0 0 0 816 227727 -9513 0
0 0 0 833 228560 -8680 0
0 0 0 736 229296 -7944 0
0 0 0 740 230036 -7204 0
0 0 0 710 230746 -6494 0
0 0 0 678 231424 -5816 0
0 0 0 677 232101 -5139 0
0 0 0 702 232803 -4437 0
0 0 0 695 233498 -3742 0
0 0 0 747 234245 -2995 0
0 0 0 778 235023 -2217 0
14 1 S106 788 235811 -1429 0
14 1 S106 750 236561 -679 0
14 2 S106 786 237347 107 0
14 2 S106 806 238153 913 0
14 2 S106 805 238958 1718 0
14 2 S106 748 239706 2466 0
14 2 S106 741 240447 3207 0
14 2 S106 771 241218 3978 0
14 2 S106 787 242005 4765 0
14 2 S106 751 242756 5516 0
14 2 S106 781 243537 6297 0
0 0 0 805 244342 -10471 0
0 0 0 823 245165 -9648 0
0 0 0 762 245927 -8886 0
0 0 0 783 246710 -8103 0
0 0 0 782 247492 -7321 0
0 0 0 757 248249 -6564 0
0 0 0 722 248971 -5842 0
0 0 0 776 249747 -5066 0
0 0 0 798 250545 -4268 0
0 0 0 762 251307 -3506 0
0 0 0 718 252025 -2788 0
0 0 0 769 252794 -2019 0
15 1 S116 782 253576 -1237 0
15 1 S116 780 254356 -457 0
15 2 S116 725 255081 268 0
15 2 S116 751 255832 1019 0
15 2 S116 777 256609 1796 0
15 2 S116 805 257414 2601 0
15 2 S116 777 258191 3378 0
15 2 S116 779 258970 4157 0
15 2 S116 824 259794 4981 0
15 2 S116 844 260638 5825 0
15 2 S116 781 261419 6606 0
0 0 0 762 262181 -10587 0
0 0 0 794 262975 -9793 0
0 0 0 798 263773 -8995 0
0 0 0 766 264539 -8229 0
0 0 0 764 265303 -7465 0
0 0 0 810 266113 -6655 0
0 0 0 789 266902 -5866 0
0 0 0 733 267635 -5133 0
0 0 0 760 268395 -4373 0
0 0 0 777 269172 -3596 0
0 0 0 777 269949 -2819 0
0 0 0 726 270675 -2093 0
16 1 S116 744 271419 -1349 0
16 1 S116 773 272192 -576 0
16 2 S116 775 272967 199 0
16 2 S116 723 273690 922 0
16 2 S116 762 274452 1684 0
16 2 S116 782 275234 2466 0
16 2 S116 800 276034 3266 0
16 2 S116 786 276820 4052 0
16 2 S116 740 277560 4792 0
16 2 S116 780 278340 5572 0
16 2 S116 799 279139 6371 0
0 0 0 797 279936 -8482 0
0 0 0 731 280667 -7751 0
0 0 0 764 281431 -6987 0
0 0 0 762 282193 -6225 0
0 0 0 746 282939 -5479 0
0 0 0 704 283643 -4775 0
0 0 0 755 284398 -4020 0
0 0 0 749 285147 -3271 0
0 0 0 734 285881 -2537 0
17 1 S106 701 286582 -1836 0
17 1 S106 739 287321 -1097 0
17 1 S106 748 288069 -349 0
17 2 S106 774 288843 425 0
17 2 S106 737 289580 1162 0
17 2 S106 783 290363 1945 0
17 2 S106 789 291152 2734 0
17 2 S106 798 291950 3532 0
17 2 S106 726 292676 4258 0
17 2 S106 775 293451 5033 0
17 2 S106 793 294244 5826 0
17 2 S106 815 295059 6641 0
0 0 0 769 295828 -11456 0
0 0 0 760 296588 -10696 0
0 0 0 786 297374 -9910 0
0 0 0 816 298190 -9094 0
0 0 0 765 298955 -8329 0
0 0 0 767 299722 -7562 0
0 0 0 774 300496 -6788 0
0 0 0 791 301287 -5997 0
0 0 0 737 302024 -5260 0
0 0 0 761 302785 -4499 0
0 0 0 770 303555 -3729 0
0 0 0 761 304316 -2968 0
0 0 0 703 305019 -2265 0
18 1 S102 742 305761 -1523 0
18 1 S102 766 306527 -757 0
18 2 S102 783 307310 26 0
18 2 S102 741 308051 767 0
18 2 S102 726 308777 1493 0
18 2 S102 719 309496 2212 0
18 2 S102 748 310244 2960 0
18 2 S102 720 310964 3680 0
18 2 S102 724 311688 4404 0
18 2 S102 763 312451 5167 0
18 2 S102 817 313268 5984 0
18 2 S102 834 314102 6818 0
0 0 0 791 314893 -6068 0
0 0 0 800 315693 -5268 0
0 0 0 820 316513 -4448 0
0 0 0 794 317307 -3654 0
0 0 0 720 318027 -2934 0
0 0 0 739 318766 -2195 0
19 1 S106 742 319508 -1453 0
19 1 S106 780 320288 -673 0
19 2 S106 739 321027 66 0
19 2 S106 803 321830 869 0
19 2 S106 836 322666 1705 0
19 2 S106 854 323520 2559 0
19 2 S106 793 324313 3352 0
19 2 S106 808 325121 4160 0
19 2 S106 838 325959 4998 0
19 2 S106 835 326794 5833 0
19 2 S106 748 327542 6581 0
0 0 0 778 328320 -10397 0
0 0 0 794 329114 -9603 0
0 0 0 798 329912 -8805 0
0 0 0 740 330652 -8065 0
0 0 0 764 331416 -7301 0
0 0 0 798 332214 -6503 0
0 0 0 821 333035 -5682 0
0 0 0 774 333809 -4908 0
0 0 0 812 334621 -4096 0
0 0 0 828 335449 -3268 0
0 0 0 810 336259 -2458 0
20 1 S112 747 337006 -1711 0
20 1 S112 770 337776 -941 0
20 1 S112 783 338559 -158 0
20 2 S112 766 339325 608 0
20 2 S112 717 340042 1325 0
20 2 S112 732 340774 2057 0
20 2 S112 782 341556 2839 0
20 2 S112 858 342414 3697 0
20 2 S112 850 343264 4547 0
20 2 S112 798 344062 5345 0
20 2 S112 861 344923 6206 0
0 0 0 881 345804 -9657 0
0 0 0 878 346682 -8779 0
0 0 0 773 347455 -8006 0
0 0 0 804 348259 -7202 0
0 0 0 796 349055 -6406 0
0 0 0 764 349819 -5642 0
0 0 0 740 350559 -4902 0
0 0 0 780 351339 -4122 0
0 0 0 816 352155 -3306 0
0 0 0 781 352936 -2525 0
21 1 S106 748 353684 -1777 0
21 1 S106 788 354472 -989 0
21 1 S106 775 355247 -214 0
21 2 S106 715 355962 501 0
21 2 S106 718 356680 1219 0
21 2 S106 754 357434 1973 0
21 2 S106 791 358225 2764 0
21 2 S106 805 359030 3569 0
21 2 S106 747 359777 4316 0
21 2 S106 806 360583 5122 0
21 2 S106 816 361399 5938 0
21 2 S106 810 362209 6748 0
0 0 0 744 362953 -10611 0
0 0 0 788 363741 -9823 0
0 0 0 806 364547 -9017 0
0 0 0 806 365353 -8211 0
0 0 0 731 366084 -7480 0
0 0 0 755 366839 -6725 0
0 0 0 777 367616 -5948 0
0 0 0 792 368408 -5156 0
0 0 0 761 369169 -4395 0
0 0 0 760 369929 -3635 0
0 0 0 788 370717 -2847 0
0 0 0 804 371521 -2043 0
22 1 S116 769 372290 -1274 0
22 1 S116 746 373036 -528 0
22 2 S116 791 373827 263 0
22 2 S116 808 374635 1071 0
22 2 S116 803 375438 1874 0
22 2 S116 740 376178 2614 0
22 2 S116 788 376966 3402 0
22 2 S116 834 377800 4236 0
22 2 S116 861 378661 5097 0
22 2 S116 803 379464 5900 0
22 2 S116 832 380296 6732 0
0 0 0 861 381157 -9765 0
0 0 0 854 382011 -8911 0
0 0 0 767 382778 -8144 0
0 0 0 794 383572 -7350 0
0 0 0 794 384366 -6556 0
0 0 0 741 385107 -5815 0
0 0 0 711 385818 -5104 0
0 0 0 753 386571 -4351 0
0 0 0 781 387352 -3570 0
0 0 0 770 388122 -2800 0
0 0 0 731 388853 -2069 0
23 1 S112 791 389644 -1278 0
23 1 S112 815 390459 -463 0
23 2 S112 801 391260 338 0
23 2 S112 773 392033 1111 0
23 2 S112 790 392823 1901 0
23 2 S112 813 393636 2714 0
23 2 S112 762 394398 3476 0
23 2 S112 752 395150 4228 0
23 2 S112 795 395945 5023 0
23 2 S112 834 396779 5857 0
23 2 S112 805 397584 6662 0
0 0 0 751 398335 -9232 0
0 0 0 799 399134 -8433 0
0 0 0 808 399942 -7625 0
0 0 0 815 400757 -6810 0
0 0 0 760 401517 -6050 0
0 0 0 802 402319 -5248 0
0 0 0 812 403131 -4436 0
0 0 0 809 403940 -3627 0
0 0 0 746 404686 -2881 0
0 0 0 802 405488 -2079 0
24 1 S106 807 406295 -1272 0
24 1 S106 796 407091 -476 0
24 2 S106 738 407829 262 0
24 2 S106 770 408599 1032 0
24 2 S106 782 409381 1814 0
24 2 S106 806 410187 2620 0
24 2 S106 752 410939 3372 0
24 2 S106 762 411701 4134 0
24 2 S106 797 412498 4931 0
24 2 S106 810 413308 5741 0
24 2 S106 756 414064 6497 0
0 0 0 755 414819 -8729 0
0 0 0 772 415591 -7957 0
0 0 0 798 416389 -7159 0
0 0 0 753 417142 -6406 0
0 0 0 750 417892 -5656 0
0 0 0 795 418687 -4861 0
0 0 0 829 419516 -4032 0
0 0 0 826 420342 -3206 0
0 0 0 790 421132 -2416 0
25 1 S102 808 421940 -1608 0
25 1 S102 819 422759 -789 0
25 1 S102 773 423532 -16 0
25 2 S102 738 424270 722 0
25 2 S102 758 425028 1480 0
25 2 S102 770 425798 2250 0
25 2 S102 778 426576 3028 0
25 2 S102 724 427300 3752 0
25 2 S102 765 428065 4517 0
25 2 S102 791 428856 5308 0
25 2 S102 805 429661 6113 0
25 2 S102 741 430402 6854 0
0 0 0 780 431182 -6060 0
0 0 0 807 431989 -5253 0
0 0 0 812 432801 -4441 0
0 0 0 737 433538 -3704 0
0 0 0 738 434276 -2966 0
0 0 0 762 435038 -2204 0
26 1 S116 775 435813 -1429 0
26 1 S116 763 436576 -666 0
26 2 S116 720 437296 54 0
26 2 S116 764 438060 818 0
26 2 S116 779 438839 1597 0
26 2 S116 781 439620 2378 0
26 2 S116 733 440353 3111 0
26 2 S116 754 441107 3865 0
26 2 S116 776 441883 4641 0
26 2 S116 791 442674 5432 0
26 2 S116 745 443419 6177 0
26 2 S116 747 444166 6924 0
0 0 0 766 444932 -7529 0
0 0 0 753 445685 -6776 0
0 0 0 731 446416 -6045 0
0 0 0 775 447191 -5270 0
0 0 0 788 447979 -4482 0
0 0 0 686 448665 -3796 0
0 0 0 657 449322 -3139 1
0 0 0 665 449987 -2474 1
27 1 S106 644 450631 -1830 1
27 1 S106 631 451262 -1199 1
27 1 S106 618 451880 -581 1
27 2 S106 637 452517 56 1
27 2 S106 688 453205 744 0
27 2 S106 727 453932 1471 0
27 2 S106 752 454684 2223 0
27 2 S106 724 455408 2947 0
27 2 S106 684 456092 3631 0
27 2 S106 706 456798 4337 0
27 2 S106 727 457525 5064 0
27 2 S106 738 458263 5802 0
27 2 S106 718 458981 6520 0
0 0 0 733 459714 -7253 0
0 0 0 739 460453 -6514 0
0 0 0 765 461218 -5749 0
0 0 0 732 461950 -5017 0
0 0 0 768 462718 -4249 0
0 0 0 778 463496 -3471 0
0 0 0 795 464291 -2676 0
28 1 S102 736 465027 -1940 0
28 1 S102 786 465813 -1154 0
28 1 S102 790 466603 -364 0
28 2 S102 754 467357 390 0
28 2 S102 742 468099 1132 0
28 2 S102 783 468882 1915 0
28 2 S102 803 469685 2718 0
28 2 S102 800 470485 3518 0
28 2 S102 757 471242 4275 0
28 2 S102 791 472033 5066 0
28 2 S102 820 472853 5886 0
28 2 S102 831 473684 6717 0
0 0 0 761 474445 -9664 0
0 0 0 773 475218 -8891 0
0 0 0 786 476004 -8105 0
0 0 0 776 476780 -7329 0
0 0 0 728 477508 -6601 0
0 0 0 754 478262 -5847 0
0 0 0 770 479032 -5077 0
0 0 0 749 479781 -4328 0
0 0 0 723 480504 -3605 0
0 0 0 763 481267 -2842 0
0 0 0 759 482026 -2083 0
29 1 S112 721 482747 -1362 0
29 1 S112 741 483488 -621 0
29 2 S112 740 484228 119 0
29 2 S112 719 484947 838 0
29 2 S112 713 485660 1551 0
29 2 S112 761 486421 2312 0
29 2 S112 793 487214 3105 0
29 2 S112 765 487979 3870 0
29 2 S112 821 488800 4691 0
29 2 S112 809 489609 5500 0
29 2 S112 779 490388 6279 0
0 0 0 829 491217 -7912 0
0 0 0 850 492067 -7062 0
0 0 0 781 492848 -6281 0
0 0 0 793 493641 -5488 0
0 0 0 804 494445 -4684 0
0 0 0 778 495223 -3906 0
0 0 0 718 495941 -3188 0
0 0 0 757 496698 -2431 0
30 1 S112 772 497470 -1659 0
30 1 S112 741 498211 -918 0
30 1 S112 708 498919 -210 0
30 2 S112 733 499652 523 0
30 2 S112 766 500418 1289 0
30 2 S112 786 501204 2075 0
30 2 S112 749 501953 2824 0
30 2 S112 726 502679 3550 0
30 2 S112 767 503446 4317 0
30 2 S112 804 504250 5121 0
30 2 S112 838 505088 5959 0
30 2 S112 809 505897 6768 0
0 0 0 760 506657 -8835 0
0 0 0 793 507450 -8042 0
0 0 0 804 508254 -7238 0
0 0 0 782 509036 -6456 0
0 0 0 725 509761 -5731 0
0 0 0 760 510521 -4971 0
0 0 0 774 511295 -4197 0
0 0 0 792 512087 -3405 0
0 0 0 753 512840 -2652 0
31 1 S106 752 513592 -1900 0
31 1 S106 780 514372 -1120 0
31 1 S106 789 515161 -331 0
31 2 S106 779 515940 448 0
31 2 S106 733 516673 1181 0
31 2 S106 776 517449 1957 0
31 2 S106 792 518241 2749 0
31 2 S106 784 519025 3533 0
31 2 S106 738 519763 4271 0
31 2 S106 779 520542 5050 0
31 2 S106 790 521332 5840 0
31 2 S106 783 522115 6623 0
0 0 0 720 522835 -9451 0
0 0 0 746 523581 -8705 0
0 0 0 756 524337 -7949 0
0 0 0 742 525079 -7207 0
0 0 0 736 525815 -6471 0
0 0 0 775 526590 -5696 0
0 0 0 762 527352 -4934 0
0 0 0 730 528082 -4204 0
0 0 0 767 528849 -3437 0
0 0 0 770 529619 -2667 0
32 1 S102 729 530348 -1938 0
32 1 S102 781 531129 -1157 0
32 1 S102 797 531926 -360 0
32 2 S102 754 532680 394 0
32 2 S102 746 533426 1140 0
32 2 S102 758 534184 1898 0
32 2 S102 777 534961 2675 0
32 2 S102 761 535722 3436 0
32 2 S102 737 536459 4173 0
32 2 S102 789 537248 4962 0
32 2 S102 820 538068 5782 0
32 2 S102 787 538855 6569 0
0 0 0 777 539632 -11487 0
0 0 0 825 540457 -10662 0
0 0 0 826 541283 -9836 0
0 0 0 785 542068 -9051 0
0 0 0 783 542851 -8268 0
0 0 0 776 543627 -7492 0
0 0 0 753 544380 -6739 0
0 0 0 739 545119 -6000 0
0 0 0 789 545908 -5211 0
0 0 0 815 546723 -4396 0
0 0 0 770 547493 -3626 0
0 0 0 767 548260 -2859 0
0 0 0 797 549057 -2062 0
33 1 S112 818 549875 -1244 0
33 1 S112 782 550657 -462 0
33 2 S112 786 551443 324 0
33 2 S112 818 552261 1142 0
33 2 S112 833 553094 1975 0
33 2 S112 764 553858 2739 0
33 2 S112 769 554627 3508 0
33 2 S112 808 555435 4316 0
33 2 S112 842 556277 5158 0
33 2 S112 832 557109 5990 0
33 2 S112 768 557877 6758 0
0 0 0 805 558682 -11519 0
0 0 0 812 559494 -10707 0
0 0 0 786 560280 -9921 0
0 0 0 734 561014 -9187 0
0 0 0 768 561782 -8419 0
0 0 0 758 562540 -7661 0
0 0 0 730 563270 -6931 0
0 0 0 746 564016 -6185 0
0 0 0 770 564786 -5415 0
0 0 0 827 565613 -4588 0
0 0 0 826 566439 -3762 0
0 0 0 738 567177 -3024 0
0 0 0 782 567959 -2242 0
34 1 S106 802 568761 -1440 0
34 1 S106 812 569573 -628 0
34 2 S106 735 570308 107 0
34 2 S106 752 571060 859 0
34 2 S106 744 571804 1603 0
34 2 S106 734 572538 2337 0
34 2 S106 699 573237 3036 0
34 2 S106 745 573982 3781 0
34 2 S106 780 574762 4561 0
34 2 S106 806 575568 5367 0
34 2 S106 744 576312 6111 0
34 2 S106 789 577101 6900 0
0 0 0 835 577936 -8611 0
0 0 0 850 578786 -7761 0
0 0 0 791 579577 -6970 0
0 0 0 779 580356 -6191 0
0 0 0 781 581137 -5410 0
0 0 0 736 581873 -4674 0
0 0 0 749 582622 -3925 0
0 0 0 768 583390 -3157 0
0 0 0 787 584177 -2370 0
35 1 S102 735 584912 -1635 0
35 1 S102 791 585703 -844 0
35 1 S102 800 586503 -44 0
35 2 S102 736 587239 692 0
35 2 S102 761 588000 1453 0
35 2 S102 781 588781 2234 0
35 2 S102 798 589579 3032 0
35 2 S102 765 590344 3797 0
35 2 S102 798 591142 4595 0
35 2 S102 833 591975 5428 0
35 2 S102 820 592795 6248 0
35 2 S102 757 593552 7005 0
0 0 0 795 594347 -5678 0
0 0 0 820 595167 -4858 0
0 0 0 803 595970 -4055 0
0 0 0 744 596714 -3311 0
0 0 0 765 597479 -2546 0
36 1 S106 767 598246 -1779 0
36 1 S106 742 598988 -1037 0
36 1 S106 700 599688 -337 0
36 2 S106 724 600412 387 0
36 2 S106 746 601158 1133 0
36 2 S106 748 601906 1881 0
36 2 S106 726 602632 2607 0
36 2 S106 775 603407 3382 0
36 2 S106 786 604193 4168 0
36 2 S106 791 604984 4959 0
36 2 S106 744 605728 5703 0
36 2 S106 764 606492 6467 0
0 0 0 771 607263 -8943 0
0 0 0 773 608036 -8170 0
0 0 0 724 608760 -7446 0
0 0 0 758 609518 -6688 0
0 0 0 755 610273 -5933 0
0 0 0 701 610974 -5232 0
0 0 0 679 611653 -4553 0
0 0 0 667 612320 -3886 1
0 0 0 646 612966 -3240 1
0 0 0 630 613596 -2610 1
37 1 S116 654 614250 -1956 1
37 1 S116 662 614912 -1294 1
37 1 S116 649 615561 -645 1
37 2 S116 695 616256 50 0
37 2 S116 725 616981 775 0
37 2 S116 744 617725 1519 0
37 2 S116 733 618458 2252 0
37 2 S116 782 619240 3034 0
37 2 S116 826 620066 3860 0
37 2 S116 839 620905 4699 0
37 2 S116 768 621673 5467 0
37 2 S116 747 622420 6214 0
37 2 S116 783 623203 6997 0
0 0 0 805 624008 -10567 0
0 0 0 740 624748 -9827 0
0 0 0 794 625542 -9033 0
0 0 0 801 626343 -8232 0
0 0 0 770 627113 -7462 0
0 0 0 773 627886 -6689 0
0 0 0 804 628690 -5885 0
0 0 0 835 629525 -5050 0
0 0 0 769 630294 -4281 0
0 0 0 805 631099 -3476 0
0 0 0 827 631926 -2649 0
38 1 S102 841 632767 -1808 0
38 1 S102 768 633535 -1040 0
38 1 S102 764 634299 -276 0
38 2 S102 796 635095 520 0
38 2 S102 810 635905 1330 0
38 2 S102 773 636678 2103 0
38 2 S102 779 637457 2882 0
38 2 S102 826 638283 3708 0
38 2 S102 860 639143 4568 0
38 2 S102 812 639955 5380 0
38 2 S102 797 640752 6177 0
0 0 0 852 641604 -8471 0
0 0 0 877 642481 -7594 0
0 0 0 804 643285 -6790 0
0 0 0 828 644113 -5962 0
0 0 0 818 644931 -5144 0
0 0 0 760 645691 -4384 0
0 0 0 735 646426 -3649 0
0 0 0 759 647185 -2890 0
0 0 0 780 647965 -2110 0
39 1 S116 782 648747 -1328 0
39 1 S116 756 649503 -572 0
39 2 S116 828 650331 256 0
39 2 S116 855 651186 1111 0
39 2 S116 843 652029 1954 0
39 2 S116 778 652807 2732 0
39 2 S116 819 653626 3551 0
39 2 S116 827 654453 4378 0
39 2 S116 805 655258 5183 0
39 2 S116 742 656000 5925 0
39 2 S116 766 656766 6691 0
0 0 0 785 657551 -6964 0
0 0 0 797 658348 -6167 0
0 0 0 737 659085 -5430 0
0 0 0 781 659866 -4649 0
0 0 0 760 660626 -3889 0
0 0 0 704 661330 -3185 0
0 0 0 714 662044 -2471 0
40 1 S112 732 662776 -1739 0
40 1 S112 749 663525 -990 0
40 1 S112 715 664240 -275 0
40 2 S112 725 664965 450 0
40 2 S112 774 665739 1224 0
40 2 S112 814 666553 2038 0
40 2 S112 815 667368 2853 0
40 2 S112 754 668122 3607 0
40 2 S112 789 668911 4396 0
40 2 S112 808 669719 5204 0
40 2 S112 828 670547 6032 0
40 2 S112 775 671322 6807 0
0 0 0 784 672106 -187089 0
0 0 0 803 672909 -186286 0
0 0 0 806 673715 -185480 0
0 0 0 761 674476 -184719 0
0 0 0 815 675291 -183904 0
0 0 0 834 676125 -183070 0
0 0 0 748 676873 -182322 0
0 0 0 774 677647 -181548 0
0 0 0 800 678447 -180748 0
0 0 0 815 679262 -179933 0
0 0 0 763 680025 -179170 0
0 0 0 777 680802 -178393 0
0 0 0 764 681566 -177629 0
0 0 0 700 682266 -176929 0
0 0 0 740 683006 -176189 0
0 0 0 767 683773 -175422 0
0 0 0 754 684527 -174668 0
0 0 0 714 685241 -173954 0
0 0 0 766 686007 -173188 0
0 0 0 789 686796 -172399 0
0 0 0 795 687591 -171604 0
0 0 0 739 688330 -170865 0
0 0 0 775 689105 -170090 0
0 0 0 788 689893 -169302 0
0 0 0 738 690631 -168564 0
0 0 0 753 691384 -167811 0
0 0 0 757 692141 -167054 0
0 0 0 715 692856 -166339 0
0 0 0 713 693569 -165626 0
0 0 0 755 694324 -164871 0
0 0 0 802 695126 -164069 0
0 0 0 773 695899 -163296 0
0 0 0 781 696680 -162515 0
0 0 0 839 697519 -161676 0
0 0 0 853 698372 -160823 0
0 0 0 779 699151 -160044 0
0 0 0 809 699960 -159235 0
0 0 0 813 700773 -158422 0
0 0 0 786 701559 -157636 0
0 0 0 741 702300 -156895 0
0 0 0 776 703076 -156119 0
0 0 0 784 703860 -155335 0
0 0 0 734 704594 -154601 0
0 0 0 769 705363 -153832 0
0 0 0 788 706151 -153044 0
0 0 0 799 706950 -152245 0
0 0 0 762 707712 -151483 0
0 0 0 809 708521 -150674 0
0 0 0 828 709349 -149846 0
0 0 0 794 710143 -149052 0
0 0 0 781 710924 -148271 0
0 0 0 807 711731 -147464 0
0 0 0 815 712546 -146649 0
0 0 0 753 713299 -145896 0
0 0 0 783 714082 -145113 0
0 0 0 803 714885 -144310 0
0 0 0 790 715675 -143520 0
0 0 0 747 716422 -142773 0
0 0 0 791 717213 -141982 0
0 0 0 785 717998 -141197 0
0 0 0 731 718729 -140466 0
0 0 0 789 719518 -139677 0
0 0 0 819 720337 -138858 0
0 0 0 793 721130 -138065 0
0 0 0 807 721937 -137258 0
0 0 0 840 722777 -136418 0
0 0 0 803 723580 -135615 0
0 0 0 755 724335 -134860 0
0 0 0 804 725139 -134056 0
0 0 0 806 725945 -133250 0
0 0 0 752 726697 -132498 0
0 0 0 761 727458 -131737 0
0 0 0 789 728247 -130948 0
0 0 0 819 729066 -130129 0
0 0 0 749 729815 -129380 0
0 0 0 794 730609 -128586 0
0 0 0 812 731421 -127774 0
0 0 0 784 732205 -126990 0
0 0 0 760 732965 -126230 0
0 0 0 804 733769 -125426 0
0 0 0 800 734569 -124626 0
0 0 0 745 735314 -123881 0
0 0 0 791 736105 -123090 0
0 0 0 817 736922 -122273 0
0 0 0 811 737733 -121462 0
0 0 0 749 738482 -120713 0
0 0 0 786 739268 -119927 0
0 0 0 806 740074 -119121 0
0 0 0 775 740849 -118346 0
0 0 0 743 741592 -117603 0
0 0 0 794 742386 -116809 0
0 0 0 813 743199 -115996 0
0 0 0 777 743976 -115219 0
0 0 0 775 744751 -114444 0
0 0 0 803 745554 -113641 0
0 0 0 814 746368 -112827 0
0 0 0 759 747127 -112068 0
0 0 0 778 747905 -111290 0
0 0 0 771 748676 -110519 0
0 0 0 740 749416 -109779 0
0 0 0 707 750123 -109072 0
0 0 0 741 750864 -108331 0
0 0 0 754 751618 -107577 0
0 0 0 723 752341 -106854 0
0 0 0 738 753079 -106116 0
0 0 0 768 753847 -105348 0
0 0 0 782 754629 -104566 0
0 0 0 725 755354 -103841 0
0 0 0 761 756115 -103080 0
0 0 0 766 756881 -102314 0
0 0 0 722 757603 -101592 0
0 0 0 701 758304 -100891 0
0 0 0 724 759028 -100167 0
0 0 0 729 759757 -99438 0
0 0 0 699 760456 -98739 0
0 0 0 714 761170 -98025 0
0 0 0 741 761911 -97284 0
0 0 0 765 762676 -96519 0
0 0 0 737 763413 -95782 0
0 0 0 719 764132 -95063 0
0 0 0 762 764894 -94301 0
0 0 0 753 765647 -93548 0
0 0 0 698 766345 -92850 0
0 0 0 735 767080 -92115 0
0 0 0 761 767841 -91354 0
0 0 0 782 768623 -90572 0
0 0 0 756 769379 -89816 0
0 0 0 828 770207 -88988 0
0 0 0 853 771060 -88135 0
0 0 0 787 771847 -87348 0
0 0 0 787 772634 -86561 0
0 0 0 831 773465 -85730 0
0 0 0 837 774302 -84893 0
0 0 0 787 775089 -84106 0
0 0 0 810 775899 -83296 0
0 0 0 841 776740 -82455 0
0 0 0 793 777533 -81662 0
0 0 0 796 778329 -80866 0
0 0 0 824 779153 -80042 0
0 0 0 849 780002 -79193 0
0 0 0 804 780806 -78389 0
0 0 0 829 781635 -77560 0
0 0 0 830 782465 -76730 0
0 0 0 809 783274 -75921 0
0 0 0 755 784029 -75166 0
0 0 0 817 784846 -74349 0
0 0 0 821 785667 -73528 0
0 0 0 770 786437 -72758 0
0 0 0 800 787237 -71958 0
0 0 0 842 788079 -71116 0
0 0 0 822 788901 -70294 0
0 0 0 759 789660 -69535 0
0 0 0 812 790472 -68723 0
0 0 0 821 791293 -67902 0
0 0 0 750 792043 -67152 0
0 0 0 719 792762 -66433 0
0 0 0 755 793517 -65678 0
0 0 0 768 794285 -64910 0
0 0 0 757 795042 -64153 0
0 0 0 701 795743 -63452 0
0 0 0 752 796495 -62700 0
0 0 0 770 797265 -61930 0
0 0 0 787 798052 -61143 0
0 0 0 738 798790 -60405 0
0 0 0 783 799573 -59622 0
0 0 0 806 800379 -58816 0
0 0 0 817 801196 -57999 0
0 0 0 743 801939 -57256 0
0 0 0 780 802719 -56476 0
0 0 0 810 803529 -55666 0
0 0 0 827 804356 -54839 0
0 0 0 780 805136 -54059 0
0 0 0 766 805902 -53293 0
0 0 0 806 806708 -52487 0
0 0 0 804 807512 -51683 0
0 0 0 757 808269 -50926 0
0 0 0 783 809052 -50143 0
0 0 0 794 809846 -49349 0
0 0 0 813 810659 -48536 0
0 0 0 760 811419 -47776 0
0 0 0 772 812191 -47004 0
0 0 0 785 812976 -46219 0
0 0 0 808 813784 -45411 0
0 0 0 765 814549 -44646 0
0 0 0 747 815296 -43899 0
0 0 0 798 816094 -43101 0
0 0 0 811 816905 -42290 0
0 0 0 780 817685 -41510 0
0 0 0 724 818409 -40786 0
0 0 0 762 819171 -40024 0
0 0 0 773 819944 -39251 0
0 0 0 779 820723 -38472 0
0 0 0 746 821469 -37726 0
0 0 0 783 822252 -36943 0
0 0 0 797 823049 -36146 0
0 0 0 785 823834 -35361 0
0 0 0 749 824583 -34612 0
0 0 0 797 825380 -33815 0
0 0 0 806 826186 -33009 0
0 0 0 754 826940 -32255 0
0 0 0 767 827707 -31488 0
0 0 0 788 828495 -30700 0
0 0 0 822 829317 -29878 0
0 0 0 769 830086 -29109 0
0 0 0 724 830810 -28385 0
0 0 0 765 831575 -27620 0
0 0 0 781 832356 -26839 0
0 0 0 773 833129 -26066 0
0 0 0 726 833855 -25340 0
0 0 0 783 834638 -24557 0
0 0 0 805 835443 -23752 0
0 0 0 773 836216 -22979 0
0 0 0 722 836938 -22257 0
0 0 0 669 837607 -21588 0
0 0 0 701 838308 -20887 0
0 0 0 734 839042 -20153 0
0 0 0 727 839769 -19426 0
0 0 0 720 840489 -18706 0
0 0 0 780 841269 -17926 0
0 0 0 797 842066 -17129 0
0 0 0 760 842826 -16369 0
0 0 0 715 843541 -15654 0
0 0 0 754 844295 -14900 0
0 0 0 765 845060 -14135 0
0 0 0 764 845824 -13371 0
0 0 0 727 846551 -12644 0
0 0 0 772 847323 -11872 0
0 0 0 800 848123 -11072 0
0 0 0 771 848894 -10301 0
0 0 0 725 849619 -9576 0
0 0 0 773 850392 -8803 0
0 0 0 802 851194 -8001 0
0 0 0 792 851986 -7209 0
0 0 0 732 852718 -6477 0
0 0 0 783 853501 -5694 0
0 0 0 798 854299 -4896 0
0 0 0 783 855082 -4113 0
0 0 0 693 855775 -3420 0
0 0 0 666 856441 -2754 1
0 0 0 688 857129 -2066 0
41 1 S102 706 857835 -1360 0
41 1 S102 798 858633 -562 0
41 2 S102 863 859496 301 0
41 2 S102 897 860393 1198 1
41 2 S102 923 861316 2121 1
41 2 S102 904 862220 3025 1
41 2 S102 815 863035 3840 0
41 2 S102 848 863883 4688 0
41 2 S102 860 864743 5548 0
41 2 S102 853 865596 6401 0
0 0 0 848 866444 -6097 0
0 0 0 767 867211 -5330 0
0 0 0 792 868003 -4538 0
0 0 0 788 868791 -3750 0
0 0 0 796 869587 -2954 0
0 0 0 749 870336 -2205 0
42 1 S112 795 871131 -1410 0
42 1 S112 824 871955 -586 0
42 2 S112 836 872791 250 0
42 2 S112 776 873567 1026 0
42 2 S112 802 874369 1828 0
42 2 S112 842 875211 2670 0
42 2 S112 831 876042 3501 0
42 2 S112 775 876817 4276 0
42 2 S112 833 877650 5109 0
42 2 S112 867 878517 5976 0
42 2 S112 806 879323 6782 0
0 0 0 853 880176 -9026 0
0 0 0 856 881032 -8170 0
0 0 0 812 881844 -7358 0
0 0 0 759 882603 -6599 0
0 0 0 774 883377 -5825 0
0 0 0 767 884144 -5058 0
0 0 0 725 884869 -4333 0
0 0 0 748 885617 -3585 0
0 0 0 758 886375 -2827 0
0 0 0 742 887117 -2085 0
43 1 S116 730 887847 -1355 0
43 1 S116 794 888641 -561 0
43 2 S116 827 889468 266 0
43 2 S116 794 890262 1060 0
43 2 S116 803 891065 1863 0
43 2 S116 842 891907 2705 0
43 2 S116 839 892746 3544 0
43 2 S116 779 893525 4323 0
43 2 S116 808 894333 5131 0
43 2 S116 819 895152 5950 0
43 2 S116 801 895953 6751 0
0 0 0 724 896677 -6650 0
0 0 0 758 897435 -5892 0
0 0 0 770 898205 -5122 0
0 0 0 754 898959 -4368 0
0 0 0 710 899669 -3658 0
0 0 0 750 900419 -2908 0
0 0 0 770 901189 -2138 0
44 1 S102 739 901928 -1399 0
44 1 S102 755 902683 -644 0
44 2 S102 772 903455 128 0
44 2 S102 764 904219 892 0
44 2 S102 728 904947 1620 0
44 2 S102 766 905713 2386 0
44 2 S102 782 906495 3168 0
44 2 S102 785 907280 3953 0
44 2 S102 745 908025 4698 0
44 2 S102 775 908800 5473 0
44 2 S102 801 909601 6274 0
0 0 0 784 910385 -8260 0
0 0 0 757 911142 -7503 0
0 0 0 798 911940 -6705 0
0 0 0 811 912751 -5894 0
0 0 0 749 913500 -5145 0
0 0 0 772 914272 -4373 0
0 0 0 798 915070 -3575 0
0 0 0 809 915879 -2766 0
0 0 0 757 916636 -2009 0
45 1 S116 776 917412 -1233 0
45 1 S116 811 918223 -422 0
45 2 S116 810 919033 388 0
45 2 S116 749 919782 1137 0
45 2 S116 800 920582 1937 0
45 2 S116 810 921392 2747 0
45 2 S116 793 922185 3540 0
45 2 S116 770 922955 4310 0
45 2 S116 823 923778 5133 0
45 2 S116 853 924631 5986 0
45 2 S116 810 925441 6796 0
0 0 0 783 926224 -10790 0
0 0 0 820 927044 -9970 0
0 0 0 820 927864 -9150 0
0 0 0 752 928616 -8398 0
0 0 0 767 929383 -7631 0
0 0 0 761 930144 -6870 0
0 0 0 759 930903 -6111 0
0 0 0 718 931621 -5393 0
0 0 0 763 932384 -4630 0
0 0 0 776 933160 -3854 0
0 0 0 755 933915 -3099 0
0 0 0 715 934630 -2384 0
46 1 S102 760 935390 -1624 0
46 1 S102 805 936195 -819 0
46 1 S102 813 937008 -6 0
46 2 S102 749 937757 743 0
46 2 S102 802 938559 1545 0
46 2 S102 819 939378 2364 0
46 2 S102 813 940191 3177 0
46 2 S102 756 940947 3933 0
46 2 S102 815 941762 4748 0
46 2 S102 832 942594 5580 0
46 2 S102 823 943417 6403 0
0 0 0 767 944184 -9392 0
0 0 0 808 944992 -8584 0
0 0 0 816 945808 -7768 0
0 0 0 802 946610 -6966 0
0 0 0 730 947340 -6236 0
0 0 0 779 948119 -5457 0
0 0 0 782 948901 -4675 0
0 0 0 742 949643 -3933 0
0 0 0 780 950423 -3153 0
0 0 0 793 951216 -2360 0
47 1 S112 767 951983 -1593 0
47 1 S112 737 952720 -856 0
47 1 S112 786 953506 -70 0
47 2 S112 811 954317 741 0
47 2 S112 811 955128 1552 0
47 2 S112 739 955867 2291 0
47 2 S112 788 956655 3079 0
47 2 S112 821 957476 3900 0
47 2 S112 845 958321 4745 0
47 2 S112 806 959127 5551 0
47 2 S112 794 959921 6345 0
0 0 0 826 960747 -11579 0
0 0 0 817 961564 -10762 0
0 0 0 748 962312 -10014 0
0 0 0 793 963105 -9221 0
0 0 0 779 963884 -8442 0
0 0 0 705 964589 -7737 0
0 0 0 698 965287 -7039 0
0 0 0 698 965985 -6341 0
0 0 0 664 966649 -5677 1
0 0 0 647 967296 -5030 1
0 0 0 641 967937 -4389 1
0 0 0 637 968574 -3752 1
0 0 0 658 969232 -3094 1
0 0 0 699 969931 -2395 0
48 1 S116 724 970655 -1671 0
48 1 S116 713 971368 -958 0
48 1 S116 683 972051 -275 0
48 2 S116 691 972742 416 0
48 2 S116 704 973446 1120 0
48 2 S116 718 974164 1838 0
48 2 S116 706 974870 2544 0
48 2 S116 725 975595 3269 0
48 2 S116 756 976351 4025 0
48 2 S116 798 977149 4823 0
48 2 S116 792 977941 5615 0
48 2 S116 742 978683 6357 0
0 0 0 794 979477 -8184 0
0 0 0 822 980299 -7362 0
0 0 0 815 981114 -6547 0
0 0 0 759 981873 -5788 0
0 0 0 796 982669 -4992 0
0 0 0 795 983464 -4197 0
0 0 0 738 984202 -3459 0
0 0 0 723 984925 -2736 0
49 1 S112 761 985686 -1975 0
49 1 S112 761 986447 -1214 0
49 1 S112 725 987172 -489 0
49 2 S112 780 987952 291 0
49 2 S112 799 988751 1090 0
49 2 S112 796 989547 1886 0
49 2 S112 741 990288 2627 0
49 2 S112 783 991071 3410 0
49 2 S112 792 991863 4202 0
49 2 S112 743 992606 4945 0
49 2 S112 769 993375 5714 0
49 2 S112 793 994168 6507 0
0 0 0 829 994997 -11083 0
0 0 0 783 995780 -10300 0
0 0 0 793 996573 -9507 0
0 0 0 794 997367 -8713 0
0 0 0 763 998130 -7950 0
0 0 0 716 998846 -7234 0
0 0 0 758 999604 -6476 0
0 0 0 765 1000369 -5711 0
0 0 0 731 1001100 -4980 0
0 0 0 727 1001827 -4253 0
0 0 0 752 1002579 -3501 0
0 0 0 755 1003334 -2746 0
0 0 0 741 1004075 -2005 0
50 1 S106 804 1004879 -1201 0
50 1 S106 849 1005728 -352 0
50 2 S106 827 1006555 475 0
50 2 S106 815 1007370 1290 0
50 2 S106 842 1008212 2132 0
50 2 S106 820 1009032 2952 0
50 2 S106 760 1009792 3712 0
50 2 S106 797 1010589 4509 0
50 2 S106 809 1011398 5318 0
50 2 S106 759 1012157 6077 0
50 2 S106 764 1012921 6841 0
0 0 0 797 1013718 -7034 0
0 0 0 796 1014514 -6238 0
0 0 0 745 1015259 -5493 0
0 0 0 767 1016026 -4726 0
0 0 0 777 1016803 -3949 0
0 0 0 778 1017581 -3171 0
0 0 0 744 1018325 -2427 0
51 1 S112 801 1019126 -1626 0
51 1 S112 803 1019929 -823 0
51 1 S112 767 1020696 -56 0
51 2 S112 773 1021469 717 0
51 2 S112 803 1022272 1520 0
51 2 S112 809 1023081 2329 0
51 2 S112 773 1023854 3102 0
51 2 S112 814 1024668 3916 0
51 2 S112 844 1025512 4760 0
51 2 S112 843 1026355 5603 0
51 2 S112 782 1027137 6385 0
0 0 0 821 1027958 -7681 0
0 0 0 837 1028795 -6844 0
0 0 0 826 1029621 -6018 0
0 0 0 760 1030381 -5258 0
0 0 0 792 1031173 -4466 0
0 0 0 793 1031966 -3673 0
0 0 0 766 1032732 -2907 0
0 0 0 769 1033501 -2138 0
52 1 S116 782 1034283 -1356 0
52 1 S116 779 1035062 -577 0
52 2 S116 731 1035793 154 0
52 2 S116 783 1036576 937 0
52 2 S116 804 1037380 1741 0
52 2 S116 785 1038165 2526 0
52 2 S116 748 1038913 3274 0
52 2 S116 795 1039708 4069 0
52 2 S116 815 1040523 4884 0
52 2 S116 809 1041332 5693 0
52 2 S116 754 1042086 6447 0
0 0 0 807 1042893 -9938 0
0 0 0 838 1043731 -9100 0
0 0 0 834 1044565 -8266 0
0 0 0 760 1045325 -7506 0
0 0 0 801 1046126 -6705 0
0 0 0 793 1046919 -5912 0
0 0 0 758 1047677 -5154 0
0 0 0 742 1048419 -4412 0
0 0 0 773 1049192 -3639 0
0 0 0 791 1049983 -2848 0
0 0 0 739 1050722 -2109 0
53 1 S106 777 1051499 -1332 0
53 1 S106 782 1052281 -550 0
53 2 S106 764 1053045 214 0
53 2 S106 732 1053777 946 0
53 2 S106 780 1054557 1726 0
53 2 S106 807 1055364 2533 0
53 2 S106 817 1056181 3350 0
53 2 S106 747 1056928 4097 0
53 2 S106 789 1057717 4886 0
53 2 S106 809 1058526 5695 0
53 2 S106 812 1059338 6507 0
0 0 0 745 1060083 -6574 0
0 0 0 784 1060867 -5790 0
0 0 0 798 1061665 -4992 0
0 0 0 783 1062448 -4209 0
0 0 0 734 1063182 -3475 0
0 0 0 791 1063973 -2684 0
54 1 S102 795 1064768 -1889 0
54 1 S102 739 1065507 -1150 0
54 1 S102 739 1066246 -411 0
54 2 S102 766 1067012 355 0
54 2 S102 779 1067791 1134 0
54 2 S102 785 1068576 1919 0
54 2 S102 766 1069342 2685 0
54 2 S102 814 1070156 3499 0
54 2 S102 835 1070991 4334 0
54 2 S102 819 1071810 5153 0
54 2 S102 748 1072558 5901 0
54 2 S102 791 1073349 6692 0
0 0 0 793 1074142 -11000 0
0 0 0 798 1074940 -10202 0
0 0 0 755 1075695 -9447 0
0 0 0 779 1076474 -8668 0
0 0 0 776 1077250 -7892 0
0 0 0 772 1078022 -7120 0
0 0 0 726 1078748 -6394 0
0 0 0 762 1079510 -5632 0
0 0 0 763 1080273 -4869 0
0 0 0 706 1080979 -4163 0
0 0 0 705 1081684 -3458 0
0 0 0 731 1082415 -2727 0
55 1 S106 749 1083164 -1978 0
55 1 S106 748 1083912 -1230 0
55 1 S106 763 1084675 -467 0
55 2 S106 819 1085494 352 0
55 2 S106 832 1086326 1184 0
55 2 S106 793 1087119 1977 0
55 2 S106 761 1087880 2738 0
55 2 S106 785 1088665 3523 0
55 2 S106 798 1089463 4321 0
55 2 S106 764 1090227 5085 0
55 2 S106 727 1090954 5812 0
55 2 S106 769 1091723 6581 0
0 0 0 776 1092499 -6768 0
0 0 0 777 1093276 -5991 0
0 0 0 729 1094005 -5262 0
0 0 0 771 1094776 -4491 0
0 0 0 773 1095549 -3718 0
0 0 0 773 1096322 -2945 0
0 0 0 729 1097051 -2216 0
56 1 S116 777 1097828 -1439 0
56 1 S116 776 1098604 -663 0
56 2 S116 727 1099331 64 0
56 2 S116 732 1100063 796 0
56 2 S116 758 1100821 1554 0
56 2 S116 782 1101603 2336 0
56 2 S116 773 1102376 3109 0
56 2 S116 720 1103096 3829 0
56 2 S116 768 1103864 4597 0
56 2 S116 783 1104647 5380 0
56 2 S116 758 1105405 6138 0
56 2 S116 772 1106177 6910 0
0 0 0 796 1106973 -6253 0
0 0 0 800 1107773 -5453 0
0 0 0 755 1108528 -4698 0
0 0 0 770 1109298 -3928 0
0 0 0 775 1110073 -3153 0
0 0 0 739 1110812 -2414 0
57 1 S106 705 1111517 -1709 0
57 1 S106 742 1112259 -967 0
57 1 S106 765 1113024 -202 0
57 2 S106 736 1113760 534 0
57 2 S106 755 1114515 1289 0
57 2 S106 782 1115297 2071 0
57 2 S106 766 1116063 2837 0
57 2 S106 722 1116785 3559 0
57 2 S106 759 1117544 4318 0
57 2 S106 775 1118319 5093 0
57 2 S106 796 1119115 5889 0
57 2 S106 748 1119863 6637 0
0 0 0 802 1120665 -7780 0
0 0 0 834 1121499 -6946 0
0 0 0 805 1122304 -6141 0
0 0 0 737 1123041 -5404 0
0 0 0 790 1123831 -4614 0
0 0 0 823 1124654 -3791 0
0 0 0 831 1125485 -2960 0
0 0 0 793 1126278 -2167 0
58 1 S102 819 1127097 -1348 0
58 1 S102 824 1127921 -524 0
58 2 S102 805 1128726 281 0
58 2 S102 745 1129471 1026 0
58 2 S102 787 1130258 1813 0
58 2 S102 801 1131059 2614 0
58 2 S102 819 1131878 3433 0
58 2 S102 758 1132636 4191 0
58 2 S102 798 1133434 4989 0
58 2 S102 818 1134252 5807 0
58 2 S102 805 1135057 6612 0
0 0 0 750 1135807 -6315 0
0 0 0 803 1136610 -5512 0
0 0 0 805 1137415 -4707 0
0 0 0 798 1138213 -3909 0
0 0 0 756 1138969 -3153 0
0 0 0 794 1139763 -2359 0
59 1 S112 794 1140557 -1565 0
59 1 S112 746 1141303 -819 0
59 1 S112 751 1142054 -68 0
59 2 S112 753 1142807 685 0
59 2 S112 759 1143566 1444 0
59 2 S112 733 1144299 2177 0
59 2 S112 753 1145052 2930 0
59 2 S112 810 1145862 3740 0
59 2 S112 868 1146730 4608 0
59 2 S112 836 1147566 5444 0
59 2 S112 797 1148363 6241 0
0 0 0 845 1149208 -8780 0
0 0 0 832 1150040 -7948 0
0 0 0 757 1150797 -7191 0
0 0 0 776 1151573 -6415 0
0 0 0 774 1152347 -5641 0
0 0 0 738 1153085 -4903 0
0 0 0 734 1153819 -4169 0
0 0 0 795 1154614 -3374 0
0 0 0 832 1155446 -2542 0
60 1 S102 843 1156289 -1699 0
60 1 S102 785 1157074 -914 0
60 1 S102 798 1157872 -116 0
60 2 S102 823 1158695 707 0
60 2 S102 817 1159512 1524 0
60 2 S102 761 1160273 2285 0
60 2 S102 766 1161039 3051 0
60 2 S102 790 1161829 3841 0
60 2 S102 821 1162650 4662 0
60 2 S102 795 1163445 5457 0
60 2 S102 757 1164202 6214 0
60 2 S102 785 1164987 6999 0
0 0 0 814 1165801 -9412 0
0 0 0 846 1166647 -8566 0
0 0 0 821 1167468 -7745 0
0 0 0 760 1168228 -6985 0
0 0 0 770 1168998 -6215 0
0 0 0 783 1169781 -5432 0
0 0 0 791 1170572 -4641 0
0 0 0 749 1171321 -3892 0
0 0 0 773 1172094 -3119 0
0 0 0 789 1172883 -2330 0
61 1 S106 777 1173660 -1553 0
61 1 S106 743 1174403 -810 0
61 1 S106 791 1175194 -19 0
61 2 S106 829 1176023 810 0
61 2 S106 788 1176811 1598 0
61 2 S106 813 1177624 2411 0
61 2 S106 859 1178483 3270 0
61 2 S106 800 1179283 4070 0
61 2 S106 798 1180081 4868 0
61 2 S106 842 1180923 5710 0
61 2 S106 833 1181756 6543 0
0 0 0 775 1182531 -6127 0
0 0 0 788 1183319 -5339 0
0 0 0 779 1184098 -4560 0
0 0 0 738 1184836 -3822 0
0 0 0 725 1185561 -3097 0
0 0 0 755 1186316 -2342 0
62 1 S112 744 1187060 -1598 0
62 1 S112 723 1187783 -875 0
62 1 S112 734 1188517 -141 0
62 2 S112 711 1189228 570 0
62 2 S112 696 1189924 1266 0
62 2 S112 705 1190629 1971 0
62 2 S112 690 1191319 2661 0
62 2 S112 732 1192051 3393 0
62 2 S112 781 1192832 4174 0
62 2 S112 819 1193651 4993 0
62 2 S112 773 1194424 5766 0
62 2 S112 817 1195241 6583 0
0 0 0 831 1196072 -11833 0
0 0 0 814 1196886 -11019 0
0 0 0 728 1197614 -10291 0
0 0 0 751 1198365 -9540 0
0 0 0 773 1199138 -8767 0
0 0 0 768 1199906 -7999 0
0 0 0 713 1200619 -7286 0
0 0 0 735 1201354 -6551 0
0 0 0 763 1202117 -5788 0
0 0 0 824 1202941 -4964 0
0 0 0 809 1203750 -4155 0
0 0 0 763 1204513 -3392 0
0 0 0 804 1205317 -2588 0
63 1 S102 797 1206114 -1791 0
63 1 S102 748 1206862 -1043 0
63 1 S102 716 1207578 -327 0
63 2 S102 763 1208341 436 0
63 2 S102 775 1209116 1211 0
63 2 S102 809 1209925 2020 0
63 2 S102 755 1210680 2775 0
63 2 S102 805 1211485 3580 0
63 2 S102 823 1212308 4403 0
63 2 S102 823 1213131 5226 0
63 2 S102 766 1213897 5992 0
63 2 S102 806 1214703 6798 0
0 0 0 820 1215523 -7750 0
0 0 0 792 1216315 -6958 0
0 0 0 741 1217056 -6217 0
0 0 0 794 1217850 -5423 0
0 0 0 810 1218660 -4613 0
0 0 0 768 1219428 -3845 0
0 0 0 761 1220189 -3084 0
0 0 0 796 1220985 -2288 0
64 1 S112 804 1221789 -1484 0
64 1 S112 750 1222539 -734 0
64 2 S112 792 1223331 58 0
64 2 S112 814 1224145 872 0
64 2 S112 828 1224973 1700 0
64 2 S112 765 1225738 2465 0
64 2 S112 760 1226498 3225 0
64 2 S112 790 1227288 4015 0
64 2 S112 804 1228092 4819 0
64 2 S112 765 1228857 5584 0
64 2 S112 814 1229671 6398 0
0 0 0 834 1230505 -6479 0
0 0 0 814 1231319 -5665 0
0 0 0 754 1232073 -4911 0
0 0 0 786 1232859 -4125 0
0 0 0 790 1233649 -3335 0
0 0 0 739 1234388 -2596 0
65 1 S106 762 1235150 -1834 0
65 1 S106 787 1235937 -1047 0
65 1 S106 800 1236737 -247 0
65 2 S106 753 1237490 506 0
65 2 S106 783 1238273 1289 0
65 2 S106 803 1239076 2092 0
65 2 S106 802 1239878 2894 0
65 2 S106 755 1240633 3649 0
65 2 S106 789 1241422 4438 0
65 2 S106 801 1242223 5239 0
65 2 S106 764 1242987 6003 0
65 2 S106 722 1243709 6725 0
0 0 0 765 1244474 -7049 0
0 0 0 784 1245258 -6265 0
0 0 0 771 1246029 -5494 0
0 0 0 737 1246766 -4757 0
0 0 0 770 1247536 -3987 0
0 0 0 766 1248302 -3221 0
0 0 0 724 1249026 -2497 0
66 1 S116 745 1249771 -1752 0
66 1 S116 734 1250505 -1018 0
66 1 S116 698 1251203 -320 0
66 2 S116 721 1251924 401 0
66 2 S116 744 1252668 1145 0
66 2 S116 805 1253473 1950 0
66 2 S116 775 1254248 2725 0
66 2 S116 797 1255045 3522 0
66 2 S116 839 1255884 4361 0
66 2 S116 854 1256738 5215 0
66 2 S116 811 1257549 6026 0
66 2 S116 784 1258333 6810 0
0 0 0 809 1259142 -11048 0
0 0 0 808 1259950 -10240 0
0 0 0 764 1260714 -9476 0
0 0 0 753 1261467 -8723 0
0 0 0 768 1262235 -7955 0
0 0 0 761 1262996 -7194 0
0 0 0 715 1263711 -6479 0
0 0 0 747 1264458 -5732 0
0 0 0 755 1265213 -4977 0
0 0 0 762 1265975 -4215 0
0 0 0 719 1266694 -3496 0
0 0 0 770 1267464 -2726 0
67 1 S102 798 1268262 -1928 0
67 1 S102 786 1269048 -1142 0
67 1 S102 754 1269802 -388 0
67 2 S102 790 1270592 402 0
67 2 S102 802 1271394 1204 0
67 2 S102 777 1272171 1981 0
67 2 S102 733 1272904 2714 0
67 2 S102 753 1273657 3467 0
67 2 S102 772 1274429 4239 0
67 2 S102 778 1275207 5017 0
67 2 S102 728 1275935 5745 0
67 2 S102 788 1276723 6533 0
0 0 0 829 1277552 -6332 0
0 0 0 838 1278390 -5494 0
0 0 0 771 1279161 -4723 0
0 0 0 765 1279926 -3958 0
0 0 0 782 1280708 -3176 0
0 0 0 781 1281489 -2395 0
68 1 S106 734 1282223 -1661 0
68 1 S106 755 1282978 -906 0
68 1 S106 762 1283740 -144 0
68 2 S106 760 1284500 616 0
68 2 S106 727 1285227 1343 0
68 2 S106 770 1285997 2113 0
68 2 S106 788 1286785 2901 0
68 2 S106 792 1287577 3693 0
68 2 S106 736 1288313 4429 0
68 2 S106 771 1289084 5200 0
68 2 S106 777 1289861 5977 0
68 2 S106 786 1290647 6763 0
0 0 0 744 1291391 -10464 0
0 0 0 759 1292150 -9705 0
0 0 0 762 1292912 -8943 0
0 0 0 720 1293632 -8223 0
0 0 0 667 1294299 -7556 1
0 0 0 652 1294951 -6904 1
0 0 0 656 1295607 -6248 1
0 0 0 634 1296241 -5614 1
0 0 0 698 1296939 -4916 0
0 0 0 777 1297716 -4139 0
0 0 0 774 1298490 -3365 0
0 0 0 787 1299277 -2578 0
69 1 S102 789 1300066 -1789 0
69 1 S102 734 1300800 -1055 0
69 1 S102 715 1301515 -340 0
69 2 S102 731 1302246 391 0
69 2 S102 732 1302978 1123 0
69 2 S102 725 1303703 1848 0
69 2 S102 702 1304405 2550 0
69 2 S102 680 1305085 3230 0
69 2 S102 677 1305762 3907 0
69 2 S102 692 1306454 4599 0
69 2 S102 728 1307182 5327 0
69 2 S102 759 1307941 6086 0
69 2 S102 779 1308720 6865 0
0 0 0 806 1309526 -7565 0
0 0 0 777 1310303 -6788 0
0 0 0 799 1311102 -5989 0
0 0 0 815 1311917 -5174 0
0 0 0 835 1312752 -4339 0
0 0 0 853 1313605 -3486 0
0 0 0 805 1314410 -2681 0
70 1 S112 832 1315242 -1849 0
70 1 S112 831 1316073 -1018 0
70 1 S112 833 1316906 -185 0
70 2 S112 777 1317683 592 0
70 2 S112 806 1318489 1398 0
70 2 S112 825 1319314 2223 0
70 2 S112 776 1320090 2999 0
70 2 S112 721 1320811 3720 0
70 2 S112 766 1321577 4486 0
70 2 S112 791 1322368 5277 0
70 2 S112 753 1323121 6030 0
70 2 S112 742 1323863 6772 0
0 0 0 785 1324648 -11756 0
0 0 0 799 1325447 -10957 0
0 0 0 744 1326191 -10213 0
0 0 0 763 1326954 -9450 0
0 0 0 774 1327728 -8676 0
0 0 0 713 1328441 -7963 0
0 0 0 710 1329151 -7253 0
0 0 0 680 1329831 -6573 0
0 0 0 658 1330489 -5915 1
0 0 0 642 1331131 -5273 1
0 0 0 661 1331792 -4612 1
0 0 0 684 1332476 -3928 0
0 0 0 698 1333174 -3230 0
0 0 0 688 1333862 -2542 0
71 1 S116 734 1334596 -1808 0
71 1 S116 765 1335361 -1043 0
71 1 S116 742 1336103 -301 0
71 2 S116 739 1336842 438 0
71 2 S116 758 1337600 1196 0
71 2 S116 811 1338411 2007 0
71 2 S116 781 1339192 2788 0
71 2 S116 770 1339962 3558 0
71 2 S116 801 1340763 4359 0
71 2 S116 820 1341583 5179 0
71 2 S116 763 1342346 5942 0
71 2 S116 808 1343154 6750 0
0 0 0 835 1343989 -8331 0
0 0 0 794 1344783 -7537 0
0 0 0 777 1345560 -6760 0
0 0 0 794 1346354 -5966 0
0 0 0 786 1347140 -5180 0
0 0 0 730 1347870 -4450 0
0 0 0 767 1348637 -3683 0
0 0 0 764 1349401 -2919 0
0 0 0 722 1350123 -2197 0
72 1 S102 744 1350867 -1453 0
72 1 S102 760 1351627 -693 0
72 2 S102 774 1352401 81 0
72 2 S102 735 1353136 816 0
72 2 S102 787 1353923 1603 0
72 2 S102 791 1354714 2394 0
72 2 S102 748 1355462 3142 0
72 2 S102 773 1356235 3915 0
72 2 S102 786 1357021 4701 0
72 2 S102 806 1357827 5507 0
72 2 S102 745 1358572 6252 0
0 0 0 778 1359350 -6713 0
0 0 0 797 1360147 -5916 0
0 0 0 780 1360927 -5136 0
0 0 0 727 1361654 -4409 0
0 0 0 777 1362431 -3632 0
0 0 0 803 1363234 -2829 0
0 0 0 783 1364017 -2046 0
73 1 S116 800 1364817 -1246 0
73 1 S116 830 1365647 -416 0
73 2 S116 811 1366458 395 0
73 2 S116 761 1367219 1156 0
73 2 S116 815 1368034 1971 0
73 2 S116 851 1368885 2822 0
73 2 S116 854 1369739 3676 0
73 2 S116 819 1370558 4495 0
73 2 S116 856 1371414 5351 0
73 2 S116 873 1372287 6224 0
0 0 0 818 1373105 -10050 0
0 0 0 818 1373923 -9232 0
0 0 0 818 1374741 -8414 0
0 0 0 772 1375513 -7642 0
0 0 0 700 1376213 -6942 0
0 0 0 705 1376918 -6237 0
0 0 0 699 1377617 -5538 0
0 0 0 674 1378291 -4864 0
0 0 0 678 1378969 -4186 0
0 0 0 669 1379638 -3517 0
0 0 0 653 1380291 -2864 1
0 0 0 675 1380966 -2189 0
74 1 S106 683 1381649 -1506 0
74 1 S106 704 1382353 -802 0
74 1 S106 687 1383040 -115 0
74 2 S106 695 1383735 580 0
74 2 S106 713 1384448 1293 0
74 2 S106 723 1385171 2016 0
74 2 S106 691 1385862 2707 0
74 2 S106 683 1386545 3390 0
74 2 S106 705 1387250 4095 0
74 2 S106 733 1387983 4828 0
74 2 S106 733 1388716 5561 0
74 2 S106 701 1389417 6262 0
74 2 S106 765 1390182 7027 0
0 0 0 812 1390994 -7148 0
0 0 0 801 1391795 -6347 0
0 0 0 792 1392587 -5555 0
0 0 0 816 1393403 -4739 0
0 0 0 781 1394184 -3958 0
0 0 0 718 1394902 -3240 0
0 0 0 743 1395645 -2497 0
75 1 S112 726 1396371 -1771 0
75 1 S112 699 1397070 -1072 0
75 1 S112 688 1397758 -384 0
75 2 S112 732 1398490 348 0
75 2 S112 774 1399264 1122 0
75 2 S112 774 1400038 1896 0
75 2 S112 728 1400766 2624 0
75 2 S112 789 1401555 3413 0
75 2 S112 808 1402363 4221 0
75 2 S112 764 1403127 4985 0
75 2 S112 834 1403961 5819 0
75 2 S112 829 1404790 6648 0
0 0 0 824 1405614 -6753 0
0 0 0 754 1406368 -5999 0
0 0 0 773 1407141 -5226 0
0 0 0 742 1407883 -4484 0
0 0 0 695 1408578 -3789 0
0 0 0 658 1409236 -3131 1
0 0 0 645 1409881 -2486 1
76 1 S116 655 1410536 -1831 1
76 1 S116 684 1411220 -1147 0
76 1 S116 708 1411928 -439 0
76 2 S116 757 1412685 318 0
76 2 S116 810 1413495 1128 0
76 2 S116 792 1414287 1920 0
76 2 S116 768 1415055 2688 0
76 2 S116 787 1415842 3475 0
76 2 S116 792 1416634 4267 0
76 2 S116 750 1417384 5017 0
76 2 S116 752 1418136 5769 0
76 2 S116 787 1418923 6556 0
0 0 0 818 1419741 -8110 0
0 0 0 742 1420483 -7368 0
0 0 0 770 1421253 -6598 0
0 0 0 816 1422069 -5782 0
0 0 0 852 1422921 -4930 0
0 0 0 759 1423680 -4171 0
0 0 0 814 1424494 -3357 0
0 0 0 838 1425332 -2519 0
77 1 S106 801 1426133 -1718 0
77 1 S106 756 1426889 -962 0
77 1 S106 784 1427673 -178 0
77 2 S106 793 1428466 615 0
77 2 S106 740 1429206 1355 0
77 2 S106 780 1429986 2135 0
77 2 S106 789 1430775 2924 0
77 2 S106 758 1431533 3682 0
77 2 S106 754 1432287 4436 0
77 2 S106 807 1433094 5243 0
77 2 S106 821 1433915 6064 0
77 2 S106 768 1434683 6832 0
0 0 0 778 1435461 -8504 0
0 0 0 803 1436264 -7701 0
0 0 0 777 1437041 -6924 0
0 0 0 693 1437734 -6231 0
0 0 0 700 1438434 -5531 0
0 0 0 710 1439144 -4821 0
0 0 0 711 1439855 -4110 0
0 0 0 698 1440553 -3412 0
0 0 0 726 1441279 -2686 0
78 1 S112 749 1442028 -1937 0
78 1 S112 763 1442791 -1174 0
78 1 S112 719 1443510 -455 0
78 2 S112 773 1444283 318 0
78 2 S112 802 1445085 1120 0
78 2 S112 814 1445899 1934 0
78 2 S112 762 1446661 2696 0
78 2 S112 766 1447427 3462 0
78 2 S112 779 1448206 4241 0
78 2 S112 768 1448974 5009 0
78 2 S112 765 1449739 5774 0
78 2 S112 760 1450499 6534 0
0 0 0 734 1451233 -11366 0
0 0 0 726 1451959 -10640 0
0 0 0 693 1452652 -9947 0
0 0 0 664 1453316 -9283 1
0 0 0 642 1453958 -8641 1
0 0 0 660 1454618 -7981 1
0 0 0 681 1455299 -7300 0
0 0 0 683 1455982 -6617 0
0 0 0 731 1456713 -5886 0
0 0 0 796 1457509 -5090 0
0 0 0 792 1458301 -4298 0
0 0 0 751 1459052 -3547 0
0 0 0 760 1459812 -2787 0
0 0 0 754 1460566 -2033 0
79 1 S102 710 1461276 -1323 0
79 1 S102 701 1461977 -622 0
79 2 S102 730 1462707 108 0
79 2 S102 766 1463473 874 0
79 2 S102 747 1464220 1621 0
79 2 S102 740 1464960 2361 0
79 2 S102 788 1465748 3149 0
79 2 S102 819 1466567 3968 0
79 2 S102 840 1467407 4808 0
79 2 S102 784 1468191 5592 0
79 2 S102 787 1468978 6379 0
0 0 0 788 1469766 -8334 0
0 0 0 790 1470556 -7544 0
0 0 0 747 1471303 -6797 0
0 0 0 789 1472092 -6008 0
0 0 0 818 1472910 -5190 0
0 0 0 758 1473668 -4432 0
0 0 0 795 1474463 -3637 0
0 0 0 800 1475263 -2837 0
0 0 0 808 1476071 -2029 0
80 1 S116 762 1476833 -1267 0
80 1 S116 776 1477609 -491 0
80 2 S116 816 1478425 325 0
80 2 S116 865 1479290 1190 0
80 2 S116 836 1480126 2026 0
80 2 S116 788 1480914 2814 0
80 2 S116 845 1481759 3659 0
80 2 S116 847 1482606 4506 0
80 2 S116 778 1483384 5284 0
80 2 S116 811 1484195 6095 0
80 2 S116 818 1485013 6913 0
