T_0178
BeatCount Mean SD BeatCountNoOutliers MeanNoOutliers SDNoOutliers
1668 941,272182254197 96,734642912072 1661 940,379891631547 95,1400101676559

Trial TrialStatus Trialtype IBI AbsPosition RelPosition Outlier
0 0 0 927 1046 -14490 0
0 0 0 862 1908 -13628 0
0 0 0 838 2746 -12790 0
0 0 0 766 3512 -12024 0
0 0 0 779 4291 -11245 0
0 0 0 792 5083 -10453 0
0 0 0 900 5983 -9553 0
0 0 0 912 6895 -8641 0
0 0 0 985 7880 -7656 0
0 0 0 1012 8892 -6644 0
0 0 0 938 9830 -5706 0
0 0 0 918 10748 -4788 0
0 0 0 891 11639 -3897 0
0 0 0 864 12503 -3033 0
0 0 0 838 13341 -2195 0
1 1 S112 798 14139 -1397 0
1 1 S112 821 14960 -576 0
1 2 S112 798 15758 222 0
1 2 S112 773 16531 995 0
1 2 S112 758 17289 1753 0
1 2 S112 855 18144 2608 0
1 2 S112 901 19045 3509 0
1 2 S112 914 19959 4423 0
1 2 S112 929 20888 5352 0
1 2 S112 923 21811 6275 0
0 0 0 919 22730 -11821 0
0 0 0 931 23661 -10890 0
0 0 0 940 24601 -9950 0
0 0 0 907 25508 -9043 0
0 0 0 869 26377 -8174 0
0 0 0 857 27234 -7317 0
0 0 0 865 28099 -6452 0
0 0 0 838 28937 -5614 0
0 0 0 875 29812 -4739 0
0 0 0 907 30719 -3832 0
0 0 0 990 31709 -2842 0
2 1 S102 992 32701 -1850 0
2 1 S102 864 33565 -986 0
2 1 S102 794 34359 -192 0
2 2 S102 907 35266 715 0
2 2 S102 1032 36298 1747 0
2 2 S102 1114 37412 2861 0
2 2 S102 1149 38561 4010 0
2 2 S102 1113 39674 5123 0
2 2 S102 1128 40802 6251 0
0 0 0 1081 41883 -9379 0
0 0 0 974 42857 -8405 0
0 0 0 955 43812 -7450 0
0 0 0 960 44772 -6490 0
0 0 0 940 45712 -5550 0
0 0 0 878 46590 -4672 0
0 0 0 860 47450 -3812 0
0 0 0 891 48341 -2921 0
3 1 S116 935 49276 -1986 0
3 1 S116 960 50236 -1026 0
3 1 S116 876 51112 -150 0
3 2 S116 884 51996 734 0
3 2 S116 967 52963 1701 0
3 2 S116 1096 54059 2797 0
3 2 S116 1089 55148 3886 0
3 2 S116 986 56134 4872 0
3 2 S116 956 57090 5828 0
3 2 S116 989 58079 6817 0
0 0 0 1005 59084 -11011 0
0 0 0 978 60062 -10033 0
0 0 0 954 61016 -9079 0
0 0 0 914 61930 -8165 0
0 0 0 891 62821 -7274 0
0 0 0 846 63667 -6428 0
0 0 0 832 64499 -5596 0
0 0 0 859 65358 -4737 0
0 0 0 944 66302 -3793 0
0 0 0 978 67280 -2815 0
4 1 S106 921 68201 -1894 0
4 1 S106 915 69116 -979 0
4 2 S106 979 70095 0 0
4 2 S106 1074 71169 1074 0
4 2 S106 1052 72221 2126 0
4 2 S106 975 73196 3101 0
4 2 S106 997 74193 4098 0
4 2 S106 999 75192 5097 0
4 2 S106 1015 76207 6112 0
0 0 0 975 77182 -8265 0
0 0 0 915 78097 -7350 0
0 0 0 954 79051 -6396 0
0 0 0 1017 80068 -5379 0
0 0 0 980 81048 -4399 0
0 0 0 877 81925 -3522 0
0 0 0 904 82829 -2618 0
5 1 S116 956 83785 -1662 0
5 1 S116 1000 84785 -662 0
5 2 S116 964 85749 302 0
5 2 S116 1014 86763 1316 0
5 2 S116 1072 87835 2388 0
5 2 S116 1090 88925 3478 0
5 2 S116 1024 89949 4502 0
5 2 S116 959 90908 5461 0
5 2 S116 962 91870 6423 0
0 0 0 1018 92888 -9270 0
0 0 0 1057 93945 -8213 0
0 0 0 979 94924 -7234 0
0 0 0 980 95904 -6254 0
0 0 0 959 96863 -5295 0
0 0 0 907 97770 -4388 0
0 0 0 853 98623 -3535 0
0 0 0 822 99445 -2713 0
6 1 S106 776 100221 -1937 0
6 1 S106 736 100957 -1201 0
6 1 S106 756 101713 -445 0
6 2 S106 748 102461 303 0
6 2 S106 784 103245 1087 0
6 2 S106 890 104135 1977 0
6 2 S106 1004 105139 2981 0
6 2 S106 1046 106185 4027 0
6 2 S106 1002 107187 5029 0
6 2 S106 927 108114 5956 0
6 2 S106 917 109031 6873 0
0 0 0 904 109935 -10857 0
0 0 0 929 110864 -9928 0
0 0 0 884 111748 -9044 0
0 0 0 828 112576 -8216 0
0 0 0 814 113390 -7402 0
0 0 0 827 114217 -6575 0
0 0 0 845 115062 -5730 0
0 0 0 825 115887 -4905 0
0 0 0 860 116747 -4045 0
0 0 0 993 117740 -3052 0
7 1 S102 1063 118803 -1989 0
7 1 S102 1093 119896 -896 0
7 2 S102 1000 120896 104 0
7 2 S102 991 121887 1095 0
7 2 S102 998 122885 2093 0
7 2 S102 999 123884 3092 0
7 2 S102 957 124841 4049 0
7 2 S102 915 125756 4964 0
7 2 S102 946 126702 5910 0
7 2 S102 997 127699 6907 0
0 0 0 1058 128757 -9691 0
0 0 0 1003 129760 -8688 0
0 0 0 947 130707 -7741 0
0 0 0 980 131687 -6761 0
0 0 0 962 132649 -5799 0
0 0 0 863 133512 -4936 0
0 0 0 792 134304 -4144 0
0 0 0 846 135150 -3298 0
0 0 0 914 136064 -2384 0
8 1 S112 1108 137172 -1276 0
8 1 S112 1106 138278 -170 0
8 2 S112 1043 139321 873 0
8 2 S112 1129 140450 2002 0
8 2 S112 1165 141615 3167 0
8 2 S112 1122 142737 4289 0
8 2 S112 1074 143811 5363 0
8 2 S112 1005 144816 6368 0
0 0 0 927 145743 -8637 0
0 0 0 938 146681 -7699 0
0 0 0 967 147648 -6732 0
0 0 0 930 148578 -5802 0
0 0 0 906 149484 -4896 0
0 0 0 914 150398 -3982 0
0 0 0 936 151334 -3046 0
0 0 0 948 152282 -2098 0
9 1 S116 971 153253 -1127 0
9 1 S116 1069 154322 -58 0
9 2 S116 1134 155456 1076 0
9 2 S116 1078 156534 2154 0
9 2 S116 1005 157539 3159 0
9 2 S116 1033 158572 4192 0
9 2 S116 1091 159663 5283 0
9 2 S116 1124 160787 6407 0
0 0 0 1024 161811 -12446 0
0 0 0 962 162773 -11484 0
0 0 0 1015 163788 -10469 0
0 0 0 1079 164867 -9390 0
0 0 0 1024 165891 -8366 0
0 0 0 958 166849 -7408 0
0 0 0 1043 167892 -6365 0
0 0 0 1082 168974 -5283 0
0 0 0 1015 169989 -4268 0
0 0 0 955 170944 -3313 0
0 0 0 976 171920 -2337 0
10 1 S102 984 172904 -1353 0
10 1 S102 963 173867 -390 0
10 2 S102 901 174768 511 0
10 2 S102 957 175725 1468 0
10 2 S102 1079 176804 2547 0
10 2 S102 1100 177904 3647 0
10 2 S102 1033 178937 4680 0
10 2 S102 1068 180005 5748 0
10 2 S102 1117 181122 6865 0
0 0 0 1081 182203 -10920 0
0 0 0 986 183189 -9934 0
0 0 0 1005 184194 -8929 0
0 0 0 990 185184 -7939 0
0 0 0 893 186077 -7046 0
0 0 0 785 186862 -6261 0
0 0 0 759 187621 -5502 0
0 0 0 851 188472 -4651 0
0 0 0 1104 189576 -3547 0
0 0 0 1191 190767 -2356 1
11 1 S112 1158 191925 -1198 0
11 1 S112 1092 193017 -106 0
11 2 S112 1027 194044 921 0
11 2 S112 1076 195120 1997 0
11 2 S112 1120 196240 3117 0
11 2 S112 1086 197326 4203 0
11 2 S112 1053 198379 5256 0
11 2 S112 1051 199430 6307 0
0 0 0 995 200425 -8199 0
0 0 0 921 201346 -7278 0
0 0 0 927 202273 -6351 0
0 0 0 1002 203275 -5349 0
0 0 0 1011 204286 -4338 0
0 0 0 942 205228 -3396 0
0 0 0 893 206121 -2503 0
12 1 S116 936 207057 -1567 0
12 1 S116 1006 208063 -561 0
12 2 S116 1075 209138 514 0
12 2 S116 1011 210149 1525 0
12 2 S116 1046 211195 2571 0
12 2 S116 1068 212263 3639 0
12 2 S116 1034 213297 4673 0
12 2 S116 987 214284 5660 0
12 2 S116 1031 215315 6691 0
0 0 0 1035 216350 -11356 0
0 0 0 945 217295 -10411 0
0 0 0 960 218255 -9451 0
0 0 0 975 219230 -8476 0
0 0 0 943 220173 -7533 0
0 0 0 930 221103 -6603 0
0 0 0 989 222092 -5614 0
0 0 0 1078 223170 -4536 0
0 0 0 1050 224220 -3486 0
0 0 0 1029 225249 -2457 0
13 1 S112 1036 226285 -1421 0
13 1 S112 1046 227331 -375 0
13 2 S112 967 228298 592 0
13 2 S112 961 229259 1553 0
13 2 S112 1032 230291 2585 0
13 2 S112 1094 231385 3679 0
13 2 S112 1077 232462 4756 0
13 2 S112 1012 233474 5768 0
13 2 S112 1059 234533 6827 0
0 0 0 1112 235645 -12403 0
0 0 0 1057 236702 -11346 0
0 0 0 1047 237749 -10299 0
0 0 0 1072 238821 -9227 0
0 0 0 1020 239841 -8207 0
0 0 0 896 240737 -7311 0
0 0 0 884 241621 -6427 0
0 0 0 955 242576 -5472 0
0 0 0 1093 243669 -4379 0
0 0 0 1034 244703 -3345 0
0 0 0 1016 245719 -2329 0
14 1 S106 1058 246777 -1271 0
14 1 S106 1066 247843 -205 0
14 2 S106 1023 248866 818 0
14 2 S106 989 249855 1807 0
14 2 S106 1023 250878 2830 0
14 2 S106 1066 251944 3896 0
14 2 S106 1057 253001 4953 0
14 2 S106 949 253950 5902 0
14 2 S106 935 254885 6837 0
0 0 0 966 255851 -10466 0
0 0 0 1025 256876 -9441 0
0 0 0 986 257862 -8455 0
0 0 0 905 258767 -7550 0
0 0 0 943 259710 -6607 0
0 0 0 965 260675 -5642 0
0 0 0 929 261604 -4713 0
0 0 0 888 262492 -3825 0
0 0 0 931 263423 -2894 0
15 1 S116 966 264389 -1928 0
15 1 S116 970 265359 -958 0
15 1 S116 908 266267 -50 0
15 2 S116 939 267206 889 0
15 2 S116 992 268198 1881 0
15 2 S116 1048 269246 2929 0
15 2 S116 998 270244 3927 0
15 2 S116 938 271182 4865 0
15 2 S116 954 272136 5819 0
15 2 S116 1006 273142 6825 0
0 0 0 1026 274168 -10286 0
0 0 0 959 275127 -9327 0
0 0 0 926 276053 -8401 0
0 0 0 943 276996 -7458 0
0 0 0 966 277962 -6492 0
0 0 0 869 278831 -5623 0
0 0 0 852 279683 -4771 0
0 0 0 872 280555 -3899 0
0 0 0 920 281475 -2979 0
0 0 0 926 282401 -2053 0
16 1 S116 920 283321 -1133 0
16 1 S116 1015 284336 -118 0
16 2 S116 1099 285435 981 0
16 2 S116 1071 286506 2052 0
16 2 S116 992 287498 3044 0
16 2 S116 943 288441 3987 0
16 2 S116 980 289421 4967 0
16 2 S116 1013 290434 5980 0
16 2 S116 966 291400 6946 0
0 0 0 892 292292 -9370 0
0 0 0 933 293225 -8437 0
0 0 0 1006 294231 -7431 0
0 0 0 1057 295288 -6374 0
0 0 0 919 296207 -5455 0
0 0 0 915 297122 -4540 0
0 0 0 963 298085 -3577 0
0 0 0 1018 299103 -2559 0
17 1 S106 965 300068 -1594 0
17 1 S106 932 301000 -662 0
17 2 S106 951 301951 289 0
17 2 S106 992 302943 1281 0
17 2 S106 1012 303955 2293 0
17 2 S106 939 304894 3232 0
17 2 S106 926 305820 4158 0
17 2 S106 962 306782 5120 0
17 2 S106 992 307774 6112 0
0 0 0 998 308772 -12104 0
0 0 0 963 309735 -11141 0
0 0 0 1004 310739 -10137 0
0 0 0 1037 311776 -9100 0
0 0 0 931 312707 -8169 0
0 0 0 829 313536 -7340 0
0 0 0 846 314382 -6494 0
0 0 0 918 315300 -5576 0
0 0 0 1046 316346 -4530 0
0 0 0 1009 317355 -3521 0
0 0 0 990 318345 -2531 0
18 1 S102 1046 319391 -1485 0
18 1 S102 1035 320426 -450 0
18 2 S102 983 321409 533 0
18 2 S102 951 322360 1484 0
18 2 S102 987 323347 2471 0
18 2 S102 1025 324372 3496 0
18 2 S102 997 325369 4493 0
18 2 S102 935 326304 5428 0
18 2 S102 967 327271 6395 0
0 0 0 986 328257 -8021 0
0 0 0 954 329211 -7067 0
0 0 0 859 330070 -6208 0
0 0 0 889 330959 -5319 0
0 0 0 934 331893 -4385 0
0 0 0 978 332871 -3407 0
0 0 0 887 333758 -2520 0
19 1 S106 835 334593 -1685 0
19 1 S106 841 335434 -844 0
19 1 S106 837 336271 -7 0
19 2 S106 821 337092 814 0
19 2 S106 745 337837 1559 0
19 2 S106 751 338588 2310 0
19 2 S106 822 339410 3132 0
19 2 S106 856 340266 3988 0
19 2 S106 875 341141 4863 0
19 2 S106 849 341990 5712 0
19 2 S106 769 342759 6481 0
0 0 0 756 343515 -11961 0
0 0 0 782 344297 -11179 0
0 0 0 805 345102 -10374 0
0 0 0 842 345944 -9532 0
0 0 0 854 346798 -8678 0
0 0 0 759 347557 -7919 0
0 0 0 792 348349 -7127 0
0 0 0 813 349162 -6314 0
0 0 0 894 350056 -5420 0
0 0 0 905 350961 -4515 0
0 0 0 931 351892 -3584 0
0 0 0 1045 352937 -2539 0
20 1 S112 1123 354060 -1416 0
20 1 S112 1061 355121 -355 0
20 2 S112 940 356061 585 0
20 2 S112 908 356969 1493 0
20 2 S112 964 357933 2457 0
20 2 S112 1026 358959 3483 0
20 2 S112 1012 359971 4495 0
20 2 S112 992 360963 5487 0
20 2 S112 1070 362033 6557 0
0 0 0 1077 363110 -10038 0
0 0 0 984 364094 -9054 0
0 0 0 960 365054 -8094 0
0 0 0 1023 366077 -7071 0
0 0 0 1004 367081 -6067 0
0 0 0 920 368001 -5147 0
0 0 0 938 368939 -4209 0
0 0 0 1058 369997 -3151 0
0 0 0 1138 371135 -2013 0
21 1 S106 1050 372185 -963 0
21 2 S106 1012 373197 49 0
21 2 S106 1117 374314 1166 0
21 2 S106 1146 375460 2312 0
21 2 S106 1041 376501 3353 0
21 2 S106 1008 377509 4361 0
21 2 S106 1087 378596 5448 0
21 2 S106 1107 379703 6555 0
0 0 0 1061 380764 -11300 0
0 0 0 1039 381803 -10261 0
0 0 0 1090 382893 -9171 0
0 0 0 1046 383939 -8125 0
0 0 0 960 384899 -7165 0
0 0 0 949 385848 -6216 0
0 0 0 1041 386889 -5175 0
0 0 0 1097 387986 -4078 0
0 0 0 1027 389013 -3051 0
0 0 0 1012 390025 -2039 0
22 1 S116 1104 391129 -935 0
22 2 S116 1146 392275 211 0
22 2 S116 1066 393341 1277 0
22 2 S116 976 394317 2253 0
22 2 S116 954 395271 3207 0
22 2 S116 994 396265 4201 0
22 2 S116 1077 397342 5278 0
22 2 S116 1004 398346 6282 0
0 0 0 882 399228 -9846 0
0 0 0 915 400143 -8931 0
0 0 0 1039 401182 -7892 0
0 0 0 1137 402319 -6755 0
0 0 0 980 403299 -5775 0
0 0 0 931 404230 -4844 0
0 0 0 987 405217 -3857 0
0 0 0 1061 406278 -2796 0
23 1 S112 980 407258 -1816 0
23 1 S112 994 408252 -822 0
23 2 S112 1028 409280 206 0
23 2 S112 1047 410327 1253 0
23 2 S112 935 411262 2188 0
23 2 S112 875 412137 3063 0
23 2 S112 959 413096 4022 0
23 2 S112 1141 414237 5163 0
23 2 S112 1182 415419 6345 0
0 0 0 1148 416567 -9897 0
0 0 0 1104 417671 -8793 0
0 0 0 1090 418761 -7703 0
0 0 0 979 419740 -6724 0
0 0 0 876 420616 -5848 0
0 0 0 845 421461 -5003 0
0 0 0 797 422258 -4206 0
0 0 0 832 423090 -3374 0
0 0 0 898 423988 -2476 0
24 1 S106 923 424911 -1553 0
24 1 S106 1018 425929 -535 0
24 2 S106 1100 427029 565 0
24 2 S106 1093 428122 1658 0
24 2 S106 1000 429122 2658 0
24 2 S106 960 430082 3618 0
24 2 S106 1031 431113 4649 0
24 2 S106 1102 432215 5751 0
24 2 S106 1056 433271 6807 0
0 0 0 1021 434292 -9032 0
0 0 0 1057 435349 -7975 0
0 0 0 1072 436421 -6903 0
0 0 0 959 437380 -5944 0
0 0 0 848 438228 -5096 0
0 0 0 891 439119 -4205 0
0 0 0 924 440043 -3281 0
0 0 0 1008 441051 -2273 0
25 1 S102 968 442019 -1305 0
25 1 S102 964 442983 -341 0
25 2 S102 1008 443991 667 0
25 2 S102 1064 445055 1731 0
25 2 S102 998 446053 2729 0
25 2 S102 929 446982 3658 0
25 2 S102 957 447939 4615 0
25 2 S102 1080 449019 5695 0
25 2 S102 1089 450108 6784 0
0 0 0 1022 451130 -7397 0
0 0 0 1002 452132 -6395 0
0 0 0 1053 453185 -5342 0
0 0 0 1026 454211 -4316 0
0 0 0 891 455102 -3425 0
0 0 0 850 455952 -2575 0
26 1 S116 905 456857 -1670 0
26 1 S116 1028 457885 -642 0
26 2 S116 1073 458958 431 0
26 2 S116 1019 459977 1450 0
26 2 S116 966 460943 2416 0
26 2 S116 1009 461952 3425 0
26 2 S116 1062 463014 4487 0
26 2 S116 1063 464077 5550 0
26 2 S116 977 465054 6527 0
0 0 0 950 466004 -8554 0
0 0 0 1013 467017 -7541 0
0 0 0 1152 468169 -6389 0
0 0 0 1088 469257 -5301 0
0 0 0 988 470245 -4313 0
0 0 0 968 471213 -3345 0
0 0 0 1008 472221 -2337 0
27 1 S106 1057 473278 -1280 0
27 1 S106 1001 474279 -279 0
27 2 S106 1074 475353 795 0
27 2 S106 1093 476446 1888 0
27 2 S106 1056 477502 2944 0
27 2 S106 980 478482 3924 0
27 2 S106 993 479475 4917 0
27 2 S106 1052 480527 5969 0
0 0 0 1067 481594 -7818 0
0 0 0 994 482588 -6824 0
0 0 0 990 483578 -5834 0
0 0 0 1049 484627 -4785 0
0 0 0 1005 485632 -3780 0
0 0 0 946 486578 -2834 0
28 1 S102 914 487492 -1920 0
28 1 S102 978 488470 -942 0
28 2 S102 1082 489552 140 0
28 2 S102 1099 490651 1239 0
28 2 S102 1034 491685 2273 0
28 2 S102 969 492654 3242 0
28 2 S102 969 493623 4211 0
28 2 S102 1005 494628 5216 0
28 2 S102 1000 495628 6216 0
0 0 0 926 496554 -10481 0
0 0 0 937 497491 -9544 0
0 0 0 990 498481 -8554 0
0 0 0 925 499406 -7629 0
0 0 0 869 500275 -6760 0
0 0 0 840 501115 -5920 0
0 0 0 921 502036 -4999 0
0 0 0 984 503020 -4015 0
0 0 0 1000 504020 -3015 0
0 0 0 947 504967 -2068 0
29 1 S112 1000 505967 -1068 0
29 1 S112 1024 506991 -44 0
29 2 S112 958 507949 914 0
29 2 S112 839 508788 1753 0
29 2 S112 759 509547 2512 0
29 2 S112 856 510403 3368 0
29 2 S112 911 511314 4279 0
29 2 S112 1039 512353 5318 0
29 2 S112 1049 513402 6367 0
0 0 0 985 514387 -8282 0
0 0 0 892 515279 -7390 0
0 0 0 902 516181 -6488 0
0 0 0 958 517139 -5530 0
0 0 0 989 518128 -4541 0
0 0 0 871 518999 -3670 0
0 0 0 878 519877 -2792 0
30 1 S112 936 520813 -1856 0
30 1 S112 1009 521822 -847 0
30 2 S112 1026 522848 179 0
30 2 S112 942 523790 1121 0
30 2 S112 940 524730 2061 0
30 2 S112 1039 525769 3100 0
30 2 S112 1107 526876 4207 0
30 2 S112 1094 527970 5301 0
30 2 S112 995 528965 6296 0
0 0 0 944 529909 -10896 0
0 0 0 1010 530919 -9886 0
0 0 0 1076 531995 -8810 0
0 0 0 1015 533010 -7795 0
0 0 0 997 534007 -6798 0
0 0 0 955 534962 -5843 0
0 0 0 963 535925 -4880 0
0 0 0 888 536813 -3992 0
0 0 0 910 537723 -3082 0
0 0 0 1008 538731 -2074 0
31 1 S106 1119 539850 -955 0
31 2 S106 1058 540908 103 0
31 2 S106 1019 541927 1122 0
31 2 S106 1089 543016 2211 0
31 2 S106 1134 544150 3345 0
31 2 S106 1057 545207 4402 0
31 2 S106 989 546196 5391 0
31 2 S106 1018 547214 6409 0
0 0 0 1068 548282 -9782 0
0 0 0 1029 549311 -8753 0
0 0 0 944 550255 -7809 0
0 0 0 965 551220 -6844 0
0 0 0 918 552138 -5926 0
0 0 0 876 553014 -5050 0
0 0 0 852 553866 -4198 0
0 0 0 894 554760 -3304 0
0 0 0 1035 555795 -2269 0
32 1 S102 1127 556922 -1142 0
32 1 S102 1040 557962 -102 0
32 2 S102 1007 558969 905 0
32 2 S102 1057 560026 1962 0
32 2 S102 1076 561102 3038 0
32 2 S102 1006 562108 4044 0
32 2 S102 901 563009 4945 0
32 2 S102 886 563895 5831 0
32 2 S102 966 564861 6797 0
0 0 0 1037 565898 -12325 0
0 0 0 1084 566982 -11241 0
0 0 0 983 567965 -10258 0
0 0 0 1036 569001 -9222 0
0 0 0 1017 570018 -8205 0
0 0 0 913 570931 -7292 0
0 0 0 849 571780 -6443 0
0 0 0 893 572673 -5550 0
0 0 0 1012 573685 -4538 0
0 0 0 1065 574750 -3473 0
0 0 0 1008 575758 -2465 0
33 1 S112 975 576733 -1490 0
33 1 S112 990 577723 -500 0
33 2 S112 1068 578791 568 0
33 2 S112 1057 579848 1625 0
33 2 S112 988 580836 2613 0
33 2 S112 988 581824 3601 0
33 2 S112 1062 582886 4663 0
33 2 S112 1092 583978 5755 0
33 2 S112 1027 585005 6782 0
0 0 0 932 585937 -11964 0
0 0 0 965 586902 -10999 0
0 0 0 1025 587927 -9974 0
0 0 0 1017 588944 -8957 0
0 0 0 900 589844 -8057 0
0 0 0 862 590706 -7195 0
0 0 0 943 591649 -6252 0
0 0 0 1027 592676 -5225 0
0 0 0 1056 593732 -4169 0
0 0 0 994 594726 -3175 0
0 0 0 961 595687 -2214 0
34 1 S106 964 596651 -1250 0
34 1 S106 944 597595 -306 0
34 2 S106 877 598472 571 0
34 2 S106 894 599366 1465 0
34 2 S106 957 600323 2422 0
34 2 S106 1064 601387 3486 0
34 2 S106 1046 602433 4532 0
34 2 S106 946 603379 5478 0
34 2 S106 948 604327 6426 0
0 0 0 989 605316 -8003 0
0 0 0 1058 606374 -6945 0
0 0 0 948 607322 -5997 0
0 0 0 845 608167 -5152 0
0 0 0 794 608961 -4358 0
0 0 0 858 609819 -3500 0
0 0 0 897 610716 -2603 0
35 1 S102 1073 611789 -1530 0
35 1 S102 1058 612847 -472 0
35 2 S102 990 613837 518 0
35 2 S102 1010 614847 1528 0
35 2 S102 1049 615896 2577 0
35 2 S102 1010 616906 3587 0
35 2 S102 884 617790 4471 0
35 2 S102 885 618675 5356 0
35 2 S102 939 619614 6295 0
0 0 0 1023 620637 -7338 0
0 0 0 1025 621662 -6313 0
0 0 0 999 622661 -5314 0
0 0 0 971 623632 -4343 0
0 0 0 926 624558 -3417 0
0 0 0 814 625372 -2603 0
36 1 S106 752 626124 -1851 0
36 1 S106 724 626848 -1127 0
36 1 S106 730 627578 -397 0
36 2 S106 1242 628820 845 1
36 2 S106 1127 629947 1972 0
36 2 S106 1073 631020 3045 0
36 2 S106 977 631997 4022 0
36 2 S106 930 632927 4952 0
36 2 S106 904 633831 5856 0
36 2 S106 856 634687 6712 0
0 0 0 839 635526 -9657 0
0 0 0 779 636305 -8878 0
0 0 0 812 637117 -8066 0
0 0 0 824 637941 -7242 0
0 0 0 834 638775 -6408 0
0 0 0 796 639571 -5612 0
0 0 0 773 640344 -4839 0
0 0 0 715 641059 -4124 0
0 0 0 737 641796 -3387 0
0 0 0 829 642625 -2558 0
37 1 S116 913 643538 -1645 0
37 1 S116 972 644510 -673 0
37 2 S116 950 645460 277 0
37 2 S116 961 646421 1238 0
37 2 S116 974 647395 2212 0
37 2 S116 959 648354 3171 0
37 2 S116 893 649247 4064 0
37 2 S116 826 650073 4890 0
37 2 S116 833 650906 5723 0
37 2 S116 844 651750 6567 0
0 0 0 865 652615 -11583 0
0 0 0 869 653484 -10714 0
0 0 0 818 654302 -9896 0
0 0 0 855 655157 -9041 0
0 0 0 846 656003 -8195 0
0 0 0 857 656860 -7338 0
0 0 0 798 657658 -6540 0
0 0 0 806 658464 -5734 0
0 0 0 843 659307 -4891 0
0 0 0 873 660180 -4018 0
0 0 0 873 661053 -3145 0
0 0 0 833 661886 -2312 0
38 1 S102 860 662746 -1452 0
38 1 S102 898 663644 -554 0
38 2 S102 927 664571 373 0
38 2 S102 889 665460 1262 0
38 2 S102 835 666295 2097 0
38 2 S102 851 667146 2948 0
38 2 S102 875 668021 3823 0
38 2 S102 882 668903 4705 0
38 2 S102 843 669746 5548 0
38 2 S102 836 670582 6384 0
0 0 0 894 671476 -9848 0
0 0 0 953 672429 -8895 0
0 0 0 977 673406 -7918 0
0 0 0 900 674306 -7018 0
0 0 0 872 675178 -6146 0
0 0 0 847 676025 -5299 0
0 0 0 865 676890 -4434 0
0 0 0 841 677731 -3593 0
0 0 0 808 678539 -2785 0
39 1 S116 834 679373 -1951 0
39 1 S116 865 680238 -1086 0
39 1 S116 903 681141 -183 0
39 2 S116 895 682036 712 0
39 2 S116 860 682896 1572 0
39 2 S116 874 683770 2446 0
39 2 S116 874 684644 3320 0
39 2 S116 904 685548 4224 0
39 2 S116 857 686405 5081 0
39 2 S116 839 687244 5920 0
39 2 S116 870 688114 6790 0
0 0 0 916 689030 -7480 0
0 0 0 929 689959 -6551 0
0 0 0 845 690804 -5706 0
0 0 0 875 691679 -4831 0
0 0 0 816 692495 -4015 0
0 0 0 798 693293 -3217 0
0 0 0 746 694039 -2471 0
40 1 S112 733 694772 -1738 0
40 1 S112 749 695521 -989 0
40 1 S112 851 696372 -138 0
40 2 S112 1064 697436 926 0
40 2 S112 1159 698595 2085 0
40 2 S112 1139 699734 3224 0
40 2 S112 1070 700804 4294 0
40 2 S112 1062 701866 5356 0
40 2 S112 1068 702934 6424 0
0 0 0 1032 703966 -188368 0
0 0 0 937 704903 -187431 0
0 0 0 918 705821 -186513 0
0 0 0 962 706783 -185551 0
0 0 0 998 707781 -184553 0
0 0 0 894 708675 -183659 0
0 0 0 791 709466 -182868 0
0 0 0 788 710254 -182080 0
0 0 0 858 711112 -181222 0
0 0 0 934 712046 -180288 0
0 0 0 1079 713125 -179209 0
0 0 0 996 714121 -178213 0
0 0 0 957 715078 -177256 0
0 0 0 907 715985 -176349 0
0 0 0 796 716781 -175553 0
0 0 0 768 717549 -174785 0
0 0 0 733 718282 -174052 0
0 0 0 722 719004 -173330 0
0 0 0 824 719828 -172506 0
0 0 0 916 720744 -171590 0
0 0 0 857 721601 -170733 0
0 0 0 837 722438 -169896 0
0 0 0 800 723238 -169096 0
0 0 0 738 723976 -168358 0
0 0 0 748 724724 -167610 0
0 0 0 729 725453 -166881 0
0 0 0 732 726185 -166149 0
0 0 0 782 726967 -165367 0
0 0 0 796 727763 -164571 0
0 0 0 828 728591 -163743 0
0 0 0 848 729439 -162895 0
0 0 0 824 730263 -162071 0
0 0 0 798 731061 -161273 0
0 0 0 775 731836 -160498 0
0 0 0 815 732651 -159683 0
0 0 0 814 733465 -158869 0
0 0 0 860 734325 -158009 0
0 0 0 824 735149 -157185 0
0 0 0 801 735950 -156384 0
0 0 0 736 736686 -155648 0
0 0 0 765 737451 -154883 0
0 0 0 786 738237 -154097 0
0 0 0 842 739079 -153255 0
0 0 0 942 740021 -152313 0
0 0 0 851 740872 -151462 0
0 0 0 774 741646 -150688 0
0 0 0 746 742392 -149942 0
0 0 0 739 743131 -149203 0
0 0 0 703 743834 -148500 0
0 0 0 689 744523 -147811 1
0 0 0 715 745238 -147096 0
0 0 0 748 745986 -146348 0
0 0 0 727 746713 -145621 0
0 0 0 748 747461 -144873 0
0 0 0 807 748268 -144066 0
0 0 0 810 749078 -143256 0
0 0 0 735 749813 -142521 0
0 0 0 740 750553 -141781 0
0 0 0 771 751324 -141010 0
0 0 0 792 752116 -140218 0
0 0 0 849 752965 -139369 0
0 0 0 853 753818 -138516 0
0 0 0 844 754662 -137672 0
0 0 0 772 755434 -136900 0
0 0 0 793 756227 -136107 0
0 0 0 765 756992 -135342 0
0 0 0 758 757750 -134584 0
0 0 0 712 758462 -133872 0
0 0 0 709 759171 -133163 0
0 0 0 769 759940 -132394 0
0 0 0 858 760798 -131536 0
0 0 0 934 761732 -130602 0
0 0 0 1061 762793 -129541 0
0 0 0 1040 763833 -128501 0
0 0 0 1073 764906 -127428 0
0 0 0 1022 765928 -126406 0
0 0 0 900 766828 -125506 0
0 0 0 838 767666 -124668 0
0 0 0 846 768512 -123822 0
0 0 0 867 769379 -122955 0
0 0 0 948 770327 -122007 0
0 0 0 1002 771329 -121005 0
0 0 0 942 772271 -120063 0
0 0 0 891 773162 -119172 0
0 0 0 938 774100 -118234 0
0 0 0 994 775094 -117240 0
0 0 0 1012 776106 -116228 0
0 0 0 1037 777143 -115191 0
0 0 0 897 778040 -114294 0
0 0 0 888 778928 -113406 0
0 0 0 848 779776 -112558 0
0 0 0 814 780590 -111744 0
0 0 0 818 781408 -110926 0
0 0 0 995 782403 -109931 0
0 0 0 1290 783693 -108641 1
0 0 0 1194 784887 -107447 1
0 0 0 1015 785902 -106432 0
0 0 0 903 786805 -105529 0
0 0 0 855 787660 -104674 0
0 0 0 770 788430 -103904 0
0 0 0 799 789229 -103105 0
0 0 0 791 790020 -102314 0
0 0 0 788 790808 -101526 0
0 0 0 801 791609 -100725 0
0 0 0 803 792412 -99922 0
0 0 0 792 793204 -99130 0
0 0 0 819 794023 -98311 0
0 0 0 811 794834 -97500 0
0 0 0 860 795694 -96640 0
0 0 0 945 796639 -95695 0
0 0 0 888 797527 -94807 0
0 0 0 832 798359 -93975 0
0 0 0 820 799179 -93155 0
0 0 0 778 799957 -92377 0
0 0 0 732 800689 -91645 0
0 0 0 749 801438 -90896 0
0 0 0 816 802254 -90080 0
0 0 0 843 803097 -89237 0
0 0 0 901 803998 -88336 0
0 0 0 850 804848 -87486 0
0 0 0 881 805729 -86605 0
0 0 0 890 806619 -85715 0
0 0 0 860 807479 -84855 0
0 0 0 839 808318 -84016 0
0 0 0 863 809181 -83153 0
0 0 0 860 810041 -82293 0
0 0 0 839 810880 -81454 0
0 0 0 816 811696 -80638 0
0 0 0 819 812515 -79819 0
0 0 0 841 813356 -78978 0
0 0 0 846 814202 -78132 0
0 0 0 813 815015 -77319 0
0 0 0 839 815854 -76480 0
0 0 0 870 816724 -75610 0
0 0 0 910 817634 -74700 0
0 0 0 856 818490 -73844 0
0 0 0 837 819327 -73007 0
0 0 0 833 820160 -72174 0
0 0 0 778 820938 -71396 0
0 0 0 750 821688 -70646 0
0 0 0 772 822460 -69874 0
0 0 0 754 823214 -69120 0
0 0 0 816 824030 -68304 0
0 0 0 854 824884 -67450 0
0 0 0 889 825773 -66561 0
0 0 0 874 826647 -65687 0
0 0 0 943 827590 -64744 0
0 0 0 974 828564 -63770 0
0 0 0 927 829491 -62843 0
0 0 0 901 830392 -61942 0
0 0 0 886 831278 -61056 0
0 0 0 884 832162 -60172 0
0 0 0 815 832977 -59357 0
0 0 0 819 833796 -58538 0
0 0 0 843 834639 -57695 0
0 0 0 910 835549 -56785 0
0 0 0 988 836537 -55797 0
0 0 0 973 837510 -54824 0
0 0 0 944 838454 -53880 0
0 0 0 1005 839459 -52875 0
0 0 0 1004 840463 -51871 0
0 0 0 906 841369 -50965 0
0 0 0 885 842254 -50080 0
0 0 0 819 843073 -49261 0
0 0 0 797 843870 -48464 0
0 0 0 820 844690 -47644 0
0 0 0 832 845522 -46812 0
0 0 0 891 846413 -45921 0
0 0 0 949 847362 -44972 0
0 0 0 1002 848364 -43970 0
0 0 0 974 849338 -42996 0
0 0 0 1024 850362 -41972 0
0 0 0 1064 851426 -40908 0
0 0 0 1046 852472 -39862 0
0 0 0 959 853431 -38903 0
0 0 0 976 854407 -37927 0
0 0 0 1008 855415 -36919 0
0 0 0 1027 856442 -35892 0
0 0 0 940 857382 -34952 0
0 0 0 926 858308 -34026 0
0 0 0 945 859253 -33081 0
0 0 0 990 860243 -32091 0
0 0 0 965 861208 -31126 0
0 0 0 1006 862214 -30120 0
0 0 0 1027 863241 -29093 0
0 0 0 1042 864283 -28051 0
0 0 0 1028 865311 -27023 0
0 0 0 1049 866360 -25974 0
0 0 0 1066 867426 -24908 0
0 0 0 987 868413 -23921 0
0 0 0 1017 869430 -22904 0
0 0 0 1034 870464 -21870 0
0 0 0 1016 871480 -20854 0
0 0 0 919 872399 -19935 0
0 0 0 936 873335 -18999 0
0 0 0 913 874248 -18086 0
0 0 0 799 875047 -17287 0
0 0 0 773 875820 -16514 0
0 0 0 976 876796 -15538 0
0 0 0 872 877668 -14666 0
0 0 0 807 878475 -13859 0
0 0 0 753 879228 -13106 0
0 0 0 808 880036 -12298 0
0 0 0 875 880911 -11423 0
0 0 0 872 881783 -10551 0
0 0 0 810 882593 -9741 0
0 0 0 810 883403 -8931 0
0 0 0 829 884232 -8102 0
0 0 0 847 885079 -7255 0
0 0 0 841 885920 -6414 0
0 0 0 843 886763 -5571 0
0 0 0 757 887520 -4814 0
0 0 0 826 888346 -3988 0
0 0 0 782 889128 -3206 0
0 0 0 792 889920 -2414 0
41 1 S102 748 890668 -1666 0
41 1 S102 764 891432 -902 0
41 1 S102 817 892249 -85 0
41 2 S102 917 893166 832 0
41 2 S102 1011 894177 1843 0
41 2 S102 1092 895269 2935 0
41 2 S102 1092 896361 4027 0
41 2 S102 1052 897413 5079 0
41 2 S102 947 898360 6026 0
41 2 S102 856 899216 6882 0
0 0 0 856 900072 -8028 0
0 0 0 940 901012 -7088 0
0 0 0 1048 902060 -6040 0
0 0 0 1090 903150 -4950 0
0 0 0 999 904149 -3951 0
0 0 0 930 905079 -3021 0
0 0 0 844 905923 -2177 0
42 1 S112 791 906714 -1386 0
42 1 S112 827 907541 -559 0
42 2 S112 850 908391 291 0
42 2 S112 876 909267 1167 0
42 2 S112 919 910186 2086 0
42 2 S112 956 911142 3042 0
42 2 S112 1013 912155 4055 0
42 2 S112 1081 913236 5136 0
42 2 S112 1076 914312 6212 0
0 0 0 1028 915340 -10465 0
0 0 0 903 916243 -9562 0
0 0 0 848 917091 -8714 0
0 0 0 874 917965 -7840 0
0 0 0 920 918885 -6920 0
0 0 0 904 919789 -6016 0
0 0 0 831 920620 -5185 0
0 0 0 773 921393 -4412 0
0 0 0 758 922151 -3654 0
0 0 0 792 922943 -2862 0
0 0 0 810 923753 -2052 0
43 1 S116 898 924651 -1154 0
43 1 S116 974 925625 -180 0
43 2 S116 889 926514 709 0
43 2 S116 872 927386 1581 0
43 2 S116 887 928273 2468 0
43 2 S116 904 929177 3372 0
43 2 S116 937 930114 4309 0
43 2 S116 937 931051 5246 0
43 2 S116 839 931890 6085 0
43 2 S116 830 932720 6915 0
0 0 0 873 933593 -6752 0
0 0 0 963 934556 -5789 0
0 0 0 1001 935557 -4788 0
0 0 0 878 936435 -3910 0
0 0 0 829 937264 -3081 0
0 0 0 833 938097 -2248 0
44 1 S102 843 938940 -1405 0
44 1 S102 859 939799 -546 0
44 2 S102 833 940632 287 0
44 2 S102 847 941479 1134 0
44 2 S102 913 942392 2047 0
44 2 S102 976 943368 3023 0
44 2 S102 974 944342 3997 0
44 2 S102 923 945265 4920 0
44 2 S102 909 946174 5829 0
44 2 S102 941 947115 6770 0
0 0 0 944 948059 -10887 0
0 0 0 995 949054 -9892 0
0 0 0 960 950014 -8932 0
0 0 0 898 950912 -8034 0
0 0 0 942 951854 -7092 0
0 0 0 932 952786 -6160 0
0 0 0 899 953685 -5261 0
0 0 0 854 954539 -4407 0
0 0 0 821 955360 -3586 0
0 0 0 881 956241 -2705 0
45 1 S116 955 957196 -1750 0
45 1 S116 1036 958232 -714 0
45 2 S116 999 959231 285 0
45 2 S116 936 960167 1221 0
45 2 S116 921 961088 2142 0
45 2 S116 919 962007 3061 0
45 2 S116 940 962947 4001 0
45 2 S116 938 963885 4939 0
45 2 S116 905 964790 5844 0
45 2 S116 857 965647 6701 0
0 0 0 870 966517 -12853 0
0 0 0 884 967401 -11969 0
0 0 0 929 968330 -11040 0
0 0 0 902 969232 -10138 0
0 0 0 893 970125 -9245 0
0 0 0 897 971022 -8348 0
0 0 0 868 971890 -7480 0
0 0 0 860 972750 -6620 0
0 0 0 827 973577 -5793 0
0 0 0 833 974410 -4960 0
0 0 0 847 975257 -4113 0
0 0 0 850 976107 -3263 0
0 0 0 830 976937 -2433 0
46 1 S102 823 977760 -1610 0
46 1 S102 864 978624 -746 0
46 2 S102 882 979506 136 0
46 2 S102 895 980401 1031 0
46 2 S102 902 981303 1933 0
46 2 S102 858 982161 2791 0
46 2 S102 846 983007 3637 0
46 2 S102 868 983875 4505 0
46 2 S102 901 984776 5406 0
46 2 S102 899 985675 6305 0
0 0 0 851 986526 -8511 0
0 0 0 824 987350 -7687 0
0 0 0 853 988203 -6834 0
0 0 0 816 989019 -6018 0
0 0 0 812 989831 -5206 0
0 0 0 814 990645 -4392 0
0 0 0 802 991447 -3590 0
0 0 0 834 992281 -2756 0
47 1 S112 923 993204 -1833 0
47 1 S112 1023 994227 -810 0
47 2 S112 1017 995244 207 0
47 2 S112 938 996182 1145 0
47 2 S112 936 997118 2081 0
47 2 S112 961 998079 3042 0
47 2 S112 928 999007 3970 0
47 2 S112 901 999908 4871 0
47 2 S112 836 1000744 5707 0
47 2 S112 820 1001564 6527 0
0 0 0 882 1002446 -13198 0
0 0 0 1004 1003450 -12194 0
0 0 0 1075 1004525 -11119 0
0 0 0 1000 1005525 -10119 0
0 0 0 1004 1006529 -9115 0
0 0 0 957 1007486 -8158 0
0 0 0 918 1008404 -7240 0
0 0 0 896 1009300 -6344 0
0 0 0 845 1010145 -5499 0
0 0 0 838 1010983 -4661 0
0 0 0 889 1011872 -3772 0
0 0 0 959 1012831 -2813 0
48 1 S116 980 1013811 -1833 0
48 1 S116 947 1014758 -886 0
48 1 S116 882 1015640 -4 0
48 2 S116 851 1016491 847 0
48 2 S116 892 1017383 1739 0
48 2 S116 926 1018309 2665 0
48 2 S116 925 1019234 3590 0
48 2 S116 879 1020113 4469 0
48 2 S116 914 1021027 5383 0
48 2 S116 923 1021950 6306 0
0 0 0 962 1022912 -9012 0
0 0 0 917 1023829 -8095 0
0 0 0 885 1024714 -7210 0
0 0 0 921 1025635 -6289 0
0 0 0 989 1026624 -5300 0
0 0 0 923 1027547 -4377 0
0 0 0 845 1028392 -3532 0
0 0 0 872 1029264 -2660 0
49 1 S112 904 1030168 -1756 0
49 1 S112 978 1031146 -778 0
49 2 S112 970 1032116 192 0
49 2 S112 922 1033038 1114 0
49 2 S112 960 1033998 2074 0
49 2 S112 982 1034980 3056 0
49 2 S112 1025 1036005 4081 0
49 2 S112 990 1036995 5071 0
49 2 S112 930 1037925 6001 0
49 2 S112 953 1038878 6954 0
0 0 0 958 1039836 -11932 0
0 0 0 951 1040787 -10981 0
0 0 0 890 1041677 -10091 0
0 0 0 895 1042572 -9196 0
0 0 0 887 1043459 -8309 0
0 0 0 863 1044322 -7446 0
0 0 0 820 1045142 -6626 0
0 0 0 738 1045880 -5888 0
0 0 0 813 1046693 -5075 0
0 0 0 898 1047591 -4177 0
0 0 0 1036 1048627 -3141 0
0 0 0 1061 1049688 -2080 0
50 1 S106 982 1050670 -1098 0
50 1 S106 908 1051578 -190 0
50 2 S106 932 1052510 742 0
50 2 S106 969 1053479 1711 0
50 2 S106 940 1054419 2651 0
50 2 S106 855 1055274 3506 0
50 2 S106 850 1056124 4356 0
50 2 S106 916 1057040 5272 0
50 2 S106 1003 1058043 6275 0
0 0 0 1043 1059086 -8183 0
0 0 0 1002 1060088 -7181 0
0 0 0 1031 1061119 -6150 0
0 0 0 1093 1062212 -5057 0
0 0 0 1008 1063220 -4049 0
0 0 0 851 1064071 -3198 0
0 0 0 782 1064853 -2416 0
51 1 S112 787 1065640 -1629 0
51 1 S112 804 1066444 -825 0
51 1 S112 819 1067263 -6 0
51 2 S112 826 1068089 820 0
51 2 S112 877 1068966 1697 0
51 2 S112 919 1069885 2616 0
51 2 S112 914 1070799 3530 0
51 2 S112 911 1071710 4441 0
51 2 S112 873 1072583 5314 0
51 2 S112 896 1073479 6210 0
0 0 0 922 1074401 -7274 0
0 0 0 938 1075339 -6336 0
0 0 0 920 1076259 -5416 0
0 0 0 877 1077136 -4539 0
0 0 0 860 1077996 -3679 0
0 0 0 855 1078851 -2824 0
52 1 S116 873 1079724 -1951 0
52 1 S116 850 1080574 -1101 0
52 1 S116 842 1081416 -259 0
52 2 S116 932 1082348 673 0
52 2 S116 1119 1083467 1792 0
52 2 S116 1093 1084560 2885 0
52 2 S116 1019 1085579 3904 0
52 2 S116 865 1086444 4769 0
52 2 S116 846 1087290 5615 0
52 2 S116 913 1088203 6528 0
0 0 0 1064 1089267 -10064 0
0 0 0 1093 1090360 -8971 0
0 0 0 997 1091357 -7974 0
0 0 0 956 1092313 -7018 0
0 0 0 902 1093215 -6116 0
0 0 0 852 1094067 -5264 0
0 0 0 845 1094912 -4419 0
0 0 0 829 1095741 -3590 0
0 0 0 857 1096598 -2733 0
53 1 S106 905 1097503 -1828 0
53 1 S106 1039 1098542 -789 0
53 2 S106 1028 1099570 239 0
53 2 S106 984 1100554 1223 0
53 2 S106 1044 1101598 2267 0
53 2 S106 1120 1102718 3387 0
53 2 S106 1064 1103782 4451 0
53 2 S106 968 1104750 5419 0
53 2 S106 952 1105702 6371 0
0 0 0 1053 1106755 -7398 0
0 0 0 1138 1107893 -6260 0
0 0 0 1061 1108954 -5199 0
0 0 0 967 1109921 -4232 0
0 0 0 903 1110824 -3329 0
0 0 0 888 1111712 -2441 0
54 1 S102 878 1112590 -1563 0
54 1 S102 863 1113453 -700 0
54 2 S102 929 1114382 229 0
54 2 S102 1040 1115422 1269 0
54 2 S102 1101 1116523 2370 0
54 2 S102 1055 1117578 3425 0
54 2 S102 947 1118525 4372 0
54 2 S102 916 1119441 5288 0
54 2 S102 926 1120367 6214 0
0 0 0 1005 1121372 -11614 0
0 0 0 1047 1122419 -10567 0
0 0 0 982 1123401 -9585 0
0 0 0 891 1124292 -8694 0
0 0 0 869 1125161 -7825 0
0 0 0 879 1126040 -6946 0
0 0 0 904 1126944 -6042 0
0 0 0 884 1127828 -5158 0
0 0 0 850 1128678 -4308 0
0 0 0 849 1129527 -3459 0
0 0 0 871 1130398 -2588 0
55 1 S106 943 1131341 -1645 0
55 1 S106 997 1132338 -648 0
55 2 S106 957 1133295 309 0
55 2 S106 909 1134204 1218 0
55 2 S106 920 1135124 2138 0
55 2 S106 940 1136064 3078 0
55 2 S106 955 1137019 4033 0
55 2 S106 927 1137946 4960 0
55 2 S106 867 1138813 5827 0
55 2 S106 887 1139700 6714 0
0 0 0 945 1140645 -8057 0
0 0 0 1014 1141659 -7043 0
0 0 0 1003 1142662 -6040 0
0 0 0 943 1143605 -5097 0
0 0 0 920 1144525 -4177 0
0 0 0 896 1145421 -3281 0
0 0 0 896 1146317 -2385 0
56 1 S116 857 1147174 -1528 0
56 1 S116 879 1148053 -649 0
56 2 S116 857 1148910 208 0
56 2 S116 842 1149752 1050 0
56 2 S116 789 1150541 1839 0
56 2 S116 767 1151308 2606 0
56 2 S116 823 1152131 3429 0
56 2 S116 918 1153049 4347 0
56 2 S116 1081 1154130 5428 0
56 2 S116 1109 1155239 6537 0
0 0 0 1086 1156325 -7281 0
0 0 0 962 1157287 -6319 0
0 0 0 905 1158192 -5414 0
0 0 0 927 1159119 -4487 0
0 0 0 900 1160019 -3587 0
0 0 0 870 1160889 -2717 0
57 1 S106 845 1161734 -1872 0
57 1 S106 883 1162617 -989 0
57 1 S106 952 1163569 -37 0
57 2 S106 1012 1164581 975 0
57 2 S106 962 1165543 1937 0
57 2 S106 997 1166540 2934 0
57 2 S106 1025 1167565 3959 0
57 2 S106 1098 1168663 5057 0
57 2 S106 1033 1169696 6090 0
0 0 0 940 1170636 -10626 0
0 0 0 942 1171578 -9684 0
0 0 0 940 1172518 -8744 0
0 0 0 991 1173509 -7753 0
0 0 0 956 1174465 -6797 0
0 0 0 931 1175396 -5866 0
0 0 0 889 1176285 -4977 0
0 0 0 882 1177167 -4095 0
0 0 0 873 1178040 -3222 0
0 0 0 883 1178923 -2339 0
58 1 S102 964 1179887 -1375 0
58 1 S102 1110 1180997 -265 0
58 2 S102 1152 1182149 887 0
58 2 S102 1063 1183212 1950 0
58 2 S102 963 1184175 2913 0
58 2 S102 952 1185127 3865 0
58 2 S102 1015 1186142 4880 0
58 2 S102 1021 1187163 5901 0
58 2 S102 1013 1188176 6914 0
0 0 0 912 1189088 -5519 0
0 0 0 936 1190024 -4583 0
0 0 0 955 1190979 -3628 0
0 0 0 1015 1191994 -2613 0
59 1 S112 1001 1192995 -1612 0
59 1 S112 954 1193949 -658 0
59 2 S112 1015 1194964 357 0
59 2 S112 1120 1196084 1477 0
59 2 S112 1084 1197168 2561 0
59 2 S112 1001 1198169 3562 0
59 2 S112 984 1199153 4546 0
59 2 S112 1016 1200169 5562 0
59 2 S112 1086 1201255 6648 0
0 0 0 1053 1202308 -9276 0
0 0 0 947 1203255 -8329 0
0 0 0 956 1204211 -7373 0
0 0 0 969 1205180 -6404 0
0 0 0 910 1206090 -5494 0
0 0 0 860 1206950 -4634 0
0 0 0 865 1207815 -3769 0
0 0 0 932 1208747 -2837 0
60 1 S102 1003 1209750 -1834 0
60 1 S102 1004 1210754 -830 0
60 2 S102 936 1211690 106 0
60 2 S102 960 1212650 1066 0
60 2 S102 997 1213647 2063 0
60 2 S102 986 1214633 3049 0
60 2 S102 954 1215587 4003 0
60 2 S102 877 1216464 4880 0
60 2 S102 893 1217357 5773 0
60 2 S102 976 1218333 6749 0
0 0 0 1039 1219372 -11111 0
0 0 0 1024 1220396 -10087 0
0 0 0 936 1221332 -9151 0
0 0 0 899 1222231 -8252 0
0 0 0 912 1223143 -7340 0
0 0 0 898 1224041 -6442 0
0 0 0 867 1224908 -5575 0
0 0 0 830 1225738 -4745 0
0 0 0 868 1226606 -3877 0
0 0 0 945 1227551 -2932 0
61 1 S106 1028 1228579 -1904 0
61 1 S106 1046 1229625 -858 0
61 2 S106 991 1230616 133 0
61 2 S106 969 1231585 1102 0
61 2 S106 990 1232575 2092 0
61 2 S106 1009 1233584 3101 0
61 2 S106 980 1234564 4081 0
61 2 S106 960 1235524 5041 0
61 2 S106 1010 1236534 6051 0
0 0 0 1063 1237597 -8321 0
0 0 0 1062 1238659 -7259 0
0 0 0 962 1239621 -6297 0
0 0 0 1004 1240625 -5293 0
0 0 0 1010 1241635 -4283 0
0 0 0 947 1242582 -3336 0
0 0 0 858 1243440 -2478 0
62 1 S112 835 1244275 -1643 0
62 1 S112 860 1245135 -783 0
62 2 S112 874 1246009 91 0
62 2 S112 914 1246923 1005 0
62 2 S112 907 1247830 1912 0
62 2 S112 970 1248800 2882 0
62 2 S112 1069 1249869 3951 0
62 2 S112 1105 1250974 5056 0
62 2 S112 1033 1252007 6089 0
62 2 S112 906 1252913 6995 0
0 0 0 892 1253805 -11758 0
0 0 0 926 1254731 -10832 0
0 0 0 980 1255711 -9852 0
0 0 0 953 1256664 -8899 0
0 0 0 852 1257516 -8047 0
0 0 0 842 1258358 -7205 0
0 0 0 873 1259231 -6332 0
0 0 0 937 1260168 -5395 0
0 0 0 961 1261129 -4434 0
0 0 0 912 1262041 -3522 0
0 0 0 931 1262972 -2591 0
63 1 S102 956 1263928 -1635 0
63 1 S102 983 1264911 -652 0
63 2 S102 957 1265868 305 0
63 2 S102 933 1266801 1238 0
63 2 S102 964 1267765 2202 0
63 2 S102 1005 1268770 3207 0
63 2 S102 1023 1269793 4230 0
63 2 S102 919 1270712 5149 0
63 2 S102 866 1271578 6015 0
63 2 S102 891 1272469 6906 0
0 0 0 989 1273458 -8733 0
0 0 0 1032 1274490 -7701 0
0 0 0 952 1275442 -6749 0
0 0 0 870 1276312 -5879 0
0 0 0 856 1277168 -5023 0
0 0 0 860 1278028 -4163 0
0 0 0 829 1278857 -3334 0
0 0 0 842 1279699 -2492 0
64 1 S112 947 1280646 -1545 0
64 1 S112 1084 1281730 -461 0
64 2 S112 1098 1282828 637 0
64 2 S112 1016 1283844 1653 0
64 2 S112 1073 1284917 2726 0
64 2 S112 1088 1286005 3814 0
64 2 S112 1019 1287024 4833 0
64 2 S112 932 1287956 5765 0
64 2 S112 921 1288877 6686 0
0 0 0 970 1289847 -7961 0
0 0 0 983 1290830 -6978 0
0 0 0 925 1291755 -6053 0
0 0 0 954 1292709 -5099 0
0 0 0 961 1293670 -4138 0
0 0 0 968 1294638 -3170 0
0 0 0 909 1295547 -2261 0
65 1 S106 893 1296440 -1368 0
65 1 S106 937 1297377 -431 0
65 2 S106 1005 1298382 574 0
65 2 S106 1088 1299470 1662 0
65 2 S106 1007 1300477 2669 0
65 2 S106 970 1301447 3639 0
65 2 S106 980 1302427 4619 0
65 2 S106 1029 1303456 5648 0
65 2 S106 1051 1304507 6699 0
0 0 0 984 1305491 -8249 0
0 0 0 938 1306429 -7311 0
0 0 0 1013 1307442 -6298 0
0 0 0 1090 1308532 -5208 0
0 0 0 1052 1309584 -4156 0
0 0 0 903 1310487 -3253 0
0 0 0 804 1311291 -2449 0
66 1 S116 823 1312114 -1626 0
66 1 S116 851 1312965 -775 0
66 2 S116 840 1313805 65 0
66 2 S116 765 1314570 830 0
66 2 S116 864 1315434 1694 0
66 2 S116 927 1316361 2621 0
66 2 S116 1067 1317428 3688 0
66 2 S116 1066 1318494 4754 0
66 2 S116 1024 1319518 5778 0
66 2 S116 992 1320510 6770 0
0 0 0 934 1321444 -10714 0
0 0 0 937 1322381 -9777 0
0 0 0 891 1323272 -8886 0
0 0 0 843 1324115 -8043 0
0 0 0 797 1324912 -7246 0
0 0 0 744 1325656 -6502 0
0 0 0 782 1326438 -5720 0
0 0 0 896 1327334 -4824 0
0 0 0 1263 1328597 -3561 1
0 0 0 1158 1329755 -2403 0
67 1 S102 1049 1330804 -1354 0
67 1 S102 1093 1331897 -261 0
67 2 S102 1118 1333015 857 0
67 2 S102 1052 1334067 1909 0
67 2 S102 967 1335034 2876 0
67 2 S102 983 1336017 3859 0
67 2 S102 1030 1337047 4889 0
67 2 S102 984 1338031 5873 0
67 2 S102 915 1338946 6788 0
0 0 0 952 1339898 -5606 0
0 0 0 995 1340893 -4611 0
0 0 0 961 1341854 -3650 0
0 0 0 893 1342747 -2757 0
68 1 S106 869 1343616 -1888 0
68 1 S106 972 1344588 -916 0
68 2 S106 1151 1345739 235 0
68 2 S106 1128 1346867 1363 0
68 2 S106 1057 1347924 2420 0
68 2 S106 998 1348922 3418 0
68 2 S106 1032 1349954 4450 0
68 2 S106 1059 1351013 5509 0
68 2 S106 1027 1352040 6536 0
0 0 0 948 1352988 -11051 0
0 0 0 926 1353914 -10125 0
0 0 0 979 1354893 -9146 0
0 0 0 967 1355860 -8179 0
0 0 0 913 1356773 -7266 0
0 0 0 861 1357634 -6405 0
0 0 0 877 1358511 -5528 0
0 0 0 913 1359424 -4615 0
0 0 0 998 1360422 -3617 0
0 0 0 1025 1361447 -2592 0
69 1 S102 934 1362381 -1658 0
69 1 S102 872 1363253 -786 0
69 2 S102 897 1364150 111 0
69 2 S102 936 1365086 1047 0
69 2 S102 957 1366043 2004 0
69 2 S102 903 1366946 2907 0
69 2 S102 866 1367812 3773 0
69 2 S102 958 1368770 4731 0
69 2 S102 1060 1369830 5791 0
69 2 S102 1073 1370903 6864 0
0 0 0 961 1371864 -7775 0
0 0 0 868 1372732 -6907 0
0 0 0 827 1373559 -6080 0
0 0 0 804 1374363 -5276 0
0 0 0 813 1375176 -4463 0
0 0 0 725 1375901 -3738 0
0 0 0 773 1376674 -2965 0
0 0 0 840 1377514 -2125 0
70 1 S112 908 1378422 -1217 0
70 1 S112 958 1379380 -259 0
70 2 S112 913 1380293 654 0
70 2 S112 902 1381195 1556 0
70 2 S112 944 1382139 2500 0
70 2 S112 1013 1383152 3513 0
70 2 S112 1070 1384222 4583 0
70 2 S112 976 1385198 5559 0
70 2 S112 936 1386134 6495 0
0 0 0 1006 1387140 -12443 0
0 0 0 1109 1388249 -11334 0
0 0 0 1099 1389348 -10235 0
0 0 0 999 1390347 -9236 0
0 0 0 945 1391292 -8291 0
0 0 0 900 1392192 -7391 0
0 0 0 924 1393116 -6467 0
0 0 0 905 1394021 -5562 0
0 0 0 864 1394885 -4698 0
0 0 0 862 1395747 -3836 0
0 0 0 941 1396688 -2895 0
71 1 S116 1074 1397762 -1821 0
71 1 S116 1061 1398823 -760 0
71 2 S116 993 1399816 233 0
71 2 S116 984 1400800 1217 0
71 2 S116 1002 1401802 2219 0
71 2 S116 965 1402767 3184 0
71 2 S116 957 1403724 4141 0
71 2 S116 952 1404676 5093 0
71 2 S116 934 1405610 6027 0
71 2 S116 880 1406490 6907 0
0 0 0 809 1407299 -9509 0
0 0 0 896 1408195 -8613 0
0 0 0 945 1409140 -7668 0
0 0 0 1085 1410225 -6583 0
0 0 0 1018 1411243 -5565 0
0 0 0 882 1412125 -4683 0
0 0 0 774 1412899 -3909 0
0 0 0 758 1413657 -3151 0
0 0 0 769 1414426 -2382 0
72 1 S102 837 1415263 -1545 0
72 1 S102 872 1416135 -673 0
72 2 S102 837 1416972 164 0
72 2 S102 786 1417758 950 0
72 2 S102 744 1418502 1694 0
72 2 S102 737 1419239 2431 0
72 2 S102 796 1420035 3227 0
72 2 S102 806 1420841 4033 0
72 2 S102 834 1421675 4867 0
72 2 S102 889 1422564 5756 0
72 2 S102 926 1423490 6682 0
0 0 0 945 1424435 -6895 0
0 0 0 917 1425352 -5978 0
0 0 0 924 1426276 -5054 0
0 0 0 860 1427136 -4194 0
0 0 0 814 1427950 -3380 0
0 0 0 856 1428806 -2524 0
73 1 S116 971 1429777 -1553 0
73 1 S116 1137 1430914 -416 0
73 2 S116 1132 1432046 716 0
73 2 S116 1107 1433153 1823 0
73 2 S116 927 1434080 2750 0
73 2 S116 847 1434927 3597 0
73 2 S116 873 1435800 4470 0
73 2 S116 1060 1436860 5530 0
73 2 S116 1140 1438000 6670 0
0 0 0 1122 1439122 -9582 0
0 0 0 1091 1440213 -8491 0
0 0 0 1036 1441249 -7455 0
0 0 0 903 1442152 -6552 0
0 0 0 781 1442933 -5771 0
0 0 0 771 1443704 -5000 0
0 0 0 982 1444686 -4018 0
0 0 0 1117 1445803 -2901 0
74 1 S106 1202 1447005 -1699 1
74 1 S106 1172 1448177 -527 0
74 2 S106 1156 1449333 629 0
74 2 S106 1086 1450419 1715 0
74 2 S106 1124 1451543 2839 0
74 2 S106 1140 1452683 3979 0
74 2 S106 1098 1453781 5077 0
74 2 S106 1025 1454806 6102 0
0 0 0 1076 1455882 -8108 0
0 0 0 1119 1457001 -6989 0
0 0 0 1110 1458111 -5879 0
0 0 0 1118 1459229 -4761 0
0 0 0 1052 1460281 -3709 0
0 0 0 982 1461263 -2727 0
75 1 S112 974 1462237 -1753 0
75 1 S112 1014 1463251 -739 0
75 2 S112 1051 1464302 312 0
75 2 S112 1074 1465376 1386 0
75 2 S112 1091 1466467 2477 0
75 2 S112 1028 1467495 3505 0
75 2 S112 988 1468483 4493 0
75 2 S112 987 1469470 5480 0
75 2 S112 1072 1470542 6552 0
0 0 0 1074 1471616 -7957 0
0 0 0 1020 1472636 -6937 0
0 0 0 956 1473592 -5981 0
0 0 0 1017 1474609 -4964 0
0 0 0 963 1475572 -4001 0
0 0 0 884 1476456 -3117 0
0 0 0 819 1477275 -2298 0
76 1 S116 754 1478029 -1544 0
76 1 S116 816 1478845 -728 0
76 2 S116 911 1479756 183 0
76 2 S116 1031 1480787 1214 0
76 2 S116 1047 1481834 2261 0
76 2 S116 989 1482823 3250 0
76 2 S116 999 1483822 4249 0
76 2 S116 1041 1484863 5290 0
76 2 S116 1057 1485920 6347 0
0 0 0 1007 1486927 -6970 0
0 0 0 928 1487855 -6042 0
0 0 0 940 1488795 -5102 0
0 0 0 932 1489727 -4170 0
0 0 0 924 1490651 -3246 0
0 0 0 892 1491543 -2354 0
77 1 S106 863 1492406 -1491 0
77 1 S106 903 1493309 -588 0
77 2 S106 1000 1494309 412 0
77 2 S106 1083 1495392 1495 0
77 2 S106 1085 1496477 2580 0
77 2 S106 999 1497476 3579 0
77 2 S106 1002 1498478 4581 0
77 2 S106 1019 1499497 5600 0
77 2 S106 1070 1500567 6670 0
0 0 0 1013 1501580 -10553 0
0 0 0 941 1502521 -9612 0
0 0 0 980 1503501 -8632 0
0 0 0 1069 1504570 -7563 0
0 0 0 1046 1505616 -6517 0
0 0 0 905 1506521 -5612 0
0 0 0 862 1507383 -4750 0
0 0 0 873 1508256 -3877 0
0 0 0 924 1509180 -2953 0
0 0 0 920 1510100 -2033 0
78 1 S112 888 1510988 -1145 0
78 1 S112 957 1511945 -188 0
78 2 S112 966 1512911 778 0
78 2 S112 1045 1513956 1823 0
78 2 S112 1002 1514958 2825 0
78 2 S112 867 1515825 3692 0
78 2 S112 824 1516649 4516 0
78 2 S112 888 1517537 5404 0
78 2 S112 984 1518521 6388 0
0 0 0 1062 1519583 -12494 0
0 0 0 1046 1520629 -11448 0
0 0 0 963 1521592 -10485 0
0 0 0 938 1522530 -9547 0
0 0 0 969 1523499 -8578 0
0 0 0 903 1524402 -7675 0
0 0 0 857 1525259 -6818 0
0 0 0 839 1526098 -5979 0
0 0 0 899 1526997 -5080 0
0 0 0 1068 1528065 -4012 0
0 0 0 1093 1529158 -2919 0
79 1 S102 989 1530147 -1930 0
79 1 S102 995 1531142 -935 0
79 2 S102 978 1532120 43 0
79 2 S102 910 1533030 953 0
79 2 S102 902 1533932 1855 0
79 2 S102 911 1534843 2766 0
79 2 S102 944 1535787 3710 0
79 2 S102 945 1536732 4655 0
79 2 S102 922 1537654 5577 0
79 2 S102 955 1538609 6532 0
0 0 0 1028 1539637 -10278 0
0 0 0 1026 1540663 -9252 0
0 0 0 923 1541586 -8329 0
0 0 0 931 1542517 -7398 0
0 0 0 905 1543422 -6493 0
0 0 0 870 1544292 -5623 0
0 0 0 887 1545179 -4736 0
0 0 0 854 1546033 -3882 0
0 0 0 826 1546859 -3056 0
0 0 0 898 1547757 -2158 0
80 1 S116 967 1548724 -1191 0
80 1 S116 975 1549699 -216 0
80 2 S116 963 1550662 747 0
80 2 S116 1038 1551700 1785 0
80 2 S116 1060 1552760 2845 0
80 2 S116 1030 1553790 3875 0
80 2 S116 955 1554745 4830 0
80 2 S116 948 1555693 5778 0
80 2 S116 967 1556660 6745 0
