T_0185
BeatCount Mean SD BeatCountNoOutliers MeanNoOutliers SDNoOutliers
1776 856,805743243243 76,7642154800281 1763 856,496313102666 73,0193540497587

Trial TrialStatus Trialtype IBI AbsPosition RelPosition Outlier
0 0 0 849 1769 -14009 0
0 0 0 870 2639 -13139 0
0 0 0 826 3465 -12313 0
0 0 0 843 4308 -11470 0
0 0 0 885 5193 -10585 0
0 0 0 854 6047 -9731 0
0 0 0 797 6844 -8934 0
0 0 0 799 7643 -8135 0
0 0 0 786 8429 -7349 0
0 0 0 818 9247 -6531 0
0 0 0 878 10125 -5653 0
0 0 0 867 10992 -4786 0
0 0 0 864 11856 -3922 0
0 0 0 874 12730 -3048 0
0 0 0 847 13577 -2201 0
1 1 S112 846 14423 -1355 0
1 1 S112 809 15232 -546 0
1 2 S112 753 15985 207 0
1 2 S112 751 16736 958 0
1 2 S112 757 17493 1715 0
1 2 S112 786 18279 2501 0
1 2 S112 852 19131 3353 0
1 2 S112 889 20020 4242 0
1 2 S112 935 20955 5177 0
1 2 S112 930 21885 6107 0
1 2 S112 912 22797 7019 0
0 0 0 890 23687 -11620 0
0 0 0 844 24531 -10776 0
0 0 0 808 25339 -9968 0
0 0 0 804 26143 -9164 0
0 0 0 777 26920 -8387 0
0 0 0 770 27690 -7617 0
0 0 0 758 28448 -6859 0
0 0 0 782 29230 -6077 0
0 0 0 802 30032 -5275 0
0 0 0 847 30879 -4428 0
0 0 0 891 31770 -3537 0
0 0 0 841 32611 -2696 0
2 1 S102 816 33427 -1880 0
2 1 S102 825 34252 -1055 0
2 1 S102 847 35099 -208 0
2 2 S102 875 35974 667 0
2 2 S102 851 36825 1518 0
2 2 S102 780 37605 2298 0
2 2 S102 760 38365 3058 0
2 2 S102 753 39118 3811 0
2 2 S102 830 39948 4641 0
2 2 S102 927 40875 5568 0
2 2 S102 907 41782 6475 0
0 0 0 889 42671 -8270 0
0 0 0 949 43620 -7321 0
0 0 0 939 44559 -6382 0
0 0 0 901 45460 -5481 0
0 0 0 845 46305 -4636 0
0 0 0 896 47201 -3740 0
0 0 0 902 48103 -2838 0
3 1 S116 905 49008 -1933 0
3 1 S116 854 49862 -1079 0
3 1 S116 859 50721 -220 0
3 2 S116 857 51578 637 0
3 2 S116 885 52463 1522 0
3 2 S116 880 53343 2402 0
3 2 S116 856 54199 3258 0
3 2 S116 855 55054 4113 0
3 2 S116 849 55903 4962 0
3 2 S116 857 56760 5819 0
3 2 S116 839 57599 6658 0
0 0 0 809 58408 -10802 0
0 0 0 803 59211 -9999 0
0 0 0 809 60020 -9190 0
0 0 0 807 60827 -8383 0
0 0 0 797 61624 -7586 0
0 0 0 793 62417 -6793 0
0 0 0 834 63251 -5959 0
0 0 0 872 64123 -5087 0
0 0 0 875 64998 -4212 0
0 0 0 821 65819 -3391 0
0 0 0 830 66649 -2561 0
4 1 S106 819 67468 -1742 0
4 1 S106 832 68300 -910 0
4 1 S106 824 69124 -86 0
4 2 S106 786 69910 700 0
4 2 S106 801 70711 1501 0
4 2 S106 835 71546 2336 0
4 2 S106 922 72468 3258 0
4 2 S106 921 73389 4179 0
4 2 S106 877 74266 5056 0
4 2 S106 937 75203 5993 0
4 2 S106 960 76163 6953 0
0 0 0 946 77109 -6972 0
0 0 0 877 77986 -6095 0
0 0 0 916 78902 -5179 0
0 0 0 887 79789 -4292 0
0 0 0 865 80654 -3427 0
0 0 0 823 81477 -2604 0
5 1 S116 842 82319 -1762 0
5 1 S116 831 83150 -931 0
5 1 S116 845 83995 -86 0
5 2 S116 819 84814 733 0
5 2 S116 793 85607 1526 0
5 2 S116 873 86480 2399 0
5 2 S116 872 87352 3271 0
5 2 S116 802 88154 4073 0
5 2 S116 844 88998 4917 0
5 2 S116 844 89842 5761 0
5 2 S116 854 90696 6615 0
0 0 0 869 91565 -9343 0
0 0 0 838 92403 -8505 0
0 0 0 830 93233 -7675 0
0 0 0 880 94113 -6795 0
0 0 0 902 95015 -5893 0
0 0 0 959 95974 -4934 0
0 0 0 869 96843 -4065 0
0 0 0 952 97795 -3113 0
0 0 0 974 98769 -2139 0
6 1 S106 986 99755 -1153 0
6 1 S106 933 100688 -220 0
6 2 S106 852 101540 632 0
6 2 S106 876 102416 1508 0
6 2 S106 827 103243 2335 0
6 2 S106 793 104036 3128 0
6 2 S106 794 104830 3922 0
6 2 S106 810 105640 4732 0
6 2 S106 822 106462 5554 0
6 2 S106 860 107322 6414 0
0 0 0 854 108176 -11864 0
0 0 0 855 109031 -11009 0
0 0 0 812 109843 -10197 0
0 0 0 823 110666 -9374 0
0 0 0 834 111500 -8540 0
0 0 0 825 112325 -7715 0
0 0 0 843 113168 -6872 0
0 0 0 852 114020 -6020 0
0 0 0 858 114878 -5162 0
0 0 0 854 115732 -4308 0
0 0 0 836 116568 -3472 0
0 0 0 850 117418 -2622 0
7 1 S102 846 118264 -1776 0
7 1 S102 831 119095 -945 0
7 1 S102 847 119942 -98 0
7 2 S102 880 120822 782 0
7 2 S102 921 121743 1703 0
7 2 S102 907 122650 2610 0
7 2 S102 914 123564 3524 0
7 2 S102 903 124467 4427 0
7 2 S102 908 125375 5335 0
7 2 S102 874 126249 6209 0
0 0 0 822 127071 -9116 0
0 0 0 877 127948 -8239 0
0 0 0 879 128827 -7360 0
0 0 0 929 129756 -6431 0
0 0 0 919 130675 -5512 0
0 0 0 873 131548 -4639 0
0 0 0 952 132500 -3687 0
0 0 0 979 133479 -2708 0
8 1 S112 994 134473 -1714 0
8 1 S112 896 135369 -818 0
8 2 S112 889 136258 71 0
8 2 S112 852 137110 923 0
8 2 S112 870 137980 1793 0
8 2 S112 865 138845 2658 0
8 2 S112 850 139695 3508 0
8 2 S112 883 140578 4391 0
8 2 S112 966 141544 5357 0
8 2 S112 1011 142555 6368 0
0 0 0 998 143553 -8400 0
0 0 0 1001 144554 -7399 0
0 0 0 933 145487 -6466 0
0 0 0 887 146374 -5579 0
0 0 0 915 147289 -4664 0
0 0 0 902 148191 -3762 0
0 0 0 890 149081 -2872 0
0 0 0 847 149928 -2025 0
9 1 S116 882 150810 -1143 0
9 1 S116 896 151706 -247 0
9 2 S116 916 152622 669 0
9 2 S116 886 153508 1555 0
9 2 S116 927 154435 2482 0
9 2 S116 939 155374 3421 0
9 2 S116 937 156311 4358 0
9 2 S116 871 157182 5229 0
9 2 S116 873 158055 6102 0
9 2 S116 853 158908 6955 0
0 0 0 883 159791 -12736 0
0 0 0 869 160660 -11867 0
0 0 0 893 161553 -10974 0
0 0 0 932 162485 -10042 0
0 0 0 1002 163487 -9040 0
0 0 0 902 164389 -8138 0
0 0 0 899 165288 -7239 0
0 0 0 922 166210 -6317 0
0 0 0 931 167141 -5386 0
0 0 0 893 168034 -4493 0
0 0 0 844 168878 -3649 0
0 0 0 892 169770 -2757 0
10 1 S102 898 170668 -1859 0
10 1 S102 892 171560 -967 0
10 1 S102 843 172403 -124 0
10 2 S102 853 173256 729 0
10 2 S102 880 174136 1609 0
10 2 S102 929 175065 2538 0
10 2 S102 944 176009 3482 0
10 2 S102 919 176928 4401 0
10 2 S102 839 177767 5240 0
10 2 S102 872 178639 6112 0
10 2 S102 854 179493 6966 0
0 0 0 869 180362 -10335 0
0 0 0 884 181246 -9451 0
0 0 0 879 182125 -8572 0
0 0 0 837 182962 -7735 0
0 0 0 800 183762 -6935 0
0 0 0 733 184495 -6202 0
0 0 0 790 185285 -5412 0
0 0 0 792 186077 -4620 0
0 0 0 842 186919 -3778 0
0 0 0 872 187791 -2906 0
0 0 0 861 188652 -2045 0
11 1 S112 837 189489 -1208 0
11 1 S112 797 190286 -411 0
11 2 S112 769 191055 358 0
11 2 S112 725 191780 1083 0
11 2 S112 712 192492 1795 0
11 2 S112 727 193219 2522 0
11 2 S112 760 193979 3282 0
11 2 S112 892 194871 4174 0
11 2 S112 1016 195887 5190 0
11 2 S112 1021 196908 6211 0
0 0 0 1029 197937 -8327 0
0 0 0 1020 198957 -7307 0
0 0 0 1017 199974 -6290 0
0 0 0 1025 200999 -5265 0
0 0 0 983 201982 -4282 0
0 0 0 943 202925 -3339 0
0 0 0 905 203830 -2434 0
12 1 S116 875 204705 -1559 0
12 1 S116 857 205562 -702 0
12 2 S116 864 206426 162 0
12 2 S116 818 207244 980 0
12 2 S116 840 208084 1820 0
12 2 S116 843 208927 2663 0
12 2 S116 803 209730 3466 0
12 2 S116 833 210563 4299 0
12 2 S116 873 211436 5172 0
12 2 S116 952 212388 6124 0
0 0 0 947 213335 -13237 0
0 0 0 918 214253 -12319 0
0 0 0 956 215209 -11363 0
0 0 0 962 216171 -10401 0
0 0 0 916 217087 -9485 0
0 0 0 898 217985 -8587 0
0 0 0 852 218837 -7735 0
0 0 0 823 219660 -6912 0
0 0 0 769 220429 -6143 0
0 0 0 778 221207 -5365 0
0 0 0 794 222001 -4571 0
0 0 0 840 222841 -3731 0
0 0 0 873 223714 -2858 0
0 0 0 850 224564 -2008 0
13 1 S112 891 225455 -1117 0
13 1 S112 917 226372 -200 0
13 2 S112 883 227255 683 0
13 2 S112 879 228134 1562 0
13 2 S112 914 229048 2476 0
13 2 S112 919 229967 3395 0
13 2 S112 890 230857 4285 0
13 2 S112 827 231684 5112 0
13 2 S112 824 232508 5936 0
13 2 S112 842 233350 6778 0
0 0 0 882 234232 -12981 0
0 0 0 900 235132 -12081 0
0 0 0 889 236021 -11192 0
0 0 0 889 236910 -10303 0
0 0 0 894 237804 -9409 0
0 0 0 904 238708 -8505 0
0 0 0 845 239553 -7660 0
0 0 0 818 240371 -6842 0
0 0 0 778 241149 -6064 0
0 0 0 782 241931 -5282 0
0 0 0 787 242718 -4495 0
0 0 0 829 243547 -3666 0
0 0 0 868 244415 -2798 0
14 1 S106 878 245293 -1920 0
14 1 S106 878 246171 -1042 0
14 1 S106 829 247000 -213 0
14 2 S106 759 247759 546 0
14 2 S106 745 248504 1291 0
14 2 S106 738 249242 2029 0
14 2 S106 728 249970 2757 0
14 2 S106 715 250685 3472 0
14 2 S106 743 251428 4215 0
14 2 S106 760 252188 4975 0
14 2 S106 739 252927 5714 0
14 2 S106 759 253686 6473 0
0 0 0 765 254451 -9871 0
0 0 0 798 255249 -9073 0
0 0 0 803 256052 -8270 0
0 0 0 807 256859 -7463 0
0 0 0 782 257641 -6681 0
0 0 0 789 258430 -5892 0
0 0 0 793 259223 -5099 0
0 0 0 832 260055 -4267 0
0 0 0 871 260926 -3396 0
0 0 0 895 261821 -2501 0
15 1 S116 908 262729 -1593 0
15 1 S116 854 263583 -739 0
15 2 S116 857 264440 118 0
15 2 S116 849 265289 967 0
15 2 S116 899 266188 1866 0
15 2 S116 910 267098 2776 0
15 2 S116 883 267981 3659 0
15 2 S116 921 268902 4580 0
15 2 S116 946 269848 5526 0
15 2 S116 929 270777 6455 0
0 0 0 913 271690 -8033 0
0 0 0 875 272565 -7158 0
0 0 0 853 273418 -6305 0
0 0 0 831 274249 -5474 0
0 0 0 829 275078 -4645 0
0 0 0 810 275888 -3835 0
0 0 0 837 276725 -2998 0
0 0 0 880 277605 -2118 0
16 1 S116 936 278541 -1182 0
16 1 S116 910 279451 -272 0
16 2 S116 855 280306 583 0
16 2 S116 885 281191 1468 0
16 2 S116 912 282103 2380 0
16 2 S116 879 282982 3259 0
16 2 S116 836 283818 4095 0
16 2 S116 831 284649 4926 0
16 2 S116 817 285466 5743 0
16 2 S116 822 286288 6565 0
0 0 0 808 287096 -9553 0
0 0 0 810 287906 -8743 0
0 0 0 834 288740 -7909 0
0 0 0 858 289598 -7051 0
0 0 0 843 290441 -6208 0
0 0 0 802 291243 -5406 0
0 0 0 826 292069 -4580 0
0 0 0 833 292902 -3747 0
0 0 0 825 293727 -2922 0
0 0 0 804 294531 -2118 0
17 1 S106 808 295339 -1310 0
17 1 S106 806 296145 -504 0
17 2 S106 817 296962 313 0
17 2 S106 802 297764 1115 0
17 2 S106 834 298598 1949 0
17 2 S106 845 299443 2794 0
17 2 S106 873 300316 3667 0
17 2 S106 906 301222 4573 0
17 2 S106 853 302075 5426 0
17 2 S106 856 302931 6282 0
0 0 0 849 303780 -10525 0
0 0 0 876 304656 -9649 0
0 0 0 831 305487 -8818 0
0 0 0 831 306318 -7987 0
0 0 0 834 307152 -7153 0
0 0 0 838 307990 -6315 0
0 0 0 795 308785 -5520 0
0 0 0 789 309574 -4731 0
0 0 0 802 310376 -3929 0
0 0 0 822 311198 -3107 0
0 0 0 825 312023 -2282 0
18 1 S102 785 312808 -1497 0
18 1 S102 797 313605 -700 0
18 2 S102 806 314411 106 0
18 2 S102 812 315223 918 0
18 2 S102 824 316047 1742 0
18 2 S102 804 316851 2546 0
18 2 S102 767 317618 3313 0
18 2 S102 753 318371 4066 0
18 2 S102 754 319125 4820 0
18 2 S102 794 319919 5614 0
18 2 S102 848 320767 6462 0
0 0 0 863 321630 -7679 0
0 0 0 893 322523 -6786 0
0 0 0 912 323435 -5874 0
0 0 0 889 324324 -4985 0
0 0 0 862 325186 -4123 0
0 0 0 839 326025 -3284 0
0 0 0 839 326864 -2445 0
19 1 S106 852 327716 -1593 0
19 1 S106 882 328598 -711 0
19 2 S106 849 329447 138 0
19 2 S106 818 330265 956 0
19 2 S106 831 331096 1787 0
19 2 S106 855 331951 2642 0
19 2 S106 897 332848 3539 0
19 2 S106 930 333778 4469 0
19 2 S106 951 334729 5420 0
19 2 S106 915 335644 6335 0
0 0 0 856 336500 -10084 0
0 0 0 866 337366 -9218 0
0 0 0 844 338210 -8374 0
0 0 0 840 339050 -7534 0
0 0 0 828 339878 -6706 0
0 0 0 793 340671 -5913 0
0 0 0 776 341447 -5137 0
0 0 0 743 342190 -4394 0
0 0 0 763 342953 -3631 0
0 0 0 796 343749 -2835 0
0 0 0 811 344560 -2024 0
20 1 S112 778 345338 -1246 0
20 1 S112 745 346083 -501 0
20 2 S112 730 346813 229 0
20 2 S112 716 347529 945 0
20 2 S112 709 348238 1654 0
20 2 S112 689 348927 2343 0
20 2 S112 679 349606 3022 0
20 2 S112 688 350294 3710 0
20 2 S112 700 350994 4410 0
20 2 S112 746 351740 5156 0
20 2 S112 803 352543 5959 0
20 2 S112 857 353400 6816 0
0 0 0 876 354276 -9151 0
0 0 0 886 355162 -8265 0
0 0 0 905 356067 -7360 0
0 0 0 882 356949 -6478 0
0 0 0 859 357808 -5619 0
0 0 0 870 358678 -4749 0
0 0 0 849 359527 -3900 0
0 0 0 834 360361 -3066 0
0 0 0 834 361195 -2232 0
21 1 S106 807 362002 -1425 0
21 1 S106 824 362826 -601 0
21 2 S106 821 363647 220 0
21 2 S106 874 364521 1094 0
21 2 S106 899 365420 1993 0
21 2 S106 907 366327 2900 0
21 2 S106 950 367277 3850 0
21 2 S106 971 368248 4821 0
21 2 S106 960 369208 5781 0
21 2 S106 897 370105 6678 0
0 0 0 836 370941 -11037 0
0 0 0 834 371775 -10203 0
0 0 0 881 372656 -9322 0
0 0 0 909 373565 -8413 0
0 0 0 920 374485 -7493 0
0 0 0 862 375347 -6631 0
0 0 0 893 376240 -5738 0
0 0 0 885 377125 -4853 0
0 0 0 877 378002 -3976 0
0 0 0 839 378841 -3137 0
0 0 0 835 379676 -2302 0
22 1 S116 840 380516 -1462 0
22 1 S116 827 381343 -635 0
22 2 S116 812 382155 177 0
22 2 S116 838 382993 1015 0
22 2 S116 931 383924 1946 0
22 2 S116 904 384828 2850 0
22 2 S116 873 385701 3723 0
22 2 S116 889 386590 4612 0
22 2 S116 904 387494 5516 0
22 2 S116 912 388406 6428 0
0 0 0 905 389311 -9329 0
0 0 0 868 390179 -8461 0
0 0 0 815 390994 -7646 0
0 0 0 814 391808 -6832 0
0 0 0 793 392601 -6039 0
0 0 0 812 393413 -5227 0
0 0 0 805 394218 -4422 0
0 0 0 845 395063 -3577 0
0 0 0 892 395955 -2685 0
23 1 S112 891 396846 -1794 0
23 1 S112 893 397739 -901 0
23 1 S112 830 398569 -71 0
23 2 S112 827 399396 756 0
23 2 S112 842 400238 1598 0
23 2 S112 893 401131 2491 0
23 2 S112 912 402043 3403 0
23 2 S112 897 402940 4300 0
23 2 S112 834 403774 5134 0
23 2 S112 837 404611 5971 0
23 2 S112 834 405445 6805 0
0 0 0 862 406307 -9425 0
0 0 0 876 407183 -8549 0
0 0 0 859 408042 -7690 0
0 0 0 882 408924 -6808 0
0 0 0 874 409798 -5934 0
0 0 0 910 410708 -5024 0
0 0 0 919 411627 -4105 0
0 0 0 870 412497 -3235 0
0 0 0 838 413335 -2397 0
24 1 S106 846 414181 -1551 0
24 1 S106 840 415021 -711 0
24 2 S106 871 415892 160 0
24 2 S106 841 416733 1001 0
24 2 S106 834 417567 1835 0
24 2 S106 868 418435 2703 0
24 2 S106 897 419332 3600 0
24 2 S106 902 420234 4502 0
24 2 S106 860 421094 5362 0
24 2 S106 866 421960 6228 0
0 0 0 875 422835 -9028 0
0 0 0 888 423723 -8140 0
0 0 0 877 424600 -7263 0
0 0 0 838 425438 -6425 0
0 0 0 801 426239 -5624 0
0 0 0 745 426984 -4879 0
0 0 0 730 427714 -4149 0
0 0 0 736 428450 -3413 0
0 0 0 757 429207 -2656 0
25 1 S102 817 430024 -1839 0
25 1 S102 844 430868 -995 0
25 1 S102 830 431698 -165 0
25 2 S102 803 432501 638 0
25 2 S102 827 433328 1465 0
25 2 S102 849 434177 2314 0
25 2 S102 863 435040 3177 0
25 2 S102 846 435886 4023 0
25 2 S102 816 436702 4839 0
25 2 S102 781 437483 5620 0
25 2 S102 777 438260 6397 0
0 0 0 780 439040 -6003 0
0 0 0 790 439830 -5213 0
0 0 0 785 440615 -4428 0
0 0 0 771 441386 -3657 0
0 0 0 808 442194 -2849 0
0 0 0 837 443031 -2012 0
26 1 S116 898 443929 -1114 0
26 1 S116 913 444842 -201 0
26 2 S116 954 445796 753 0
26 2 S116 981 446777 1734 0
26 2 S116 977 447754 2711 0
26 2 S116 939 448693 3650 0
26 2 S116 888 449581 4538 0
26 2 S116 871 450452 5409 0
26 2 S116 835 451287 6244 0
0 0 0 845 452132 -7798 0
0 0 0 860 452992 -6938 0
0 0 0 828 453820 -6110 0
0 0 0 808 454628 -5302 0
0 0 0 818 455446 -4484 0
0 0 0 818 456264 -3666 0
0 0 0 852 457116 -2814 0
0 0 0 813 457929 -2001 0
27 1 S106 847 458776 -1154 0
27 1 S106 856 459632 -298 0
27 2 S106 902 460534 604 0
27 2 S106 857 461391 1461 0
27 2 S106 812 462203 2273 0
27 2 S106 820 463023 3093 0
27 2 S106 825 463848 3918 0
27 2 S106 837 464685 4755 0
27 2 S106 801 465486 5556 0
27 2 S106 799 466285 6355 0
0 0 0 813 467098 -7023 0
0 0 0 886 467984 -6137 0
0 0 0 910 468894 -5227 0
0 0 0 890 469784 -4337 0
0 0 0 892 470676 -3445 0
0 0 0 910 471586 -2535 0
28 1 S102 864 472450 -1671 0
28 1 S102 883 473333 -788 0
28 2 S102 864 474197 76 0
28 2 S102 846 475043 922 0
28 2 S102 790 475833 1712 0
28 2 S102 790 476623 2502 0
28 2 S102 797 477420 3299 0
28 2 S102 856 478276 4155 0
28 2 S102 884 479160 5039 0
28 2 S102 870 480030 5909 0
28 2 S102 878 480908 6787 0
0 0 0 919 481827 -9950 0
0 0 0 923 482750 -9027 0
0 0 0 898 483648 -8129 0
0 0 0 877 484525 -7252 0
0 0 0 862 485387 -6390 0
0 0 0 868 486255 -5522 0
0 0 0 820 487075 -4702 0
0 0 0 783 487858 -3919 0
0 0 0 736 488594 -3183 0
0 0 0 717 489311 -2466 0
29 1 S112 707 490018 -1759 0
29 1 S112 701 490719 -1058 0
29 1 S112 685 491404 -373 0
29 2 S112 688 492092 315 0
29 2 S112 710 492802 1025 0
29 2 S112 729 493531 1754 0
29 2 S112 779 494310 2533 0
29 2 S112 836 495146 3369 0
29 2 S112 862 496008 4231 0
29 2 S112 843 496851 5074 0
29 2 S112 792 497643 5866 0
29 2 S112 763 498406 6629 0
0 0 0 766 499172 -7725 0
0 0 0 772 499944 -6953 0
0 0 0 810 500754 -6143 0
0 0 0 884 501638 -5259 0
0 0 0 927 502565 -4332 0
0 0 0 951 503516 -3381 0
0 0 0 937 504453 -2444 0
30 1 S112 964 505417 -1480 0
30 1 S112 981 506398 -499 0
30 2 S112 985 507383 486 0
30 2 S112 931 508314 1417 0
30 2 S112 913 509227 2330 0
30 2 S112 904 510131 3234 0
30 2 S112 907 511038 4141 0
30 2 S112 893 511931 5034 0
30 2 S112 884 512815 5918 0
30 2 S112 874 513689 6792 0
0 0 0 815 514504 -8043 0
0 0 0 790 515294 -7253 0
0 0 0 788 516082 -6465 0
0 0 0 822 516904 -5643 0
0 0 0 895 517799 -4748 0
0 0 0 980 518779 -3768 0
0 0 0 888 519667 -2880 0
31 1 S106 948 520615 -1932 0
31 1 S106 969 521584 -963 0
31 2 S106 969 522553 6 0
31 2 S106 893 523446 899 0
31 2 S106 871 524317 1770 0
31 2 S106 853 525170 2623 0
31 2 S106 862 526032 3485 0
31 2 S106 850 526882 4335 0
31 2 S106 841 527723 5176 0
31 2 S106 909 528632 6085 0
0 0 0 980 529612 -10209 0
0 0 0 1007 530619 -9202 0
0 0 0 932 531551 -8270 0
0 0 0 998 532549 -7272 0
0 0 0 972 533521 -6300 0
0 0 0 922 534443 -5378 0
0 0 0 845 535288 -4533 0
0 0 0 837 536125 -3696 0
0 0 0 821 536946 -2875 0
0 0 0 824 537770 -2051 0
32 1 S102 795 538565 -1256 0
32 1 S102 819 539384 -437 0
32 2 S102 859 540243 422 0
32 2 S102 936 541179 1358 0
32 2 S102 944 542123 2302 0
32 2 S102 925 543048 3227 0
32 2 S102 966 544014 4193 0
32 2 S102 984 544998 5177 0
32 2 S102 981 545979 6158 0
0 0 0 920 546899 -10064 0
0 0 0 897 547796 -9167 0
0 0 0 875 548671 -8292 0
0 0 0 884 549555 -7408 0
0 0 0 923 550478 -6485 0
0 0 0 888 551366 -5597 0
0 0 0 948 552314 -4649 0
0 0 0 971 553285 -3678 0
0 0 0 969 554254 -2709 0
33 1 S112 906 555160 -1803 0
33 1 S112 930 556090 -873 0
33 2 S112 911 557001 38 0
33 2 S112 916 557917 954 0
33 2 S112 879 558796 1833 0
33 2 S112 924 559720 2757 0
33 2 S112 964 560684 3721 0
33 2 S112 1031 561715 4752 0
33 2 S112 1063 562778 5815 1
33 2 S112 949 563727 6764 0
0 0 0 947 564674 -11835 0
0 0 0 966 565640 -10869 0
0 0 0 946 566586 -9923 0
0 0 0 936 567522 -8987 0
0 0 0 877 568399 -8110 0
0 0 0 902 569301 -7208 0
0 0 0 956 570257 -6252 0
0 0 0 913 571170 -5339 0
0 0 0 947 572117 -4392 0
0 0 0 937 573054 -3455 0
0 0 0 843 573897 -2612 0
34 1 S106 793 574690 -1819 0
34 1 S106 766 575456 -1053 0
34 1 S106 771 576227 -282 0
34 2 S106 761 576988 479 0
34 2 S106 751 577739 1230 0
34 2 S106 732 578471 1962 0
34 2 S106 723 579194 2685 0
34 2 S106 740 579934 3425 0
34 2 S106 757 580691 4182 0
34 2 S106 778 581469 4960 0
34 2 S106 770 582239 5730 0
34 2 S106 782 583021 6512 0
0 0 0 794 583815 -8792 0
0 0 0 837 584652 -7955 0
0 0 0 880 585532 -7075 0
0 0 0 818 586350 -6257 0
0 0 0 805 587155 -5452 0
0 0 0 813 587968 -4639 0
0 0 0 834 588802 -3805 0
0 0 0 871 589673 -2934 0
0 0 0 919 590592 -2015 0
35 1 S102 905 591497 -1110 0
35 1 S102 857 592354 -253 0
35 2 S102 850 593204 597 0
35 2 S102 856 594060 1453 0
35 2 S102 891 594951 2344 0
35 2 S102 867 595818 3211 0
35 2 S102 845 596663 4056 0
35 2 S102 813 597476 4869 0
35 2 S102 827 598303 5696 0
35 2 S102 855 599158 6551 0
0 0 0 871 600029 -5824 0
0 0 0 870 600899 -4954 0
0 0 0 841 601740 -4113 0
0 0 0 789 602529 -3324 0
0 0 0 754 603283 -2570 0
36 1 S106 748 604031 -1822 0
36 1 S106 751 604782 -1071 0
36 1 S106 764 605546 -307 0
36 2 S106 800 606346 493 0
36 2 S106 779 607125 1272 0
36 2 S106 756 607881 2028 0
36 2 S106 768 608649 2796 0
36 2 S106 771 609420 3567 0
36 2 S106 763 610183 4330 0
36 2 S106 770 610953 5100 0
36 2 S106 763 611716 5863 0
36 2 S106 772 612488 6635 0
0 0 0 781 613269 -10688 0
0 0 0 767 614036 -9921 0
0 0 0 787 614823 -9134 0
0 0 0 818 615641 -8316 0
0 0 0 894 616535 -7422 0
0 0 0 895 617430 -6527 0
0 0 0 822 618252 -5705 0
0 0 0 839 619091 -4866 0
0 0 0 797 619888 -4069 0
0 0 0 759 620647 -3310 0
0 0 0 756 621403 -2554 0
37 1 S116 771 622174 -1783 0
37 1 S116 746 622920 -1037 0
37 1 S116 704 623624 -333 0
37 2 S116 692 624316 359 0
37 2 S116 684 625000 1043 0
37 2 S116 694 625694 1737 0
37 2 S116 711 626405 2448 0
37 2 S116 735 627140 3183 0
37 2 S116 741 627881 3924 0
37 2 S116 740 628621 4664 0
37 2 S116 753 629374 5417 0
37 2 S116 775 630149 6192 0
37 2 S116 828 630977 7020 0
0 0 0 874 631851 -10839 0
0 0 0 845 632696 -9994 0
0 0 0 911 633607 -9083 0
0 0 0 914 634521 -8169 0
0 0 0 904 635425 -7265 0
0 0 0 867 636292 -6398 0
0 0 0 839 637131 -5559 0
0 0 0 850 637981 -4709 0
0 0 0 873 638854 -3836 0
0 0 0 901 639755 -2935 0
0 0 0 905 640660 -2030 0
38 1 S102 864 641524 -1166 0
38 1 S102 843 642367 -323 0
38 2 S102 865 643232 542 0
38 2 S102 901 644133 1443 0
38 2 S102 948 645081 2391 0
38 2 S102 919 646000 3310 0
38 2 S102 939 646939 4249 0
38 2 S102 906 647845 5155 0
38 2 S102 870 648715 6025 0
38 2 S102 889 649604 6914 0
0 0 0 897 650501 -8536 0
0 0 0 953 651454 -7583 0
0 0 0 912 652366 -6671 0
0 0 0 838 653204 -5833 0
0 0 0 780 653984 -5053 0
0 0 0 726 654710 -4327 0
0 0 0 741 655451 -3586 0
0 0 0 740 656191 -2846 0
0 0 0 778 656969 -2068 0
39 1 S116 843 657812 -1225 0
39 1 S116 830 658642 -395 0
39 2 S116 816 659458 421 0
39 2 S116 781 660239 1202 0
39 2 S116 762 661001 1964 0
39 2 S116 780 661781 2744 0
39 2 S116 813 662594 3557 0
39 2 S116 859 663453 4416 0
39 2 S116 909 664362 5325 0
39 2 S116 929 665291 6254 0
0 0 0 933 666224 -6225 0
0 0 0 951 667175 -5274 0
0 0 0 913 668088 -4361 0
0 0 0 912 669000 -3449 0
0 0 0 843 669843 -2606 0
40 1 S112 836 670679 -1770 0
40 1 S112 818 671497 -952 0
40 1 S112 826 672323 -126 0
40 2 S112 910 673233 784 0
40 2 S112 1099 674332 1883 1
40 2 S112 1055 675387 2938 1
40 2 S112 1067 676454 4005 1
40 2 S112 1063 677517 5068 1
40 2 S112 1024 678541 6092 0
0 0 0 1001 679542 -188300 0
0 0 0 967 680509 -187333 0
0 0 0 901 681410 -186432 0
0 0 0 854 682264 -185578 0
0 0 0 800 683064 -184778 0
0 0 0 767 683831 -184011 0
0 0 0 760 684591 -183251 0
0 0 0 766 685357 -182485 0
0 0 0 842 686199 -181643 0
0 0 0 821 687020 -180822 0
0 0 0 807 687827 -180015 0
0 0 0 772 688599 -179243 0
0 0 0 741 689340 -178502 0
0 0 0 730 690070 -177772 0
0 0 0 714 690784 -177058 0
0 0 0 707 691491 -176351 0
0 0 0 688 692179 -175663 0
0 0 0 675 692854 -174988 0
0 0 0 675 693529 -174313 0
0 0 0 682 694211 -173631 0
0 0 0 708 694919 -172923 0
0 0 0 790 695709 -172133 0
0 0 0 834 696543 -171299 0
0 0 0 896 697439 -170403 0
0 0 0 902 698341 -169501 0
0 0 0 918 699259 -168583 0
0 0 0 886 700145 -167697 0
0 0 0 885 701030 -166812 0
0 0 0 876 701906 -165936 0
0 0 0 865 702771 -165071 0
0 0 0 848 703619 -164223 0
0 0 0 834 704453 -163389 0
0 0 0 825 705278 -162564 0
0 0 0 824 706102 -161740 0
0 0 0 812 706914 -160928 0
0 0 0 815 707729 -160113 0
0 0 0 797 708526 -159316 0
0 0 0 804 709330 -158512 0
0 0 0 818 710148 -157694 0
0 0 0 806 710954 -156888 0
0 0 0 816 711770 -156072 0
0 0 0 815 712585 -155257 0
0 0 0 798 713383 -154459 0
0 0 0 782 714165 -153677 0
0 0 0 774 714939 -152903 0
0 0 0 788 715727 -152115 0
0 0 0 799 716526 -151316 0
0 0 0 793 717319 -150523 0
0 0 0 823 718142 -149700 0
0 0 0 841 718983 -148859 0
0 0 0 872 719855 -147987 0
0 0 0 893 720748 -147094 0
0 0 0 832 721580 -146262 0
0 0 0 783 722363 -145479 0
0 0 0 756 723119 -144723 0
0 0 0 729 723848 -143994 0
0 0 0 713 724561 -143281 0
0 0 0 710 725271 -142571 0
0 0 0 699 725970 -141872 0
0 0 0 686 726656 -141186 0
0 0 0 676 727332 -140510 0
0 0 0 661 727993 -139849 0
0 0 0 649 728642 -139200 1
0 0 0 634 729276 -138566 1
0 0 0 623 729899 -137943 1
0 0 0 608 730507 -137335 1
0 0 0 610 731117 -136725 1
0 0 0 613 731730 -136112 1
0 0 0 659 732389 -135453 0
0 0 0 834 733223 -134619 0
0 0 0 906 734129 -133713 0
0 0 0 887 735016 -132826 0
0 0 0 1025 736041 -131801 0
0 0 0 1032 737073 -130769 0
0 0 0 1016 738089 -129753 0
0 0 0 1012 739101 -128741 0
0 0 0 999 740100 -127742 0
0 0 0 946 741046 -126796 0
0 0 0 937 741983 -125859 0
0 0 0 901 742884 -124958 0
0 0 0 887 743771 -124071 0
0 0 0 896 744667 -123175 0
0 0 0 860 745527 -122315 0
0 0 0 827 746354 -121488 0
0 0 0 801 747155 -120687 0
0 0 0 787 747942 -119900 0
0 0 0 801 748743 -119099 0
0 0 0 892 749635 -118207 0
0 0 0 958 750593 -117249 0
0 0 0 986 751579 -116263 0
0 0 0 955 752534 -115308 0
0 0 0 877 753411 -114431 0
0 0 0 843 754254 -113588 0
0 0 0 857 755111 -112731 0
0 0 0 893 756004 -111838 0
0 0 0 943 756947 -110895 0
0 0 0 947 757894 -109948 0
0 0 0 920 758814 -109028 0
0 0 0 901 759715 -108127 0
0 0 0 874 760589 -107253 0
0 0 0 850 761439 -106403 0
0 0 0 837 762276 -105566 0
0 0 0 865 763141 -104701 0
0 0 0 882 764023 -103819 0
0 0 0 891 764914 -102928 0
0 0 0 840 765754 -102088 0
0 0 0 827 766581 -101261 0
0 0 0 810 767391 -100451 0
0 0 0 789 768180 -99662 0
0 0 0 764 768944 -98898 0
0 0 0 740 769684 -98158 0
0 0 0 761 770445 -97397 0
0 0 0 791 771236 -96606 0
0 0 0 824 772060 -95782 0
0 0 0 808 772868 -94974 0
0 0 0 789 773657 -94185 0
0 0 0 807 774464 -93378 0
0 0 0 819 775283 -92559 0
0 0 0 841 776124 -91718 0
0 0 0 838 776962 -90880 0
0 0 0 812 777774 -90068 0
0 0 0 812 778586 -89256 0
0 0 0 798 779384 -88458 0
0 0 0 789 780173 -87669 0
0 0 0 786 780959 -86883 0
0 0 0 776 781735 -86107 0
0 0 0 780 782515 -85327 0
0 0 0 794 783309 -84533 0
0 0 0 781 784090 -83752 0
0 0 0 826 784916 -82926 0
0 0 0 843 785759 -82083 0
0 0 0 859 786618 -81224 0
0 0 0 847 787465 -80377 0
0 0 0 827 788292 -79550 0
0 0 0 816 789108 -78734 0
0 0 0 796 789904 -77938 0
0 0 0 768 790672 -77170 0
0 0 0 757 791429 -76413 0
0 0 0 768 792197 -75645 0
0 0 0 805 793002 -74840 0
0 0 0 863 793865 -73977 0
0 0 0 887 794752 -73090 0
0 0 0 915 795667 -72175 0
0 0 0 914 796581 -71261 0
0 0 0 908 797489 -70353 0
0 0 0 898 798387 -69455 0
0 0 0 875 799262 -68580 0
0 0 0 850 800112 -67730 0
0 0 0 836 800948 -66894 0
0 0 0 812 801760 -66082 0
0 0 0 783 802543 -65299 0
0 0 0 770 803313 -64529 0
0 0 0 734 804047 -63795 0
0 0 0 792 804839 -63003 0
0 0 0 809 805648 -62194 0
0 0 0 809 806457 -61385 0
0 0 0 809 807266 -60576 0
0 0 0 778 808044 -59798 0
0 0 0 756 808800 -59042 0
0 0 0 742 809542 -58300 0
0 0 0 722 810264 -57578 0
0 0 0 732 810996 -56846 0
0 0 0 752 811748 -56094 0
0 0 0 760 812508 -55334 0
0 0 0 1540 814048 -53794 1
0 0 0 748 814796 -53046 0
0 0 0 795 815591 -52251 0
0 0 0 839 816430 -51412 0
0 0 0 852 817282 -50560 0
0 0 0 849 818131 -49711 0
0 0 0 866 818997 -48845 0
0 0 0 888 819885 -47957 0
0 0 0 895 820780 -47062 0
0 0 0 900 821680 -46162 0
0 0 0 887 822567 -45275 0
0 0 0 870 823437 -44405 0
0 0 0 864 824301 -43541 0
0 0 0 869 825170 -42672 0
0 0 0 885 826055 -41787 0
0 0 0 903 826958 -40884 0
0 0 0 935 827893 -39949 0
0 0 0 975 828868 -38974 0
0 0 0 988 829856 -37986 0
0 0 0 976 830832 -37010 0
0 0 0 953 831785 -36057 0
0 0 0 899 832684 -35158 0
0 0 0 831 833515 -34327 0
0 0 0 841 834356 -33486 0
0 0 0 837 835193 -32649 0
0 0 0 901 836094 -31748 0
0 0 0 962 837056 -30786 0
0 0 0 958 838014 -29828 0
0 0 0 865 838879 -28963 0
0 0 0 829 839708 -28134 0
0 0 0 796 840504 -27338 0
0 0 0 760 841264 -26578 0
0 0 0 784 842048 -25794 0
0 0 0 909 842957 -24885 0
0 0 0 909 843866 -23976 0
0 0 0 864 844730 -23112 0
0 0 0 905 845635 -22207 0
0 0 0 884 846519 -21323 0
0 0 0 872 847391 -20451 0
0 0 0 811 848202 -19640 0
0 0 0 784 848986 -18856 0
0 0 0 764 849750 -18092 0
0 0 0 754 850504 -17338 0
0 0 0 747 851251 -16591 0
0 0 0 739 851990 -15852 0
0 0 0 750 852740 -15102 0
0 0 0 770 853510 -14332 0
0 0 0 785 854295 -13547 0
0 0 0 777 855072 -12770 0
0 0 0 786 855858 -11984 0
0 0 0 813 856671 -11171 0
0 0 0 847 857518 -10324 0
0 0 0 868 858386 -9456 0
0 0 0 846 859232 -8610 0
0 0 0 835 860067 -7775 0
0 0 0 819 860886 -6956 0
0 0 0 797 861683 -6159 0
0 0 0 782 862465 -5377 0
0 0 0 771 863236 -4606 0
0 0 0 779 864015 -3827 0
0 0 0 783 864798 -3044 0
0 0 0 799 865597 -2245 0
41 1 S102 820 866417 -1425 0
41 1 S102 849 867266 -576 0
41 2 S102 864 868130 288 0
41 2 S102 883 869013 1171 0
41 2 S102 882 869895 2053 0
41 2 S102 879 870774 2932 0
41 2 S102 858 871632 3790 0
41 2 S102 872 872504 4662 0
41 2 S102 851 873355 5513 0
41 2 S102 876 874231 6389 0
0 0 0 900 875131 -7731 0
0 0 0 908 876039 -6823 0
0 0 0 885 876924 -5938 0
0 0 0 882 877806 -5056 0
0 0 0 838 878644 -4218 0
0 0 0 788 879432 -3430 0
0 0 0 746 880178 -2684 0
42 1 S112 763 880941 -1921 0
42 1 S112 741 881682 -1180 0
42 1 S112 757 882439 -423 0
42 2 S112 770 883209 347 0
42 2 S112 796 884005 1143 0
42 2 S112 799 884804 1942 0
42 2 S112 804 885608 2746 0
42 2 S112 793 886401 3539 0
42 2 S112 784 887185 4323 0
42 2 S112 775 887960 5098 0
42 2 S112 771 888731 5869 0
42 2 S112 780 889511 6649 0
0 0 0 752 890263 -8282 0
0 0 0 753 891016 -7529 0
0 0 0 780 891796 -6749 0
0 0 0 816 892612 -5933 0
0 0 0 889 893501 -5044 0
0 0 0 939 894440 -4105 0
0 0 0 927 895367 -3178 0
0 0 0 872 896239 -2306 0
43 1 S116 801 897040 -1505 0
43 1 S116 792 897832 -713 0
43 2 S116 803 898635 90 0
43 2 S116 844 899479 934 0
43 2 S116 930 900409 1864 0
43 2 S116 911 901320 2775 0
43 2 S116 897 902217 3672 0
43 2 S116 931 903148 4603 0
43 2 S116 959 904107 5562 0
43 2 S116 939 905046 6501 0
0 0 0 874 905920 -7927 0
0 0 0 873 906793 -7054 0
0 0 0 856 907649 -6198 0
0 0 0 851 908500 -5347 0
0 0 0 805 909305 -4542 0
0 0 0 776 910081 -3766 0
0 0 0 765 910846 -3001 0
0 0 0 757 911603 -2244 0
44 1 S102 733 912336 -1511 0
44 1 S102 764 913100 -747 0
44 2 S102 819 913919 72 0
44 2 S102 966 914885 1038 0
44 2 S102 974 915859 2012 0
44 2 S102 927 916786 2939 0
44 2 S102 874 917660 3813 0
44 2 S102 908 918568 4721 0
44 2 S102 899 919467 5620 0
44 2 S102 897 920364 6517 0
0 0 0 898 921262 -7721 0
0 0 0 871 922133 -6850 0
0 0 0 836 922969 -6014 0
0 0 0 815 923784 -5199 0
0 0 0 793 924577 -4406 0
0 0 0 804 925381 -3602 0
0 0 0 841 926222 -2761 0
45 1 S116 914 927136 -1847 0
45 1 S116 948 928084 -899 0
45 2 S116 945 929029 46 0
45 2 S116 920 929949 966 0
45 2 S116 915 930864 1881 0
45 2 S116 856 931720 2737 0
45 2 S116 865 932585 3602 0
45 2 S116 887 933472 4489 0
45 2 S116 873 934345 5362 0
45 2 S116 846 935191 6208 0
0 0 0 835 936026 -12685 0
0 0 0 790 936816 -11895 0
0 0 0 772 937588 -11123 0
0 0 0 784 938372 -10339 0
0 0 0 814 939186 -9525 0
0 0 0 813 939999 -8712 0
0 0 0 814 940813 -7898 0
0 0 0 805 941618 -7093 0
0 0 0 803 942421 -6290 0
0 0 0 782 943203 -5508 0
0 0 0 766 943969 -4742 0
0 0 0 764 944733 -3978 0
0 0 0 773 945506 -3205 0
0 0 0 797 946303 -2408 0
46 1 S102 810 947113 -1598 0
46 1 S102 784 947897 -814 0
46 2 S102 818 948715 4 0
46 2 S102 846 949561 850 0
46 2 S102 917 950478 1767 0
46 2 S102 950 951428 2717 0
46 2 S102 935 952363 3652 0
46 2 S102 893 953256 4545 0
46 2 S102 897 954153 5442 0
46 2 S102 888 955041 6330 0
0 0 0 901 955942 -9314 0
0 0 0 899 956841 -8415 0
0 0 0 890 957731 -7525 0
0 0 0 871 958602 -6654 0
0 0 0 860 959462 -5794 0
0 0 0 844 960306 -4950 0
0 0 0 834 961140 -4116 0
0 0 0 829 961969 -3287 0
0 0 0 855 962824 -2432 0
47 1 S112 898 963722 -1534 0
47 1 S112 918 964640 -616 0
47 2 S112 927 965567 311 0
47 2 S112 882 966449 1193 0
47 2 S112 833 967282 2026 0
47 2 S112 823 968105 2849 0
47 2 S112 836 968941 3685 0
47 2 S112 882 969823 4567 0
47 2 S112 930 970753 5497 0
47 2 S112 941 971694 6438 0
0 0 0 888 972582 -12485 0
0 0 0 943 973525 -11542 0
0 0 0 948 974473 -10594 0
0 0 0 954 975427 -9640 0
0 0 0 944 976371 -8696 0
0 0 0 894 977265 -7802 0
0 0 0 852 978117 -6950 0
0 0 0 812 978929 -6138 0
0 0 0 768 979697 -5370 0
0 0 0 729 980426 -4641 0
0 0 0 732 981158 -3909 0
0 0 0 726 981884 -3183 0
0 0 0 737 982621 -2446 0
48 1 S116 762 983383 -1684 0
48 1 S116 732 984115 -952 0
48 1 S116 761 984876 -191 0
48 2 S116 790 985666 599 0
48 2 S116 780 986446 1379 0
48 2 S116 749 987195 2128 0
48 2 S116 735 987930 2863 0
48 2 S116 736 988666 3599 0
48 2 S116 759 989425 4358 0
48 2 S116 794 990219 5152 0
48 2 S116 837 991056 5989 0
48 2 S116 875 991931 6864 0
0 0 0 885 992816 -7271 0
0 0 0 893 993709 -6378 0
0 0 0 892 994601 -5486 0
0 0 0 895 995496 -4591 0
0 0 0 874 996370 -3717 0
0 0 0 876 997246 -2841 0
49 1 S112 864 998110 -1977 0
49 1 S112 833 998943 -1144 0
49 1 S112 818 999761 -326 0
49 2 S112 842 1000603 516 0
49 2 S112 885 1001488 1401 0
49 2 S112 945 1002433 2346 0
49 2 S112 944 1003377 3290 0
49 2 S112 951 1004328 4241 0
49 2 S112 934 1005262 5175 0
49 2 S112 920 1006182 6095 0
49 2 S112 905 1007087 7000 0
0 0 0 861 1007948 -11553 0
0 0 0 842 1008790 -10711 0
0 0 0 827 1009617 -9884 0
0 0 0 868 1010485 -9016 0
0 0 0 826 1011311 -8190 0
0 0 0 812 1012123 -7378 0
0 0 0 820 1012943 -6558 0
0 0 0 844 1013787 -5714 0
0 0 0 890 1014677 -4824 0
0 0 0 920 1015597 -3904 0
0 0 0 896 1016493 -3008 0
0 0 0 839 1017332 -2169 0
50 1 S106 800 1018132 -1369 0
50 1 S106 786 1018918 -583 0
50 2 S106 787 1019705 204 0
50 2 S106 791 1020496 995 0
50 2 S106 774 1021270 1769 0
50 2 S106 757 1022027 2526 0
50 2 S106 760 1022787 3286 0
50 2 S106 787 1023574 4073 0
50 2 S106 841 1024415 4914 0
50 2 S106 862 1025277 5776 0
50 2 S106 887 1026164 6663 0
0 0 0 924 1027088 -5792 0
0 0 0 959 1028047 -4833 0
0 0 0 907 1028954 -3926 0
0 0 0 836 1029790 -3090 0
0 0 0 800 1030590 -2290 0
51 1 S112 759 1031349 -1531 0
51 1 S112 736 1032085 -795 0
51 1 S112 720 1032805 -75 0
51 2 S112 700 1033505 625 0
51 2 S112 695 1034200 1320 0
51 2 S112 675 1034875 1995 0
51 2 S112 680 1035555 2675 0
51 2 S112 694 1036249 3369 0
51 2 S112 705 1036954 4074 0
51 2 S112 690 1037644 4764 0
51 2 S112 692 1038336 5456 0
51 2 S112 689 1039025 6145 0
51 2 S112 696 1039721 6841 0
0 0 0 703 1040424 -5586 0
0 0 0 707 1041131 -4879 0
0 0 0 689 1041820 -4190 0
0 0 0 675 1042495 -3515 0
0 0 0 665 1043160 -2850 0
0 0 0 671 1043831 -2179 0
52 1 S116 688 1044519 -1491 0
52 1 S116 735 1045254 -756 0
52 2 S116 765 1046019 9 0
52 2 S116 805 1046824 814 0
52 2 S116 796 1047620 1610 0
52 2 S116 808 1048428 2418 0
52 2 S116 819 1049247 3237 0
52 2 S116 827 1050074 4064 0
52 2 S116 873 1050947 4937 0
52 2 S116 853 1051800 5790 0
52 2 S116 844 1052644 6634 0
0 0 0 822 1053466 -9686 0
0 0 0 800 1054266 -8886 0
0 0 0 786 1055052 -8100 0
0 0 0 778 1055830 -7322 0
0 0 0 782 1056612 -6540 0
0 0 0 748 1057360 -5792 0
0 0 0 764 1058124 -5028 0
0 0 0 769 1058893 -4259 0
0 0 0 843 1059736 -3416 0
0 0 0 859 1060595 -2557 0
53 1 S106 839 1061434 -1718 0
53 1 S106 842 1062276 -876 0
53 1 S106 809 1063085 -67 0
53 2 S106 806 1063891 739 0
53 2 S106 850 1064741 1589 0
53 2 S106 928 1065669 2517 0
53 2 S106 870 1066539 3387 0
53 2 S106 859 1067398 4246 0
53 2 S106 825 1068223 5071 0
53 2 S106 860 1069083 5931 0
53 2 S106 862 1069945 6793 0
0 0 0 905 1070850 -6758 0
0 0 0 902 1071752 -5856 0
0 0 0 937 1072689 -4919 0
0 0 0 893 1073582 -4026 0
0 0 0 907 1074489 -3119 0
0 0 0 899 1075388 -2220 0
54 1 S102 903 1076291 -1317 0
54 1 S102 898 1077189 -419 0
54 2 S102 912 1078101 493 0
54 2 S102 958 1079059 1451 0
54 2 S102 1000 1080059 2451 0
54 2 S102 917 1080976 3368 0
54 2 S102 957 1081933 4325 0
54 2 S102 974 1082907 5299 0
54 2 S102 1015 1083922 6314 0
0 0 0 996 1084918 -12087 0
0 0 0 938 1085856 -11149 0
0 0 0 838 1086694 -10311 0
0 0 0 779 1087473 -9532 0
0 0 0 777 1088250 -8755 0
0 0 0 788 1089038 -7967 0
0 0 0 906 1089944 -7061 0
0 0 0 894 1090838 -6167 0
0 0 0 904 1091742 -5263 0
0 0 0 849 1092591 -4414 0
0 0 0 840 1093431 -3574 0
0 0 0 843 1094274 -2731 0
55 1 S106 842 1095116 -1889 0
55 1 S106 847 1095963 -1042 0
55 1 S106 862 1096825 -180 0
55 2 S106 863 1097688 683 0
55 2 S106 859 1098547 1542 0
55 2 S106 876 1099423 2418 0
55 2 S106 836 1100259 3254 0
55 2 S106 830 1101089 4084 0
55 2 S106 858 1101947 4942 0
55 2 S106 909 1102856 5851 0
55 2 S106 1009 1103865 6860 0
0 0 0 954 1104819 -6012 0
0 0 0 1007 1105826 -5005 0
0 0 0 992 1106818 -4013 0
0 0 0 934 1107752 -3079 0
0 0 0 865 1108617 -2214 0
56 1 S116 868 1109485 -1346 0
56 1 S116 859 1110344 -487 0
56 2 S116 874 1111218 387 0
56 2 S116 861 1112079 1248 0
56 2 S116 865 1112944 2113 0
56 2 S116 896 1113840 3009 0
56 2 S116 941 1114781 3950 0
56 2 S116 942 1115723 4892 0
56 2 S116 875 1116598 5767 0
56 2 S116 918 1117516 6685 0
0 0 0 939 1118455 -7728 0
0 0 0 933 1119388 -6795 0
0 0 0 904 1120292 -5891 0
0 0 0 916 1121208 -4975 0
0 0 0 883 1122091 -4092 0
0 0 0 863 1122954 -3229 0
0 0 0 832 1123786 -2397 0
57 1 S106 862 1124648 -1535 0
57 1 S106 892 1125540 -643 0
57 2 S106 970 1126510 327 0
57 2 S106 901 1127411 1228 0
57 2 S106 935 1128346 2163 0
57 2 S106 918 1129264 3081 0
57 2 S106 850 1130114 3931 0
57 2 S106 839 1130953 4770 0
57 2 S106 863 1131816 5633 0
57 2 S106 895 1132711 6528 0
0 0 0 906 1133617 -7951 0
0 0 0 940 1134557 -7011 0
0 0 0 918 1135475 -6093 0
0 0 0 911 1136386 -5182 0
0 0 0 838 1137224 -4344 0
0 0 0 833 1138057 -3511 0
0 0 0 792 1138849 -2719 0
58 1 S102 801 1139650 -1918 0
58 1 S102 822 1140472 -1096 0
58 1 S102 813 1141285 -283 0
58 2 S102 819 1142104 536 0
58 2 S102 829 1142933 1365 0
58 2 S102 778 1143711 2143 0
58 2 S102 750 1144461 2893 0
58 2 S102 751 1145212 3644 0
58 2 S102 748 1145960 4392 0
58 2 S102 795 1146755 5187 0
58 2 S102 846 1147601 6033 0
58 2 S102 904 1148505 6937 0
0 0 0 879 1149384 -6275 0
0 0 0 876 1150260 -5399 0
0 0 0 909 1151169 -4490 0
0 0 0 937 1152106 -3553 0
0 0 0 978 1153084 -2575 0
59 1 S112 918 1154002 -1657 0
59 1 S112 946 1154948 -711 0
59 2 S112 925 1155873 214 0
59 2 S112 889 1156762 1103 0
59 2 S112 850 1157612 1953 0
59 2 S112 892 1158504 2845 0
59 2 S112 968 1159472 3813 0
59 2 S112 1002 1160474 4815 0
59 2 S112 1044 1161518 5859 0
59 2 S112 935 1162453 6794 0
0 0 0 1000 1163453 -9928 0
0 0 0 1017 1164470 -8911 0
0 0 0 1024 1165494 -7887 0
0 0 0 984 1166478 -6903 0
0 0 0 965 1167443 -5938 0
0 0 0 960 1168403 -4978 0
0 0 0 901 1169304 -4077 0
0 0 0 837 1170141 -3240 0
0 0 0 844 1170985 -2396 0
60 1 S102 862 1171847 -1534 0
60 1 S102 926 1172773 -608 0
60 2 S102 885 1173658 277 0
60 2 S102 843 1174501 1120 0
60 2 S102 893 1175394 2013 0
60 2 S102 955 1176349 2968 0
60 2 S102 996 1177345 3964 0
60 2 S102 929 1178274 4893 0
60 2 S102 951 1179225 5844 0
60 2 S102 959 1180184 6803 0
0 0 0 954 1181138 -9269 0
0 0 0 900 1182038 -8369 0
0 0 0 815 1182853 -7554 0
0 0 0 772 1183625 -6782 0
0 0 0 763 1184388 -6019 0
0 0 0 747 1185135 -5272 0
0 0 0 791 1185926 -4481 0
0 0 0 774 1186700 -3707 0
0 0 0 767 1187467 -2940 0
0 0 0 797 1188264 -2143 0
61 1 S106 780 1189044 -1363 0
61 1 S106 776 1189820 -587 0
61 2 S106 792 1190612 205 0
61 2 S106 799 1191411 1004 0
61 2 S106 829 1192240 1833 0
61 2 S106 850 1193090 2683 0
61 2 S106 859 1193949 3542 0
61 2 S106 845 1194794 4387 0
61 2 S106 829 1195623 5216 0
61 2 S106 847 1196470 6063 0
61 2 S106 863 1197333 6926 0
0 0 0 891 1198224 -5579 0
0 0 0 877 1199101 -4702 0
0 0 0 876 1199977 -3826 0
0 0 0 843 1200820 -2983 0
0 0 0 826 1201646 -2157 0
62 1 S112 820 1202466 -1337 0
62 1 S112 865 1203331 -472 0
62 2 S112 921 1204252 449 0
62 2 S112 951 1205203 1400 0
62 2 S112 965 1206168 2365 0
62 2 S112 989 1207157 3354 0
62 2 S112 987 1208144 4341 0
62 2 S112 985 1209129 5326 0
62 2 S112 898 1210027 6224 0
0 0 0 873 1210900 -13543 0
0 0 0 894 1211794 -12649 0
0 0 0 907 1212701 -11742 0
0 0 0 1002 1213703 -10740 0
0 0 0 1010 1214713 -9730 0
0 0 0 1053 1215766 -8677 0
0 0 0 948 1216714 -7729 0
0 0 0 894 1217608 -6835 0
0 0 0 860 1218468 -5975 0
0 0 0 871 1219339 -5104 0
0 0 0 929 1220268 -4175 0
0 0 0 969 1221237 -3206 0
0 0 0 911 1222148 -2295 0
63 1 S102 908 1223056 -1387 0
63 1 S102 950 1224006 -437 0
63 2 S102 957 1224963 520 0
63 2 S102 932 1225895 1452 0
63 2 S102 912 1226807 2364 0
63 2 S102 954 1227761 3318 0
63 2 S102 982 1228743 4300 0
63 2 S102 987 1229730 5287 0
63 2 S102 934 1230664 6221 0
0 0 0 878 1231542 -7971 0
0 0 0 932 1232474 -7039 0
0 0 0 942 1233416 -6097 0
0 0 0 934 1234350 -5163 0
0 0 0 896 1235246 -4267 0
0 0 0 875 1236121 -3392 0
0 0 0 840 1236961 -2552 0
64 1 S112 795 1237756 -1757 0
64 1 S112 839 1238595 -918 0
64 1 S112 829 1239424 -89 0
64 2 S112 859 1240283 770 0
64 2 S112 922 1241205 1692 0
64 2 S112 959 1242164 2651 0
64 2 S112 938 1243102 3589 0
64 2 S112 927 1244029 4516 0
64 2 S112 922 1244951 5438 0
64 2 S112 913 1245864 6351 0
0 0 0 932 1246796 -7273 0
0 0 0 950 1247746 -6323 0
0 0 0 952 1248698 -5371 0
0 0 0 939 1249637 -4432 0
0 0 0 964 1250601 -3468 0
0 0 0 943 1251544 -2525 0
65 1 S106 959 1252503 -1566 0
65 1 S106 894 1253397 -672 0
65 2 S106 904 1254301 232 0
65 2 S106 881 1255182 1113 0
65 2 S106 826 1256008 1939 0
65 2 S106 829 1256837 2768 0
65 2 S106 833 1257670 3601 0
65 2 S106 852 1258522 4453 0
65 2 S106 866 1259388 5319 0
65 2 S106 896 1260284 6215 0
0 0 0 871 1261155 -9525 0
0 0 0 876 1262031 -8649 0
0 0 0 865 1262896 -7784 0
0 0 0 831 1263727 -6953 0
0 0 0 838 1264565 -6115 0
0 0 0 893 1265458 -5222 0
0 0 0 902 1266360 -4320 0
0 0 0 927 1267287 -3393 0
0 0 0 923 1268210 -2470 0
66 1 S116 899 1269109 -1571 0
66 1 S116 918 1270027 -653 0
66 2 S116 931 1270958 278 0
66 2 S116 943 1271901 1221 0
66 2 S116 961 1272862 2182 0
66 2 S116 938 1273800 3120 0
66 2 S116 933 1274733 4053 0
66 2 S116 863 1275596 4916 0
66 2 S116 775 1276371 5691 0
66 2 S116 759 1277130 6450 0
0 0 0 740 1277870 -12058 0
0 0 0 738 1278608 -11320 0
0 0 0 745 1279353 -10575 0
0 0 0 758 1280111 -9817 0
0 0 0 788 1280899 -9029 0
0 0 0 775 1281674 -8254 0
0 0 0 756 1282430 -7498 0
0 0 0 742 1283172 -6756 0
0 0 0 724 1283896 -6032 0
0 0 0 702 1284598 -5330 0
0 0 0 699 1285297 -4631 0
0 0 0 691 1285988 -3940 0
0 0 0 708 1286696 -3232 0
0 0 0 726 1287422 -2506 0
67 1 S102 804 1288226 -1702 0
67 1 S102 840 1289066 -862 0
67 2 S102 882 1289948 20 0
67 2 S102 883 1290831 903 0
67 2 S102 955 1291786 1858 0
67 2 S102 980 1292766 2838 0
67 2 S102 1012 1293778 3850 0
67 2 S102 1031 1294809 4881 0
67 2 S102 985 1295794 5866 0
67 2 S102 966 1296760 6832 0
0 0 0 920 1297680 -7467 0
0 0 0 885 1298565 -6582 0
0 0 0 887 1299452 -5695 0
0 0 0 896 1300348 -4799 0
0 0 0 865 1301213 -3934 0
0 0 0 903 1302116 -3031 0
0 0 0 937 1303053 -2094 0
68 1 S106 956 1304009 -1138 0
68 1 S106 830 1304839 -308 0
68 2 S106 776 1305615 468 0
68 2 S106 756 1306371 1224 0
68 2 S106 743 1307114 1967 0
68 2 S106 770 1307884 2737 0
68 2 S106 819 1308703 3556 0
68 2 S106 845 1309548 4401 0
68 2 S106 807 1310355 5208 0
68 2 S106 780 1311135 5988 0
68 2 S106 764 1311899 6752 0
0 0 0 760 1312659 -11917 0
0 0 0 782 1313441 -11135 0
0 0 0 801 1314242 -10334 0
0 0 0 850 1315092 -9484 0
0 0 0 859 1315951 -8625 0
0 0 0 899 1316850 -7726 0
0 0 0 891 1317741 -6835 0
0 0 0 863 1318604 -5972 0
0 0 0 917 1319521 -5055 0
0 0 0 947 1320468 -4108 0
0 0 0 969 1321437 -3139 0
0 0 0 920 1322357 -2219 0
69 1 S102 931 1323288 -1288 0
69 1 S102 918 1324206 -370 0
69 2 S102 915 1325121 545 0
69 2 S102 875 1325996 1420 0
69 2 S102 852 1326848 2272 0
69 2 S102 904 1327752 3176 0
69 2 S102 964 1328716 4140 0
69 2 S102 1010 1329726 5150 0
69 2 S102 984 1330710 6134 0
0 0 0 962 1331672 -10030 0
0 0 0 899 1332571 -9131 0
0 0 0 863 1333434 -8268 0
0 0 0 857 1334291 -7411 0
0 0 0 892 1335183 -6519 0
0 0 0 842 1336025 -5677 0
0 0 0 872 1336897 -4805 0
0 0 0 956 1337853 -3849 0
0 0 0 1012 1338865 -2837 0
70 1 S112 1016 1339881 -1821 0
70 1 S112 976 1340857 -845 0
70 2 S112 1018 1341875 173 0
70 2 S112 1025 1342900 1198 0
70 2 S112 1011 1343911 2209 0
70 2 S112 952 1344863 3161 0
70 2 S112 869 1345732 4030 0
70 2 S112 876 1346608 4906 0
70 2 S112 898 1347506 5804 0
70 2 S112 951 1348457 6755 0
0 0 0 981 1349438 -11661 0
0 0 0 949 1350387 -10712 0
0 0 0 889 1351276 -9823 0
0 0 0 916 1352192 -8907 0
0 0 0 897 1353089 -8010 0
0 0 0 933 1354022 -7077 0
0 0 0 903 1354925 -6174 0
0 0 0 897 1355822 -5277 0
0 0 0 937 1356759 -4340 0
0 0 0 974 1357733 -3366 0
0 0 0 988 1358721 -2378 0
71 1 S116 965 1359686 -1413 0
71 1 S116 1000 1360686 -413 0
71 2 S116 1016 1361702 603 0
71 2 S116 940 1362642 1543 0
71 2 S116 922 1363564 2465 0
71 2 S116 894 1364458 3359 0
71 2 S116 902 1365360 4261 0
71 2 S116 848 1366208 5109 0
71 2 S116 836 1367044 5945 0
71 2 S116 838 1367882 6783 0
0 0 0 864 1368746 -9213 0
0 0 0 871 1369617 -8342 0
0 0 0 908 1370525 -7434 0
0 0 0 895 1371420 -6539 0
0 0 0 853 1372273 -5686 0
0 0 0 831 1373104 -4855 0
0 0 0 797 1373901 -4058 0
0 0 0 790 1374691 -3268 0
0 0 0 731 1375422 -2537 0
72 1 S102 732 1376154 -1805 0
72 1 S102 744 1376898 -1061 0
72 1 S102 753 1377651 -308 0
72 2 S102 792 1378443 484 0
72 2 S102 804 1379247 1288 0
72 2 S102 775 1380022 2063 0
72 2 S102 779 1380801 2842 0
72 2 S102 789 1381590 3631 0
72 2 S102 816 1382406 4447 0
72 2 S102 833 1383239 5280 0
72 2 S102 818 1384057 6098 0
72 2 S102 771 1384828 6869 0
0 0 0 796 1385624 -5382 0
0 0 0 796 1386420 -4586 0
0 0 0 817 1387237 -3769 0
0 0 0 869 1388106 -2900 0
0 0 0 899 1389005 -2001 0
73 1 S116 973 1389978 -1028 0
73 2 S116 1028 1391006 0 0
73 2 S116 1052 1392058 1052 0
73 2 S116 982 1393040 2034 0
73 2 S116 996 1394036 3030 0
73 2 S116 986 1395022 4016 0
73 2 S116 932 1395954 4948 0
73 2 S116 879 1396833 5827 0
73 2 S116 863 1397696 6690 0
0 0 0 858 1398554 -11086 0
0 0 0 856 1399410 -10230 0
0 0 0 848 1400258 -9382 0
0 0 0 877 1401135 -8505 0
0 0 0 930 1402065 -7575 0
0 0 0 962 1403027 -6613 0
0 0 0 924 1403951 -5689 0
0 0 0 909 1404860 -4780 0
0 0 0 856 1405716 -3924 0
0 0 0 898 1406614 -3026 0
0 0 0 913 1407527 -2113 0
74 1 S106 933 1408460 -1180 0
74 1 S106 888 1409348 -292 0
74 2 S106 857 1410205 565 0
74 2 S106 881 1411086 1446 0
74 2 S106 909 1411995 2355 0
74 2 S106 883 1412878 3238 0
74 2 S106 833 1413711 4071 0
74 2 S106 802 1414513 4873 0
74 2 S106 809 1415322 5682 0
74 2 S106 843 1416165 6525 0
0 0 0 887 1417052 -6945 0
0 0 0 887 1417939 -6058 0
0 0 0 916 1418855 -5142 0
0 0 0 875 1419730 -4267 0
0 0 0 817 1420547 -3450 0
0 0 0 769 1421316 -2681 0
75 1 S112 742 1422058 -1939 0
75 1 S112 718 1422776 -1221 0
75 1 S112 700 1423476 -521 0
75 2 S112 704 1424180 183 0
75 2 S112 720 1424900 903 0
75 2 S112 751 1425651 1654 0
75 2 S112 759 1426410 2413 0
75 2 S112 799 1427209 3212 0
75 2 S112 855 1428064 4067 0
75 2 S112 904 1428968 4971 0
75 2 S112 921 1429889 5892 0
75 2 S112 887 1430776 6779 0
0 0 0 871 1431647 -7536 0
0 0 0 854 1432501 -6682 0
0 0 0 849 1433350 -5833 0
0 0 0 868 1434218 -4965 0
0 0 0 856 1435074 -4109 0
0 0 0 856 1435930 -3253 0
0 0 0 828 1436758 -2425 0
76 1 S116 826 1437584 -1599 0
76 1 S116 856 1438440 -743 0
76 2 S116 952 1439392 209 0
76 2 S116 1029 1440421 1238 0
76 2 S116 1050 1441471 2288 0
76 2 S116 1009 1442480 3297 0
76 2 S116 991 1443471 4288 0
76 2 S116 995 1444466 5283 0
76 2 S116 953 1445419 6236 0
0 0 0 941 1446360 -7511 0
0 0 0 877 1447237 -6634 0
0 0 0 892 1448129 -5742 0
0 0 0 895 1449024 -4847 0
0 0 0 834 1449858 -4013 0
0 0 0 767 1450625 -3246 0
0 0 0 738 1451363 -2508 0
77 1 S106 761 1452124 -1747 0
77 1 S106 779 1452903 -968 0
77 1 S106 869 1453772 -99 0
77 2 S106 968 1454740 869 0
77 2 S106 994 1455734 1863 0
77 2 S106 989 1456723 2852 0
77 2 S106 927 1457650 3779 0
77 2 S106 857 1458507 4636 0
77 2 S106 854 1459361 5490 0
77 2 S106 860 1460221 6350 0
0 0 0 899 1461120 -8053 0
0 0 0 981 1462101 -7072 0
0 0 0 952 1463053 -6120 0
0 0 0 982 1464035 -5138 0
0 0 0 961 1464996 -4177 0
0 0 0 959 1465955 -3218 0
0 0 0 991 1466946 -2227 0
78 1 S112 979 1467925 -1248 0
78 1 S112 953 1468878 -295 0
78 2 S112 948 1469826 653 0
78 2 S112 957 1470783 1610 0
78 2 S112 960 1471743 2570 0
78 2 S112 910 1472653 3480 0
78 2 S112 947 1473600 4427 0
78 2 S112 998 1474598 5425 0
78 2 S112 1019 1475617 6444 0
0 0 0 1009 1476626 -12325 0
0 0 0 996 1477622 -11329 0
0 0 0 976 1478598 -10353 0
0 0 0 995 1479593 -9358 0
0 0 0 954 1480547 -8404 0
0 0 0 859 1481406 -7545 0
0 0 0 801 1482207 -6744 0
0 0 0 804 1483011 -5940 0
0 0 0 817 1483828 -5123 0
0 0 0 1060 1484888 -4063 1
0 0 0 959 1485847 -3104 0
0 0 0 956 1486803 -2148 0
79 1 S102 1018 1487821 -1130 0
79 1 S102 1028 1488849 -102 0
79 2 S102 955 1489804 853 0
79 2 S102 972 1490776 1825 0
79 2 S102 970 1491746 2795 0
79 2 S102 973 1492719 3768 0
79 2 S102 899 1493618 4667 0
79 2 S102 836 1494454 5503 0
79 2 S102 815 1495269 6318 0
0 0 0 816 1496085 -8748 0
0 0 0 881 1496966 -7867 0
0 0 0 958 1497924 -6909 0
0 0 0 923 1498847 -5986 0
0 0 0 872 1499719 -5114 0
0 0 0 813 1500532 -4301 0
0 0 0 778 1501310 -3523 0
0 0 0 780 1502090 -2743 0
80 1 S116 784 1502874 -1959 0
80 1 S116 809 1503683 -1150 0
80 1 S116 844 1504527 -306 0
80 2 S116 830 1505357 524 0
80 2 S116 843 1506200 1367 0
80 2 S116 860 1507060 2227 0
80 2 S116 847 1507907 3074 0
80 2 S116 820 1508727 3894 0
80 2 S116 803 1509530 4697 0
80 2 S116 825 1510355 5522 0
80 2 S116 867 1511222 6389 0
