T_0177
BeatCount Mean SD BeatCountNoOutliers MeanNoOutliers SDNoOutliers
1871 795,064671298771 70,127497237977 1866 793,671489817792 60,661542665073

Trial TrialStatus Trialtype IBI AbsPosition RelPosition Outlier
0 0 0 850 1058 -15289 0
0 0 0 764 1822 -14525 0
0 0 0 748 2570 -13777 0
0 0 0 677 3247 -13100 0
0 0 0 697 3944 -12403 0
0 0 0 688 4632 -11715 0
0 0 0 774 5406 -10941 0
0 0 0 842 6248 -10099 0
0 0 0 833 7081 -9266 0
0 0 0 815 7896 -8451 0
0 0 0 806 8702 -7645 0
0 0 0 794 9496 -6851 0
0 0 0 762 10258 -6089 0
0 0 0 758 11016 -5331 0
0 0 0 748 11764 -4583 0
0 0 0 757 12521 -3826 0
0 0 0 761 13282 -3065 0
0 0 0 771 14053 -2294 0
1 1 S112 764 14817 -1530 0
1 1 S112 761 15578 -769 0
1 1 S112 706 16284 -63 0
1 2 S112 709 16993 646 0
1 2 S112 682 17675 1328 0
1 2 S112 680 18355 2008 0
1 2 S112 671 19026 2679 0
1 2 S112 715 19741 3394 0
1 2 S112 787 20528 4181 0
1 2 S112 808 21336 4989 0
1 2 S112 821 22157 5810 0
1 2 S112 823 22980 6633 0
0 0 0 813 23793 -11685 0
0 0 0 784 24577 -10901 0
0 0 0 730 25307 -10171 0
0 0 0 688 25995 -9483 0
0 0 0 692 26687 -8791 0
0 0 0 709 27396 -8082 0
0 0 0 736 28132 -7346 0
0 0 0 726 28858 -6620 0
0 0 0 691 29549 -5929 0
0 0 0 659 30208 -5270 0
0 0 0 679 30887 -4591 0
0 0 0 734 31621 -3857 0
0 0 0 785 32406 -3072 0
0 0 0 800 33206 -2272 0
2 1 S102 806 34012 -1466 0
2 1 S102 808 34820 -658 0
2 2 S102 802 35622 144 0
2 2 S102 786 36408 930 0
2 2 S102 742 37150 1672 0
2 2 S102 702 37852 2374 0
2 2 S102 667 38519 3041 0
2 2 S102 644 39163 3685 0
2 2 S102 644 39807 4329 0
2 2 S102 726 40533 5055 0
2 2 S102 888 41421 5943 0
2 2 S102 923 42344 6866 0
0 0 0 913 43257 -9015 0
0 0 0 896 44153 -8119 0
0 0 0 886 45039 -7233 0
0 0 0 850 45889 -6383 0
0 0 0 824 46713 -5559 0
0 0 0 786 47499 -4773 0
0 0 0 754 48253 -4019 0
0 0 0 718 48971 -3301 0
0 0 0 706 49677 -2595 0
3 1 S116 708 50385 -1887 0
3 1 S116 719 51104 -1168 0
3 1 S116 733 51837 -435 0
3 2 S116 752 52589 317 0
3 2 S116 771 53360 1088 0
3 2 S116 750 54110 1838 0
3 2 S116 764 54874 2602 0
3 2 S116 770 55644 3372 0
3 2 S116 764 56408 4136 0
3 2 S116 773 57181 4909 0
3 2 S116 747 57928 5656 0
3 2 S116 747 58675 6403 0
0 0 0 737 59412 -12224 0
0 0 0 736 60148 -11488 0
0 0 0 696 60844 -10792 0
0 0 0 728 61572 -10064 0
0 0 0 719 62291 -9345 0
0 0 0 736 63027 -8609 0
0 0 0 766 63793 -7843 0
0 0 0 800 64593 -7043 0
0 0 0 802 65395 -6241 0
0 0 0 794 66189 -5447 0
0 0 0 783 66972 -4664 0
0 0 0 783 67755 -3881 0
0 0 0 784 68539 -3097 0
0 0 0 789 69328 -2308 0
4 1 S106 742 70070 -1566 0
4 1 S106 741 70811 -825 0
4 1 S106 672 71483 -153 0
4 2 S106 658 72141 505 0
4 2 S106 637 72778 1142 0
4 2 S106 691 73469 1833 0
4 2 S106 770 74239 2603 0
4 2 S106 740 74979 3343 0
4 2 S106 810 75789 4153 0
4 2 S106 821 76610 4974 0
4 2 S106 835 77445 5809 0
4 2 S106 844 78289 6653 0
0 0 0 829 79118 -7057 0
0 0 0 784 79902 -6273 0
0 0 0 728 80630 -5545 0
0 0 0 730 81360 -4815 0
0 0 0 686 82046 -4129 0
0 0 0 714 82760 -3415 0
0 0 0 735 83495 -2680 0
5 1 S116 758 84253 -1922 0
5 1 S116 773 85026 -1149 0
5 1 S116 791 85817 -358 0
5 2 S116 798 86615 440 0
5 2 S116 798 87413 1238 0
5 2 S116 795 88208 2033 0
5 2 S116 793 89001 2826 0
5 2 S116 789 89790 3615 0
5 2 S116 793 90583 4408 0
5 2 S116 798 91381 5206 0
5 2 S116 795 92176 6001 0
5 2 S116 795 92971 6796 0
0 0 0 791 93762 -8046 0
0 0 0 787 94549 -7259 0
0 0 0 794 95343 -6465 0
0 0 0 790 96133 -5675 0
0 0 0 795 96928 -4880 0
0 0 0 812 97740 -4068 0
0 0 0 821 98561 -3247 0
0 0 0 828 99389 -2419 0
6 1 S106 827 100216 -1592 0
6 1 S106 797 101013 -795 0
6 1 S106 774 101787 -21 0
6 2 S106 774 102561 753 0
6 2 S106 795 103356 1548 0
6 2 S106 815 104171 2363 0
6 2 S106 845 105016 3208 0
6 2 S106 853 105869 4061 0
6 2 S106 819 106688 4880 0
6 2 S106 819 107507 5699 0
6 2 S106 827 108334 6526 0
0 0 0 835 109169 -11191 0
0 0 0 831 110000 -10360 0
0 0 0 819 110819 -9541 0
0 0 0 814 111633 -8727 0
0 0 0 804 112437 -7923 0
0 0 0 825 113262 -7098 0
0 0 0 814 114076 -6284 0
0 0 0 786 114862 -5498 0
0 0 0 784 115646 -4714 0
0 0 0 794 116440 -3920 0
0 0 0 804 117244 -3116 0
0 0 0 804 118048 -2312 0
7 1 S102 777 118825 -1535 0
7 1 S102 742 119567 -793 0
7 1 S102 762 120329 -31 0
7 2 S102 755 121084 724 0
7 2 S102 799 121883 1523 0
7 2 S102 819 122702 2342 0
7 2 S102 802 123504 3144 0
7 2 S102 794 124298 3938 0
7 2 S102 801 125099 4739 0
7 2 S102 819 125918 5558 0
7 2 S102 837 126755 6395 0
0 0 0 845 127600 -9786 0
0 0 0 814 128414 -8972 0
0 0 0 778 129192 -8194 0
0 0 0 768 129960 -7426 0
0 0 0 774 130734 -6652 0
0 0 0 775 131509 -5877 0
0 0 0 786 132295 -5091 0
0 0 0 787 133082 -4304 0
0 0 0 771 133853 -3533 0
0 0 0 779 134632 -2754 0
8 1 S112 791 135423 -1963 0
8 1 S112 801 136224 -1162 0
8 1 S112 807 137031 -355 0
8 2 S112 775 137806 420 0
8 2 S112 765 138571 1185 0
8 2 S112 778 139349 1963 0
8 2 S112 785 140134 2748 0
8 2 S112 817 140951 3565 0
8 2 S112 826 141777 4391 0
8 2 S112 797 142574 5188 0
8 2 S112 805 143379 5993 0
8 2 S112 816 144195 6809 0
0 0 0 823 145018 -6857 0
0 0 0 812 145830 -6045 0
0 0 0 782 146612 -5263 0
0 0 0 777 147389 -4486 0
0 0 0 767 148156 -3719 0
0 0 0 748 148904 -2971 0
0 0 0 769 149673 -2202 0
9 1 S116 765 150438 -1437 0
9 1 S116 757 151195 -680 0
9 2 S116 768 151963 88 0
9 2 S116 798 152761 886 0
9 2 S116 839 153600 1725 0
9 2 S116 859 154459 2584 0
9 2 S116 828 155287 3412 0
9 2 S116 807 156094 4219 0
9 2 S116 805 156899 5024 0
9 2 S116 798 157697 5822 0
9 2 S116 795 158492 6617 0
0 0 0 766 159258 -13224 0
0 0 0 727 159985 -12497 0
0 0 0 726 160711 -11771 0
0 0 0 699 161410 -11072 0
0 0 0 732 162142 -10340 0
0 0 0 838 162980 -9502 0
0 0 0 909 163889 -8593 0
0 0 0 870 164759 -7723 0
0 0 0 808 165567 -6915 0
0 0 0 773 166340 -6142 0
0 0 0 776 167116 -5366 0
0 0 0 782 167898 -4584 0
0 0 0 790 168688 -3794 0
0 0 0 800 169488 -2994 0
0 0 0 764 170252 -2230 0
10 1 S102 726 170978 -1504 0
10 1 S102 713 171691 -791 0
10 1 S102 705 172396 -86 0
10 2 S102 754 173150 668 0
10 2 S102 814 173964 1482 0
10 2 S102 808 174772 2290 0
10 2 S102 788 175560 3078 0
10 2 S102 810 176370 3888 0
10 2 S102 823 177193 4711 0
10 2 S102 837 178030 5548 0
10 2 S102 839 178869 6387 0
0 0 0 830 179699 -11467 0
0 0 0 769 180468 -10698 0
0 0 0 724 181192 -9974 0
0 0 0 698 181890 -9276 0
0 0 0 672 182562 -8604 0
0 0 0 711 183273 -7893 0
0 0 0 774 184047 -7119 0
0 0 0 800 184847 -6319 0
0 0 0 799 185646 -5520 0
0 0 0 818 186464 -4702 0
0 0 0 813 187277 -3889 0
0 0 0 805 188082 -3084 0
0 0 0 788 188870 -2296 0
11 1 S112 770 189640 -1526 0
11 1 S112 750 190390 -776 0
11 1 S112 736 191126 -40 0
11 2 S112 713 191839 673 0
11 2 S112 698 192537 1371 0
11 2 S112 692 193229 2063 0
11 2 S112 698 193927 2761 0
11 2 S112 736 194663 3497 0
11 2 S112 791 195454 4288 0
11 2 S112 833 196287 5121 0
11 2 S112 833 197120 5954 0
11 2 S112 827 197947 6781 0
0 0 0 771 198718 -6805 0
0 0 0 754 199472 -6051 0
0 0 0 732 200204 -5319 0
0 0 0 735 200939 -4584 0
0 0 0 732 201671 -3852 0
0 0 0 721 202392 -3131 0
0 0 0 706 203098 -2425 0
12 1 S116 718 203816 -1707 0
12 1 S116 693 204509 -1014 0
12 1 S116 647 205156 -367 0
12 2 S116 662 205818 295 0
12 2 S116 713 206531 1008 0
12 2 S116 775 207306 1783 0
12 2 S116 808 208114 2591 0
12 2 S116 833 208947 3424 0
12 2 S116 824 209771 4248 0
12 2 S116 805 210576 5053 0
12 2 S116 793 211369 5846 0
12 2 S116 772 212141 6618 0
0 0 0 761 212902 -10774 0
0 0 0 740 213642 -10034 0
0 0 0 745 214387 -9289 0
0 0 0 768 215155 -8521 0
0 0 0 806 215961 -7715 0
0 0 0 840 216801 -6875 0
0 0 0 843 217644 -6032 0
0 0 0 747 218391 -5285 0
0 0 0 751 219142 -4534 0
0 0 0 696 219838 -3838 0
0 0 0 729 220567 -3109 0
0 0 0 761 221328 -2348 0
13 1 S112 765 222093 -1583 0
13 1 S112 772 222865 -811 0
13 1 S112 784 223649 -27 0
13 2 S112 762 224411 735 0
13 2 S112 715 225126 1450 0
13 2 S112 696 225822 2146 0
13 2 S112 693 226515 2839 0
13 2 S112 728 227243 3567 0
13 2 S112 788 228031 4355 0
13 2 S112 827 228858 5182 0
13 2 S112 840 229698 6022 0
13 2 S112 847 230545 6869 0
0 0 0 844 231389 -10490 0
0 0 0 834 232223 -9656 0
0 0 0 827 233050 -8829 0
0 0 0 792 233842 -8037 0
0 0 0 783 234625 -7254 0
0 0 0 742 235367 -6512 0
0 0 0 725 236092 -5787 0
0 0 0 722 236814 -5065 0
0 0 0 737 237551 -4328 0
0 0 0 766 238317 -3562 0
0 0 0 813 239130 -2749 0
14 1 S106 848 239978 -1901 0
14 1 S106 854 240832 -1047 0
14 1 S106 845 241677 -202 0
14 2 S106 809 242486 607 0
14 2 S106 788 243274 1395 0
14 2 S106 778 244052 2173 0
14 2 S106 782 244834 2955 0
14 2 S106 797 245631 3752 0
14 2 S106 776 246407 4528 0
14 2 S106 791 247198 5319 0
14 2 S106 808 248006 6127 0
14 2 S106 879 248885 7006 0
0 0 0 893 249778 -10603 0
0 0 0 805 250583 -9798 0
0 0 0 795 251378 -9003 0
0 0 0 766 252144 -8237 0
0 0 0 768 252912 -7469 0
0 0 0 730 253642 -6739 0
0 0 0 705 254347 -6034 0
0 0 0 653 255000 -5381 0
0 0 0 645 255645 -4736 0
0 0 0 644 256289 -4092 0
0 0 0 666 256955 -3426 0
0 0 0 676 257631 -2750 0
0 0 0 724 258355 -2026 0
15 1 S116 781 259136 -1245 0
15 1 S116 813 259949 -432 0
15 2 S116 833 260782 401 0
15 2 S116 803 261585 1204 0
15 2 S116 741 262326 1945 0
15 2 S116 783 263109 2728 0
15 2 S116 763 263872 3491 0
15 2 S116 788 264660 4279 0
15 2 S116 810 265470 5089 0
15 2 S116 809 266279 5898 0
15 2 S116 803 267082 6701 0
0 0 0 808 267890 -8373 0
0 0 0 800 268690 -7573 0
0 0 0 788 269478 -6785 0
0 0 0 784 270262 -6001 0
0 0 0 771 271033 -5230 0
0 0 0 786 271819 -4444 0
0 0 0 798 272617 -3646 0
0 0 0 773 273390 -2873 0
0 0 0 760 274150 -2113 0
16 1 S116 776 274926 -1337 0
16 1 S116 805 275731 -532 0
16 2 S116 827 276558 295 0
16 2 S116 829 277387 1124 0
16 2 S116 789 278176 1913 0
16 2 S116 761 278937 2674 0
16 2 S116 766 279703 3440 0
16 2 S116 784 280487 4224 0
16 2 S116 811 281298 5035 0
16 2 S116 807 282105 5842 0
16 2 S116 790 282895 6632 0
0 0 0 797 283692 -8586 0
0 0 0 791 284483 -7795 0
0 0 0 810 285293 -6985 0
0 0 0 805 286098 -6180 0
0 0 0 752 286850 -5428 0
0 0 0 729 287579 -4699 0
0 0 0 724 288303 -3975 0
0 0 0 739 289042 -3236 0
0 0 0 780 289822 -2456 0
17 1 S106 825 290647 -1631 0
17 1 S106 810 291457 -821 0
17 1 S106 802 292259 -19 0
17 2 S106 808 293067 789 0
17 2 S106 812 293879 1601 0
17 2 S106 813 294692 2414 0
17 2 S106 798 295490 3212 0
17 2 S106 765 296255 3977 0
17 2 S106 766 297021 4743 0
17 2 S106 778 297799 5521 0
17 2 S106 786 298585 6307 0
0 0 0 797 299382 -11115 0
0 0 0 778 300160 -10337 0
0 0 0 748 300908 -9589 0
0 0 0 766 301674 -8823 0
0 0 0 768 302442 -8055 0
0 0 0 798 303240 -7257 0
0 0 0 813 304053 -6444 0
0 0 0 794 304847 -5650 0
0 0 0 778 305625 -4872 0
0 0 0 782 306407 -4090 0
0 0 0 800 307207 -3290 0
0 0 0 814 308021 -2476 0
18 1 S102 815 308836 -1661 0
18 1 S102 792 309628 -869 0
18 1 S102 772 310400 -97 0
18 2 S102 778 311178 681 0
18 2 S102 790 311968 1471 0
18 2 S102 800 312768 2271 0
18 2 S102 812 313580 3083 0
18 2 S102 788 314368 3871 0
18 2 S102 776 315144 4647 0
18 2 S102 781 315925 5428 0
18 2 S102 784 316709 6212 0
18 2 S102 807 317516 7019 0
0 0 0 793 318309 -5849 0
0 0 0 801 319110 -5048 0
0 0 0 791 319901 -4257 0
0 0 0 812 320713 -3445 0
0 0 0 806 321519 -2639 0
19 1 S106 798 322317 -1841 0
19 1 S106 751 323068 -1090 0
19 1 S106 736 323804 -354 0
19 2 S106 737 324541 383 0
19 2 S106 754 325295 1137 0
19 2 S106 781 326076 1918 0
19 2 S106 783 326859 2701 0
19 2 S106 763 327622 3464 0
19 2 S106 759 328381 4223 0
19 2 S106 778 329159 5001 0
19 2 S106 797 329956 5798 0
19 2 S106 819 330775 6617 0
0 0 0 805 331580 -10847 0
0 0 0 766 332346 -10081 0
0 0 0 764 333110 -9317 0
0 0 0 762 333872 -8555 0
0 0 0 777 334649 -7778 0
0 0 0 795 335444 -6983 0
0 0 0 762 336206 -6221 0
0 0 0 735 336941 -5486 0
0 0 0 727 337668 -4759 0
0 0 0 735 338403 -4024 0
0 0 0 752 339155 -3272 0
0 0 0 769 339924 -2503 0
20 1 S112 756 340680 -1747 0
20 1 S112 733 341413 -1014 0
20 1 S112 733 342146 -281 0
20 2 S112 771 342917 490 0
20 2 S112 790 343707 1280 0
20 2 S112 801 344508 2081 0
20 2 S112 776 345284 2857 0
20 2 S112 772 346056 3629 0
20 2 S112 781 346837 4410 0
20 2 S112 793 347630 5203 0
20 2 S112 802 348432 6005 0
20 2 S112 804 349236 6809 0
0 0 0 786 350022 -8934 0
0 0 0 780 350802 -8154 0
0 0 0 795 351597 -7359 0
0 0 0 806 352403 -6553 0
0 0 0 763 353166 -5790 0
0 0 0 736 353902 -5054 0
0 0 0 728 354630 -4326 0
0 0 0 749 355379 -3577 0
0 0 0 784 356163 -2793 0
21 1 S106 807 356970 -1986 0
21 1 S106 784 357754 -1202 0
21 1 S106 790 358544 -412 0
21 2 S106 807 359351 395 0
21 2 S106 824 360175 1219 0
21 2 S106 808 360983 2027 0
21 2 S106 780 361763 2807 0
21 2 S106 780 362543 3587 0
21 2 S106 799 363342 4386 0
21 2 S106 808 364150 5194 0
21 2 S106 815 364965 6009 0
21 2 S106 793 365758 6802 0
0 0 0 809 366567 -10211 0
0 0 0 824 367391 -9387 0
0 0 0 858 368249 -8529 0
0 0 0 835 369084 -7694 0
0 0 0 786 369870 -6908 0
0 0 0 767 370637 -6141 0
0 0 0 760 371397 -5381 0
0 0 0 778 372175 -4603 0
0 0 0 789 372964 -3814 0
0 0 0 818 373782 -2996 0
0 0 0 803 374585 -2193 0
22 1 S116 817 375402 -1376 0
22 1 S116 820 376222 -556 0
22 2 S116 846 377068 290 0
22 2 S116 868 377936 1158 0
22 2 S116 775 378711 1933 0
22 2 S116 733 379444 2666 0
22 2 S116 688 380132 3354 0
22 2 S116 648 380780 4002 0
22 2 S116 675 381455 4677 0
22 2 S116 861 382316 5538 0
22 2 S116 867 383183 6405 0
0 0 0 869 384052 -9039 0
0 0 0 861 384913 -8178 0
0 0 0 801 385714 -7377 0
0 0 0 731 386445 -6646 0
0 0 0 686 387131 -5960 0
0 0 0 650 387781 -5310 0
0 0 0 665 388446 -4645 0
0 0 0 630 389076 -4015 0
0 0 0 627 389703 -3388 0
0 0 0 678 390381 -2710 0
23 1 S112 752 391133 -1958 0
23 1 S112 796 391929 -1162 0
23 1 S112 819 392748 -343 0
23 2 S112 809 393557 466 0
23 2 S112 789 394346 1255 0
23 2 S112 789 395135 2044 0
23 2 S112 795 395930 2839 0
23 2 S112 803 396733 3642 0
23 2 S112 810 397543 4452 0
23 2 S112 798 398341 5250 0
23 2 S112 782 399123 6032 0
23 2 S112 807 399930 6839 0
0 0 0 804 400734 -9134 0
0 0 0 825 401559 -8309 0
0 0 0 844 402403 -7465 0
0 0 0 819 403222 -6646 0
0 0 0 815 404037 -5831 0
0 0 0 814 404851 -5017 0
0 0 0 825 405676 -4192 0
0 0 0 832 406508 -3360 0
0 0 0 797 407305 -2563 0
24 1 S106 785 408090 -1778 0
24 1 S106 785 408875 -993 0
24 1 S106 799 409674 -194 0
24 2 S106 808 410482 614 0
24 2 S106 851 411333 1465 0
24 2 S106 825 412158 2290 0
24 2 S106 752 412910 3042 0
24 2 S106 758 413668 3800 0
24 2 S106 733 414401 4533 0
24 2 S106 788 415189 5321 0
24 2 S106 831 416020 6152 0
24 2 S106 824 416844 6976 0
0 0 0 762 417606 -8062 0
0 0 0 765 418371 -7297 0
0 0 0 753 419124 -6544 0
0 0 0 764 419888 -5780 0
0 0 0 784 420672 -4996 0
0 0 0 780 421452 -4216 0
0 0 0 740 422192 -3476 0
0 0 0 733 422925 -2743 0
0 0 0 727 423652 -2016 0
25 1 S102 753 424405 -1263 0
25 1 S102 810 425215 -453 0
25 2 S102 848 426063 395 0
25 2 S102 851 426914 1246 0
25 2 S102 811 427725 2057 0
25 2 S102 803 428528 2860 0
25 2 S102 805 429333 3665 0
25 2 S102 812 430145 4477 0
25 2 S102 813 430958 5290 0
25 2 S102 811 431769 6101 0
25 2 S102 790 432559 6891 0
0 0 0 786 433345 -7127 0
0 0 0 781 434126 -6346 0
0 0 0 802 434928 -5544 0
0 0 0 798 435726 -4746 0
0 0 0 773 436499 -3973 0
0 0 0 776 437275 -3197 0
0 0 0 783 438058 -2414 0
26 1 S116 798 438856 -1616 0
26 1 S116 788 439644 -828 0
26 1 S116 760 440404 -68 0
26 2 S116 754 441158 686 0
26 2 S116 766 441924 1452 0
26 2 S116 790 442714 2242 0
26 2 S116 794 443508 3036 0
26 2 S116 765 444273 3801 0
26 2 S116 767 445040 4568 0
26 2 S116 768 445808 5336 0
26 2 S116 771 446579 6107 0
26 2 S116 778 447357 6885 0
0 0 0 767 448124 -6838 0
0 0 0 734 448858 -6104 0
0 0 0 749 449607 -5355 0
0 0 0 760 450367 -4595 0
0 0 0 765 451132 -3830 0
0 0 0 776 451908 -3054 0
0 0 0 743 452651 -2311 0
27 1 S106 730 453381 -1581 0
27 1 S106 721 454102 -860 0
27 1 S106 737 454839 -123 0
27 2 S106 781 455620 658 0
27 2 S106 813 456433 1471 0
27 2 S106 760 457193 2231 0
27 2 S106 763 457956 2994 0
27 2 S106 779 458735 3773 0
27 2 S106 811 459546 4584 0
27 2 S106 831 460377 5415 0
27 2 S106 813 461190 6228 0
27 2 S106 789 461979 7017 0
0 0 0 770 462749 -6404 0
0 0 0 771 463520 -5633 0
0 0 0 785 464305 -4848 0
0 0 0 767 465072 -4081 0
0 0 0 736 465808 -3345 0
0 0 0 721 466529 -2624 0
28 1 S102 686 467215 -1938 0
28 1 S102 667 467882 -1271 0
28 1 S102 631 468513 -640 0
28 1 S102 612 469125 -28 1
28 2 S102 642 469767 614 0
28 2 S102 794 470561 1408 0
28 2 S102 800 471361 2208 0
28 2 S102 836 472197 3044 0
28 2 S102 895 473092 3939 0
28 2 S102 904 473996 4843 0
28 2 S102 890 474886 5733 0
28 2 S102 840 475726 6573 0
0 0 0 807 476533 -10574 0
0 0 0 783 477316 -9791 0
0 0 0 779 478095 -9012 0
0 0 0 765 478860 -8247 0
0 0 0 763 479623 -7484 0
0 0 0 711 480334 -6773 0
0 0 0 712 481046 -6061 0
0 0 0 684 481730 -5377 0
0 0 0 707 482437 -4670 0
0 0 0 751 483188 -3919 0
0 0 0 774 483962 -3145 0
0 0 0 767 484729 -2378 0
29 1 S112 803 485532 -1575 0
29 1 S112 837 486369 -738 0
29 2 S112 853 487222 115 0
29 2 S112 835 488057 950 0
29 2 S112 808 488865 1758 0
29 2 S112 806 489671 2564 0
29 2 S112 813 490484 3377 0
29 2 S112 818 491302 4195 0
29 2 S112 809 492111 5004 0
29 2 S112 780 492891 5784 0
29 2 S112 772 493663 6556 0
0 0 0 772 494435 -7510 0
0 0 0 796 495231 -6714 0
0 0 0 793 496024 -5921 0
0 0 0 789 496813 -5132 0
0 0 0 795 497608 -4337 0
0 0 0 790 498398 -3547 0
0 0 0 801 499199 -2746 0
30 1 S112 768 499967 -1978 0
30 1 S112 760 500727 -1218 0
30 1 S112 774 501501 -444 0
30 2 S112 799 502300 355 0
30 2 S112 828 503128 1183 0
30 2 S112 791 503919 1974 0
30 2 S112 794 504713 2768 0
30 2 S112 814 505527 3582 0
30 2 S112 842 506369 4424 0
30 2 S112 865 507234 5289 0
30 2 S112 834 508068 6123 0
30 2 S112 816 508884 6939 0
0 0 0 819 509703 -9085 0
0 0 0 822 510525 -8263 0
0 0 0 845 511370 -7418 0
0 0 0 823 512193 -6595 0
0 0 0 804 512997 -5791 0
0 0 0 813 513810 -4978 0
0 0 0 831 514641 -4147 0
0 0 0 819 515460 -3328 0
0 0 0 767 516227 -2561 0
31 1 S106 755 516982 -1806 0
31 1 S106 735 517717 -1071 0
31 1 S106 732 518449 -339 0
31 2 S106 743 519192 404 0
31 2 S106 728 519920 1132 0
31 2 S106 723 520643 1855 0
31 2 S106 726 521369 2581 0
31 2 S106 757 522126 3338 0
31 2 S106 786 522912 4124 0
31 2 S106 797 523709 4921 0
31 2 S106 779 524488 5700 0
31 2 S106 781 525269 6481 0
0 0 0 785 526054 -9014 0
0 0 0 785 526839 -8229 0
0 0 0 748 527587 -7481 0
0 0 0 746 528333 -6735 0
0 0 0 741 529074 -5994 0
0 0 0 726 529800 -5268 0
0 0 0 734 530534 -4534 0
0 0 0 675 531209 -3859 0
0 0 0 682 531891 -3177 0
0 0 0 735 532626 -2442 0
32 1 S102 750 533376 -1692 0
32 1 S102 756 534132 -936 0
32 1 S102 800 534932 -136 0
32 2 S102 866 535798 730 0
32 2 S102 882 536680 1612 0
32 2 S102 827 537507 2439 0
32 2 S102 835 538342 3274 0
32 2 S102 846 539188 4120 0
32 2 S102 920 540108 5040 0
32 2 S102 918 541026 5958 0
32 2 S102 866 541892 6824 0
0 0 0 851 542743 -10495 0
0 0 0 894 543637 -9601 0
0 0 0 898 544535 -8703 0
0 0 0 913 545448 -7790 0
0 0 0 881 546329 -6909 0
0 0 0 864 547193 -6045 0
0 0 0 846 548039 -5199 0
0 0 0 841 548880 -4358 0
0 0 0 819 549699 -3539 0
0 0 0 845 550544 -2694 0
33 1 S112 913 551457 -1781 0
33 1 S112 848 552305 -933 0
33 1 S112 777 553082 -156 0
33 2 S112 772 553854 616 0
33 2 S112 794 554648 1410 0
33 2 S112 824 555472 2234 0
33 2 S112 862 556334 3096 0
33 2 S112 885 557219 3981 0
33 2 S112 848 558067 4829 0
33 2 S112 843 558910 5672 0
33 2 S112 838 559748 6510 0
0 0 0 831 560579 -11227 0
0 0 0 825 561404 -10402 0
0 0 0 802 562206 -9600 0
0 0 0 791 562997 -8809 0
0 0 0 765 563762 -8044 0
0 0 0 774 564536 -7270 0
0 0 0 775 565311 -6495 0
0 0 0 789 566100 -5706 0
0 0 0 756 566856 -4950 0
0 0 0 775 567631 -4175 0
0 0 0 757 568388 -3418 0
0 0 0 794 569182 -2624 0
34 1 S106 855 570037 -1769 0
34 1 S106 881 570918 -888 0
34 1 S106 880 571798 -8 0
34 2 S106 838 572636 830 0
34 2 S106 807 573443 1637 0
34 2 S106 787 574230 2424 0
34 2 S106 764 574994 3188 0
34 2 S106 759 575753 3947 0
34 2 S106 729 576482 4676 0
34 2 S106 758 577240 5434 0
34 2 S106 747 577987 6181 0
34 2 S106 757 578744 6938 0
0 0 0 801 579545 -7248 0
0 0 0 838 580383 -6410 0
0 0 0 837 581220 -5573 0
0 0 0 796 582016 -4777 0
0 0 0 779 582795 -3998 0
0 0 0 788 583583 -3210 0
0 0 0 793 584376 -2417 0
35 1 S102 799 585175 -1618 0
35 1 S102 776 585951 -842 0
35 1 S102 750 586701 -92 0
35 2 S102 739 587440 647 0
35 2 S102 750 588190 1397 0
35 2 S102 778 588968 2175 0
35 2 S102 809 589777 2984 0
35 2 S102 825 590602 3809 0
35 2 S102 800 591402 4609 0
35 2 S102 805 592207 5414 0
35 2 S102 818 593025 6232 0
0 0 0 818 593843 -7589 0
0 0 0 817 594660 -6772 0
0 0 0 773 595433 -5999 0
0 0 0 762 596195 -5237 0
0 0 0 749 596944 -4488 0
0 0 0 758 597702 -3730 0
0 0 0 765 598467 -2965 0
0 0 0 760 599227 -2205 0
36 1 S106 744 599971 -1461 0
36 1 S106 752 600723 -709 0
36 2 S106 776 601499 67 0
36 2 S106 799 602298 866 0
36 2 S106 822 603120 1688 0
36 2 S106 781 603901 2469 0
36 2 S106 774 604675 3243 0
36 2 S106 780 605455 4023 0
36 2 S106 799 606254 4822 0
36 2 S106 826 607080 5648 0
36 2 S106 832 607912 6480 0
0 0 0 809 608721 -9471 0
0 0 0 789 609510 -8682 0
0 0 0 808 610318 -7874 0
0 0 0 834 611152 -7040 0
0 0 0 841 611993 -6199 0
0 0 0 811 612804 -5388 0
0 0 0 789 613593 -4599 0
0 0 0 804 614397 -3795 0
0 0 0 820 615217 -2975 0
0 0 0 814 616031 -2161 0
37 1 S116 747 616778 -1414 0
37 1 S116 732 617510 -682 0
37 1 S116 677 618187 -5 0
37 2 S116 651 618838 646 0
37 2 S116 700 619538 1346 0
37 2 S116 786 620324 2132 0
37 2 S116 834 621158 2966 0
37 2 S116 814 621972 3780 0
37 2 S116 790 622762 4570 0
37 2 S116 812 623574 5382 0
37 2 S116 827 624401 6209 0
0 0 0 822 625223 -11272 0
0 0 0 745 625968 -10527 0
0 0 0 725 626693 -9802 0
0 0 0 704 627397 -9098 0
0 0 0 696 628093 -8402 0
0 0 0 734 628827 -7668 0
0 0 0 755 629582 -6913 0
0 0 0 742 630324 -6171 0
0 0 0 669 630993 -5502 0
0 0 0 667 631660 -4835 0
0 0 0 688 632348 -4147 0
0 0 0 731 633079 -3416 0
0 0 0 769 633848 -2647 0
38 1 S102 750 634598 -1897 0
38 1 S102 738 635336 -1159 0
38 1 S102 737 636073 -422 0
38 2 S102 758 636831 336 0
38 2 S102 781 637612 1117 0
38 2 S102 808 638420 1925 0
38 2 S102 793 639213 2718 0
38 2 S102 774 639987 3492 0
38 2 S102 782 640769 4274 0
38 2 S102 803 641572 5077 0
38 2 S102 838 642410 5915 0
38 2 S102 857 643267 6772 0
0 0 0 839 644106 -8918 0
0 0 0 797 644903 -8121 0
0 0 0 789 645692 -7332 0
0 0 0 795 646487 -6537 0
0 0 0 799 647286 -5738 0
0 0 0 816 648102 -4922 0
0 0 0 756 648858 -4166 0
0 0 0 753 649611 -3413 0
0 0 0 720 650331 -2693 0
39 1 S116 731 651062 -1962 0
39 1 S116 743 651805 -1219 0
39 1 S116 782 652587 -437 0
39 2 S116 815 653402 378 0
39 2 S116 788 654190 1166 0
39 2 S116 700 654890 1866 0
39 2 S116 659 655549 2525 0
39 2 S116 642 656191 3167 0
39 2 S116 622 656813 3789 0
39 2 S116 619 657432 4408 0
39 2 S116 641 658073 5049 0
39 2 S116 681 658754 5730 0
39 2 S116 707 659461 6437 0
0 0 0 711 660172 -6595 0
0 0 0 703 660875 -5892 0
0 0 0 707 661582 -5185 0
0 0 0 698 662280 -4487 0
0 0 0 688 662968 -3799 0
0 0 0 692 663660 -3107 0
0 0 0 674 664334 -2433 0
40 1 S112 669 665003 -1764 0
40 1 S112 672 665675 -1092 0
40 1 S112 734 666409 -358 0
40 2 S112 841 667250 483 0
40 2 S112 900 668150 1383 0
40 2 S112 903 669053 2286 0
40 2 S112 902 669955 3188 0
40 2 S112 894 670849 4082 0
40 2 S112 881 671730 4963 0
40 2 S112 889 672619 5852 0
40 2 S112 858 673477 6710 0
0 0 0 834 674311 -187319 0
0 0 0 825 675136 -186494 0
0 0 0 812 675948 -185682 0
0 0 0 815 676763 -184867 0
0 0 0 823 677586 -184044 0
0 0 0 813 678399 -183231 0
0 0 0 802 679201 -182429 0
0 0 0 726 679927 -181703 0
0 0 0 724 680651 -180979 0
0 0 0 666 681317 -180313 0
0 0 0 643 681960 -179670 0
0 0 0 690 682650 -178980 0
0 0 0 767 683417 -178213 0
0 0 0 797 684214 -177416 0
0 0 0 833 685047 -176583 0
0 0 0 845 685892 -175738 0
0 0 0 864 686756 -174874 0
0 0 0 837 687593 -174037 0
0 0 0 834 688427 -173203 0
0 0 0 826 689253 -172377 0
0 0 0 825 690078 -171552 0
0 0 0 802 690880 -170750 0
0 0 0 781 691661 -169969 0
0 0 0 785 692446 -169184 0
0 0 0 802 693248 -168382 0
0 0 0 833 694081 -167549 0
0 0 0 869 694950 -166680 0
0 0 0 823 695773 -165857 0
0 0 0 1506 697279 -164351 1
0 0 0 733 698012 -163618 0
0 0 0 707 698719 -162911 0
0 0 0 698 699417 -162213 0
0 0 0 685 700102 -161528 0
0 0 0 662 700764 -160866 0
0 0 0 637 701401 -160229 0
0 0 0 629 702030 -159600 0
0 0 0 625 702655 -158975 0
0 0 0 631 703286 -158344 0
0 0 0 634 703920 -157710 0
0 0 0 635 704555 -157075 0
0 0 0 648 705203 -156427 0
0 0 0 652 705855 -155775 0
0 0 0 676 706531 -155099 0
0 0 0 694 707225 -154405 0
0 0 0 734 707959 -153671 0
0 0 0 748 708707 -152923 0
0 0 0 787 709494 -152136 0
0 0 0 857 710351 -151279 0
0 0 0 915 711266 -150364 0
0 0 0 907 712173 -149457 0
0 0 0 922 713095 -148535 0
0 0 0 923 714018 -147612 0
0 0 0 919 714937 -146693 0
0 0 0 834 715771 -145859 0
0 0 0 837 716608 -145022 0
0 0 0 824 717432 -144198 0
0 0 0 860 718292 -143338 0
0 0 0 917 719209 -142421 0
0 0 0 914 720123 -141507 0
0 0 0 899 721022 -140608 0
0 0 0 973 721995 -139635 0
0 0 0 994 722989 -138641 1
0 0 0 968 723957 -137673 0
0 0 0 933 724890 -136740 0
0 0 0 939 725829 -135801 0
0 0 0 924 726753 -134877 0
0 0 0 879 727632 -133998 0
0 0 0 822 728454 -133176 0
0 0 0 832 729286 -132344 0
0 0 0 905 730191 -131439 0
0 0 0 929 731120 -130510 0
0 0 0 879 731999 -129631 0
0 0 0 841 732840 -128790 0
0 0 0 869 733709 -127921 0
0 0 0 905 734614 -127016 0
0 0 0 923 735537 -126093 0
0 0 0 896 736433 -125197 0
0 0 0 871 737304 -124326 0
0 0 0 873 738177 -123453 0
0 0 0 893 739070 -122560 0
0 0 0 910 739980 -121650 0
0 0 0 855 740835 -120795 0
0 0 0 797 741632 -119998 0
0 0 0 784 742416 -119214 0
0 0 0 774 743190 -118440 0
0 0 0 843 744033 -117597 0
0 0 0 848 744881 -116749 0
0 0 0 849 745730 -115900 0
0 0 0 888 746618 -115012 0
0 0 0 917 747535 -114095 0
0 0 0 908 748443 -113187 0
0 0 0 867 749310 -112320 0
0 0 0 845 750155 -111475 0
0 0 0 839 750994 -110636 0
0 0 0 824 751818 -109812 0
0 0 0 814 752632 -108998 0
0 0 0 844 753476 -108154 0
0 0 0 883 754359 -107271 0
0 0 0 896 755255 -106375 0
0 0 0 885 756140 -105490 0
0 0 0 888 757028 -104602 0
0 0 0 901 757929 -103701 0
0 0 0 916 758845 -102785 0
0 0 0 856 759701 -101929 0
0 0 0 885 760586 -101044 0
0 0 0 894 761480 -100150 0
0 0 0 847 762327 -99303 0
0 0 0 824 763151 -98479 0
0 0 0 817 763968 -97662 0
0 0 0 830 764798 -96832 0
0 0 0 867 765665 -95965 0
0 0 0 876 766541 -95089 0
0 0 0 837 767378 -94252 0
0 0 0 844 768222 -93408 0
0 0 0 820 769042 -92588 0
0 0 0 784 769826 -91804 0
0 0 0 738 770564 -91066 0
0 0 0 710 771274 -90356 0
0 0 0 687 771961 -89669 0
0 0 0 752 772713 -88917 0
0 0 0 1756 774469 -87161 1
0 0 0 902 775371 -86259 0
0 0 0 883 776254 -85376 0
0 0 0 812 777066 -84564 0
0 0 0 745 777811 -83819 0
0 0 0 672 778483 -83147 0
0 0 0 658 779141 -82489 0
0 0 0 678 779819 -81811 0
0 0 0 740 780559 -81071 0
0 0 0 782 781341 -80289 0
0 0 0 742 782083 -79547 0
0 0 0 702 782785 -78845 0
0 0 0 698 783483 -78147 0
0 0 0 719 784202 -77428 0
0 0 0 825 785027 -76603 0
0 0 0 883 785910 -75720 0
0 0 0 889 786799 -74831 0
0 0 0 837 787636 -73994 0
0 0 0 809 788445 -73185 0
0 0 0 811 789256 -72374 0
0 0 0 820 790076 -71554 0
0 0 0 840 790916 -70714 0
0 0 0 781 791697 -69933 0
0 0 0 751 792448 -69182 0
0 0 0 779 793227 -68403 0
0 0 0 852 794079 -67551 0
0 0 0 923 795002 -66628 0
0 0 0 911 795913 -65717 0
0 0 0 901 796814 -64816 0
0 0 0 832 797646 -63984 0
0 0 0 740 798386 -63244 0
0 0 0 733 799119 -62511 0
0 0 0 687 799806 -61824 0
0 0 0 714 800520 -61110 0
0 0 0 805 801325 -60305 0
0 0 0 877 802202 -59428 0
0 0 0 868 803070 -58560 0
0 0 0 876 803946 -57684 0
0 0 0 809 804755 -56875 0
0 0 0 825 805580 -56050 0
0 0 0 1707 807287 -54343 1
0 0 0 748 808035 -53595 0
0 0 0 710 808745 -52885 0
0 0 0 709 809454 -52176 0
0 0 0 673 810127 -51503 0
0 0 0 686 810813 -50817 0
0 0 0 702 811515 -50115 0
0 0 0 725 812240 -49390 0
0 0 0 675 812915 -48715 0
0 0 0 686 813601 -48029 0
0 0 0 760 814361 -47269 0
0 0 0 829 815190 -46440 0
0 0 0 810 816000 -45630 0
0 0 0 753 816753 -44877 0
0 0 0 746 817499 -44131 0
0 0 0 756 818255 -43375 0
0 0 0 742 818997 -42633 0
0 0 0 798 819795 -41835 0
0 0 0 783 820578 -41052 0
0 0 0 760 821338 -40292 0
0 0 0 724 822062 -39568 0
0 0 0 726 822788 -38842 0
0 0 0 692 823480 -38150 0
0 0 0 658 824138 -37492 0
0 0 0 659 824797 -36833 0
0 0 0 662 825459 -36171 0
0 0 0 716 826175 -35455 0
0 0 0 864 827039 -34591 0
0 0 0 925 827964 -33666 0
0 0 0 946 828910 -32720 0
0 0 0 939 829849 -31781 0
0 0 0 914 830763 -30867 0
0 0 0 902 831665 -29965 0
0 0 0 897 832562 -29068 0
0 0 0 878 833440 -28190 0
0 0 0 866 834306 -27324 0
0 0 0 852 835158 -26472 0
0 0 0 857 836015 -25615 0
0 0 0 853 836868 -24762 0
0 0 0 854 837722 -23908 0
0 0 0 857 838579 -23051 0
0 0 0 861 839440 -22190 0
0 0 0 866 840306 -21324 0
0 0 0 870 841176 -20454 0
0 0 0 878 842054 -19576 0
0 0 0 883 842937 -18693 0
0 0 0 910 843847 -17783 0
0 0 0 874 844721 -16909 0
0 0 0 851 845572 -16058 0
0 0 0 844 846416 -15214 0
0 0 0 840 847256 -14374 0
0 0 0 840 848096 -13534 0
0 0 0 834 848930 -12700 0
0 0 0 850 849780 -11850 0
0 0 0 857 850637 -10993 0
0 0 0 880 851517 -10113 0
0 0 0 895 852412 -9218 0
0 0 0 870 853282 -8348 0
0 0 0 795 854077 -7553 0
0 0 0 771 854848 -6782 0
0 0 0 750 855598 -6032 0
0 0 0 694 856292 -5338 0
0 0 0 698 856990 -4640 0
0 0 0 795 857785 -3845 0
0 0 0 838 858623 -3007 0
0 0 0 765 859388 -2242 0
41 1 S102 777 860165 -1465 0
41 1 S102 822 860987 -643 0
41 2 S102 877 861864 234 0
41 2 S102 862 862726 1096 0
41 2 S102 773 863499 1869 0
41 2 S102 776 864275 2645 0
41 2 S102 780 865055 3425 0
41 2 S102 798 865853 4223 0
41 2 S102 762 866615 4985 0
41 2 S102 795 867410 5780 0
41 2 S102 793 868203 6573 0
0 0 0 792 868995 -6212 0
0 0 0 747 869742 -5465 0
0 0 0 756 870498 -4709 0
0 0 0 767 871265 -3942 0
0 0 0 795 872060 -3147 0
0 0 0 833 872893 -2314 0
42 1 S112 782 873675 -1532 0
42 1 S112 766 874441 -766 0
42 1 S112 763 875204 -3 0
42 2 S112 781 875985 778 0
42 2 S112 808 876793 1586 0
42 2 S112 834 877627 2420 0
42 2 S112 852 878479 3272 0
42 2 S112 860 879339 4132 0
42 2 S112 866 880205 4998 0
42 2 S112 859 881064 5857 0
42 2 S112 837 881901 6694 0
0 0 0 819 882720 -9198 0
0 0 0 802 883522 -8396 0
0 0 0 806 884328 -7590 0
0 0 0 825 885153 -6765 0
0 0 0 821 885974 -5944 0
0 0 0 823 886797 -5121 0
0 0 0 801 887598 -4320 0
0 0 0 800 888398 -3520 0
0 0 0 811 889209 -2709 0
43 1 S116 819 890028 -1890 0
43 1 S116 848 890876 -1042 0
43 1 S116 860 891736 -182 0
43 2 S116 841 892577 659 0
43 2 S116 861 893438 1520 0
43 2 S116 880 894318 2400 0
43 2 S116 882 895200 3282 0
43 2 S116 869 896069 4151 0
43 2 S116 809 896878 4960 0
43 2 S116 823 897701 5783 0
43 2 S116 819 898520 6602 0
0 0 0 831 899351 -6991 0
0 0 0 850 900201 -6141 0
0 0 0 841 901042 -5300 0
0 0 0 831 901873 -4469 0
0 0 0 838 902711 -3631 0
0 0 0 857 903568 -2774 0
44 1 S102 866 904434 -1908 0
44 1 S102 838 905272 -1070 0
44 1 S102 819 906091 -251 0
44 2 S102 827 906918 576 0
44 2 S102 848 907766 1424 0
44 2 S102 858 908624 2282 0
44 2 S102 866 909490 3148 0
44 2 S102 817 910307 3965 0
44 2 S102 779 911086 4744 0
44 2 S102 801 911887 5545 0
44 2 S102 810 912697 6355 0
0 0 0 847 913544 -8630 0
0 0 0 867 914411 -7763 0
0 0 0 840 915251 -6923 0
0 0 0 845 916096 -6078 0
0 0 0 850 916946 -5228 0
0 0 0 853 917799 -4375 0
0 0 0 826 918625 -3549 0
0 0 0 783 919408 -2766 0
45 1 S116 774 920182 -1992 0
45 1 S116 771 920953 -1221 0
45 1 S116 792 921745 -429 0
45 2 S116 835 922580 406 0
45 2 S116 874 923454 1280 0
45 2 S116 907 924361 2187 0
45 2 S116 865 925226 3052 0
45 2 S116 840 926066 3892 0
45 2 S116 846 926912 4738 0
45 2 S116 862 927774 5600 0
45 2 S116 875 928649 6475 0
0 0 0 867 929516 -11740 0
0 0 0 825 930341 -10915 0
0 0 0 780 931121 -10135 0
0 0 0 768 931889 -9367 0
0 0 0 777 932666 -8590 0
0 0 0 787 933453 -7803 0
0 0 0 828 934281 -6975 0
0 0 0 857 935138 -6118 0
0 0 0 842 935980 -5276 0
0 0 0 836 936816 -4440 0
0 0 0 842 937658 -3598 0
0 0 0 855 938513 -2743 0
46 1 S102 864 939377 -1879 0
46 1 S102 851 940228 -1028 0
46 1 S102 806 941034 -222 0
46 2 S102 785 941819 563 0
46 2 S102 780 942599 1343 0
46 2 S102 800 943399 2143 0
46 2 S102 834 944233 2977 0
46 2 S102 876 945109 3853 0
46 2 S102 852 945961 4705 0
46 2 S102 854 946815 5559 0
46 2 S102 872 947687 6431 0
0 0 0 874 948561 -9455 0
0 0 0 866 949427 -8589 0
0 0 0 828 950255 -7761 0
0 0 0 834 951089 -6927 0
0 0 0 828 951917 -6099 0
0 0 0 825 952742 -5274 0
0 0 0 826 953568 -4448 0
0 0 0 795 954363 -3653 0
0 0 0 796 955159 -2857 0
0 0 0 814 955973 -2043 0
47 1 S112 840 956813 -1203 0
47 1 S112 864 957677 -339 0
47 2 S112 846 958523 507 0
47 2 S112 828 959351 1335 0
47 2 S112 840 960191 2175 0
47 2 S112 849 961040 3024 0
47 2 S112 883 961923 3907 0
47 2 S112 887 962810 4794 0
47 2 S112 882 963692 5676 0
47 2 S112 876 964568 6552 0
0 0 0 859 965427 -10793 0
0 0 0 820 966247 -9973 0
0 0 0 802 967049 -9171 0
0 0 0 797 967846 -8374 0
0 0 0 816 968662 -7558 0
0 0 0 846 969508 -6712 0
0 0 0 780 970288 -5932 0
0 0 0 764 971052 -5168 0
0 0 0 759 971811 -4409 0
0 0 0 801 972612 -3608 0
0 0 0 768 973380 -2840 0
0 0 0 737 974117 -2103 0
48 1 S116 719 974836 -1384 0
48 1 S116 723 975559 -661 0
48 2 S116 670 976229 9 0
48 2 S116 676 976905 685 0
48 2 S116 712 977617 1397 0
48 2 S116 718 978335 2115 0
48 2 S116 720 979055 2835 0
48 2 S116 732 979787 3567 0
48 2 S116 769 980556 4336 0
48 2 S116 792 981348 5128 0
48 2 S116 794 982142 5922 0
48 2 S116 775 982917 6697 0
0 0 0 788 983705 -6142 0
0 0 0 805 984510 -5337 0
0 0 0 817 985327 -4520 0
0 0 0 817 986144 -3703 0
0 0 0 806 986950 -2897 0
0 0 0 789 987739 -2108 0
49 1 S112 783 988522 -1325 0
49 1 S112 801 989323 -524 0
49 2 S112 849 990172 325 0
49 2 S112 904 991076 1229 0
49 2 S112 877 991953 2106 0
49 2 S112 872 992825 2978 0
49 2 S112 885 993710 3863 0
49 2 S112 895 994605 4758 0
49 2 S112 894 995499 5652 0
49 2 S112 860 996359 6512 0
0 0 0 822 997181 -9907 0
0 0 0 799 997980 -9108 0
0 0 0 800 998780 -8308 0
0 0 0 808 999588 -7500 0
0 0 0 849 1000437 -6651 0
0 0 0 874 1001311 -5777 0
0 0 0 830 1002141 -4947 0
0 0 0 762 1002903 -4185 0
0 0 0 740 1003643 -3445 0
0 0 0 720 1004363 -2725 0
0 0 0 683 1005046 -2042 0
50 1 S106 644 1005690 -1398 0
50 1 S106 632 1006322 -766 0
50 1 S106 647 1006969 -119 0
50 2 S106 667 1007636 548 0
50 2 S106 669 1008305 1217 0
50 2 S106 672 1008977 1889 0
50 2 S106 681 1009658 2570 0
50 2 S106 694 1010352 3264 0
50 2 S106 715 1011067 3979 0
50 2 S106 738 1011805 4717 0
50 2 S106 765 1012570 5482 0
50 2 S106 762 1013332 6244 0
50 2 S106 762 1014094 7006 0
0 0 0 777 1014871 -6027 0
0 0 0 803 1015674 -5224 0
0 0 0 841 1016515 -4383 0
0 0 0 872 1017387 -3511 0
0 0 0 846 1018233 -2665 0
51 1 S112 776 1019009 -1889 0
51 1 S112 783 1019792 -1106 0
51 1 S112 786 1020578 -320 0
51 2 S112 811 1021389 491 0
51 2 S112 836 1022225 1327 0
51 2 S112 839 1023064 2166 0
51 2 S112 821 1023885 2987 0
51 2 S112 817 1024702 3804 0
51 2 S112 828 1025530 4632 0
51 2 S112 843 1026373 5475 0
51 2 S112 840 1027213 6315 0
0 0 0 830 1028043 -6566 0
0 0 0 815 1028858 -5751 0
0 0 0 835 1029693 -4916 0
0 0 0 840 1030533 -4076 0
0 0 0 867 1031400 -3209 0
0 0 0 874 1032274 -2335 0
52 1 S116 830 1033104 -1505 0
52 1 S116 804 1033908 -701 0
52 2 S116 815 1034723 114 0
52 2 S116 849 1035572 963 0
52 2 S116 915 1036487 1878 0
52 2 S116 819 1037306 2697 0
52 2 S116 789 1038095 3486 0
52 2 S116 838 1038933 4324 0
52 2 S116 906 1039839 5230 0
52 2 S116 929 1040768 6159 0
0 0 0 922 1041690 -9099 0
0 0 0 873 1042563 -8226 0
0 0 0 836 1043399 -7390 0
0 0 0 821 1044220 -6569 0
0 0 0 816 1045036 -5753 0
0 0 0 819 1045855 -4934 0
0 0 0 838 1046693 -4096 0
0 0 0 820 1047513 -3276 0
0 0 0 798 1048311 -2478 0
53 1 S106 803 1049114 -1675 0
53 1 S106 823 1049937 -852 0
53 2 S106 855 1050792 3 0
53 2 S106 920 1051712 923 0
53 2 S106 890 1052602 1813 0
53 2 S106 888 1053490 2701 0
53 2 S106 877 1054367 3578 0
53 2 S106 880 1055247 4458 0
53 2 S106 881 1056128 5339 0
53 2 S106 864 1056992 6203 0
53 2 S106 811 1057803 7014 0
0 0 0 805 1058608 -5560 0
0 0 0 816 1059424 -4744 0
0 0 0 834 1060258 -3910 0
0 0 0 830 1061088 -3080 0
0 0 0 796 1061884 -2284 0
54 1 S102 800 1062684 -1484 0
54 1 S102 727 1063411 -757 0
54 1 S102 745 1064156 -12 0
54 2 S102 790 1064946 778 0
54 2 S102 829 1065775 1607 0
54 2 S102 822 1066597 2429 0
54 2 S102 829 1067426 3258 0
54 2 S102 833 1068259 4091 0
54 2 S102 843 1069102 4934 0
54 2 S102 841 1069943 5775 0
54 2 S102 834 1070777 6609 0
0 0 0 790 1071567 -9693 0
0 0 0 783 1072350 -8910 0
0 0 0 777 1073127 -8133 0
0 0 0 782 1073909 -7351 0
0 0 0 816 1074725 -6535 0
0 0 0 829 1075554 -5706 0
0 0 0 801 1076355 -4905 0
0 0 0 811 1077166 -4094 0
0 0 0 832 1077998 -3262 0
0 0 0 864 1078862 -2398 0
55 1 S106 877 1079739 -1521 0
55 1 S106 864 1080603 -657 0
55 2 S106 821 1081424 164 0
55 2 S106 818 1082242 982 0
55 2 S106 814 1083056 1796 0
55 2 S106 770 1083826 2566 0
55 2 S106 728 1084554 3294 0
55 2 S106 707 1085261 4001 0
55 2 S106 674 1085935 4675 0
55 2 S106 662 1086597 5337 0
55 2 S106 659 1087256 5996 0
55 2 S106 626 1087882 6622 0
0 0 0 627 1088509 -6975 0
0 0 0 616 1089125 -6359 0
0 0 0 659 1089784 -5700 0
0 0 0 805 1090589 -4895 0
0 0 0 815 1091404 -4080 0
0 0 0 838 1092242 -3242 0
0 0 0 822 1093064 -2420 0
56 1 S116 827 1093891 -1593 0
56 1 S116 798 1094689 -795 0
56 1 S116 789 1095478 -6 0
56 2 S116 756 1096234 750 0
56 2 S116 751 1096985 1501 0
56 2 S116 763 1097748 2264 0
56 2 S116 797 1098545 3061 0
56 2 S116 840 1099385 3901 0
56 2 S116 862 1100247 4763 0
56 2 S116 863 1101110 5626 0
56 2 S116 834 1101944 6460 0
0 0 0 840 1102784 -7256 0
0 0 0 850 1103634 -6406 0
0 0 0 857 1104491 -5549 0
0 0 0 872 1105363 -4677 0
0 0 0 825 1106188 -3852 0
0 0 0 801 1106989 -3051 0
0 0 0 789 1107778 -2262 0
57 1 S106 806 1108584 -1456 0
57 1 S106 842 1109426 -614 0
57 2 S106 898 1110324 284 0
57 2 S106 908 1111232 1192 0
57 2 S106 896 1112128 2088 0
57 2 S106 892 1113020 2980 0
57 2 S106 870 1113890 3850 0
57 2 S106 809 1114699 4659 0
57 2 S106 761 1115460 5420 0
57 2 S106 724 1116184 6144 0
57 2 S106 689 1116873 6833 0
0 0 0 656 1117529 -8277 0
0 0 0 639 1118168 -7638 0
0 0 0 629 1118797 -7009 0
0 0 0 622 1119419 -6387 0
0 0 0 628 1120047 -5759 0
0 0 0 637 1120684 -5122 0
0 0 0 651 1121335 -4471 0
0 0 0 634 1121969 -3837 0
0 0 0 661 1122630 -3176 0
0 0 0 736 1123366 -2440 0
58 1 S102 919 1124285 -1521 0
58 1 S102 891 1125176 -630 0
58 2 S102 854 1126030 224 0
58 2 S102 809 1126839 1033 0
58 2 S102 793 1127632 1826 0
58 2 S102 784 1128416 2610 0
58 2 S102 771 1129187 3381 0
58 2 S102 760 1129947 4141 0
58 2 S102 757 1130704 4898 0
58 2 S102 746 1131450 5644 0
58 2 S102 744 1132194 6388 0
0 0 0 752 1132946 -6902 0
0 0 0 779 1133725 -6123 0
0 0 0 792 1134517 -5331 0
0 0 0 797 1135314 -4534 0
0 0 0 744 1136058 -3790 0
0 0 0 745 1136803 -3045 0
0 0 0 689 1137492 -2356 0
59 1 S112 690 1138182 -1666 0
59 1 S112 744 1138926 -922 0
59 1 S112 803 1139729 -119 0
59 2 S112 820 1140549 701 0
59 2 S112 837 1141386 1538 0
59 2 S112 860 1142246 2398 0
59 2 S112 877 1143123 3275 0
59 2 S112 872 1143995 4147 0
59 2 S112 855 1144850 5002 0
59 2 S112 828 1145678 5830 0
59 2 S112 824 1146502 6654 0
0 0 0 835 1147337 -9852 0
0 0 0 850 1148187 -9002 0
0 0 0 862 1149049 -8140 0
0 0 0 844 1149893 -7296 0
0 0 0 846 1150739 -6450 0
0 0 0 860 1151599 -5590 0
0 0 0 873 1152472 -4717 0
0 0 0 849 1153321 -3868 0
0 0 0 825 1154146 -3043 0
0 0 0 829 1154975 -2214 0
60 1 S102 846 1155821 -1368 0
60 1 S102 841 1156662 -527 0
60 2 S102 812 1157474 285 0
60 2 S102 794 1158268 1079 0
60 2 S102 809 1159077 1888 0
60 2 S102 821 1159898 2709 0
60 2 S102 787 1160685 3496 0
60 2 S102 815 1161500 4311 0
60 2 S102 822 1162322 5133 0
60 2 S102 875 1163197 6008 0
60 2 S102 871 1164068 6879 0
0 0 0 810 1164878 -9884 0
0 0 0 816 1165694 -9068 0
0 0 0 829 1166523 -8239 0
0 0 0 826 1167349 -7413 0
0 0 0 827 1168176 -6586 0
0 0 0 805 1168981 -5781 0
0 0 0 780 1169761 -5001 0
0 0 0 783 1170544 -4218 0
0 0 0 791 1171335 -3427 0
0 0 0 809 1172144 -2618 0
61 1 S106 835 1172979 -1783 0
61 1 S106 808 1173787 -975 0
61 1 S106 775 1174562 -200 0
61 2 S106 761 1175323 561 0
61 2 S106 764 1176087 1325 0
61 2 S106 827 1176914 2152 0
61 2 S106 894 1177808 3046 0
61 2 S106 902 1178710 3948 0
61 2 S106 812 1179522 4760 0
61 2 S106 793 1180315 5553 0
61 2 S106 803 1181118 6356 0
0 0 0 807 1181925 -5818 0
0 0 0 838 1182763 -4980 0
0 0 0 836 1183599 -4144 0
0 0 0 796 1184395 -3348 0
0 0 0 767 1185162 -2581 0
62 1 S112 785 1185947 -1796 0
62 1 S112 804 1186751 -992 0
62 1 S112 827 1187578 -165 0
62 2 S112 836 1188414 671 0
62 2 S112 863 1189277 1534 0
62 2 S112 875 1190152 2409 0
62 2 S112 895 1191047 3304 0
62 2 S112 858 1191905 4162 0
62 2 S112 872 1192777 5034 0
62 2 S112 864 1193641 5898 0
62 2 S112 818 1194459 6716 0
0 0 0 814 1195273 -9911 0
0 0 0 816 1196089 -9095 0
0 0 0 834 1196923 -8261 0
0 0 0 824 1197747 -7437 0
0 0 0 793 1198540 -6644 0
0 0 0 769 1199309 -5875 0
0 0 0 715 1200024 -5160 0
0 0 0 681 1200705 -4479 0
0 0 0 703 1201408 -3776 0
0 0 0 735 1202143 -3041 0
0 0 0 745 1202888 -2296 0
63 1 S102 765 1203653 -1531 0
63 1 S102 804 1204457 -727 0
63 2 S102 829 1205286 102 0
63 2 S102 833 1206119 935 0
63 2 S102 810 1206929 1745 0
63 2 S102 790 1207719 2535 0
63 2 S102 780 1208499 3315 0
63 2 S102 790 1209289 4105 0
63 2 S102 799 1210088 4904 0
63 2 S102 816 1210904 5720 0
63 2 S102 811 1211715 6531 0
0 0 0 814 1212529 -9001 0
0 0 0 830 1213359 -8171 0
0 0 0 853 1214212 -7318 0
0 0 0 862 1215074 -6456 0
0 0 0 834 1215908 -5622 0
0 0 0 808 1216716 -4814 0
0 0 0 808 1217524 -4006 0
0 0 0 818 1218342 -3188 0
0 0 0 826 1219168 -2362 0
64 1 S112 803 1219971 -1559 0
64 1 S112 778 1220749 -781 0
64 1 S112 768 1221517 -13 0
64 2 S112 786 1222303 773 0
64 2 S112 838 1223141 1611 0
64 2 S112 868 1224009 2479 0
64 2 S112 837 1224846 3316 0
64 2 S112 852 1225698 4168 0
64 2 S112 868 1226566 5036 0
64 2 S112 882 1227448 5918 0
64 2 S112 869 1228317 6787 0
0 0 0 832 1229149 -7252 0
0 0 0 801 1229950 -6451 0
0 0 0 797 1230747 -5654 0
0 0 0 815 1231562 -4839 0
0 0 0 807 1232369 -4032 0
0 0 0 799 1233168 -3233 0
0 0 0 781 1233949 -2452 0
65 1 S106 781 1234730 -1671 0
65 1 S106 808 1235538 -863 0
65 1 S106 844 1236382 -19 0
65 2 S106 868 1237250 849 0
65 2 S106 843 1238093 1692 0
65 2 S106 828 1238921 2520 0
65 2 S106 829 1239750 3349 0
65 2 S106 825 1240575 4174 0
65 2 S106 824 1241399 4998 0
65 2 S106 801 1242200 5799 0
65 2 S106 787 1242987 6586 0
0 0 0 793 1243780 -5884 0
0 0 0 823 1244603 -5061 0
0 0 0 844 1245447 -4217 0
0 0 0 836 1246283 -3381 0
0 0 0 798 1247081 -2583 0
66 1 S116 795 1247876 -1788 0
66 1 S116 814 1248690 -974 0
66 1 S116 839 1249529 -135 0
66 2 S116 849 1250378 714 0
66 2 S116 809 1251187 1523 0
66 2 S116 738 1251925 2261 0
66 2 S116 707 1252632 2968 0
66 2 S116 679 1253311 3647 0
66 2 S116 667 1253978 4314 0
66 2 S116 736 1254714 5050 0
66 2 S116 831 1255545 5881 0
66 2 S116 839 1256384 6720 0
0 0 0 838 1257222 -10031 0
0 0 0 826 1258048 -9205 0
0 0 0 752 1258800 -8453 0
0 0 0 712 1259512 -7741 0
0 0 0 668 1260180 -7073 0
0 0 0 657 1260837 -6416 0
0 0 0 640 1261477 -5776 0
0 0 0 620 1262097 -5156 0
0 0 0 630 1262727 -4526 0
0 0 0 666 1263393 -3860 0
0 0 0 729 1264122 -3131 0
0 0 0 797 1264919 -2334 0
67 1 S102 866 1265785 -1468 0
67 1 S102 890 1266675 -578 0
67 2 S102 911 1267586 333 0
67 2 S102 872 1268458 1205 0
67 2 S102 850 1269308 2055 0
67 2 S102 843 1270151 2898 0
67 2 S102 825 1270976 3723 0
67 2 S102 817 1271793 4540 0
67 2 S102 796 1272589 5336 0
67 2 S102 790 1273379 6126 0
67 2 S102 793 1274172 6919 0
0 0 0 815 1274987 -5811 0
0 0 0 856 1275843 -4955 0
0 0 0 860 1276703 -4095 0
0 0 0 836 1277539 -3259 0
0 0 0 814 1278353 -2445 0
68 1 S106 816 1279169 -1629 0
68 1 S106 836 1280005 -793 0
68 2 S106 838 1280843 45 0
68 2 S106 856 1281699 901 0
68 2 S106 807 1282506 1708 0
68 2 S106 764 1283270 2472 0
68 2 S106 747 1284017 3219 0
68 2 S106 761 1284778 3980 0
68 2 S106 801 1285579 4781 0
68 2 S106 853 1286432 5634 0
68 2 S106 891 1287323 6525 0
0 0 0 863 1288186 -9621 0
0 0 0 866 1289052 -8755 0
0 0 0 847 1289899 -7908 0
0 0 0 828 1290727 -7080 0
0 0 0 801 1291528 -6279 0
0 0 0 771 1292299 -5508 0
0 0 0 758 1293057 -4750 0
0 0 0 754 1293811 -3996 0
0 0 0 780 1294591 -3216 0
0 0 0 794 1295385 -2422 0
69 1 S102 791 1296176 -1631 0
69 1 S102 754 1296930 -877 0
69 1 S102 735 1297665 -142 0
69 2 S102 804 1298469 662 0
69 2 S102 841 1299310 1503 0
69 2 S102 807 1300117 2310 0
69 2 S102 821 1300938 3131 0
69 2 S102 832 1301770 3963 0
69 2 S102 848 1302618 4811 0
69 2 S102 840 1303458 5651 0
69 2 S102 835 1304293 6486 0
0 0 0 805 1305098 -8591 0
0 0 0 781 1305879 -7810 0
0 0 0 773 1306652 -7037 0
0 0 0 779 1307431 -6258 0
0 0 0 799 1308230 -5459 0
0 0 0 832 1309062 -4627 0
0 0 0 855 1309917 -3772 0
0 0 0 799 1310716 -2973 0
0 0 0 757 1311473 -2216 0
70 1 S112 759 1312232 -1457 0
70 1 S112 778 1313010 -679 0
70 2 S112 837 1313847 158 0
70 2 S112 854 1314701 1012 0
70 2 S112 826 1315527 1838 0
70 2 S112 810 1316337 2648 0
70 2 S112 823 1317160 3471 0
70 2 S112 844 1318004 4315 0
70 2 S112 862 1318866 5177 0
70 2 S112 853 1319719 6030 0
70 2 S112 812 1320531 6842 0
0 0 0 818 1321349 -11455 0
0 0 0 824 1322173 -10631 0
0 0 0 859 1323032 -9772 0
0 0 0 862 1323894 -8910 0
0 0 0 818 1324712 -8092 0
0 0 0 795 1325507 -7297 0
0 0 0 801 1326308 -6496 0
0 0 0 775 1327083 -5721 0
0 0 0 777 1327860 -4944 0
0 0 0 775 1328635 -4169 0
0 0 0 777 1329412 -3392 0
0 0 0 783 1330195 -2609 0
71 1 S116 824 1331019 -1785 0
71 1 S116 850 1331869 -935 0
71 1 S116 862 1332731 -73 0
71 2 S116 833 1333564 760 0
71 2 S116 829 1334393 1589 0
71 2 S116 826 1335219 2415 0
71 2 S116 836 1336055 3251 0
71 2 S116 849 1336904 4100 0
71 2 S116 829 1337733 4929 0
71 2 S116 748 1338481 5677 0
71 2 S116 757 1339238 6434 0
0 0 0 717 1339955 -9129 0
0 0 0 763 1340718 -8366 0
0 0 0 829 1341547 -7537 0
0 0 0 858 1342405 -6679 0
0 0 0 830 1343235 -5849 0
0 0 0 780 1344015 -5069 0
0 0 0 762 1344777 -4307 0
0 0 0 772 1345549 -3535 0
0 0 0 827 1346376 -2708 0
72 1 S102 888 1347264 -1820 0
72 1 S102 843 1348107 -977 0
72 1 S102 788 1348895 -189 0
72 2 S102 800 1349695 611 0
72 2 S102 814 1350509 1425 0
72 2 S102 822 1351331 2247 0
72 2 S102 833 1352164 3080 0
72 2 S102 820 1352984 3900 0
72 2 S102 844 1353828 4744 0
72 2 S102 855 1354683 5599 0
72 2 S102 870 1355553 6469 0
0 0 0 858 1356411 -5952 0
0 0 0 841 1357252 -5111 0
0 0 0 838 1358090 -4273 0
0 0 0 836 1358926 -3437 0
0 0 0 832 1359758 -2605 0
73 1 S116 844 1360602 -1761 0
73 1 S116 812 1361414 -949 0
73 1 S116 813 1362227 -136 0
73 2 S116 826 1363053 690 0
73 2 S116 857 1363910 1547 0
73 2 S116 871 1364781 2418 0
73 2 S116 849 1365630 3267 0
73 2 S116 738 1366368 4005 0
73 2 S116 749 1367117 4754 0
73 2 S116 681 1367798 5435 0
73 2 S116 673 1368471 6108 0
73 2 S116 690 1369161 6798 0
0 0 0 713 1369874 -9300 0
0 0 0 731 1370605 -8569 0
0 0 0 740 1371345 -7829 0
0 0 0 746 1372091 -7083 0
0 0 0 736 1372827 -6347 0
0 0 0 723 1373550 -5624 0
0 0 0 706 1374256 -4918 0
0 0 0 700 1374956 -4218 0
0 0 0 692 1375648 -3526 0
0 0 0 699 1376347 -2827 0
0 0 0 687 1377034 -2140 0
74 1 S106 655 1377689 -1485 0
74 1 S106 679 1378368 -806 0
74 1 S106 760 1379128 -46 0
74 2 S106 815 1379943 769 0
74 2 S106 763 1380706 1532 0
74 2 S106 747 1381453 2279 0
74 2 S106 746 1382199 3025 0
74 2 S106 784 1382983 3809 0
74 2 S106 775 1383758 4584 0
74 2 S106 737 1384495 5321 0
74 2 S106 703 1385198 6024 0
74 2 S106 664 1385862 6688 0
0 0 0 650 1386512 -7085 0
0 0 0 624 1387136 -6461 0
0 0 0 633 1387769 -5828 0
0 0 0 658 1388427 -5170 0
0 0 0 699 1389126 -4471 0
0 0 0 745 1389871 -3726 0
0 0 0 782 1390653 -2944 0
0 0 0 807 1391460 -2137 0
75 1 S112 808 1392268 -1329 0
75 1 S112 844 1393112 -485 0
75 2 S112 874 1393986 389 0
75 2 S112 881 1394867 1270 0
75 2 S112 884 1395751 2154 0
75 2 S112 870 1396621 3024 0
75 2 S112 813 1397434 3837 0
75 2 S112 794 1398228 4631 0
75 2 S112 781 1399009 5412 0
75 2 S112 776 1399785 6188 0
75 2 S112 804 1400589 6992 0
0 0 0 811 1401400 -6869 0
0 0 0 809 1402209 -6060 0
0 0 0 816 1403025 -5244 0
0 0 0 815 1403840 -4429 0
0 0 0 766 1404606 -3663 0
0 0 0 713 1405319 -2950 0
0 0 0 723 1406042 -2227 0
76 1 S116 709 1406751 -1518 0
76 1 S116 724 1407475 -794 0
76 1 S116 675 1408150 -119 0
76 2 S116 717 1408867 598 0
76 2 S116 801 1409668 1399 0
76 2 S116 857 1410525 2256 0
76 2 S116 871 1411396 3127 0
76 2 S116 875 1412271 4002 0
76 2 S116 864 1413135 4866 0
76 2 S116 863 1413998 5729 0
76 2 S116 837 1414835 6566 0
0 0 0 805 1415640 -6140 0
0 0 0 763 1416403 -5377 0
0 0 0 763 1417166 -4614 0
0 0 0 782 1417948 -3832 0
0 0 0 814 1418762 -3018 0
0 0 0 857 1419619 -2161 0
77 1 S106 845 1420464 -1316 0
77 1 S106 835 1421299 -481 0
77 2 S106 838 1422137 357 0
77 2 S106 856 1422993 1213 0
77 2 S106 866 1423859 2079 0
77 2 S106 884 1424743 2963 0
77 2 S106 882 1425625 3845 0
77 2 S106 879 1426504 4724 0
77 2 S106 874 1427378 5598 0
77 2 S106 865 1428243 6463 0
0 0 0 848 1429091 -7859 0
0 0 0 825 1429916 -7034 0
0 0 0 784 1430700 -6250 0
0 0 0 756 1431456 -5494 0
0 0 0 745 1432201 -4749 0
0 0 0 757 1432958 -3992 0
0 0 0 802 1433760 -3190 0
0 0 0 861 1434621 -2329 0
78 1 S112 940 1435561 -1389 0
78 1 S112 888 1436449 -501 0
78 2 S112 854 1437303 353 0
78 2 S112 868 1438171 1221 0
78 2 S112 877 1439048 2098 0
78 2 S112 882 1439930 2980 0
78 2 S112 873 1440803 3853 0
78 2 S112 819 1441622 4672 0
78 2 S112 815 1442437 5487 0
78 2 S112 802 1443239 6289 0
0 0 0 790 1444029 -10378 0
0 0 0 809 1444838 -9569 0
0 0 0 792 1445630 -8777 0
0 0 0 743 1446373 -8034 0
0 0 0 729 1447102 -7305 0
0 0 0 745 1447847 -6560 0
0 0 0 768 1448615 -5792 0
0 0 0 809 1449424 -4983 0
0 0 0 847 1450271 -4136 0
0 0 0 812 1451083 -3324 0
0 0 0 771 1451854 -2553 0
79 1 S102 741 1452595 -1812 0
79 1 S102 691 1453286 -1121 0
79 1 S102 662 1453948 -459 0
79 2 S102 695 1454643 236 0
79 2 S102 741 1455384 977 0
79 2 S102 780 1456164 1757 0
79 2 S102 814 1456978 2571 0
79 2 S102 857 1457835 3428 0
79 2 S102 883 1458718 4311 0
79 2 S102 901 1459619 5212 0
79 2 S102 899 1460518 6111 0
79 2 S102 871 1461389 6982 0
0 0 0 868 1462257 -8264 0
0 0 0 863 1463120 -7401 0
0 0 0 854 1463974 -6547 0
0 0 0 842 1464816 -5705 0
0 0 0 804 1465620 -4901 0
0 0 0 779 1466399 -4122 0
0 0 0 753 1467152 -3369 0
0 0 0 756 1467908 -2613 0
80 1 S116 792 1468700 -1821 0
80 1 S116 815 1469515 -1006 0
80 1 S116 825 1470340 -181 0
80 2 S116 844 1471184 663 0
80 2 S116 902 1472086 1565 0
80 2 S116 888 1472974 2453 0
80 2 S116 797 1473771 3250 0
80 2 S116 812 1474583 4062 0
80 2 S116 831 1475414 4893 0
80 2 S116 833 1476247 5726 0
80 2 S116 834 1477081 6560 0
