T_0162
BeatCount Mean SD BeatCountNoOutliers MeanNoOutliers SDNoOutliers
2053 759,79249878227 85,9959754840587 2035 757,309582309582 82,1260108186246

Trial TrialStatus Trialtype IBI AbsPosition RelPosition Outlier
0 0 0 720 1188 -14440 0
0 0 0 690 1878 -13750 0
0 0 0 680 2558 -13070 0
0 0 0 699 3257 -12371 0
0 0 0 713 3970 -11658 0
0 0 0 675 4645 -10983 0
0 0 0 645 5290 -10338 0
0 0 0 631 5921 -9707 0
0 0 0 642 6563 -9065 0
0 0 0 668 7231 -8397 0
0 0 0 765 7996 -7632 0
0 0 0 752 8748 -6880 0
0 0 0 696 9444 -6184 0
0 0 0 700 10144 -5484 0
0 0 0 711 10855 -4773 0
0 0 0 690 11545 -4083 0
0 0 0 678 12223 -3405 0
0 0 0 653 12876 -2752 0
0 0 0 688 13564 -2064 0
1 1 S112 721 14285 -1343 0
1 1 S112 719 15004 -624 0
1 2 S112 717 15721 93 0
1 2 S112 669 16390 762 0
1 2 S112 704 17094 1466 0
1 2 S112 726 17820 2192 0
1 2 S112 732 18552 2924 0
1 2 S112 720 19272 3644 0
1 2 S112 740 20012 4384 0
1 2 S112 782 20794 5166 0
1 2 S112 766 21560 5932 0
1 2 S112 721 22281 6653 0
0 0 0 766 23047 -13188 0
0 0 0 813 23860 -12375 0
0 0 0 762 24622 -11613 0
0 0 0 691 25313 -10922 0
0 0 0 712 26025 -10210 0
0 0 0 766 26791 -9444 0
0 0 0 804 27595 -8640 0
0 0 0 755 28350 -7885 0
0 0 0 770 29120 -7115 0
0 0 0 790 29910 -6325 0
0 0 0 734 30644 -5591 0
0 0 0 696 31340 -4895 0
0 0 0 761 32101 -4134 0
0 0 0 802 32903 -3332 0
0 0 0 776 33679 -2556 0
2 1 S102 709 34388 -1847 0
2 1 S102 767 35155 -1080 0
2 1 S102 798 35953 -282 0
2 2 S102 742 36695 460 0
2 2 S102 741 37436 1201 0
2 2 S102 797 38233 1998 0
2 2 S102 787 39020 2785 0
2 2 S102 730 39750 3515 0
2 2 S102 764 40514 4279 0
2 2 S102 759 41273 5038 0
2 2 S102 702 41975 5740 0
2 2 S102 759 42734 6499 0
0 0 0 777 43511 -8225 0
0 0 0 798 44309 -7427 0
0 0 0 730 45039 -6697 0
0 0 0 737 45776 -5960 0
0 0 0 729 46505 -5231 0
0 0 0 736 47241 -4495 0
0 0 0 679 47920 -3816 0
0 0 0 695 48615 -3121 0
0 0 0 707 49322 -2414 0
3 1 S116 697 50019 -1717 0
3 1 S116 689 50708 -1028 0
3 1 S116 783 51491 -245 0
3 2 S116 802 52293 557 0
3 2 S116 725 53018 1282 0
3 2 S116 698 53716 1980 0
3 2 S116 772 54488 2752 0
3 2 S116 790 55278 3542 0
3 2 S116 716 55994 4258 0
3 2 S116 674 56668 4932 0
3 2 S116 679 57347 5611 0
3 2 S116 732 58079 6343 0
0 0 0 816 58895 -12221 0
0 0 0 784 59679 -11437 0
0 0 0 786 60465 -10651 0
0 0 0 872 61337 -9779 0
0 0 0 887 62224 -8892 0
0 0 0 798 63022 -8094 0
0 0 0 784 63806 -7310 0
0 0 0 764 64570 -6546 0
0 0 0 709 65279 -5837 0
0 0 0 739 66018 -5098 0
0 0 0 778 66796 -4320 0
0 0 0 801 67597 -3519 0
0 0 0 783 68380 -2736 0
4 1 S106 776 69156 -1960 0
4 1 S106 806 69962 -1154 0
4 1 S106 827 70789 -327 0
4 2 S106 798 71587 471 0
4 2 S106 791 72378 1262 0
4 2 S106 780 73158 2042 0
4 2 S106 753 73911 2795 0
4 2 S106 722 74633 3517 0
4 2 S106 799 75432 4316 0
4 2 S106 789 76221 5105 0
4 2 S106 738 76959 5843 0
4 2 S106 763 77722 6606 0
0 0 0 782 78504 -7814 0
0 0 0 738 79242 -7076 0
0 0 0 700 79942 -6376 0
0 0 0 777 80719 -5599 0
0 0 0 829 81548 -4770 0
0 0 0 722 82270 -4048 0
0 0 0 685 82955 -3363 0
0 0 0 704 83659 -2659 0
5 1 S116 721 84380 -1938 0
5 1 S116 745 85125 -1193 0
5 1 S116 705 85830 -488 0
5 2 S116 736 86566 248 0
5 2 S116 792 87358 1040 0
5 2 S116 733 88091 1773 0
5 2 S116 694 88785 2467 0
5 2 S116 675 89460 3142 0
5 2 S116 659 90119 3801 0
5 2 S116 667 90786 4468 0
5 2 S116 679 91465 5147 0
5 2 S116 664 92129 5811 0
5 2 S116 640 92769 6451 0
0 0 0 629 93398 -10543 0
0 0 0 626 94024 -9917 0
0 0 0 609 94633 -9308 0
0 0 0 604 95237 -8704 0
0 0 0 616 95853 -8088 0
0 0 0 675 96528 -7413 0
0 0 0 705 97233 -6708 0
0 0 0 641 97874 -6067 0
0 0 0 628 98502 -5439 0
0 0 0 640 99142 -4799 0
0 0 0 648 99790 -4151 0
0 0 0 640 100430 -3511 0
0 0 0 634 101064 -2877 0
0 0 0 646 101710 -2231 0
6 1 S106 659 102369 -1572 0
6 1 S106 689 103058 -883 0
6 1 S106 670 103728 -213 0
6 2 S106 651 104379 438 0
6 2 S106 649 105028 1087 0
6 2 S106 669 105697 1756 0
6 2 S106 708 106405 2464 0
6 2 S106 677 107082 3141 0
6 2 S106 675 107757 3816 0
6 2 S106 757 108514 4573 0
6 2 S106 682 109196 5255 0
6 2 S106 688 109884 5943 0
6 2 S106 653 110537 6596 0
0 0 0 640 111177 -9873 0
0 0 0 629 111806 -9244 0
0 0 0 618 112424 -8626 0
0 0 0 615 113039 -8011 0
0 0 0 633 113672 -7378 0
0 0 0 673 114345 -6705 0
0 0 0 698 115043 -6007 0
0 0 0 689 115732 -5318 0
0 0 0 706 116438 -4612 0
0 0 0 685 117123 -3927 0
0 0 0 672 117795 -3255 0
0 0 0 662 118457 -2593 0
7 1 S102 638 119095 -1955 0
7 1 S102 640 119735 -1315 0
7 1 S102 637 120372 -678 0
7 1 S102 628 121000 -50 0
7 2 S102 618 121618 568 0
7 2 S102 621 122239 1189 0
7 2 S102 694 122933 1883 0
7 2 S102 767 123700 2650 0
7 2 S102 776 124476 3426 0
7 2 S102 785 125261 4211 0
7 2 S102 773 126034 4984 0
7 2 S102 706 126740 5690 0
7 2 S102 695 127435 6385 0
0 0 0 750 128185 -8150 0
0 0 0 832 129017 -7318 0
0 0 0 872 129889 -6446 0
0 0 0 777 130666 -5669 0
0 0 0 777 131443 -4892 0
0 0 0 811 132254 -4081 0
0 0 0 804 133058 -3277 0
0 0 0 739 133797 -2538 0
8 1 S112 744 134541 -1794 0
8 1 S112 792 135333 -1002 0
8 1 S112 800 136133 -202 0
8 2 S112 719 136852 517 0
8 2 S112 785 137637 1302 0
8 2 S112 807 138444 2109 0
8 2 S112 815 139259 2924 0
8 2 S112 773 140032 3697 0
8 2 S112 732 140764 4429 0
8 2 S112 768 141532 5197 0
8 2 S112 843 142375 6040 0
8 2 S112 756 143131 6796 0
0 0 0 715 143846 -6830 0
0 0 0 777 144623 -6053 0
0 0 0 809 145432 -5244 0
0 0 0 818 146250 -4426 0
0 0 0 728 146978 -3698 0
0 0 0 717 147695 -2981 0
0 0 0 754 148449 -2227 0
9 1 S116 754 149203 -1473 0
9 1 S116 688 149891 -785 0
9 1 S116 667 150558 -118 0
9 2 S116 654 151212 536 0
9 2 S116 646 151858 1182 0
9 2 S116 661 152519 1843 0
9 2 S116 719 153238 2562 0
9 2 S116 756 153994 3318 0
9 2 S116 741 154735 4059 0
9 2 S116 822 155557 4881 0
9 2 S116 800 156357 5681 0
9 2 S116 792 157149 6473 0
0 0 0 743 157892 -11965 0
0 0 0 766 158658 -11199 0
0 0 0 818 159476 -10381 0
0 0 0 880 160356 -9501 0
0 0 0 840 161196 -8661 0
0 0 0 744 161940 -7917 0
0 0 0 738 162678 -7179 0
0 0 0 758 163436 -6421 0
0 0 0 766 164202 -5655 0
0 0 0 740 164942 -4915 0
0 0 0 753 165695 -4162 0
0 0 0 765 166460 -3397 0
0 0 0 831 167291 -2566 0
10 1 S102 782 168073 -1784 0
10 1 S102 720 168793 -1064 0
10 1 S102 722 169515 -342 0
10 2 S102 695 170210 353 0
10 2 S102 702 170912 1055 0
10 2 S102 688 171600 1743 0
10 2 S102 661 172261 2404 0
10 2 S102 663 172924 3067 0
10 2 S102 654 173578 3721 0
10 2 S102 689 174267 4410 0
10 2 S102 669 174936 5079 0
10 2 S102 649 175585 5728 0
10 2 S102 651 176236 6379 0
0 0 0 679 176915 -13400 0
0 0 0 759 177674 -12641 0
0 0 0 847 178521 -11794 0
0 0 0 884 179405 -10910 0
0 0 0 912 180317 -9998 0
0 0 0 920 181237 -9078 0
0 0 0 800 182037 -8278 0
0 0 0 731 182768 -7547 0
0 0 0 678 183446 -6869 0
0 0 0 666 184112 -6203 0
0 0 0 648 184760 -5555 0
0 0 0 641 185401 -4914 0
0 0 0 638 186039 -4276 0
0 0 0 670 186709 -3606 0
0 0 0 783 187492 -2823 0
0 0 0 803 188295 -2020 0
11 1 S112 766 189061 -1254 0
11 1 S112 750 189811 -504 0
11 2 S112 725 190536 221 0
11 2 S112 721 191257 942 0
11 2 S112 718 191975 1660 0
11 2 S112 741 192716 2401 0
11 2 S112 751 193467 3152 0
11 2 S112 741 194208 3893 0
11 2 S112 749 194957 4642 0
11 2 S112 757 195714 5399 0
11 2 S112 762 196476 6161 0
11 2 S112 777 197253 6938 0
0 0 0 726 197979 -8466 0
0 0 0 737 198716 -7729 0
0 0 0 742 199458 -6987 0
0 0 0 757 200215 -6230 0
0 0 0 733 200948 -5497 0
0 0 0 768 201716 -4729 0
0 0 0 685 202401 -4044 0
0 0 0 668 203069 -3376 0
0 0 0 634 203703 -2742 0
0 0 0 616 204319 -2126 0
12 1 S116 600 204919 -1526 0
12 1 S116 623 205542 -903 0
12 2 S116 1096 206638 193 1
12 2 S116 919 207557 1112 0
12 2 S116 866 208423 1978 0
12 2 S116 841 209264 2819 0
12 2 S116 772 210036 3591 0
12 2 S116 757 210793 4348 0
12 2 S116 751 211544 5099 0
12 2 S116 717 212261 5816 0
12 2 S116 695 212956 6511 0
0 0 0 675 213631 -11780 0
0 0 0 660 214291 -11120 0
0 0 0 642 214933 -10478 0
0 0 0 677 215610 -9801 0
0 0 0 750 216360 -9051 0
0 0 0 758 217118 -8293 0
0 0 0 719 217837 -7574 0
0 0 0 689 218526 -6885 0
0 0 0 749 219275 -6136 0
0 0 0 749 220024 -5387 0
0 0 0 776 220800 -4611 0
0 0 0 811 221611 -3800 0
0 0 0 806 222417 -2994 0
0 0 0 741 223158 -2253 0
13 1 S112 768 223926 -1485 0
13 1 S112 736 224662 -749 0
13 2 S112 807 225469 58 0
13 2 S112 721 226190 779 0
13 2 S112 710 226900 1489 0
13 2 S112 775 227675 2264 0
13 2 S112 852 228527 3116 0
13 2 S112 825 229352 3941 0
13 2 S112 783 230135 4724 0
13 2 S112 833 230968 5557 0
13 2 S112 870 231838 6427 0
0 0 0 853 232691 -10310 0
0 0 0 795 233486 -9515 0
0 0 0 805 234291 -8710 0
0 0 0 810 235101 -7900 0
0 0 0 756 235857 -7144 0
0 0 0 709 236566 -6435 0
0 0 0 739 237305 -5696 0
0 0 0 767 238072 -4929 0
0 0 0 774 238846 -4155 0
0 0 0 738 239584 -3417 0
0 0 0 762 240346 -2655 0
14 1 S106 800 241146 -1855 0
14 1 S106 770 241916 -1085 0
14 1 S106 705 242621 -380 0
14 2 S106 682 243303 302 0
14 2 S106 682 243985 984 0
14 2 S106 699 244684 1683 0
14 2 S106 752 245436 2435 0
14 2 S106 758 246194 3193 0
14 2 S106 757 246951 3950 0
14 2 S106 770 247721 4720 0
14 2 S106 735 248456 5455 0
14 2 S106 709 249165 6164 0
14 2 S106 697 249862 6861 0
0 0 0 674 250536 -9905 0
0 0 0 669 251205 -9236 0
0 0 0 644 251849 -8592 0
0 0 0 642 252491 -7950 0
0 0 0 642 253133 -7308 0
0 0 0 632 253765 -6676 0
0 0 0 624 254389 -6052 0
0 0 0 618 255007 -5434 0
0 0 0 618 255625 -4816 0
0 0 0 622 256247 -4194 0
0 0 0 636 256883 -3558 0
0 0 0 619 257502 -2939 0
0 0 0 649 258151 -2290 0
15 1 S116 643 258794 -1647 0
15 1 S116 631 259425 -1016 0
15 1 S116 625 260050 -391 0
15 2 S116 638 260688 247 0
15 2 S116 697 261385 944 0
15 2 S116 1039 262424 1983 1
15 2 S116 993 263417 2976 1
15 2 S116 951 264368 3927 0
15 2 S116 966 265334 4893 0
15 2 S116 939 266273 5832 0
15 2 S116 874 267147 6706 0
0 0 0 837 267984 -10793 0
0 0 0 764 268748 -10029 0
0 0 0 790 269538 -9239 0
0 0 0 797 270335 -8442 0
0 0 0 834 271169 -7608 0
0 0 0 824 271993 -6784 0
0 0 0 721 272714 -6063 0
0 0 0 780 273494 -5283 0
0 0 0 839 274333 -4444 0
0 0 0 870 275203 -3574 0
0 0 0 837 276040 -2737 0
16 1 S116 746 276786 -1991 0
16 1 S116 790 277576 -1201 0
16 1 S116 721 278297 -480 0
16 2 S116 707 279004 227 0
16 2 S116 871 279875 1098 0
16 2 S116 796 280671 1894 0
16 2 S116 739 281410 2633 0
16 2 S116 718 282128 3351 0
16 2 S116 781 282909 4132 0
16 2 S116 735 283644 4867 0
16 2 S116 726 284370 5593 0
16 2 S116 684 285054 6277 0
16 2 S116 679 285733 6956 0
0 0 0 680 286413 -10965 0
0 0 0 719 287132 -10246 0
0 0 0 707 287839 -9539 0
0 0 0 674 288513 -8865 0
0 0 0 652 289165 -8213 0
0 0 0 685 289850 -7528 0
0 0 0 803 290653 -6725 0
0 0 0 884 291537 -5841 0
0 0 0 855 292392 -4986 0
0 0 0 752 293144 -4234 0
0 0 0 760 293904 -3474 0
0 0 0 785 294689 -2689 0
17 1 S106 762 295451 -1927 0
17 1 S106 704 296155 -1223 0
17 1 S106 735 296890 -488 0
17 2 S106 792 297682 304 0
17 2 S106 796 298478 1100 0
17 2 S106 743 299221 1843 0
17 2 S106 789 300010 2632 0
17 2 S106 797 300807 3429 0
17 2 S106 840 301647 4269 0
17 2 S106 734 302381 5003 0
17 2 S106 764 303145 5767 0
17 2 S106 807 303952 6574 0
0 0 0 817 304769 -11575 0
0 0 0 769 305538 -10806 0
0 0 0 852 306390 -9954 0
0 0 0 923 307313 -9031 0
0 0 0 793 308106 -8238 0
0 0 0 774 308880 -7464 0
0 0 0 749 309629 -6715 0
0 0 0 747 310376 -5968 0
0 0 0 728 311104 -5240 0
0 0 0 829 311933 -4411 0
0 0 0 804 312737 -3607 0
0 0 0 812 313549 -2795 0
0 0 0 744 314293 -2051 0
18 1 S102 735 315028 -1316 0
18 1 S102 792 315820 -524 0
18 2 S102 748 316568 224 0
18 2 S102 733 317301 957 0
18 2 S102 823 318124 1780 0
18 2 S102 843 318967 2623 0
18 2 S102 752 319719 3375 0
18 2 S102 751 320470 4126 0
18 2 S102 781 321251 4907 0
18 2 S102 787 322038 5694 0
18 2 S102 721 322759 6415 0
0 0 0 759 323518 -7415 0
0 0 0 842 324360 -6573 0
0 0 0 894 325254 -5679 0
0 0 0 800 326054 -4879 0
0 0 0 733 326787 -4146 0
0 0 0 761 327548 -3385 0
0 0 0 777 328325 -2608 0
19 1 S106 773 329098 -1835 0
19 1 S106 761 329859 -1074 0
19 1 S106 921 330780 -153 0
19 2 S106 932 331712 779 0
19 2 S106 834 332546 1613 0
19 2 S106 853 333399 2466 0
19 2 S106 865 334264 3331 0
19 2 S106 813 335077 4144 0
19 2 S106 745 335822 4889 0
19 2 S106 748 336570 5637 0
19 2 S106 780 337350 6417 0
0 0 0 764 338114 -11121 0
0 0 0 764 338878 -10357 0
0 0 0 865 339743 -9492 0
0 0 0 842 340585 -8650 0
0 0 0 773 341358 -7877 0
0 0 0 748 342106 -7129 0
0 0 0 849 342955 -6280 0
0 0 0 875 343830 -5405 0
0 0 0 769 344599 -4636 0
0 0 0 701 345300 -3935 0
0 0 0 687 345987 -3248 0
0 0 0 707 346694 -2541 0
20 1 S112 723 347417 -1818 0
20 1 S112 687 348104 -1131 0
20 1 S112 662 348766 -469 0
20 2 S112 650 349416 181 0
20 2 S112 648 350064 829 0
20 2 S112 637 350701 1466 0
20 2 S112 640 351341 2106 0
20 2 S112 654 351995 2760 0
20 2 S112 641 352636 3401 0
20 2 S112 641 353277 4042 0
20 2 S112 675 353952 4717 0
20 2 S112 715 354667 5432 0
20 2 S112 745 355412 6177 0
20 2 S112 740 356152 6917 0
0 0 0 732 356884 -10107 0
0 0 0 750 357634 -9357 0
0 0 0 730 358364 -8627 0
0 0 0 735 359099 -7892 0
0 0 0 725 359824 -7167 0
0 0 0 705 360529 -6462 0
0 0 0 691 361220 -5771 0
0 0 0 678 361898 -5093 0
0 0 0 657 362555 -4436 0
0 0 0 664 363219 -3772 0
0 0 0 695 363914 -3077 0
0 0 0 687 364601 -2390 0
21 1 S106 719 365320 -1671 0
21 1 S106 634 365954 -1037 0
21 1 S106 625 366579 -412 0
21 2 S106 640 367219 228 0
21 2 S106 661 367880 889 0
21 2 S106 728 368608 1617 0
21 2 S106 755 369363 2372 0
21 2 S106 684 370047 3056 0
21 2 S106 690 370737 3746 0
21 2 S106 857 371594 4603 0
21 2 S106 996 372590 5599 1
21 2 S106 855 373445 6454 0
0 0 0 873 374318 -12733 0
0 0 0 951 375269 -11782 0
0 0 0 948 376217 -10834 0
0 0 0 828 377045 -10006 0
0 0 0 886 377931 -9120 0
0 0 0 892 378823 -8228 0
0 0 0 831 379654 -7397 0
0 0 0 783 380437 -6614 0
0 0 0 881 381318 -5733 0
0 0 0 903 382221 -4830 0
0 0 0 877 383098 -3953 0
0 0 0 794 383892 -3159 0
0 0 0 784 384676 -2375 0
22 1 S116 855 385531 -1520 0
22 1 S116 918 386449 -602 0
22 2 S116 831 387280 229 0
22 2 S116 878 388158 1107 0
22 2 S116 846 389004 1953 0
22 2 S116 826 389830 2779 0
22 2 S116 947 390777 3726 0
22 2 S116 883 391660 4609 0
22 2 S116 813 392473 5422 0
22 2 S116 855 393328 6277 0
0 0 0 994 394322 -10766 1
0 0 0 840 395162 -9926 0
0 0 0 820 395982 -9106 0
0 0 0 890 396872 -8216 0
0 0 0 843 397715 -7373 0
0 0 0 804 398519 -6569 0
0 0 0 792 399311 -5777 0
0 0 0 797 400108 -4980 0
0 0 0 740 400848 -4240 0
0 0 0 694 401542 -3546 0
0 0 0 701 402243 -2845 0
0 0 0 748 402991 -2097 0
23 1 S112 830 403821 -1267 0
23 1 S112 796 404617 -471 0
23 2 S112 819 405436 348 0
23 2 S112 879 406315 1227 0
23 2 S112 821 407136 2048 0
23 2 S112 791 407927 2839 0
23 2 S112 896 408823 3735 0
23 2 S112 804 409627 4539 0
23 2 S112 767 410394 5306 0
23 2 S112 788 411182 6094 0
23 2 S112 825 412007 6919 0
0 0 0 758 412765 -10841 0
0 0 0 772 413537 -10069 0
0 0 0 781 414318 -9288 0
0 0 0 750 415068 -8538 0
0 0 0 717 415785 -7821 0
0 0 0 788 416573 -7033 0
0 0 0 733 417306 -6300 0
0 0 0 719 418025 -5581 0
0 0 0 699 418724 -4882 0
0 0 0 686 419410 -4196 0
0 0 0 706 420116 -3490 0
0 0 0 714 420830 -2776 0
0 0 0 700 421530 -2076 0
24 1 S106 674 422204 -1402 0
24 1 S106 656 422860 -746 0
24 1 S106 641 423501 -105 0
24 2 S106 638 424139 533 0
24 2 S106 634 424773 1167 0
24 2 S106 624 425397 1791 0
24 2 S106 644 426041 2435 0
24 2 S106 651 426692 3086 0
24 2 S106 668 427360 3754 0
24 2 S106 683 428043 4437 0
24 2 S106 697 428740 5134 0
24 2 S106 690 429430 5824 0
24 2 S106 686 430116 6510 0
0 0 0 712 430828 -7964 0
0 0 0 737 431565 -7227 0
0 0 0 707 432272 -6520 0
0 0 0 728 433000 -5792 0
0 0 0 727 433727 -5065 0
0 0 0 776 434503 -4289 0
0 0 0 752 435255 -3537 0
0 0 0 746 436001 -2791 0
0 0 0 679 436680 -2112 0
25 1 S102 713 437393 -1399 0
25 1 S102 743 438136 -656 0
25 2 S102 735 438871 79 0
25 2 S102 708 439579 787 0
25 2 S102 696 440275 1483 0
25 2 S102 866 441141 2349 0
25 2 S102 1010 442151 3359 1
25 2 S102 949 443100 4308 0
25 2 S102 905 444005 5213 0
25 2 S102 871 444876 6084 0
25 2 S102 845 445721 6929 0
0 0 0 821 446542 -5546 0
0 0 0 786 447328 -4760 0
0 0 0 783 448111 -3977 0
0 0 0 765 448876 -3212 0
0 0 0 792 449668 -2420 0
26 1 S116 746 450414 -1674 0
26 1 S116 772 451186 -902 0
26 1 S116 708 451894 -194 0
26 2 S116 658 452552 464 0
26 2 S116 685 453237 1149 0
26 2 S116 704 453941 1853 0
26 2 S116 803 454744 2656 0
26 2 S116 679 455423 3335 0
26 2 S116 658 456081 3993 0
26 2 S116 682 456763 4675 0
26 2 S116 1109 457872 5784 1
26 2 S116 798 458670 6582 0
0 0 0 867 459537 -9146 0
0 0 0 897 460434 -8249 0
0 0 0 800 461234 -7449 0
0 0 0 870 462104 -6579 0
0 0 0 910 463014 -5669 0
0 0 0 817 463831 -4852 0
0 0 0 810 464641 -4042 0
0 0 0 846 465487 -3196 0
0 0 0 843 466330 -2353 0
27 1 S106 760 467090 -1593 0
27 1 S106 764 467854 -829 0
27 1 S106 777 468631 -52 0
27 2 S106 801 469432 749 0
27 2 S106 740 470172 1489 0
27 2 S106 776 470948 2265 0
27 2 S106 838 471786 3103 0
27 2 S106 841 472627 3944 0
27 2 S106 788 473415 4732 0
27 2 S106 824 474239 5556 0
27 2 S106 924 475163 6480 0
0 0 0 917 476080 -5617 0
0 0 0 821 476901 -4796 0
0 0 0 831 477732 -3965 0
0 0 0 842 478574 -3123 0
0 0 0 795 479369 -2328 0
28 1 S102 780 480149 -1548 0
28 1 S102 864 481013 -684 0
28 2 S102 872 481885 188 0
28 2 S102 816 482701 1004 0
28 2 S102 850 483551 1854 0
28 2 S102 857 484408 2711 0
28 2 S102 793 485201 3504 0
28 2 S102 751 485952 4255 0
28 2 S102 773 486725 5028 0
28 2 S102 809 487534 5837 0
28 2 S102 773 488307 6610 0
0 0 0 705 489012 -13292 0
0 0 0 688 489700 -12604 0
0 0 0 706 490406 -11898 0
0 0 0 789 491195 -11109 0
0 0 0 801 491996 -10308 0
0 0 0 764 492760 -9544 0
0 0 0 878 493638 -8666 0
0 0 0 933 494571 -7733 0
0 0 0 874 495445 -6859 0
0 0 0 829 496274 -6030 0
0 0 0 834 497108 -5196 0
0 0 0 805 497913 -4391 0
0 0 0 755 498668 -3636 0
0 0 0 812 499480 -2824 0
29 1 S112 879 500359 -1945 0
29 1 S112 835 501194 -1110 0
29 1 S112 798 501992 -312 0
29 2 S112 859 502851 547 0
29 2 S112 883 503734 1430 0
29 2 S112 783 504517 2213 0
29 2 S112 814 505331 3027 0
29 2 S112 835 506166 3862 0
29 2 S112 765 506931 4627 0
29 2 S112 752 507683 5379 0
29 2 S112 774 508457 6153 0
29 2 S112 860 509317 7013 0
0 0 0 802 510119 -7536 0
0 0 0 762 510881 -6774 0
0 0 0 755 511636 -6019 0
0 0 0 860 512496 -5159 0
0 0 0 768 513264 -4391 0
0 0 0 717 513981 -3674 0
0 0 0 772 514753 -2902 0
0 0 0 793 515546 -2109 0
30 1 S112 898 516444 -1211 0
30 1 S112 757 517201 -454 0
30 2 S112 704 517905 250 0
30 2 S112 706 518611 956 0
30 2 S112 783 519394 1739 0
30 2 S112 705 520099 2444 0
30 2 S112 672 520771 3116 0
30 2 S112 663 521434 3779 0
30 2 S112 649 522083 4428 0
30 2 S112 648 522731 5076 0
30 2 S112 664 523395 5740 0
30 2 S112 681 524076 6421 0
0 0 0 704 524780 -8343 0
0 0 0 704 525484 -7639 0
0 0 0 734 526218 -6905 0
0 0 0 720 526938 -6185 0
0 0 0 688 527626 -5497 0
0 0 0 661 528287 -4836 0
0 0 0 652 528939 -4184 0
0 0 0 662 529601 -3522 0
0 0 0 797 530398 -2725 0
0 0 0 714 531112 -2011 0
31 1 S106 704 531816 -1307 0
31 1 S106 676 532492 -631 0
31 2 S106 664 533156 33 0
31 2 S106 706 533862 739 0
31 2 S106 669 534531 1408 0
31 2 S106 655 535186 2063 0
31 2 S106 649 535835 2712 0
31 2 S106 664 536499 3376 0
31 2 S106 787 537286 4163 0
31 2 S106 881 538167 5044 0
31 2 S106 878 539045 5922 0
31 2 S106 864 539909 6786 0
0 0 0 836 540745 -9835 0
0 0 0 858 541603 -8977 0
0 0 0 876 542479 -8101 0
0 0 0 866 543345 -7235 0
0 0 0 810 544155 -6425 0
0 0 0 725 544880 -5700 0
0 0 0 673 545553 -5027 0
0 0 0 651 546204 -4376 0
0 0 0 637 546841 -3739 0
0 0 0 633 547474 -3106 0
0 0 0 639 548113 -2467 0
32 1 S102 668 548781 -1799 0
32 1 S102 699 549480 -1100 0
32 1 S102 713 550193 -387 0
32 2 S102 771 550964 384 0
32 2 S102 847 551811 1231 0
32 2 S102 888 552699 2119 0
32 2 S102 868 553567 2987 0
32 2 S102 828 554395 3815 0
32 2 S102 812 555207 4627 0
32 2 S102 825 556032 5452 0
32 2 S102 829 556861 6281 0
0 0 0 781 557642 -11755 0
0 0 0 800 558442 -10955 0
0 0 0 767 559209 -10188 0
0 0 0 807 560016 -9381 0
0 0 0 812 560828 -8569 0
0 0 0 840 561668 -7729 0
0 0 0 782 562450 -6947 0
0 0 0 702 563152 -6245 0
0 0 0 656 563808 -5589 0
0 0 0 632 564440 -4957 0
0 0 0 643 565083 -4314 0
0 0 0 687 565770 -3627 0
0 0 0 934 566704 -2693 0
33 1 S112 896 567600 -1797 0
33 1 S112 853 568453 -944 0
33 1 S112 856 569309 -88 0
33 2 S112 877 570186 789 0
33 2 S112 842 571028 1631 0
33 2 S112 807 571835 2438 0
33 2 S112 790 572625 3228 0
33 2 S112 722 573347 3950 0
33 2 S112 704 574051 4654 0
33 2 S112 670 574721 5324 0
33 2 S112 656 575377 5980 0
33 2 S112 642 576019 6622 0
0 0 0 629 576648 -11432 0
0 0 0 630 577278 -10802 0
0 0 0 761 578039 -10041 0
0 0 0 901 578940 -9140 0
0 0 0 864 579804 -8276 0
0 0 0 897 580701 -7379 0
0 0 0 915 581616 -6464 0
0 0 0 943 582559 -5521 0
0 0 0 913 583472 -4608 0
0 0 0 805 584277 -3803 0
0 0 0 757 585034 -3046 0
0 0 0 690 585724 -2356 0
34 1 S106 680 586404 -1676 0
34 1 S106 769 587173 -907 0
34 1 S106 785 587958 -122 0
34 2 S106 838 588796 716 0
34 2 S106 783 589579 1499 0
34 2 S106 827 590406 2326 0
34 2 S106 831 591237 3157 0
34 2 S106 790 592027 3947 0
34 2 S106 725 592752 4672 0
34 2 S106 752 593504 5424 0
34 2 S106 803 594307 6227 0
0 0 0 816 595123 -11558 0
0 0 0 821 595944 -10737 0
0 0 0 887 596831 -9850 0
0 0 0 837 597668 -9013 0
0 0 0 779 598447 -8234 0
0 0 0 836 599283 -7398 0
0 0 0 811 600094 -6587 0
0 0 0 797 600891 -5790 0
0 0 0 745 601636 -5045 0
0 0 0 747 602383 -4298 0
0 0 0 786 603169 -3512 0
0 0 0 810 603979 -2702 0
35 1 S102 744 604723 -1958 0
35 1 S102 799 605522 -1159 0
35 1 S102 772 606294 -387 0
35 2 S102 743 607037 356 0
35 2 S102 728 607765 1084 0
35 2 S102 786 608551 1870 0
35 2 S102 860 609411 2730 0
35 2 S102 812 610223 3542 0
35 2 S102 787 611010 4329 0
35 2 S102 968 611978 5297 0
35 2 S102 921 612899 6218 0
0 0 0 878 613777 -8157 0
0 0 0 856 614633 -7301 0
0 0 0 912 615545 -6389 0
0 0 0 928 616473 -5461 0
0 0 0 833 617306 -4628 0
0 0 0 767 618073 -3861 0
0 0 0 777 618850 -3084 0
0 0 0 758 619608 -2326 0
36 1 S106 688 620296 -1638 0
36 1 S106 679 620975 -959 0
36 1 S106 681 621656 -278 0
36 2 S106 695 622351 417 0
36 2 S106 663 623014 1080 0
36 2 S106 673 623687 1753 0
36 2 S106 692 624379 2445 0
36 2 S106 707 625086 3152 0
36 2 S106 685 625771 3837 0
36 2 S106 719 626490 4556 0
36 2 S106 729 627219 5285 0
36 2 S106 720 627939 6005 0
36 2 S106 699 628638 6704 0
0 0 0 722 629360 -8787 0
0 0 0 753 630113 -8034 0
0 0 0 794 630907 -7240 0
0 0 0 741 631648 -6499 0
0 0 0 713 632361 -5786 0
0 0 0 779 633140 -5007 0
0 0 0 812 633952 -4195 0
0 0 0 799 634751 -3396 0
0 0 0 746 635497 -2650 0
37 1 S116 813 636310 -1837 0
37 1 S116 838 637148 -999 0
37 1 S116 875 638023 -124 0
37 2 S116 770 638793 646 0
37 2 S116 777 639570 1423 0
37 2 S116 815 640385 2238 0
37 2 S116 843 641228 3081 0
37 2 S116 802 642030 3883 0
37 2 S116 949 642979 4832 0
37 2 S116 939 643918 5771 0
37 2 S116 840 644758 6611 0
0 0 0 788 645546 -13208 0
0 0 0 823 646369 -12385 0
0 0 0 859 647228 -11526 0
0 0 0 812 648040 -10714 0
0 0 0 755 648795 -9959 0
0 0 0 838 649633 -9121 0
0 0 0 861 650494 -8260 0
0 0 0 827 651321 -7433 0
0 0 0 771 652092 -6662 0
0 0 0 911 653003 -5751 0
0 0 0 793 653796 -4958 0
0 0 0 749 654545 -4209 0
0 0 0 741 655286 -3468 0
0 0 0 734 656020 -2734 0
0 0 0 693 656713 -2041 0
38 1 S102 669 657382 -1372 0
38 1 S102 648 658030 -724 0
38 1 S102 639 658669 -85 0
38 2 S102 640 659309 555 0
38 2 S102 632 659941 1187 0
38 2 S102 650 660591 1837 0
38 2 S102 728 661319 2565 0
38 2 S102 790 662109 3355 0
38 2 S102 790 662899 4145 0
38 2 S102 851 663750 4996 0
38 2 S102 874 664624 5870 0
38 2 S102 901 665525 6771 0
0 0 0 896 666421 -8514 0
0 0 0 875 667296 -7639 0
0 0 0 884 668180 -6755 0
0 0 0 833 669013 -5922 0
0 0 0 837 669850 -5085 0
0 0 0 813 670663 -4272 0
0 0 0 810 671473 -3462 0
0 0 0 778 672251 -2684 0
39 1 S116 804 673055 -1880 0
39 1 S116 748 673803 -1132 0
39 1 S116 714 674517 -418 0
39 2 S116 674 675191 256 0
39 2 S116 652 675843 908 0
39 2 S116 662 676505 1570 0
39 2 S116 717 677222 2287 0
39 2 S116 903 678125 3190 0
39 2 S116 851 678976 4041 0
39 2 S116 856 679832 4897 0
39 2 S116 961 680793 5858 0
39 2 S116 935 681728 6793 0
0 0 0 845 682573 -8957 0
0 0 0 888 683461 -8069 0
0 0 0 902 684363 -7167 0
0 0 0 941 685304 -6226 0
0 0 0 850 686154 -5376 0
0 0 0 835 686989 -4541 0
0 0 0 803 687792 -3738 0
0 0 0 749 688541 -2989 0
0 0 0 716 689257 -2273 0
40 1 S112 814 690071 -1459 0
40 1 S112 785 690856 -674 0
40 2 S112 813 691669 139 0
40 2 S112 796 692465 935 0
40 2 S112 902 693367 1837 0
40 2 S112 884 694251 2721 0
40 2 S112 809 695060 3530 0
40 2 S112 824 695884 4354 0
40 2 S112 850 696734 5204 0
40 2 S112 814 697548 6018 0
40 2 S112 754 698302 6772 0
0 0 0 735 699037 -186410 0
0 0 0 771 699808 -185639 0
0 0 0 782 700590 -184857 0
0 0 0 727 701317 -184130 0
0 0 0 807 702124 -183323 0
0 0 0 873 702997 -182450 0
0 0 0 797 703794 -181653 0
0 0 0 733 704527 -180920 0
0 0 0 732 705259 -180188 0
0 0 0 722 705981 -179466 0
0 0 0 723 706704 -178743 0
0 0 0 714 707418 -178029 0
0 0 0 698 708116 -177331 0
0 0 0 700 708816 -176631 0
0 0 0 692 709508 -175939 0
0 0 0 677 710185 -175262 0
0 0 0 676 710861 -174586 0
0 0 0 668 711529 -173918 0
0 0 0 664 712193 -173254 0
0 0 0 666 712859 -172588 0
0 0 0 665 713524 -171923 0
0 0 0 657 714181 -171266 0
0 0 0 658 714839 -170608 0
0 0 0 653 715492 -169955 0
0 0 0 637 716129 -169318 0
0 0 0 633 716762 -168685 0
0 0 0 625 717387 -168060 0
0 0 0 614 718001 -167446 0
0 0 0 605 718606 -166841 0
0 0 0 603 719209 -166238 0
0 0 0 622 719831 -165616 0
0 0 0 642 720473 -164974 0
0 0 0 635 721108 -164339 0
0 0 0 599 721707 -163740 0
0 0 0 601 722308 -163139 0
0 0 0 616 722924 -162523 0
0 0 0 630 723554 -161893 0
0 0 0 626 724180 -161267 0
0 0 0 635 724815 -160632 0
0 0 0 662 725477 -159970 0
0 0 0 669 726146 -159301 0
0 0 0 665 726811 -158636 0
0 0 0 657 727468 -157979 0
0 0 0 624 728092 -157355 0
0 0 0 616 728708 -156739 0
0 0 0 604 729312 -156135 0
0 0 0 615 729927 -155520 0
0 0 0 619 730546 -154901 0
0 0 0 611 731157 -154290 0
0 0 0 593 731750 -153697 0
0 0 0 588 732338 -153109 0
0 0 0 599 732937 -152510 0
0 0 0 622 733559 -151888 0
0 0 0 595 734154 -151293 0
0 0 0 764 734918 -150529 0
0 0 0 666 735584 -149863 0
0 0 0 681 736265 -149182 0
0 0 0 690 736955 -148492 0
0 0 0 653 737608 -147839 0
0 0 0 636 738244 -147203 0
0 0 0 616 738860 -146587 0
0 0 0 612 739472 -145975 0
0 0 0 615 740087 -145360 0
0 0 0 632 740719 -144728 0
0 0 0 653 741372 -144075 0
0 0 0 663 742035 -143412 0
0 0 0 680 742715 -142732 0
0 0 0 666 743381 -142066 0
0 0 0 670 744051 -141396 0
0 0 0 669 744720 -140727 0
0 0 0 676 745396 -140051 0
0 0 0 685 746081 -139366 0
0 0 0 687 746768 -138679 0
0 0 0 733 747501 -137946 0
0 0 0 756 748257 -137190 0
0 0 0 776 749033 -136414 0
0 0 0 765 749798 -135649 0
0 0 0 782 750580 -134867 0
0 0 0 745 751325 -134122 0
0 0 0 721 752046 -133401 0
0 0 0 659 752705 -132742 0
0 0 0 638 753343 -132104 0
0 0 0 629 753972 -131475 0
0 0 0 624 754596 -130851 0
0 0 0 621 755217 -130230 0
0 0 0 652 755869 -129578 0
0 0 0 831 756700 -128747 0
0 0 0 745 757445 -128002 0
0 0 0 723 758168 -127279 0
0 0 0 756 758924 -126523 0
0 0 0 787 759711 -125736 0
0 0 0 753 760464 -124983 0
0 0 0 697 761161 -124286 0
0 0 0 730 761891 -123556 0
0 0 0 745 762636 -122811 0
0 0 0 708 763344 -122103 0
0 0 0 681 764025 -121422 0
0 0 0 705 764730 -120717 0
0 0 0 762 765492 -119955 0
0 0 0 803 766295 -119152 0
0 0 0 775 767070 -118377 0
0 0 0 722 767792 -117655 0
0 0 0 745 768537 -116910 0
0 0 0 742 769279 -116168 0
0 0 0 709 769988 -115459 0
0 0 0 685 770673 -114774 0
0 0 0 713 771386 -114061 0
0 0 0 719 772105 -113342 0
0 0 0 701 772806 -112641 0
0 0 0 659 773465 -111982 0
0 0 0 652 774117 -111330 0
0 0 0 664 774781 -110666 0
0 0 0 681 775462 -109985 0
0 0 0 702 776164 -109283 0
0 0 0 655 776819 -108628 0
0 0 0 659 777478 -107969 0
0 0 0 666 778144 -107303 0
0 0 0 679 778823 -106624 0
0 0 0 716 779539 -105908 0
0 0 0 740 780279 -105168 0
0 0 0 804 781083 -104364 0
0 0 0 862 781945 -103502 0
0 0 0 867 782812 -102635 0
0 0 0 771 783583 -101864 0
0 0 0 780 784363 -101084 0
0 0 0 799 785162 -100285 0
0 0 0 760 785922 -99525 0
0 0 0 724 786646 -98801 0
0 0 0 685 787331 -98116 0
0 0 0 676 788007 -97440 0
0 0 0 664 788671 -96776 0
0 0 0 689 789360 -96087 0
0 0 0 743 790103 -95344 0
0 0 0 781 790884 -94563 0
0 0 0 803 791687 -93760 0
0 0 0 825 792512 -92935 0
0 0 0 845 793357 -92090 0
0 0 0 863 794220 -91227 0
0 0 0 825 795045 -90402 0
0 0 0 770 795815 -89632 0
0 0 0 796 796611 -88836 0
0 0 0 797 797408 -88039 0
0 0 0 760 798168 -87279 0
0 0 0 742 798910 -86537 0
0 0 0 786 799696 -85751 0
0 0 0 766 800462 -84985 0
0 0 0 765 801227 -84220 0
0 0 0 726 801953 -83494 0
0 0 0 726 802679 -82768 0
0 0 0 762 803441 -82006 0
0 0 0 758 804199 -81248 0
0 0 0 724 804923 -80524 0
0 0 0 693 805616 -79831 0
0 0 0 760 806376 -79071 0
0 0 0 793 807169 -78278 0
0 0 0 790 807959 -77488 0
0 0 0 747 808706 -76741 0
0 0 0 790 809496 -75951 0
0 0 0 781 810277 -75170 0
0 0 0 734 811011 -74436 0
0 0 0 687 811698 -73749 0
0 0 0 714 812412 -73035 0
0 0 0 747 813159 -72288 0
0 0 0 741 813900 -71547 0
0 0 0 685 814585 -70862 0
0 0 0 681 815266 -70181 0
0 0 0 699 815965 -69482 0
0 0 0 703 816668 -68779 0
0 0 0 683 817351 -68096 0
0 0 0 677 818028 -67419 0
0 0 0 751 818779 -66668 0
0 0 0 890 819669 -65778 0
0 0 0 891 820560 -64887 0
0 0 0 807 821367 -64080 0
0 0 0 871 822238 -63209 0
0 0 0 856 823094 -62353 0
0 0 0 756 823850 -61597 0
0 0 0 732 824582 -60865 0
0 0 0 769 825351 -60096 0
0 0 0 861 826212 -59235 0
0 0 0 863 827075 -58372 0
0 0 0 785 827860 -57587 0
0 0 0 792 828652 -56795 0
0 0 0 820 829472 -55975 0
0 0 0 848 830320 -55127 0
0 0 0 809 831129 -54318 0
0 0 0 859 831988 -53459 0
0 0 0 860 832848 -52599 0
0 0 0 817 833665 -51782 0
0 0 0 758 834423 -51024 0
0 0 0 781 835204 -50243 0
0 0 0 766 835970 -49477 0
0 0 0 744 836714 -48733 0
0 0 0 703 837417 -48030 0
0 0 0 694 838111 -47336 0
0 0 0 737 838848 -46599 0
0 0 0 827 839675 -45772 0
0 0 0 812 840487 -44960 0
0 0 0 739 841226 -44221 0
0 0 0 736 841962 -43485 0
0 0 0 758 842720 -42727 0
0 0 0 820 843540 -41907 0
0 0 0 838 844378 -41069 0
0 0 0 817 845195 -40252 0
0 0 0 812 846007 -39440 0
0 0 0 831 846838 -38609 0
0 0 0 824 847662 -37785 0
0 0 0 770 848432 -37015 0
0 0 0 779 849211 -36236 0
0 0 0 799 850010 -35437 0
0 0 0 795 850805 -34642 0
0 0 0 720 851525 -33922 0
0 0 0 692 852217 -33230 0
0 0 0 703 852920 -32527 0
0 0 0 749 853669 -31778 0
0 0 0 741 854410 -31037 0
0 0 0 693 855103 -30344 0
0 0 0 688 855791 -29656 0
0 0 0 685 856476 -28971 0
0 0 0 672 857148 -28299 0
0 0 0 656 857804 -27643 0
0 0 0 637 858441 -27006 0
0 0 0 631 859072 -26375 0
0 0 0 623 859695 -25752 0
0 0 0 613 860308 -25139 0
0 0 0 610 860918 -24529 0
0 0 0 623 861541 -23906 0
0 0 0 633 862174 -23273 0
0 0 0 621 862795 -22652 0
0 0 0 633 863428 -22019 0
0 0 0 648 864076 -21371 0
0 0 0 658 864734 -20713 0
0 0 0 634 865368 -20079 0
0 0 0 634 866002 -19445 0
0 0 0 642 866644 -18803 0
0 0 0 676 867320 -18127 0
0 0 0 742 868062 -17385 0
0 0 0 743 868805 -16642 0
0 0 0 717 869522 -15925 0
0 0 0 778 870300 -15147 0
0 0 0 816 871116 -14331 0
0 0 0 811 871927 -13520 0
0 0 0 740 872667 -12780 0
0 0 0 741 873408 -12039 0
0 0 0 805 874213 -11234 0
0 0 0 820 875033 -10414 0
0 0 0 754 875787 -9660 0
0 0 0 750 876537 -8910 0
0 0 0 829 877366 -8081 0
0 0 0 856 878222 -7225 0
0 0 0 831 879053 -6394 0
0 0 0 747 879800 -5647 0
0 0 0 780 880580 -4867 0
0 0 0 793 881373 -4074 0
0 0 0 724 882097 -3350 0
0 0 0 681 882778 -2669 0
41 1 S102 711 883489 -1958 0
41 1 S102 728 884217 -1230 0
41 1 S102 728 884945 -502 0
41 2 S102 676 885621 174 0
41 2 S102 708 886329 882 0
41 2 S102 730 887059 1612 0
41 2 S102 700 887759 2312 0
41 2 S102 665 888424 2977 0
41 2 S102 672 889096 3649 0
41 2 S102 720 889816 4369 0
41 2 S102 752 890568 5121 0
41 2 S102 715 891283 5836 0
41 2 S102 724 892007 6560 0
0 0 0 704 892711 -6911 0
0 0 0 703 893414 -6208 0
0 0 0 761 894175 -5447 0
0 0 0 680 894855 -4767 0
0 0 0 669 895524 -4098 0
0 0 0 659 896183 -3439 0
0 0 0 664 896847 -2775 0
0 0 0 658 897505 -2117 0
42 1 S112 660 898165 -1457 0
42 1 S112 642 898807 -815 0
42 1 S112 629 899436 -186 0
42 2 S112 622 900058 436 0
42 2 S112 617 900675 1053 0
42 2 S112 726 901401 1779 0
42 2 S112 880 902281 2659 0
42 2 S112 802 903083 3461 0
42 2 S112 751 903834 4212 0
42 2 S112 843 904677 5055 0
42 2 S112 836 905513 5891 0
42 2 S112 829 906342 6720 0
0 0 0 835 907177 -10648 0
0 0 0 813 907990 -9835 0
0 0 0 819 908809 -9016 0
0 0 0 840 909649 -8176 0
0 0 0 858 910507 -7318 0
0 0 0 852 911359 -6466 0
0 0 0 740 912099 -5726 0
0 0 0 693 912792 -5033 0
0 0 0 672 913464 -4361 0
0 0 0 639 914103 -3722 0
0 0 0 633 914736 -3089 0
0 0 0 651 915387 -2438 0
43 1 S116 716 916103 -1722 0
43 1 S116 774 916877 -948 0
43 1 S116 838 917715 -110 0
43 2 S116 832 918547 722 0
43 2 S116 840 919387 1562 0
43 2 S116 830 920217 2392 0
43 2 S116 795 921012 3187 0
43 2 S116 777 921789 3964 0
43 2 S116 739 922528 4703 0
43 2 S116 718 923246 5421 0
43 2 S116 772 924018 6193 0
43 2 S116 832 924850 7025 0
0 0 0 854 925704 -7904 0
0 0 0 775 926479 -7129 0
0 0 0 786 927265 -6343 0
0 0 0 832 928097 -5511 0
0 0 0 827 928924 -4684 0
0 0 0 750 929674 -3934 0
0 0 0 819 930493 -3115 0
0 0 0 848 931341 -2267 0
44 1 S102 807 932148 -1460 0
44 1 S102 721 932869 -739 0
44 1 S102 720 933589 -19 0
44 2 S102 780 934369 761 0
44 2 S102 791 935160 1552 0
44 2 S102 753 935913 2305 0
44 2 S102 738 936651 3043 0
44 2 S102 795 937446 3838 0
44 2 S102 835 938281 4673 0
44 2 S102 729 939010 5402 0
44 2 S102 706 939716 6108 0
44 2 S102 764 940480 6872 0
0 0 0 813 941293 -7733 0
0 0 0 788 942081 -6945 0
0 0 0 702 942783 -6243 0
0 0 0 694 943477 -5549 0
0 0 0 694 944171 -4855 0
0 0 0 733 944904 -4122 0
0 0 0 672 945576 -3450 0
0 0 0 688 946264 -2762 0
0 0 0 708 946972 -2054 0
45 1 S116 686 947658 -1368 0
45 1 S116 669 948327 -699 0
45 1 S116 666 948993 -33 0
45 2 S116 657 949650 624 0
45 2 S116 653 950303 1277 0
45 2 S116 653 950956 1930 0
45 2 S116 647 951603 2577 0
45 2 S116 637 952240 3214 0
45 2 S116 641 952881 3855 0
45 2 S116 643 953524 4498 0
45 2 S116 647 954171 5145 0
45 2 S116 639 954810 5784 0
45 2 S116 645 955455 6429 0
0 0 0 665 956120 -13247 0
0 0 0 686 956806 -12561 0
0 0 0 711 957517 -11850 0
0 0 0 712 958229 -11138 0
0 0 0 714 958943 -10424 0
0 0 0 763 959706 -9661 0
0 0 0 767 960473 -8894 0
0 0 0 730 961203 -8164 0
0 0 0 675 961878 -7489 0
0 0 0 687 962565 -6802 0
0 0 0 693 963258 -6109 0
0 0 0 697 963955 -5412 0
0 0 0 702 964657 -4710 0
0 0 0 693 965350 -4017 0
0 0 0 746 966096 -3271 0
0 0 0 700 966796 -2571 0
46 1 S102 663 967459 -1908 0
46 1 S102 675 968134 -1233 0
46 1 S102 683 968817 -550 0
46 2 S102 682 969499 132 0
46 2 S102 664 970163 796 0
46 2 S102 663 970826 1459 0
46 2 S102 657 971483 2116 0
46 2 S102 648 972131 2764 0
46 2 S102 641 972772 3405 0
46 2 S102 643 973415 4048 0
46 2 S102 674 974089 4722 0
46 2 S102 712 974801 5434 0
46 2 S102 667 975468 6101 0
46 2 S102 639 976107 6740 0
0 0 0 640 976747 -10310 0
0 0 0 660 977407 -9650 0
0 0 0 711 978118 -8939 0
0 0 0 725 978843 -8214 0
0 0 0 716 979559 -7498 0
0 0 0 751 980310 -6747 0
0 0 0 752 981062 -5995 0
0 0 0 721 981783 -5274 0
0 0 0 652 982435 -4622 0
0 0 0 635 983070 -3987 0
0 0 0 652 983722 -3335 0
0 0 0 649 984371 -2686 0
0 0 0 665 985036 -2021 0
47 1 S112 665 985701 -1356 0
47 1 S112 665 986366 -691 0
47 1 S112 678 987044 -13 0
47 2 S112 716 987760 703 0
47 2 S112 741 988501 1444 0
47 2 S112 762 989263 2206 0
47 2 S112 774 990037 2980 0
47 2 S112 797 990834 3777 0
47 2 S112 788 991622 4565 0
47 2 S112 767 992389 5332 0
47 2 S112 742 993131 6074 0
47 2 S112 713 993844 6787 0
0 0 0 657 994501 -12102 0
0 0 0 664 995165 -11438 0
0 0 0 708 995873 -10730 0
0 0 0 823 996696 -9907 0
0 0 0 792 997488 -9115 0
0 0 0 739 998227 -8376 0
0 0 0 822 999049 -7554 0
0 0 0 866 999915 -6688 0
0 0 0 864 1000779 -5824 0
0 0 0 821 1001600 -5003 0
0 0 0 812 1002412 -4191 0
0 0 0 806 1003218 -3385 0
0 0 0 745 1003963 -2640 0
48 1 S116 700 1004663 -1940 0
48 1 S116 758 1005421 -1182 0
48 1 S116 783 1006204 -399 0
48 2 S116 789 1006993 390 0
48 2 S116 810 1007803 1200 0
48 2 S116 743 1008546 1943 0
48 2 S116 785 1009331 2728 0
48 2 S116 804 1010135 3532 0
48 2 S116 799 1010934 4331 0
48 2 S116 840 1011774 5171 0
48 2 S116 844 1012618 6015 0
48 2 S116 819 1013437 6834 0
0 0 0 807 1014244 -8821 0
0 0 0 809 1015053 -8012 0
0 0 0 801 1015854 -7211 0
0 0 0 732 1016586 -6479 0
0 0 0 809 1017395 -5670 0
0 0 0 864 1018259 -4806 0
0 0 0 779 1019038 -4027 0
0 0 0 793 1019831 -3234 0
0 0 0 825 1020656 -2409 0
49 1 S112 861 1021517 -1548 0
49 1 S112 788 1022305 -760 0
49 2 S112 781 1023086 21 0
49 2 S112 751 1023837 772 0
49 2 S112 688 1024525 1460 0
49 2 S112 726 1025251 2186 0
49 2 S112 770 1026021 2956 0
49 2 S112 805 1026826 3761 0
49 2 S112 752 1027578 4513 0
49 2 S112 812 1028390 5325 0
49 2 S112 820 1029210 6145 0
49 2 S112 788 1029998 6933 0
0 0 0 800 1030798 -12874 0
0 0 0 872 1031670 -12002 0
0 0 0 865 1032535 -11137 0
0 0 0 799 1033334 -10338 0
0 0 0 825 1034159 -9513 0
0 0 0 844 1035003 -8669 0
0 0 0 779 1035782 -7890 0
0 0 0 795 1036577 -7095 0
0 0 0 786 1037363 -6309 0
0 0 0 752 1038115 -5557 0
0 0 0 710 1038825 -4847 0
0 0 0 774 1039599 -4073 0
0 0 0 794 1040393 -3279 0
0 0 0 791 1041184 -2488 0
50 1 S106 759 1041943 -1729 0
50 1 S106 828 1042771 -901 0
50 1 S106 839 1043610 -62 0
50 2 S106 785 1044395 723 0
50 2 S106 780 1045175 1503 0
50 2 S106 804 1045979 2307 0
50 2 S106 847 1046826 3154 0
50 2 S106 770 1047596 3924 0
50 2 S106 791 1048387 4715 0
50 2 S106 804 1049191 5519 0
50 2 S106 824 1050015 6343 0
0 0 0 747 1050762 -6322 0
0 0 0 781 1051543 -5541 0
0 0 0 836 1052379 -4705 0
0 0 0 778 1053157 -3927 0
0 0 0 740 1053897 -3187 0
0 0 0 762 1054659 -2425 0
51 1 S112 788 1055447 -1637 0
51 1 S112 823 1056270 -814 0
51 1 S112 751 1057021 -63 0
51 2 S112 774 1057795 711 0
51 2 S112 840 1058635 1551 0
51 2 S112 870 1059505 2421 0
51 2 S112 829 1060334 3250 0
51 2 S112 869 1061203 4119 0
51 2 S112 870 1062073 4989 0
51 2 S112 828 1062901 5817 0
51 2 S112 801 1063702 6618 0
0 0 0 813 1064515 -9164 0
0 0 0 826 1065341 -8338 0
0 0 0 779 1066120 -7559 0
0 0 0 839 1066959 -6720 0
0 0 0 864 1067823 -5856 0
0 0 0 849 1068672 -5007 0
0 0 0 781 1069453 -4226 0
0 0 0 827 1070280 -3399 0
0 0 0 837 1071117 -2562 0
52 1 S116 787 1071904 -1775 0
52 1 S116 852 1072756 -923 0
52 1 S116 845 1073601 -78 0
52 2 S116 809 1074410 731 0
52 2 S116 786 1075196 1517 0
52 2 S116 863 1076059 2380 0
52 2 S116 827 1076886 3207 0
52 2 S116 772 1077658 3979 0
52 2 S116 726 1078384 4705 0
52 2 S116 776 1079160 5481 0
52 2 S116 870 1080030 6351 0
0 0 0 786 1080816 -11464 0
0 0 0 768 1081584 -10696 0
0 0 0 792 1082376 -9904 0
0 0 0 733 1083109 -9171 0
0 0 0 693 1083802 -8478 0
0 0 0 728 1084530 -7750 0
0 0 0 819 1085349 -6931 0
0 0 0 879 1086228 -6052 0
0 0 0 800 1087028 -5252 0
0 0 0 810 1087838 -4442 0
0 0 0 829 1088667 -3613 0
0 0 0 773 1089440 -2840 0
0 0 0 751 1090191 -2089 0
53 1 S106 758 1090949 -1331 0
53 1 S106 683 1091632 -648 0
53 2 S106 688 1092320 40 0
53 2 S106 678 1092998 718 0
53 2 S106 676 1093674 1394 0
53 2 S106 674 1094348 2068 0
53 2 S106 666 1095014 2734 0
53 2 S106 659 1095673 3393 0
53 2 S106 661 1096334 4054 0
53 2 S106 653 1096987 4707 0
53 2 S106 628 1097615 5335 0
53 2 S106 631 1098246 5966 0
53 2 S106 630 1098876 6596 0
0 0 0 614 1099490 -6981 0
0 0 0 616 1100106 -6365 0
0 0 0 627 1100733 -5738 0
0 0 0 632 1101365 -5106 0
0 0 0 655 1102020 -4451 0
0 0 0 817 1102837 -3634 0
0 0 0 688 1103525 -2946 0
0 0 0 810 1104335 -2136 0
54 1 S102 696 1105031 -1440 0
54 1 S102 689 1105720 -751 0
54 1 S102 665 1106385 -86 0
54 2 S102 670 1107055 584 0
54 2 S102 698 1107753 1282 0
54 2 S102 930 1108683 2212 0
54 2 S102 923 1109606 3135 0
54 2 S102 902 1110508 4037 0
54 2 S102 889 1111397 4926 0
54 2 S102 858 1112255 5784 0
54 2 S102 836 1113091 6620 0
0 0 0 828 1113919 -11518 0
0 0 0 743 1114662 -10775 0
0 0 0 731 1115393 -10044 0
0 0 0 678 1116071 -9366 0
0 0 0 657 1116728 -8709 0
0 0 0 630 1117358 -8079 0
0 0 0 622 1117980 -7457 0
0 0 0 660 1118640 -6797 0
0 0 0 665 1119305 -6132 0
0 0 0 698 1120003 -5434 0
0 0 0 707 1120710 -4727 0
0 0 0 716 1121426 -4011 0
0 0 0 702 1122128 -3309 0
0 0 0 676 1122804 -2633 0
55 1 S106 664 1123468 -1969 0
55 1 S106 656 1124124 -1313 0
55 1 S106 653 1124777 -660 0
55 1 S106 652 1125429 -8 0
55 2 S106 610 1126039 602 0
55 2 S106 641 1126680 1243 0
55 2 S106 637 1127317 1880 0
55 2 S106 638 1127955 2518 0
55 2 S106 640 1128595 3158 0
55 2 S106 622 1129217 3780 0
55 2 S106 617 1129834 4397 0
55 2 S106 633 1130467 5030 0
55 2 S106 755 1131222 5785 0
55 2 S106 948 1132170 6733 0
0 0 0 905 1133075 -5674 0
0 0 0 923 1133998 -4751 0
0 0 0 899 1134897 -3852 0
0 0 0 881 1135778 -2971 0
0 0 0 872 1136650 -2099 0
56 1 S116 865 1137515 -1234 0
56 1 S116 853 1138368 -381 0
56 2 S116 823 1139191 442 0
56 2 S116 788 1139979 1230 0
56 2 S116 758 1140737 1988 0
56 2 S116 741 1141478 2729 0
56 2 S116 687 1142165 3416 0
56 2 S116 652 1142817 4068 0
56 2 S116 640 1143457 4708 0
56 2 S116 648 1144105 5356 0
56 2 S116 709 1144814 6065 0
56 2 S116 890 1145704 6955 0
0 0 0 879 1146583 -7982 0
0 0 0 859 1147442 -7123 0
0 0 0 854 1148296 -6269 0
0 0 0 849 1149145 -5420 0
0 0 0 840 1149985 -4580 0
0 0 0 784 1150769 -3796 0
0 0 0 791 1151560 -3005 0
0 0 0 744 1152304 -2261 0
57 1 S106 743 1153047 -1518 0
57 1 S106 695 1153742 -823 0
57 1 S106 671 1154413 -152 0
57 2 S106 639 1155052 487 0
57 2 S106 623 1155675 1110 0
57 2 S106 629 1156304 1739 0
57 2 S106 693 1156997 2432 0
57 2 S106 1001 1157998 3433 1
57 2 S106 859 1158857 4292 0
57 2 S106 887 1159744 5179 0
57 2 S106 901 1160645 6080 0
57 2 S106 883 1161528 6963 0
0 0 0 899 1162427 -10739 0
0 0 0 841 1163268 -9898 0
0 0 0 836 1164104 -9062 0
0 0 0 808 1164912 -8254 0
0 0 0 817 1165729 -7437 0
0 0 0 813 1166542 -6624 0
0 0 0 757 1167299 -5867 0
0 0 0 736 1168035 -5131 0
0 0 0 705 1168740 -4426 0
0 0 0 705 1169445 -3721 0
0 0 0 689 1170134 -3032 0
0 0 0 686 1170820 -2346 0
58 1 S102 678 1171498 -1668 0
58 1 S102 676 1172174 -992 0
58 1 S102 779 1172953 -213 0
58 2 S102 969 1173922 756 0
58 2 S102 997 1174919 1753 1
58 2 S102 947 1175866 2700 0
58 2 S102 928 1176794 3628 0
58 2 S102 900 1177694 4528 0
58 2 S102 878 1178572 5406 0
58 2 S102 771 1179343 6177 0
58 2 S102 764 1180107 6941 0
0 0 0 692 1180799 -7536 0
0 0 0 664 1181463 -6872 0
0 0 0 661 1182124 -6211 0
0 0 0 709 1182833 -5502 0
0 0 0 815 1183648 -4687 0
0 0 0 786 1184434 -3901 0
0 0 0 721 1185155 -3180 0
0 0 0 718 1185873 -2462 0
59 1 S112 744 1186617 -1718 0
59 1 S112 791 1187408 -927 0
59 1 S112 823 1188231 -104 0
59 2 S112 829 1189060 725 0
59 2 S112 828 1189888 1553 0
59 2 S112 796 1190684 2349 0
59 2 S112 771 1191455 3120 0
59 2 S112 677 1192132 3797 0
59 2 S112 711 1192843 4508 0
59 2 S112 709 1193552 5217 0
59 2 S112 672 1194224 5889 0
59 2 S112 652 1194876 6541 0
0 0 0 641 1195517 -8684 0
0 0 0 638 1196155 -8046 0
0 0 0 666 1196821 -7380 0
0 0 0 833 1197654 -6547 0
0 0 0 699 1198353 -5848 0
0 0 0 689 1199042 -5159 0
0 0 0 680 1199722 -4479 0
0 0 0 718 1200440 -3761 0
0 0 0 665 1201105 -3096 0
0 0 0 648 1201753 -2448 0
60 1 S102 643 1202396 -1805 0
60 1 S102 643 1203039 -1162 0
60 1 S102 759 1203798 -403 0
60 2 S102 862 1204660 459 0
60 2 S102 861 1205521 1320 0
60 2 S102 854 1206375 2174 0
60 2 S102 760 1207135 2934 0
60 2 S102 699 1207834 3633 0
60 2 S102 671 1208505 4304 0
60 2 S102 640 1209145 4944 0
60 2 S102 618 1209763 5562 0
60 2 S102 595 1210358 6157 0
60 2 S102 592 1210950 6749 0
0 0 0 613 1211563 -11222 0
0 0 0 759 1212322 -10463 0
0 0 0 888 1213210 -9575 0
0 0 0 919 1214129 -8656 0
0 0 0 880 1215009 -7776 0
0 0 0 875 1215884 -6901 0
0 0 0 873 1216757 -6028 0
0 0 0 810 1217567 -5218 0
0 0 0 799 1218366 -4419 0
0 0 0 791 1219157 -3628 0
0 0 0 781 1219938 -2847 0
0 0 0 801 1220739 -2046 0
61 1 S106 809 1221548 -1237 0
61 1 S106 832 1222380 -405 0
61 2 S106 832 1223212 427 0
61 2 S106 823 1224035 1250 0
61 2 S106 784 1224819 2034 0
61 2 S106 739 1225558 2773 0
61 2 S106 680 1226238 3453 0
61 2 S106 683 1226921 4136 0
61 2 S106 779 1227700 4915 0
61 2 S106 1041 1228741 5956 1
61 2 S106 819 1229560 6775 0
0 0 0 821 1230381 -6545 0
0 0 0 892 1231273 -5653 0
0 0 0 840 1232113 -4813 0
0 0 0 770 1232883 -4043 0
0 0 0 807 1233690 -3236 0
0 0 0 842 1234532 -2394 0
62 1 S112 783 1235315 -1611 0
62 1 S112 768 1236083 -843 0
62 1 S112 756 1236839 -87 0
62 2 S112 791 1237630 704 0
62 2 S112 729 1238359 1433 0
62 2 S112 750 1239109 2183 0
62 2 S112 914 1240023 3097 0
62 2 S112 815 1240838 3912 0
62 2 S112 752 1241590 4664 0
62 2 S112 785 1242375 5449 0
62 2 S112 799 1243174 6248 0
0 0 0 792 1243966 -13285 0
0 0 0 754 1244720 -12531 0
0 0 0 802 1245522 -11729 0
0 0 0 845 1246367 -10884 0
0 0 0 757 1247124 -10127 0
0 0 0 723 1247847 -9404 0
0 0 0 798 1248645 -8606 0
0 0 0 791 1249436 -7815 0
0 0 0 713 1250149 -7102 0
0 0 0 794 1250943 -6308 0
0 0 0 836 1251779 -5472 0
0 0 0 839 1252618 -4633 0
0 0 0 783 1253401 -3850 0
0 0 0 859 1254260 -2991 0
0 0 0 840 1255100 -2151 0
63 1 S102 757 1255857 -1394 0
63 1 S102 760 1256617 -634 0
63 2 S102 841 1257458 207 0
63 2 S102 846 1258304 1053 0
63 2 S102 775 1259079 1828 0
63 2 S102 883 1259962 2711 0
63 2 S102 830 1260792 3541 0
63 2 S102 817 1261609 4358 0
63 2 S102 779 1262388 5137 0
63 2 S102 834 1263222 5971 0
63 2 S102 878 1264100 6849 0
0 0 0 805 1264905 -9770 0
0 0 0 834 1265739 -8936 0
0 0 0 946 1266685 -7990 0
0 0 0 899 1267584 -7091 0
0 0 0 864 1268448 -6227 0
0 0 0 898 1269346 -5329 0
0 0 0 859 1270205 -4470 0
0 0 0 793 1270998 -3677 0
0 0 0 867 1271865 -2810 0
64 1 S112 914 1272779 -1896 0
64 1 S112 793 1273572 -1103 0
64 1 S112 749 1274321 -354 0
64 2 S112 775 1275096 421 0
64 2 S112 785 1275881 1206 0
64 2 S112 762 1276643 1968 0
64 2 S112 772 1277415 2740 0
64 2 S112 920 1278335 3660 0
64 2 S112 902 1279237 4562 0
64 2 S112 816 1280053 5378 0
64 2 S112 840 1280893 6218 0
0 0 0 916 1281809 -9478 0
0 0 0 849 1282658 -8629 0
0 0 0 813 1283471 -7816 0
0 0 0 865 1284336 -6951 0
0 0 0 910 1285246 -6041 0
0 0 0 851 1286097 -5190 0
0 0 0 810 1286907 -4380 0
0 0 0 806 1287713 -3574 0
0 0 0 727 1288440 -2847 0
0 0 0 678 1289118 -2169 0
65 1 S106 657 1289775 -1512 0
65 1 S106 645 1290420 -867 0
65 1 S106 636 1291056 -231 0
65 2 S106 626 1291682 395 0
65 2 S106 618 1292300 1013 0
65 2 S106 618 1292918 1631 0
65 2 S106 625 1293543 2256 0
65 2 S106 646 1294189 2902 0
65 2 S106 674 1294863 3576 0
65 2 S106 695 1295558 4271 0
65 2 S106 683 1296241 4954 0
65 2 S106 682 1296923 5636 0
65 2 S106 667 1297590 6303 0
65 2 S106 670 1298260 6973 0
0 0 0 681 1298941 -7764 0
0 0 0 701 1299642 -7063 0
0 0 0 702 1300344 -6361 0
0 0 0 713 1301057 -5648 0
0 0 0 693 1301750 -4955 0
0 0 0 695 1302445 -4260 0
0 0 0 713 1303158 -3547 0
0 0 0 733 1303891 -2814 0
0 0 0 722 1304613 -2092 0
66 1 S116 692 1305305 -1400 0
66 1 S116 708 1306013 -692 0
66 1 S116 667 1306680 -25 0
66 2 S116 642 1307322 617 0
66 2 S116 623 1307945 1240 0
66 2 S116 616 1308561 1856 0
66 2 S116 640 1309201 2496 0
66 2 S116 1151 1310352 3647 1
66 2 S116 866 1311218 4513 0
66 2 S116 789 1312007 5302 0
66 2 S116 897 1312904 6199 0
0 0 0 1105 1314009 -13038 1
0 0 0 1003 1315012 -12035 1
0 0 0 884 1315896 -11151 0
0 0 0 1018 1316914 -10133 1
0 0 0 978 1317892 -9155 0
0 0 0 825 1318717 -8330 0
0 0 0 858 1319575 -7472 0
0 0 0 919 1320494 -6553 0
0 0 0 884 1321378 -5669 0
0 0 0 778 1322156 -4891 0
0 0 0 797 1322953 -4094 0
0 0 0 838 1323791 -3256 0
0 0 0 792 1324583 -2464 0
67 1 S102 787 1325370 -1677 0
67 1 S102 835 1326205 -842 0
67 1 S102 826 1327031 -16 0
67 2 S102 772 1327803 756 0
67 2 S102 870 1328673 1626 0
67 2 S102 932 1329605 2558 0
67 2 S102 804 1330409 3362 0
67 2 S102 818 1331227 4180 0
67 2 S102 834 1332061 5014 0
67 2 S102 920 1332981 5934 0
67 2 S102 851 1333832 6785 0
0 0 0 918 1334750 -5941 0
0 0 0 918 1335668 -5023 0
0 0 0 831 1336499 -4192 0
0 0 0 763 1337262 -3429 0
0 0 0 808 1338070 -2621 0
68 1 S106 789 1338859 -1832 0
68 1 S106 737 1339596 -1095 0
68 1 S106 773 1340369 -322 0
68 2 S106 881 1341250 559 0
68 2 S106 961 1342211 1520 0
68 2 S106 864 1343075 2384 0
68 2 S106 934 1344009 3318 0
68 2 S106 950 1344959 4268 0
68 2 S106 837 1345796 5105 0
68 2 S106 773 1346569 5878 0
68 2 S106 822 1347391 6700 0
0 0 0 886 1348277 -12739 0
0 0 0 807 1349084 -11932 0
0 0 0 775 1349859 -11157 0
0 0 0 798 1350657 -10359 0
0 0 0 827 1351484 -9532 0
0 0 0 775 1352259 -8757 0
0 0 0 756 1353015 -8001 0
0 0 0 822 1353837 -7179 0
0 0 0 818 1354655 -6361 0
0 0 0 747 1355402 -5614 0
0 0 0 805 1356207 -4809 0
0 0 0 840 1357047 -3969 0
0 0 0 822 1357869 -3147 0
0 0 0 750 1358619 -2397 0
69 1 S102 794 1359413 -1603 0
69 1 S102 843 1360256 -760 0
69 1 S102 739 1360995 -21 0
69 2 S102 705 1361700 684 0
69 2 S102 729 1362429 1413 0
69 2 S102 761 1363190 2174 0
69 2 S102 721 1363911 2895 0
69 2 S102 799 1364710 3694 0
69 2 S102 827 1365537 4521 0
69 2 S102 865 1366402 5386 0
69 2 S102 773 1367175 6159 0
69 2 S102 825 1368000 6984 0
0 0 0 870 1368870 -9205 0
0 0 0 860 1369730 -8345 0
0 0 0 804 1370534 -7541 0
0 0 0 789 1371323 -6752 0
0 0 0 811 1372134 -5941 0
0 0 0 751 1372885 -5190 0
0 0 0 728 1373613 -4462 0
0 0 0 803 1374416 -3659 0
0 0 0 848 1375264 -2811 0
70 1 S112 874 1376138 -1937 0
70 1 S112 827 1376965 -1110 0
70 1 S112 842 1377807 -268 0
70 2 S112 854 1378661 586 0
70 2 S112 781 1379442 1367 0
70 2 S112 782 1380224 2149 0
70 2 S112 849 1381073 2998 0
70 2 S112 891 1381964 3889 0
70 2 S112 785 1382749 4674 0
70 2 S112 819 1383568 5493 0
70 2 S112 805 1384373 6298 0
0 0 0 797 1385170 -11191 0
0 0 0 751 1385921 -10440 0
0 0 0 729 1386650 -9711 0
0 0 0 779 1387429 -8932 0
0 0 0 816 1388245 -8116 0
0 0 0 748 1388993 -7368 0
0 0 0 693 1389686 -6675 0
0 0 0 682 1390368 -5993 0
0 0 0 663 1391031 -5330 0
0 0 0 648 1391679 -4682 0
0 0 0 642 1392321 -4040 0
0 0 0 650 1392971 -3390 0
0 0 0 655 1393626 -2735 0
0 0 0 668 1394294 -2067 0
71 1 S116 656 1394950 -1411 0
71 1 S116 655 1395605 -756 0
71 1 S116 647 1396252 -109 0
71 2 S116 642 1396894 533 0
71 2 S116 635 1397529 1168 0
71 2 S116 632 1398161 1800 0
71 2 S116 628 1398789 2428 0
71 2 S116 627 1399416 3055 0
71 2 S116 638 1400054 3693 0
71 2 S116 654 1400708 4347 0
71 2 S116 670 1401378 5017 0
71 2 S116 680 1402058 5697 0
71 2 S116 639 1402697 6336 0
71 2 S116 655 1403352 6991 0
0 0 0 635 1403987 -9748 0
0 0 0 619 1404606 -9129 0
0 0 0 610 1405216 -8519 0
0 0 0 610 1405826 -7909 0
0 0 0 628 1406454 -7281 0
0 0 0 1017 1407471 -6264 1
0 0 0 834 1408305 -5430 0
0 0 0 798 1409103 -4632 0
0 0 0 802 1409905 -3830 0
0 0 0 806 1410711 -3024 0
0 0 0 785 1411496 -2239 0
72 1 S102 763 1412259 -1476 0
72 1 S102 748 1413007 -728 0
72 2 S102 742 1413749 14 0
72 2 S102 713 1414462 727 0
72 2 S102 716 1415178 1443 0
72 2 S102 716 1415894 2159 0
72 2 S102 691 1416585 2850 0
72 2 S102 701 1417286 3551 0
72 2 S102 681 1417967 4232 0
72 2 S102 629 1418596 4861 0
72 2 S102 610 1419206 5471 0
72 2 S102 606 1419812 6077 0
72 2 S102 618 1420430 6695 0
0 0 0 718 1421148 -6961 0
0 0 0 846 1421994 -6115 0
0 0 0 747 1422741 -5368 0
0 0 0 704 1423445 -4664 0
0 0 0 737 1424182 -3927 0
0 0 0 910 1425092 -3017 0
0 0 0 856 1425948 -2161 0
73 1 S116 765 1426713 -1396 0
73 1 S116 726 1427439 -670 0
73 2 S116 713 1428152 43 0
73 2 S116 1065 1429217 1108 1
73 2 S116 894 1430111 2002 0
73 2 S116 840 1430951 2842 0
73 2 S116 942 1431893 3784 0
73 2 S116 885 1432778 4669 0
73 2 S116 776 1433554 5445 0
73 2 S116 820 1434374 6265 0
0 0 0 886 1435260 -10853 0
0 0 0 906 1436166 -9947 0
0 0 0 807 1436973 -9140 0
0 0 0 869 1437842 -8271 0
0 0 0 941 1438783 -7330 0
0 0 0 787 1439570 -6543 0
0 0 0 734 1440304 -5809 0
0 0 0 799 1441103 -5010 0
0 0 0 855 1441958 -4155 0
0 0 0 877 1442835 -3278 0
0 0 0 795 1443630 -2483 0
74 1 S106 892 1444522 -1591 0
74 1 S106 920 1445442 -671 0
74 2 S106 857 1446299 186 0
74 2 S106 775 1447074 961 0
74 2 S106 811 1447885 1772 0
74 2 S106 838 1448723 2610 0
74 2 S106 765 1449488 3375 0
74 2 S106 737 1450225 4112 0
74 2 S106 811 1451036 4923 0
74 2 S106 868 1451904 5791 0
74 2 S106 797 1452701 6588 0
0 0 0 801 1453502 -6686 0
0 0 0 859 1454361 -5827 0
0 0 0 798 1455159 -5029 0
0 0 0 746 1455905 -4283 0
0 0 0 826 1456731 -3457 0
0 0 0 933 1457664 -2524 0
75 1 S112 804 1458468 -1720 0
75 1 S112 765 1459233 -955 0
75 1 S112 824 1460057 -131 0
75 2 S112 895 1460952 764 0
75 2 S112 868 1461820 1632 0
75 2 S112 780 1462600 2412 0
75 2 S112 826 1463426 3238 0
75 2 S112 1041 1464467 4279 1
75 2 S112 827 1465294 5106 0
75 2 S112 788 1466082 5894 0
75 2 S112 838 1466920 6732 0
0 0 0 941 1467861 -8822 0
0 0 0 848 1468709 -7974 0
0 0 0 937 1469646 -7037 0
0 0 0 1053 1470699 -5984 1
0 0 0 871 1471570 -5113 0
0 0 0 892 1472462 -4221 0
0 0 0 909 1473371 -3312 0
0 0 0 794 1474165 -2518 0
76 1 S116 797 1474962 -1721 0
76 1 S116 838 1475800 -883 0
76 1 S116 875 1476675 -8 0
76 2 S116 797 1477472 789 0
76 2 S116 825 1478297 1614 0
76 2 S116 850 1479147 2464 0
76 2 S116 806 1479953 3270 0
76 2 S116 908 1480861 4178 0
76 2 S116 923 1481784 5101 0
76 2 S116 916 1482700 6017 0
76 2 S116 792 1483492 6809 0
0 0 0 813 1484305 -8973 0
0 0 0 801 1485106 -8172 0
0 0 0 765 1485871 -7407 0
0 0 0 761 1486632 -6646 0
0 0 0 974 1487606 -5672 0
0 0 0 967 1488573 -4705 0
0 0 0 860 1489433 -3845 0
0 0 0 871 1490304 -2974 0
0 0 0 875 1491179 -2099 0
77 1 S106 816 1491995 -1283 0
77 1 S106 793 1492788 -490 0
77 2 S106 829 1493617 339 0
77 2 S106 769 1494386 1108 0
77 2 S106 734 1495120 1842 0
77 2 S106 726 1495846 2568 0
77 2 S106 726 1496572 3294 0
77 2 S106 806 1497378 4100 0
77 2 S106 751 1498129 4851 0
77 2 S106 739 1498868 5590 0
77 2 S106 832 1499700 6422 0
0 0 0 903 1500603 -8574 0
0 0 0 841 1501444 -7733 0
0 0 0 827 1502271 -6906 0
0 0 0 858 1503129 -6048 0
0 0 0 839 1503968 -5209 0
0 0 0 771 1504739 -4438 0
0 0 0 752 1505491 -3686 0
0 0 0 786 1506277 -2900 0
0 0 0 819 1507096 -2081 0
78 1 S112 771 1507867 -1310 0
78 1 S112 769 1508636 -541 0
78 2 S112 884 1509520 343 0
78 2 S112 976 1510496 1319 0
78 2 S112 852 1511348 2171 0
78 2 S112 881 1512229 3052 0
78 2 S112 899 1513128 3951 0
78 2 S112 882 1514010 4833 0
78 2 S112 821 1514831 5654 0
78 2 S112 863 1515694 6517 0
0 0 0 929 1516623 -12050 0
0 0 0 871 1517494 -11179 0
0 0 0 811 1518305 -10368 0
0 0 0 789 1519094 -9579 0
0 0 0 828 1519922 -8751 0
0 0 0 808 1520730 -7943 0
0 0 0 759 1521489 -7184 0
0 0 0 774 1522263 -6410 0
0 0 0 832 1523095 -5578 0
0 0 0 943 1524038 -4635 0
0 0 0 901 1524939 -3734 0
0 0 0 950 1525889 -2784 0
79 1 S102 947 1526836 -1837 0
79 1 S102 816 1527652 -1021 0
79 1 S102 765 1528417 -256 0
79 2 S102 781 1529198 525 0
79 2 S102 813 1530011 1338 0
79 2 S102 787 1530798 2125 0
79 2 S102 824 1531622 2949 0
79 2 S102 958 1532580 3907 0
79 2 S102 939 1533519 4846 0
79 2 S102 797 1534316 5643 0
79 2 S102 812 1535128 6455 0
0 0 0 867 1535995 -8908 0
0 0 0 802 1536797 -8106 0
0 0 0 758 1537555 -7348 0
0 0 0 817 1538372 -6531 0
0 0 0 757 1539129 -5774 0
0 0 0 697 1539826 -5077 0
0 0 0 669 1540495 -4408 0
0 0 0 664 1541159 -3744 0
0 0 0 659 1541818 -3085 0
0 0 0 645 1542463 -2440 0
80 1 S116 647 1543110 -1793 0
80 1 S116 645 1543755 -1148 0
80 1 S116 644 1544399 -504 0
80 2 S116 629 1545028 125 0
80 2 S116 618 1545646 743 0
80 2 S116 618 1546264 1361 0
80 2 S116 614 1546878 1975 0
80 2 S116 605 1547483 2580 0
80 2 S116 599 1548082 3179 0
80 2 S116 593 1548675 3772 0
80 2 S116 598 1549273 4370 0
80 2 S116 621 1549894 4991 0
80 2 S116 623 1550517 5614 0
80 2 S116 619 1551136 6233 0
80 2 S116 642 1551778 6875 0
