T_0171
BeatCount Mean SD BeatCountNoOutliers MeanNoOutliers SDNoOutliers
1762 877,641884222474 93,7968948515058 1736 881,507488479263 88,1266208854541

Trial TrialStatus Trialtype IBI AbsPosition RelPosition Outlier
0 0 0 829 1523 -14397 0
0 0 0 858 2381 -13539 0
0 0 0 900 3281 -12639 0
0 0 0 929 4210 -11710 0
0 0 0 838 5048 -10872 0
0 0 0 843 5891 -10029 0
0 0 0 798 6689 -9231 0
0 0 0 771 7460 -8460 0
0 0 0 695 8155 -7765 0
0 0 0 679 8834 -7086 0
0 0 0 737 9571 -6349 0
0 0 0 909 10480 -5440 0
0 0 0 981 11461 -4459 0
0 0 0 939 12400 -3520 0
0 0 0 997 13397 -2523 0
1 1 S112 1021 14418 -1502 0
1 1 S112 962 15380 -540 0
1 2 S112 892 16272 352 0
1 2 S112 885 17157 1237 0
1 2 S112 885 18042 2122 0
1 2 S112 908 18950 3030 0
1 2 S112 903 19853 3933 0
1 2 S112 866 20719 4799 0
1 2 S112 957 21676 5756 0
1 2 S112 1062 22738 6818 0
0 0 0 1117 23855 -11694 0
0 0 0 1016 24871 -10678 0
0 0 0 904 25775 -9774 0
0 0 0 906 26681 -8868 0
0 0 0 896 27577 -7972 0
0 0 0 892 28469 -7080 0
0 0 0 847 29316 -6233 0
0 0 0 807 30123 -5426 0
0 0 0 836 30959 -4590 0
0 0 0 926 31885 -3664 0
0 0 0 1000 32885 -2664 0
2 1 S102 968 33853 -1696 0
2 1 S102 907 34760 -789 0
2 2 S102 943 35703 154 0
2 2 S102 950 36653 1104 0
2 2 S102 963 37616 2067 0
2 2 S102 902 38518 2969 0
2 2 S102 843 39361 3812 0
2 2 S102 845 40206 4657 0
2 2 S102 921 41127 5578 0
2 2 S102 1022 42149 6600 0
0 0 0 1073 43222 -8574 0
0 0 0 968 44190 -7606 0
0 0 0 906 45096 -6700 0
0 0 0 920 46016 -5780 0
0 0 0 949 46965 -4831 0
0 0 0 952 47917 -3879 0
0 0 0 849 48766 -3030 0
0 0 0 838 49604 -2192 0
3 1 S116 835 50439 -1357 0
3 1 S116 814 51253 -543 0
3 2 S116 775 52028 232 0
3 2 S116 786 52814 1018 0
3 2 S116 833 53647 1851 0
3 2 S116 871 54518 2722 0
3 2 S116 860 55378 3582 0
3 2 S116 808 56186 4390 0
3 2 S116 754 56940 5144 0
3 2 S116 750 57690 5894 0
3 2 S116 777 58467 6671 0
0 0 0 849 59316 -10733 0
0 0 0 904 60220 -9829 0
0 0 0 906 61126 -8923 0
0 0 0 818 61944 -8105 0
0 0 0 802 62746 -7303 0
0 0 0 819 63565 -6484 0
0 0 0 841 64406 -5643 0
0 0 0 827 65233 -4816 0
0 0 0 783 66016 -4033 0
0 0 0 785 66801 -3248 0
0 0 0 838 67639 -2410 0
4 1 S106 915 68554 -1495 0
4 1 S106 935 69489 -560 0
4 2 S106 864 70353 304 0
4 2 S106 853 71206 1157 0
4 2 S106 866 72072 2023 0
4 2 S106 870 72942 2893 0
4 2 S106 869 73811 3762 0
4 2 S106 840 74651 4602 0
4 2 S106 818 75469 5420 0
4 2 S106 873 76342 6293 0
0 0 0 953 77295 -7392 0
0 0 0 981 78276 -6411 0
0 0 0 933 79209 -5478 0
0 0 0 880 80089 -4598 0
0 0 0 909 80998 -3689 0
0 0 0 973 81971 -2716 0
5 1 S116 1001 82972 -1715 0
5 1 S116 906 83878 -809 0
5 2 S116 896 84774 87 0
5 2 S116 918 85692 1005 0
5 2 S116 922 86614 1927 0
5 2 S116 895 87509 2822 0
5 2 S116 819 88328 3641 0
5 2 S116 784 89112 4425 0
5 2 S116 824 89936 5249 0
5 2 S116 931 90867 6180 0
0 0 0 1017 91884 -9415 0
0 0 0 972 92856 -8443 0
0 0 0 913 93769 -7530 0
0 0 0 952 94721 -6578 0
0 0 0 927 95648 -5651 0
0 0 0 813 96461 -4838 0
0 0 0 711 97172 -4127 0
0 0 0 703 97875 -3424 0
0 0 0 741 98616 -2683 0
6 1 S106 846 99462 -1837 0
6 1 S106 943 100405 -894 0
6 2 S106 915 101320 21 0
6 2 S106 868 102188 889 0
6 2 S106 927 103115 1816 0
6 2 S106 961 104076 2777 0
6 2 S106 952 105028 3729 0
6 2 S106 897 105925 4626 0
6 2 S106 819 106744 5445 0
6 2 S106 829 107573 6274 0
0 0 0 936 108509 -11988 0
0 0 0 1056 109565 -10932 0
0 0 0 979 110544 -9953 0
0 0 0 948 111492 -9005 0
0 0 0 966 112458 -8039 0
0 0 0 960 113418 -7079 0
0 0 0 903 114321 -6176 0
0 0 0 825 115146 -5351 0
0 0 0 869 116015 -4482 0
0 0 0 918 116933 -3564 0
0 0 0 953 117886 -2611 0
7 1 S102 884 118770 -1727 0
7 1 S102 829 119599 -898 0
7 1 S102 881 120480 -17 0
7 2 S102 951 121431 934 0
7 2 S102 992 122423 1926 0
7 2 S102 981 123404 2907 0
7 2 S102 908 124312 3815 0
7 2 S102 920 125232 4735 0
7 2 S102 972 126204 5707 0
7 2 S102 1021 127225 6728 0
0 0 0 1010 128235 -9188 0
0 0 0 916 129151 -8272 0
0 0 0 909 130060 -7363 0
0 0 0 926 130986 -6437 0
0 0 0 954 131940 -5483 0
0 0 0 910 132850 -4573 0
0 0 0 898 133748 -3675 0
0 0 0 982 134730 -2693 0
8 1 S112 1031 135761 -1662 0
8 1 S112 986 136747 -676 0
8 2 S112 909 137656 233 0
8 2 S112 869 138525 1102 0
8 2 S112 882 139407 1984 0
8 2 S112 917 140324 2901 0
8 2 S112 960 141284 3861 0
8 2 S112 947 142231 4808 0
8 2 S112 873 143104 5681 0
8 2 S112 884 143988 6565 0
0 0 0 957 144945 -7647 0
0 0 0 993 145938 -6654 0
0 0 0 933 146871 -5721 0
0 0 0 868 147739 -4853 0
0 0 0 904 148643 -3949 0
0 0 0 961 149604 -2988 0
0 0 0 975 150579 -2013 0
9 1 S116 898 151477 -1115 0
9 1 S116 838 152315 -277 0
9 2 S116 865 153180 588 0
9 2 S116 912 154092 1500 0
9 2 S116 959 155051 2459 0
9 2 S116 932 155983 3391 0
9 2 S116 880 156863 4271 0
9 2 S116 921 157784 5192 0
9 2 S116 984 158768 6176 0
0 0 0 997 159765 -12009 0
0 0 0 953 160718 -11056 0
0 0 0 849 161567 -10207 0
0 0 0 854 162421 -9353 0
0 0 0 870 163291 -8483 0
0 0 0 838 164129 -7645 0
0 0 0 771 164900 -6874 0
0 0 0 703 165603 -6171 0
0 0 0 717 166320 -5454 0
0 0 0 784 167104 -4670 0
0 0 0 915 168019 -3755 0
0 0 0 992 169011 -2763 0
10 1 S102 923 169934 -1840 0
10 1 S102 865 170799 -975 0
10 1 S102 878 171677 -97 0
10 2 S102 928 172605 831 0
10 2 S102 910 173515 1741 0
10 2 S102 850 174365 2591 0
10 2 S102 789 175154 3380 0
10 2 S102 791 175945 4171 0
10 2 S102 842 176787 5013 0
10 2 S102 969 177756 5982 0
10 2 S102 1031 178787 7013 0
0 0 0 984 179771 -10902 0
0 0 0 901 180672 -10001 0
0 0 0 928 181600 -9073 0
0 0 0 940 182540 -8133 0
0 0 0 938 183478 -7195 0
0 0 0 895 184373 -6300 0
0 0 0 880 185253 -5420 0
0 0 0 921 186174 -4499 0
0 0 0 984 187158 -3515 0
0 0 0 984 188142 -2531 0
11 1 S112 929 189071 -1602 0
11 1 S112 886 189957 -716 0
11 2 S112 913 190870 197 0
11 2 S112 937 191807 1134 0
11 2 S112 924 192731 2058 0
11 2 S112 871 193602 2929 0
11 2 S112 861 194463 3790 0
11 2 S112 969 195432 4759 0
11 2 S112 1031 196463 5790 0
11 2 S112 1047 197510 6837 0
0 0 0 980 198490 -8413 0
0 0 0 923 199413 -7490 0
0 0 0 927 200340 -6563 0
0 0 0 952 201292 -5611 0
0 0 0 948 202240 -4663 0
0 0 0 852 203092 -3811 0
0 0 0 829 203921 -2982 0
0 0 0 919 204840 -2063 0
12 1 S116 1022 205862 -1041 0
12 1 S116 1012 206874 -29 0
12 2 S116 931 207805 902 0
12 2 S116 904 208709 1806 0
12 2 S116 930 209639 2736 0
12 2 S116 928 210567 3664 0
12 2 S116 901 211468 4565 0
12 2 S116 834 212302 5399 0
12 2 S116 828 213130 6227 0
0 0 0 878 214008 -12126 0
0 0 0 945 214953 -11181 0
0 0 0 972 215925 -10209 0
0 0 0 917 216842 -9292 0
0 0 0 935 217777 -8357 0
0 0 0 944 218721 -7413 0
0 0 0 924 219645 -6489 0
0 0 0 849 220494 -5640 0
0 0 0 828 221322 -4812 0
0 0 0 864 222186 -3948 0
0 0 0 934 223120 -3014 0
0 0 0 971 224091 -2043 0
13 1 S112 939 225030 -1104 0
13 1 S112 891 225921 -213 0
13 2 S112 930 226851 717 0
13 2 S112 941 227792 1658 0
13 2 S112 913 228705 2571 0
13 2 S112 856 229561 3427 0
13 2 S112 831 230392 4258 0
13 2 S112 894 231286 5152 0
13 2 S112 983 232269 6135 0
0 0 0 1020 233289 -12408 0
0 0 0 956 234245 -11452 0
0 0 0 874 235119 -10578 0
0 0 0 935 236054 -9643 0
0 0 0 974 237028 -8669 0
0 0 0 928 237956 -7741 0
0 0 0 840 238796 -6901 0
0 0 0 827 239623 -6074 0
0 0 0 896 240519 -5178 0
0 0 0 954 241473 -4224 0
0 0 0 977 242450 -3247 0
0 0 0 930 243380 -2317 0
14 1 S106 851 244231 -1466 0
14 1 S106 888 245119 -578 0
14 2 S106 928 246047 350 0
14 2 S106 828 246875 1178 0
14 2 S106 771 247646 1949 0
14 2 S106 792 248438 2741 0
14 2 S106 804 249242 3545 0
14 2 S106 913 250155 4458 0
14 2 S106 1003 251158 5461 0
14 2 S106 1023 252181 6484 0
0 0 0 966 253147 -12311 0
0 0 0 874 254021 -11437 0
0 0 0 797 254818 -10640 0
0 0 0 800 255618 -9840 0
0 0 0 855 256473 -8985 0
0 0 0 893 257366 -8092 0
0 0 0 859 258225 -7233 0
0 0 0 850 259075 -6383 0
0 0 0 924 259999 -5459 0
0 0 0 987 260986 -4472 0
0 0 0 985 261971 -3487 0
0 0 0 898 262869 -2589 0
15 1 S116 840 263709 -1749 0
15 1 S116 881 264590 -868 0
15 2 S116 941 265531 73 0
15 2 S116 971 266502 1044 0
15 2 S116 926 267428 1970 0
15 2 S116 852 268280 2822 0
15 2 S116 852 269132 3674 0
15 2 S116 926 270058 4600 0
15 2 S116 1011 271069 5611 0
15 2 S116 1001 272070 6612 0
0 0 0 912 272982 -10994 0
0 0 0 907 273889 -10087 0
0 0 0 949 274838 -9138 0
0 0 0 974 275812 -8164 0
0 0 0 997 276809 -7167 0
0 0 0 920 277729 -6247 0
0 0 0 904 278633 -5343 0
0 0 0 949 279582 -4394 0
0 0 0 961 280543 -3433 0
0 0 0 934 281477 -2499 0
16 1 S116 872 282349 -1627 0
16 1 S116 875 283224 -752 0
16 2 S116 915 284139 163 0
16 2 S116 963 285102 1126 0
16 2 S116 954 286056 2080 0
16 2 S116 909 286965 2989 0
16 2 S116 842 287807 3831 0
16 2 S116 870 288677 4701 0
16 2 S116 953 289630 5654 0
16 2 S116 1030 290660 6684 0
0 0 0 1025 291685 -10892 0
0 0 0 932 292617 -9960 0
0 0 0 925 293542 -9035 0
0 0 0 968 294510 -8067 0
0 0 0 967 295477 -7100 0
0 0 0 922 296399 -6178 0
0 0 0 888 297287 -5290 0
0 0 0 851 298138 -4439 0
0 0 0 778 298916 -3661 0
0 0 0 813 299729 -2848 0
17 1 S106 904 300633 -1944 0
17 1 S106 1028 301661 -916 0
17 2 S106 1060 302721 144 0
17 2 S106 976 303697 1120 0
17 2 S106 911 304608 2031 0
17 2 S106 908 305516 2939 0
17 2 S106 915 306431 3854 0
17 2 S106 913 307344 4767 0
17 2 S106 926 308270 5693 0
17 2 S106 878 309148 6571 0
0 0 0 846 309994 -11880 0
0 0 0 897 310891 -10983 0
0 0 0 988 311879 -9995 0
0 0 0 1039 312918 -8956 0
0 0 0 986 313904 -7970 0
0 0 0 909 314813 -7061 0
0 0 0 932 315745 -6129 0
0 0 0 975 316720 -5154 0
0 0 0 1002 317722 -4152 0
0 0 0 979 318701 -3173 0
0 0 0 920 319621 -2253 0
18 1 S102 884 320505 -1369 0
18 1 S102 933 321438 -436 0
18 2 S102 1002 322440 566 0
18 2 S102 1013 323453 1579 0
18 2 S102 961 324414 2540 0
18 2 S102 899 325313 3439 0
18 2 S102 934 326247 4373 0
18 2 S102 990 327237 5363 0
18 2 S102 1016 328253 6379 0
0 0 0 974 329227 -7303 0
0 0 0 879 330106 -6424 0
0 0 0 874 330980 -5550 0
0 0 0 902 331882 -4648 0
0 0 0 871 332753 -3777 0
0 0 0 810 333563 -2967 0
0 0 0 728 334291 -2239 0
19 1 S106 714 335005 -1525 0
19 1 S106 763 335768 -762 0
19 2 S106 859 336627 97 0
19 2 S106 951 337578 1048 0
19 2 S106 905 338483 1953 0
19 2 S106 836 339319 2789 0
19 2 S106 831 340150 3620 0
19 2 S106 855 341005 4475 0
19 2 S106 867 341872 5342 0
19 2 S106 868 342740 6210 0
19 2 S106 804 343544 7014 0
0 0 0 765 344309 -9727 0
0 0 0 812 345121 -8915 0
0 0 0 870 345991 -8045 0
0 0 0 964 346955 -7081 0
0 0 0 945 347900 -6136 0
0 0 0 889 348789 -5247 0
0 0 0 932 349721 -4315 0
0 0 0 978 350699 -3337 0
0 0 0 987 351686 -2350 0
20 1 S112 928 352614 -1422 0
20 1 S112 860 353474 -562 0
20 2 S112 810 354284 248 0
20 2 S112 831 355115 1079 0
20 2 S112 882 355997 1961 0
20 2 S112 921 356918 2882 0
20 2 S112 862 357780 3744 0
20 2 S112 808 358588 4552 0
20 2 S112 862 359450 5414 0
20 2 S112 978 360428 6392 0
0 0 0 1043 361471 -9724 0
0 0 0 989 362460 -8735 0
0 0 0 893 363353 -7842 0
0 0 0 864 364217 -6978 0
0 0 0 862 365079 -6116 0
0 0 0 861 365940 -5255 0
0 0 0 841 366781 -4414 0
0 0 0 813 367594 -3601 0
0 0 0 864 368458 -2737 0
21 1 S106 923 369381 -1814 0
21 1 S106 952 370333 -862 0
21 2 S106 892 371225 30 0
21 2 S106 826 372051 856 0
21 2 S106 838 372889 1694 0
21 2 S106 898 373787 2592 0
21 2 S106 967 374754 3559 0
21 2 S106 953 375707 4512 0
21 2 S106 892 376599 5404 0
21 2 S106 911 377510 6315 0
0 0 0 954 378464 -11017 0
0 0 0 982 379446 -10035 0
0 0 0 920 380366 -9115 0
0 0 0 831 381197 -8284 0
0 0 0 819 382016 -7465 0
0 0 0 853 382869 -6612 0
0 0 0 885 383754 -5727 0
0 0 0 874 384628 -4853 0
0 0 0 825 385453 -4028 0
0 0 0 853 386306 -3175 0
0 0 0 901 387207 -2274 0
22 1 S116 947 388154 -1327 0
22 1 S116 938 389092 -389 0
22 2 S116 858 389950 469 0
22 2 S116 849 390799 1318 0
22 2 S116 860 391659 2178 0
22 2 S116 876 392535 3054 0
22 2 S116 888 393423 3942 0
22 2 S116 840 394263 4782 0
22 2 S116 827 395090 5609 0
22 2 S116 875 395965 6484 0
0 0 0 932 396897 -8847 0
0 0 0 967 397864 -7880 0
0 0 0 890 398754 -6990 0
0 0 0 812 399566 -6178 0
0 0 0 770 400336 -5408 0
0 0 0 731 401067 -4677 0
0 0 0 692 401759 -3985 0
0 0 0 729 402488 -3256 0
0 0 0 753 403241 -2503 0
23 1 S112 760 404001 -1743 0
23 1 S112 846 404847 -897 0
23 2 S112 963 405810 66 0
23 2 S112 1009 406819 1075 0
23 2 S112 998 407817 2073 0
23 2 S112 903 408720 2976 0
23 2 S112 789 409509 3765 0
23 2 S112 754 410263 4519 0
23 2 S112 757 411020 5276 0
23 2 S112 852 411872 6128 0
0 0 0 1006 412878 -10556 0
0 0 0 1051 413929 -9505 0
0 0 0 970 414899 -8535 0
0 0 0 893 415792 -7642 0
0 0 0 918 416710 -6724 0
0 0 0 907 417617 -5817 0
0 0 0 892 418509 -4925 0
0 0 0 837 419346 -4088 0
0 0 0 774 420120 -3314 0
0 0 0 783 420903 -2531 0
24 1 S106 835 421738 -1696 0
24 1 S106 923 422661 -773 0
24 2 S106 943 423604 170 0
24 2 S106 888 424492 1058 0
24 2 S106 924 425416 1982 0
24 2 S106 955 426371 2937 0
24 2 S106 969 427340 3906 0
24 2 S106 936 428276 4842 0
24 2 S106 892 429168 5734 0
24 2 S106 867 430035 6601 0
0 0 0 934 430969 -9540 0
0 0 0 1001 431970 -8539 0
0 0 0 995 432965 -7544 0
0 0 0 910 433875 -6634 0
0 0 0 859 434734 -5775 0
0 0 0 876 435610 -4899 0
0 0 0 940 436550 -3959 0
0 0 0 976 437526 -2983 0
0 0 0 897 438423 -2086 0
25 1 S102 902 439325 -1184 0
25 1 S102 939 440264 -245 0
25 2 S102 956 441220 711 0
25 2 S102 928 442148 1639 0
25 2 S102 858 443006 2497 0
25 2 S102 793 443799 3290 0
25 2 S102 829 444628 4119 0
25 2 S102 925 445553 5044 0
25 2 S102 1025 446578 6069 0
0 0 0 1029 447607 -7839 0
0 0 0 948 448555 -6891 0
0 0 0 948 449503 -5943 0
0 0 0 966 450469 -4977 0
0 0 0 893 451362 -4084 0
0 0 0 772 452134 -3312 0
0 0 0 742 452876 -2570 0
26 1 S116 683 453559 -1887 0
26 1 S116 682 454241 -1205 0
26 1 S116 753 454994 -452 0
26 2 S116 835 455829 383 0
26 2 S116 808 456637 1191 0
26 2 S116 795 457432 1986 0
26 2 S116 827 458259 2813 0
26 2 S116 870 459129 3683 0
26 2 S116 890 460019 4573 0
26 2 S116 833 460852 5406 0
26 2 S116 795 461647 6201 0
26 2 S116 802 462449 7003 0
0 0 0 857 463306 -8735 0
0 0 0 924 464230 -7811 0
0 0 0 899 465129 -6912 0
0 0 0 810 465939 -6102 0
0 0 0 828 466767 -5274 0
0 0 0 847 467614 -4427 0
0 0 0 851 468465 -3576 0
0 0 0 879 469344 -2697 0
27 1 S106 863 470207 -1834 0
27 1 S106 818 471025 -1016 0
27 1 S106 870 471895 -146 0
27 2 S106 932 472827 786 0
27 2 S106 976 473803 1762 0
27 2 S106 949 474752 2711 0
27 2 S106 867 475619 3578 0
27 2 S106 814 476433 4392 0
27 2 S106 823 477256 5215 0
27 2 S106 834 478090 6049 0
27 2 S106 895 478985 6944 0
0 0 0 936 479921 -6809 0
0 0 0 865 480786 -5944 0
0 0 0 852 481638 -5092 0
0 0 0 852 482490 -4240 0
0 0 0 812 483302 -3428 0
0 0 0 767 484069 -2661 0
28 1 S102 720 484789 -1941 0
28 1 S102 721 485510 -1220 0
28 1 S102 714 486224 -506 0
28 2 S102 732 486956 226 0
28 2 S102 768 487724 994 0
28 2 S102 863 488587 1857 0
28 2 S102 912 489499 2769 0
28 2 S102 865 490364 3634 0
28 2 S102 825 491189 4459 0
28 2 S102 852 492041 5311 0
28 2 S102 902 492943 6213 0
0 0 0 931 493874 -10893 0
0 0 0 918 494792 -9975 0
0 0 0 852 495644 -9123 0
0 0 0 863 496507 -8260 0
0 0 0 898 497405 -7362 0
0 0 0 983 498388 -6379 0
0 0 0 987 499375 -5392 0
0 0 0 924 500299 -4468 0
0 0 0 915 501214 -3553 0
0 0 0 946 502160 -2607 0
29 1 S112 947 503107 -1660 0
29 1 S112 965 504072 -695 0
29 2 S112 884 504956 189 0
29 2 S112 807 505763 996 0
29 2 S112 803 506566 1799 0
29 2 S112 885 507451 2684 0
29 2 S112 1013 508464 3697 0
29 2 S112 1046 509510 4743 0
29 2 S112 956 510466 5699 0
29 2 S112 976 511442 6675 0
0 0 0 1005 512447 -7390 0
0 0 0 978 513425 -6412 0
0 0 0 896 514321 -5516 0
0 0 0 793 515114 -4723 0
0 0 0 792 515906 -3931 0
0 0 0 823 516729 -3108 0
0 0 0 929 517658 -2179 0
30 1 S112 943 518601 -1236 0
30 1 S112 909 519510 -327 0
30 2 S112 952 520462 625 0
30 2 S112 993 521455 1618 0
30 2 S112 1007 522462 2625 0
30 2 S112 958 523420 3583 0
30 2 S112 870 524290 4453 0
30 2 S112 873 525163 5326 0
30 2 S112 926 526089 6252 0
0 0 0 986 527075 -9589 0
0 0 0 994 528069 -8595 0
0 0 0 913 528982 -7682 0
0 0 0 864 529846 -6818 0
0 0 0 876 530722 -5942 0
0 0 0 928 531650 -5014 0
0 0 0 950 532600 -4064 0
0 0 0 915 533515 -3149 0
0 0 0 944 534459 -2205 0
31 1 S106 991 535450 -1214 0
31 1 S106 1003 536453 -211 0
31 2 S106 961 537414 750 0
31 2 S106 886 538300 1636 0
31 2 S106 865 539165 2501 0
31 2 S106 895 540060 3396 0
31 2 S106 966 541026 4362 0
31 2 S106 984 542010 5346 0
31 2 S106 942 542952 6288 0
0 0 0 918 543870 -9522 0
0 0 0 978 544848 -8544 0
0 0 0 995 545843 -7549 0
0 0 0 965 546808 -6584 0
0 0 0 822 547630 -5762 0
0 0 0 761 548391 -5001 0
0 0 0 709 549100 -4292 0
0 0 0 694 549794 -3598 0
0 0 0 766 550560 -2832 0
32 1 S102 895 551455 -1937 0
32 1 S102 890 552345 -1047 0
32 1 S102 913 553258 -134 0
32 2 S102 978 554236 844 0
32 2 S102 967 555203 1811 0
32 2 S102 890 556093 2701 0
32 2 S102 801 556894 3502 0
32 2 S102 760 557654 4262 0
32 2 S102 758 558412 5020 0
32 2 S102 772 559184 5792 0
32 2 S102 834 560018 6626 0
0 0 0 856 560874 -11102 0
0 0 0 851 561725 -10251 0
0 0 0 901 562626 -9350 0
0 0 0 911 563537 -8439 0
0 0 0 815 564352 -7624 0
0 0 0 756 565108 -6868 0
0 0 0 683 565791 -6185 0
0 0 0 661 566452 -5524 0
0 0 0 663 567115 -4861 0
0 0 0 694 567809 -4167 0
0 0 0 816 568625 -3351 0
0 0 0 896 569521 -2455 0
33 1 S112 894 570415 -1561 0
33 1 S112 845 571260 -716 0
33 2 S112 915 572175 199 0
33 2 S112 962 573137 1161 0
33 2 S112 928 574065 2089 0
33 2 S112 861 574926 2950 0
33 2 S112 791 575717 3741 0
33 2 S112 789 576506 4530 0
33 2 S112 819 577325 5349 0
33 2 S112 859 578184 6208 0
0 0 0 899 579083 -11809 0
0 0 0 865 579948 -10944 0
0 0 0 790 580738 -10154 0
0 0 0 736 581474 -9418 0
0 0 0 694 582168 -8724 0
0 0 0 670 582838 -8054 0
0 0 0 716 583554 -7338 0
0 0 0 809 584363 -6529 0
0 0 0 835 585198 -5694 0
0 0 0 914 586112 -4780 0
0 0 0 1026 587138 -3754 0
0 0 0 1046 588184 -2708 0
34 1 S106 972 589156 -1736 0
34 1 S106 864 590020 -872 0
34 1 S106 856 590876 -16 0
34 2 S106 861 591737 845 0
34 2 S106 905 592642 1750 0
34 2 S106 967 593609 2717 0
34 2 S106 930 594539 3647 0
34 2 S106 873 595412 4520 0
34 2 S106 878 596290 5398 0
34 2 S106 951 597241 6349 0
0 0 0 1033 598274 -9478 0
0 0 0 1002 599276 -8476 0
0 0 0 913 600189 -7563 0
0 0 0 879 601068 -6684 0
0 0 0 861 601929 -5823 0
0 0 0 813 602742 -5010 0
0 0 0 740 603482 -4270 0
0 0 0 687 604169 -3583 0
0 0 0 644 604813 -2939 0
0 0 0 634 605447 -2305 1
35 1 S102 652 606099 -1653 0
35 1 S102 668 606767 -985 0
35 1 S102 740 607507 -245 0
35 2 S102 858 608365 613 0
35 2 S102 908 609273 1521 0
35 2 S102 860 610133 2381 0
35 2 S102 858 610991 3239 0
35 2 S102 842 611833 4081 0
35 2 S102 812 612645 4893 0
35 2 S102 771 613416 5664 0
35 2 S102 726 614142 6390 0
0 0 0 701 614843 -8029 0
0 0 0 705 615548 -7324 0
0 0 0 738 616286 -6586 0
0 0 0 804 617090 -5782 0
0 0 0 898 617988 -4884 0
0 0 0 828 618816 -4056 0
0 0 0 784 619600 -3272 0
0 0 0 827 620427 -2445 0
36 1 S106 897 621324 -1548 0
36 1 S106 977 622301 -571 0
36 2 S106 948 623249 377 0
36 2 S106 876 624125 1253 0
36 2 S106 883 625008 2136 0
36 2 S106 905 625913 3041 0
36 2 S106 938 626851 3979 0
36 2 S106 908 627759 4887 0
36 2 S106 868 628627 5755 0
36 2 S106 936 629563 6691 0
0 0 0 1002 630565 -9183 0
0 0 0 1027 631592 -8156 0
0 0 0 978 632570 -7178 0
0 0 0 901 633471 -6277 0
0 0 0 941 634412 -5336 0
0 0 0 946 635358 -4390 0
0 0 0 1006 636364 -3384 0
0 0 0 1038 637402 -2346 0
37 1 S116 981 638383 -1365 0
37 1 S116 896 639279 -469 0
37 2 S116 791 640070 322 0
37 2 S116 721 640791 1043 0
37 2 S116 680 641471 1723 0
37 2 S116 664 642135 2387 0
37 2 S116 679 642814 3066 0
37 2 S116 747 643561 3813 0
37 2 S116 1024 644585 4837 0
37 2 S116 1129 645714 5966 1
37 2 S116 1030 646744 6996 0
0 0 0 1013 647757 -10592 0
0 0 0 1069 648826 -9523 0
0 0 0 1061 649887 -8462 0
0 0 0 978 650865 -7484 0
0 0 0 872 651737 -6612 0
0 0 0 870 652607 -5742 0
0 0 0 888 653495 -4854 0
0 0 0 910 654405 -3944 0
0 0 0 907 655312 -3037 0
0 0 0 858 656170 -2179 0
38 1 S102 893 657063 -1286 0
38 1 S102 1004 658067 -282 0
38 2 S102 1087 659154 805 0
38 2 S102 1017 660171 1822 0
38 2 S102 941 661112 2763 0
38 2 S102 967 662079 3730 0
38 2 S102 1000 663079 4730 0
38 2 S102 1020 664099 5750 0
38 2 S102 939 665038 6689 0
0 0 0 863 665901 -9508 0
0 0 0 892 666793 -8616 0
0 0 0 958 667751 -7658 0
0 0 0 998 668749 -6660 0
0 0 0 925 669674 -5735 0
0 0 0 840 670514 -4895 0
0 0 0 879 671393 -4016 0
0 0 0 943 672336 -3073 0
0 0 0 995 673331 -2078 0
39 1 S116 946 674277 -1132 0
39 1 S116 872 675149 -260 0
39 2 S116 891 676040 631 0
39 2 S116 936 676976 1567 0
39 2 S116 985 677961 2552 0
39 2 S116 976 678937 3528 0
39 2 S116 898 679835 4426 0
39 2 S116 832 680667 5258 0
39 2 S116 887 681554 6145 0
0 0 0 980 682534 -7464 0
0 0 0 1032 683566 -6432 0
0 0 0 990 684556 -5442 0
0 0 0 886 685442 -4556 0
0 0 0 890 686332 -3666 0
0 0 0 915 687247 -2751 0
40 1 S112 919 688166 -1832 0
40 1 S112 884 689050 -948 0
40 1 S112 836 689886 -112 0
40 2 S112 896 690782 784 0
40 2 S112 972 691754 1756 0
40 2 S112 1008 692762 2764 0
40 2 S112 985 693747 3749 0
40 2 S112 909 694656 4658 0
40 2 S112 863 695519 5521 0
40 2 S112 906 696425 6427 0
0 0 0 939 697364 -187811 0
0 0 0 941 698305 -186870 0
0 0 0 856 699161 -186014 0
0 0 0 867 700028 -185147 0
0 0 0 898 700926 -184249 0
0 0 0 975 701901 -183274 0
0 0 0 970 702871 -182304 0
0 0 0 907 703778 -181397 0
0 0 0 921 704699 -180476 0
0 0 0 960 705659 -179516 0
0 0 0 966 706625 -178550 0
0 0 0 956 707581 -177594 0
0 0 0 847 708428 -176747 0
0 0 0 732 709160 -176015 0
0 0 0 671 709831 -175344 0
0 0 0 675 710506 -174669 0
0 0 0 665 711171 -174004 0
0 0 0 679 711850 -173325 0
0 0 0 719 712569 -172606 0
0 0 0 730 713299 -171876 0
0 0 0 705 714004 -171171 0
0 0 0 688 714692 -170483 0
0 0 0 725 715417 -169758 0
0 0 0 743 716160 -169015 0
0 0 0 754 716914 -168261 0
0 0 0 763 717677 -167498 0
0 0 0 715 718392 -166783 0
0 0 0 711 719103 -166072 0
0 0 0 704 719807 -165368 0
0 0 0 713 720520 -164655 0
0 0 0 736 721256 -163919 0
0 0 0 755 722011 -163164 0
0 0 0 795 722806 -162369 0
0 0 0 821 723627 -161548 0
0 0 0 834 724461 -160714 0
0 0 0 802 725263 -159912 0
0 0 0 766 726029 -159146 0
0 0 0 733 726762 -158413 0
0 0 0 685 727447 -157728 0
0 0 0 656 728103 -157072 0
0 0 0 640 728743 -156432 0
0 0 0 645 729388 -155787 0
0 0 0 669 730057 -155118 0
0 0 0 747 730804 -154371 0
0 0 0 894 731698 -153477 0
0 0 0 958 732656 -152519 0
0 0 0 938 733594 -151581 0
0 0 0 986 734580 -150595 0
0 0 0 977 735557 -149618 0
0 0 0 892 736449 -148726 0
0 0 0 848 737297 -147878 0
0 0 0 826 738123 -147052 0
0 0 0 828 738951 -146224 0
0 0 0 819 739770 -145405 0
0 0 0 806 740576 -144599 0
0 0 0 878 741454 -143721 0
0 0 0 966 742420 -142755 0
0 0 0 933 743353 -141822 0
0 0 0 832 744185 -140990 0
0 0 0 820 745005 -140170 0
0 0 0 772 745777 -139398 0
0 0 0 707 746484 -138691 0
0 0 0 660 747144 -138031 0
0 0 0 676 747820 -137355 0
0 0 0 684 748504 -136671 0
0 0 0 677 749181 -135994 0
0 0 0 701 749882 -135293 0
0 0 0 688 750570 -134605 0
0 0 0 686 751256 -133919 0
0 0 0 666 751922 -133253 0
0 0 0 660 752582 -132593 0
0 0 0 648 753230 -131945 0
0 0 0 628 753858 -131317 1
0 0 0 613 754471 -130704 1
0 0 0 605 755076 -130099 1
0 0 0 598 755674 -129501 1
0 0 0 592 756266 -128909 1
0 0 0 583 756849 -128326 1
0 0 0 577 757426 -127749 1
0 0 0 573 757999 -127176 1
0 0 0 570 758569 -126606 1
0 0 0 563 759132 -126043 1
0 0 0 559 759691 -125484 1
0 0 0 560 760251 -124924 1
0 0 0 564 760815 -124360 1
0 0 0 572 761387 -123788 1
0 0 0 603 761990 -123185 1
0 0 0 639 762629 -122546 0
0 0 0 695 763324 -121851 0
0 0 0 738 764062 -121113 0
0 0 0 715 764777 -120398 0
0 0 0 690 765467 -119708 0
0 0 0 668 766135 -119040 0
0 0 0 656 766791 -118384 0
0 0 0 637 767428 -117747 0
0 0 0 628 768056 -117119 1
0 0 0 640 768696 -116479 0
0 0 0 638 769334 -115841 0
0 0 0 642 769976 -115199 0
0 0 0 649 770625 -114550 0
0 0 0 635 771260 -113915 1
0 0 0 625 771885 -113290 1
0 0 0 616 772501 -112674 1
0 0 0 632 773133 -112042 1
0 0 0 694 773827 -111348 0
0 0 0 790 774617 -110558 0
0 0 0 929 775546 -109629 0
0 0 0 978 776524 -108651 0
0 0 0 990 777514 -107661 0
0 0 0 982 778496 -106679 0
0 0 0 954 779450 -105725 0
0 0 0 916 780366 -104809 0
0 0 0 865 781231 -103944 0
0 0 0 785 782016 -103159 0
0 0 0 728 782744 -102431 0
0 0 0 684 783428 -101747 0
0 0 0 669 784097 -101078 0
0 0 0 705 784802 -100373 0
0 0 0 802 785604 -99571 0
0 0 0 860 786464 -98711 0
0 0 0 939 787403 -97772 0
0 0 0 1033 788436 -96739 0
0 0 0 1068 789504 -95671 0
0 0 0 1061 790565 -94610 0
0 0 0 952 791517 -93658 0
0 0 0 852 792369 -92806 0
0 0 0 842 793211 -91964 0
0 0 0 906 794117 -91058 0
0 0 0 967 795084 -90091 0
0 0 0 951 796035 -89140 0
0 0 0 889 796924 -88251 0
0 0 0 826 797750 -87425 0
0 0 0 803 798553 -86622 0
0 0 0 787 799340 -85835 0
0 0 0 763 800103 -85072 0
0 0 0 716 800819 -84356 0
0 0 0 668 801487 -83688 0
0 0 0 679 802166 -83009 0
0 0 0 701 802867 -82308 0
0 0 0 792 803659 -81516 0
0 0 0 943 804602 -80573 0
0 0 0 876 805478 -79697 0
0 0 0 863 806341 -78834 0
0 0 0 879 807220 -77955 0
0 0 0 892 808112 -77063 0
0 0 0 867 808979 -76196 0
0 0 0 821 809800 -75375 0
0 0 0 780 810580 -74595 0
0 0 0 800 811380 -73795 0
0 0 0 867 812247 -72928 0
0 0 0 964 813211 -71964 0
0 0 0 1008 814219 -70956 0
0 0 0 955 815174 -70001 0
0 0 0 941 816115 -69060 0
0 0 0 995 817110 -68065 0
0 0 0 1002 818112 -67063 0
0 0 0 971 819083 -66092 0
0 0 0 931 820014 -65161 0
0 0 0 962 820976 -64199 0
0 0 0 1036 822012 -63163 0
0 0 0 1057 823069 -62106 0
0 0 0 1019 824088 -61087 0
0 0 0 892 824980 -60195 0
0 0 0 849 825829 -59346 0
0 0 0 843 826672 -58503 0
0 0 0 893 827565 -57610 0
0 0 0 881 828446 -56729 0
0 0 0 805 829251 -55924 0
0 0 0 820 830071 -55104 0
0 0 0 808 830879 -54296 0
0 0 0 777 831656 -53519 0
0 0 0 722 832378 -52797 0
0 0 0 701 833079 -52096 0
0 0 0 666 833745 -51430 0
0 0 0 672 834417 -50758 0
0 0 0 664 835081 -50094 0
0 0 0 677 835758 -49417 0
0 0 0 697 836455 -48720 0
0 0 0 708 837163 -48012 0
0 0 0 698 837861 -47314 0
0 0 0 702 838563 -46612 0
0 0 0 709 839272 -45903 0
0 0 0 716 839988 -45187 0
0 0 0 725 840713 -44462 0
0 0 0 714 841427 -43748 0
0 0 0 693 842120 -43055 0
0 0 0 685 842805 -42370 0
0 0 0 690 843495 -41680 0
0 0 0 733 844228 -40947 0
0 0 0 848 845076 -40099 0
0 0 0 986 846062 -39113 0
0 0 0 946 847008 -38167 0
0 0 0 866 847874 -37301 0
0 0 0 895 848769 -36406 0
0 0 0 907 849676 -35499 0
0 0 0 932 850608 -34567 0
0 0 0 842 851450 -33725 0
0 0 0 741 852191 -32984 0
0 0 0 668 852859 -32316 0
0 0 0 645 853504 -31671 0
0 0 0 628 854132 -31043 1
0 0 0 620 854752 -30423 1
0 0 0 605 855357 -29818 1
0 0 0 596 855953 -29222 1
0 0 0 636 856589 -28586 0
0 0 0 793 857382 -27793 0
0 0 0 809 858191 -26984 0
0 0 0 802 858993 -26182 0
0 0 0 758 859751 -25424 0
0 0 0 736 860487 -24688 0
0 0 0 713 861200 -23975 0
0 0 0 703 861903 -23272 0
0 0 0 686 862589 -22586 0
0 0 0 681 863270 -21905 0
0 0 0 676 863946 -21229 0
0 0 0 657 864603 -20572 0
0 0 0 656 865259 -19916 0
0 0 0 654 865913 -19262 0
0 0 0 673 866586 -18589 0
0 0 0 718 867304 -17871 0
0 0 0 827 868131 -17044 0
0 0 0 878 869009 -16166 0
0 0 0 871 869880 -15295 0
0 0 0 860 870740 -14435 0
0 0 0 814 871554 -13621 0
0 0 0 779 872333 -12842 0
0 0 0 761 873094 -12081 0
0 0 0 752 873846 -11329 0
0 0 0 738 874584 -10591 0
0 0 0 693 875277 -9898 0
0 0 0 679 875956 -9219 0
0 0 0 659 876615 -8560 0
0 0 0 649 877264 -7911 0
0 0 0 670 877934 -7241 0
0 0 0 738 878672 -6503 0
0 0 0 830 879502 -5673 0
0 0 0 810 880312 -4863 0
0 0 0 849 881161 -4014 0
0 0 0 863 882024 -3151 0
0 0 0 864 882888 -2287 0
41 1 S102 826 883714 -1461 0
41 1 S102 775 884489 -686 0
41 2 S102 766 885255 80 0
41 2 S102 778 886033 858 0
41 2 S102 788 886821 1646 0
41 2 S102 762 887583 2408 0
41 2 S102 756 888339 3164 0
41 2 S102 788 889127 3952 0
41 2 S102 844 889971 4796 0
41 2 S102 929 890900 5725 0
41 2 S102 926 891826 6651 0
0 0 0 870 892696 -6620 0
0 0 0 897 893593 -5723 0
0 0 0 933 894526 -4790 0
0 0 0 855 895381 -3935 0
0 0 0 803 896184 -3132 0
0 0 0 742 896926 -2390 0
42 1 S112 714 897640 -1676 0
42 1 S112 674 898314 -1002 0
42 1 S112 695 899009 -307 0
42 2 S112 801 899810 494 0
42 2 S112 857 900667 1351 0
42 2 S112 882 901549 2233 0
42 2 S112 957 902506 3190 0
42 2 S112 988 903494 4178 0
42 2 S112 980 904474 5158 0
42 2 S112 891 905365 6049 0
42 2 S112 819 906184 6868 0
0 0 0 825 907009 -8819 0
0 0 0 869 907878 -7950 0
0 0 0 953 908831 -6997 0
0 0 0 924 909755 -6073 0
0 0 0 851 910606 -5222 0
0 0 0 882 911488 -4340 0
0 0 0 953 912441 -3387 0
0 0 0 1007 913448 -2380 0
43 1 S116 984 914432 -1396 0
43 1 S116 917 915349 -479 0
43 2 S116 914 916263 435 0
43 2 S116 921 917184 1356 0
43 2 S116 911 918095 2267 0
43 2 S116 880 918975 3147 0
43 2 S116 832 919807 3979 0
43 2 S116 808 920615 4787 0
43 2 S116 850 921465 5637 0
43 2 S116 959 922424 6596 0
0 0 0 1004 923428 -6807 0
0 0 0 921 924349 -5886 0
0 0 0 861 925210 -5025 0
0 0 0 867 926077 -4158 0
0 0 0 888 926965 -3270 0
0 0 0 892 927857 -2378 0
44 1 S102 840 928697 -1538 0
44 1 S102 860 929557 -678 0
44 2 S102 914 930471 236 0
44 2 S102 935 931406 1171 0
44 2 S102 925 932331 2096 0
44 2 S102 850 933181 2946 0
44 2 S102 850 934031 3796 0
44 2 S102 892 934923 4688 0
44 2 S102 932 935855 5620 0
44 2 S102 970 936825 6590 0
0 0 0 911 937736 -9442 0
0 0 0 923 938659 -8519 0
0 0 0 973 939632 -7546 0
0 0 0 964 940596 -6582 0
0 0 0 902 941498 -5680 0
0 0 0 830 942328 -4850 0
0 0 0 837 943165 -4013 0
0 0 0 860 944025 -3153 0
0 0 0 908 944933 -2245 0
45 1 S116 914 945847 -1331 0
45 1 S116 862 946709 -469 0
45 2 S116 884 947593 415 0
45 2 S116 922 948515 1337 0
45 2 S116 931 949446 2268 0
45 2 S116 868 950314 3136 0
45 2 S116 831 951145 3967 0
45 2 S116 850 951995 4817 0
45 2 S116 875 952870 5692 0
45 2 S116 924 953794 6616 0
0 0 0 904 954698 -11545 0
0 0 0 850 955548 -10695 0
0 0 0 885 956433 -9810 0
0 0 0 921 957354 -8889 0
0 0 0 889 958243 -8000 0
0 0 0 813 959056 -7187 0
0 0 0 776 959832 -6411 0
0 0 0 717 960549 -5694 0
0 0 0 715 961264 -4979 0
0 0 0 762 962026 -4217 0
0 0 0 773 962799 -3444 0
0 0 0 800 963599 -2644 0
46 1 S102 872 964471 -1772 0
46 1 S102 932 965403 -840 0
46 2 S102 964 966367 124 0
46 2 S102 893 967260 1017 0
46 2 S102 808 968068 1825 0
46 2 S102 790 968858 2615 0
46 2 S102 803 969661 3418 0
46 2 S102 874 970535 4292 0
46 2 S102 901 971436 5193 0
46 2 S102 854 972290 6047 0
46 2 S102 916 973206 6963 0
0 0 0 965 974171 -8601 0
0 0 0 960 975131 -7641 0
0 0 0 893 976024 -6748 0
0 0 0 807 976831 -5941 0
0 0 0 788 977619 -5153 0
0 0 0 799 978418 -4354 0
0 0 0 836 979254 -3518 0
0 0 0 820 980074 -2698 0
47 1 S112 867 980941 -1831 0
47 1 S112 907 981848 -924 0
47 1 S112 918 982766 -6 0
47 2 S112 846 983612 840 0
47 2 S112 822 984434 1662 0
47 2 S112 847 985281 2509 0
47 2 S112 879 986160 3388 0
47 2 S112 901 987061 4289 0
47 2 S112 850 987911 5139 0
47 2 S112 793 988704 5932 0
47 2 S112 811 989515 6743 0
0 0 0 879 990394 -12521 0
0 0 0 947 991341 -11574 0
0 0 0 952 992293 -10622 0
0 0 0 900 993193 -9722 0
0 0 0 870 994063 -8852 0
0 0 0 874 994937 -7978 0
0 0 0 917 995854 -7061 0
0 0 0 904 996758 -6157 0
0 0 0 879 997637 -5278 0
0 0 0 893 998530 -4385 0
0 0 0 908 999438 -3477 0
0 0 0 921 1000359 -2556 0
48 1 S116 899 1001258 -1657 0
48 1 S116 835 1002093 -822 0
48 2 S116 844 1002937 22 0
48 2 S116 909 1003846 931 0
48 2 S116 990 1004836 1921 0
48 2 S116 973 1005809 2894 0
48 2 S116 920 1006729 3814 0
48 2 S116 921 1007650 4735 0
48 2 S116 976 1008626 5711 0
48 2 S116 1030 1009656 6741 0
0 0 0 993 1010649 -7418 0
0 0 0 905 1011554 -6513 0
0 0 0 909 1012463 -5604 0
0 0 0 915 1013378 -4689 0
0 0 0 860 1014238 -3829 0
0 0 0 766 1015004 -3063 0
0 0 0 739 1015743 -2324 0
49 1 S112 689 1016432 -1635 0
49 1 S112 680 1017112 -955 0
49 1 S112 716 1017828 -239 0
49 2 S112 695 1018523 456 0
49 2 S112 718 1019241 1174 0
49 2 S112 732 1019973 1906 0
49 2 S112 803 1020776 2709 0
49 2 S112 864 1021640 3573 0
49 2 S112 809 1022449 4382 0
49 2 S112 823 1023272 5205 0
49 2 S112 840 1024112 6045 0
49 2 S112 866 1024978 6911 0
0 0 0 850 1025828 -11271 0
0 0 0 781 1026609 -10490 0
0 0 0 731 1027340 -9759 0
0 0 0 732 1028072 -9027 0
0 0 0 720 1028792 -8307 0
0 0 0 746 1029538 -7561 0
0 0 0 757 1030295 -6804 0
0 0 0 750 1031045 -6054 0
0 0 0 806 1031851 -5248 0
0 0 0 886 1032737 -4362 0
0 0 0 935 1033672 -3427 0
0 0 0 937 1034609 -2490 0
50 1 S106 882 1035491 -1608 0
50 1 S106 906 1036397 -702 0
50 2 S106 944 1037341 242 0
50 2 S106 944 1038285 1186 0
50 2 S106 893 1039178 2079 0
50 2 S106 810 1039988 2889 0
50 2 S106 792 1040780 3681 0
50 2 S106 837 1041617 4518 0
50 2 S106 923 1042540 5441 0
50 2 S106 992 1043532 6433 0
0 0 0 953 1044485 -7021 0
0 0 0 935 1045420 -6086 0
0 0 0 998 1046418 -5088 0
0 0 0 990 1047408 -4098 0
0 0 0 897 1048305 -3201 0
0 0 0 855 1049160 -2346 0
51 1 S112 898 1050058 -1448 0
51 1 S112 943 1051001 -505 0
51 2 S112 923 1051924 418 0
51 2 S112 863 1052787 1281 0
51 2 S112 870 1053657 2151 0
51 2 S112 924 1054581 3075 0
51 2 S112 985 1055566 4060 0
51 2 S112 955 1056521 5015 0
51 2 S112 889 1057410 5904 0
51 2 S112 912 1058322 6816 0
0 0 0 999 1059321 -8316 0
0 0 0 1040 1060361 -7276 0
0 0 0 980 1061341 -6296 0
0 0 0 869 1062210 -5427 0
0 0 0 896 1063106 -4531 0
0 0 0 887 1063993 -3644 0
0 0 0 855 1064848 -2789 0
52 1 S116 790 1065638 -1999 0
52 1 S116 744 1066382 -1255 0
52 1 S116 730 1067112 -525 0
52 2 S116 741 1067853 216 0
52 2 S116 796 1068649 1012 0
52 2 S116 884 1069533 1896 0
52 2 S116 931 1070464 2827 0
52 2 S116 890 1071354 3717 0
52 2 S116 837 1072191 4554 0
52 2 S116 866 1073057 5420 0
52 2 S116 913 1073970 6333 0
0 0 0 961 1074931 -9085 0
0 0 0 938 1075869 -8147 0
0 0 0 861 1076730 -7286 0
0 0 0 859 1077589 -6427 0
0 0 0 878 1078467 -5549 0
0 0 0 940 1079407 -4609 0
0 0 0 915 1080322 -3694 0
0 0 0 888 1081210 -2806 0
53 1 S106 939 1082149 -1867 0
53 1 S106 966 1083115 -901 0
53 2 S106 955 1084070 54 0
53 2 S106 875 1084945 929 0
53 2 S106 798 1085743 1727 0
53 2 S106 799 1086542 2526 0
53 2 S106 856 1087398 3382 0
53 2 S106 976 1088374 4358 0
53 2 S106 988 1089362 5346 0
53 2 S106 952 1090314 6298 0
0 0 0 983 1091297 -7623 0
0 0 0 1020 1092317 -6603 0
0 0 0 1014 1093331 -5589 0
0 0 0 936 1094267 -4653 0
0 0 0 844 1095111 -3809 0
0 0 0 858 1095969 -2951 0
0 0 0 894 1096863 -2057 0
54 1 S102 918 1097781 -1139 0
54 1 S102 887 1098668 -252 0
54 2 S102 843 1099511 591 0
54 2 S102 895 1100406 1486 0
54 2 S102 1002 1101408 2488 0
54 2 S102 1059 1102467 3547 0
54 2 S102 993 1103460 4540 0
54 2 S102 935 1104395 5475 0
54 2 S102 975 1105370 6450 0
0 0 0 998 1106368 -12164 0
0 0 0 991 1107359 -11173 0
0 0 0 888 1108247 -10285 0
0 0 0 877 1109124 -9408 0
0 0 0 908 1110032 -8500 0
0 0 0 909 1110941 -7591 0
0 0 0 893 1111834 -6698 0
0 0 0 843 1112677 -5855 0
0 0 0 904 1113581 -4951 0
0 0 0 974 1114555 -3977 0
0 0 0 993 1115548 -2984 0
0 0 0 920 1116468 -2064 0
55 1 S106 843 1117311 -1221 0
55 1 S106 858 1118169 -363 0
55 2 S106 891 1119060 528 0
55 2 S106 936 1119996 1464 0
55 2 S106 902 1120898 2366 0
55 2 S106 843 1121741 3209 0
55 2 S106 872 1122613 4081 0
55 2 S106 947 1123560 5028 0
55 2 S106 993 1124553 6021 0
55 2 S106 981 1125534 7002 0
0 0 0 899 1126433 -7119 0
0 0 0 903 1127336 -6216 0
0 0 0 927 1128263 -5289 0
0 0 0 974 1129237 -4315 0
0 0 0 958 1130195 -3357 0
0 0 0 903 1131098 -2454 0
56 1 S116 938 1132036 -1516 0
56 1 S116 965 1133001 -551 0
56 2 S116 969 1133970 418 0
56 2 S116 906 1134876 1324 0
56 2 S116 897 1135773 2221 0
56 2 S116 913 1136686 3134 0
56 2 S116 913 1137599 4047 0
56 2 S116 895 1138494 4942 0
56 2 S116 835 1139329 5777 0
56 2 S116 831 1140160 6608 0
0 0 0 889 1141049 -7291 0
0 0 0 963 1142012 -6328 0
0 0 0 982 1142994 -5346 0
0 0 0 913 1143907 -4433 0
0 0 0 895 1144802 -3538 0
0 0 0 810 1145612 -2728 0
57 1 S106 742 1146354 -1986 0
57 1 S106 754 1147108 -1232 0
57 1 S106 767 1147875 -465 0
57 2 S106 769 1148644 304 0
57 2 S106 813 1149457 1117 0
57 2 S106 871 1150328 1988 0
57 2 S106 947 1151275 2935 0
57 2 S106 956 1152231 3891 0
57 2 S106 885 1153116 4776 0
57 2 S106 830 1153946 5606 0
57 2 S106 840 1154786 6446 0
0 0 0 871 1155657 -8731 0
0 0 0 917 1156574 -7814 0
0 0 0 916 1157490 -6898 0
0 0 0 832 1158322 -6066 0
0 0 0 862 1159184 -5204 0
0 0 0 934 1160118 -4270 0
0 0 0 989 1161107 -3281 0
0 0 0 957 1162064 -2324 0
58 1 S102 897 1162961 -1427 0
58 1 S102 938 1163899 -489 0
58 2 S102 963 1164862 474 0
58 2 S102 940 1165802 1414 0
58 2 S102 879 1166681 2293 0
58 2 S102 820 1167501 3113 0
58 2 S102 838 1168339 3951 0
58 2 S102 882 1169221 4833 0
58 2 S102 944 1170165 5777 0
58 2 S102 930 1171095 6707 0
0 0 0 868 1171963 -6964 0
0 0 0 903 1172866 -6061 0
0 0 0 983 1173849 -5078 0
0 0 0 946 1174795 -4132 0
0 0 0 830 1175625 -3302 0
0 0 0 778 1176403 -2524 0
59 1 S112 726 1177129 -1798 0
59 1 S112 751 1177880 -1047 0
59 1 S112 845 1178725 -202 0
59 2 S112 875 1179600 673 0
59 2 S112 839 1180439 1512 0
59 2 S112 900 1181339 2412 0
59 2 S112 958 1182297 3370 0
59 2 S112 983 1183280 4353 0
59 2 S112 894 1184174 5247 0
59 2 S112 895 1185069 6142 0
0 0 0 934 1186003 -9586 0
0 0 0 1002 1187005 -8584 0
0 0 0 971 1187976 -7613 0
0 0 0 905 1188881 -6708 0
0 0 0 921 1189802 -5787 0
0 0 0 959 1190761 -4828 0
0 0 0 943 1191704 -3885 0
0 0 0 870 1192574 -3015 0
0 0 0 847 1193421 -2168 0
60 1 S102 887 1194308 -1281 0
60 1 S102 948 1195256 -333 0
60 2 S102 937 1196193 604 0
60 2 S102 885 1197078 1489 0
60 2 S102 905 1197983 2394 0
60 2 S102 956 1198939 3350 0
60 2 S102 1014 1199953 4364 0
60 2 S102 955 1200908 5319 0
60 2 S102 906 1201814 6225 0
0 0 0 954 1202768 -10957 0
0 0 0 1004 1203772 -9953 0
0 0 0 1006 1204778 -8947 0
0 0 0 904 1205682 -8043 0
0 0 0 840 1206522 -7203 0
0 0 0 883 1207405 -6320 0
0 0 0 949 1208354 -5371 0
0 0 0 952 1209306 -4419 0
0 0 0 902 1210208 -3517 0
0 0 0 902 1211110 -2615 0
61 1 S106 977 1212087 -1638 0
61 1 S106 1012 1213099 -626 0
61 2 S106 970 1214069 344 0
61 2 S106 886 1214955 1230 0
61 2 S106 878 1215833 2108 0
61 2 S106 903 1216736 3011 0
61 2 S106 939 1217675 3950 0
61 2 S106 963 1218638 4913 0
61 2 S106 913 1219551 5826 0
61 2 S106 921 1220472 6747 0
0 0 0 996 1221468 -7194 0
0 0 0 1033 1222501 -6161 0
0 0 0 1008 1223509 -5153 0
0 0 0 926 1224435 -4227 0
0 0 0 871 1225306 -3356 0
0 0 0 795 1226101 -2561 0
62 1 S112 735 1226836 -1826 0
62 1 S112 756 1227592 -1070 0
62 1 S112 861 1228453 -209 0
62 2 S112 905 1229358 696 0
62 2 S112 859 1230217 1555 0
62 2 S112 828 1231045 2383 0
62 2 S112 873 1231918 3256 0
62 2 S112 920 1232838 4176 0
62 2 S112 953 1233791 5129 0
62 2 S112 917 1234708 6046 0
62 2 S112 848 1235556 6894 0
0 0 0 882 1236438 -11024 0
0 0 0 897 1237335 -10127 0
0 0 0 936 1238271 -9191 0
0 0 0 924 1239195 -8267 0
0 0 0 832 1240027 -7435 0
0 0 0 822 1240849 -6613 0
0 0 0 860 1241709 -5753 0
0 0 0 935 1242644 -4818 0
0 0 0 967 1243611 -3851 0
0 0 0 899 1244510 -2952 0
0 0 0 912 1245422 -2040 0
63 1 S102 938 1246360 -1102 0
63 1 S102 947 1247307 -155 0
63 2 S102 898 1248205 743 0
63 2 S102 841 1249046 1584 0
63 2 S102 868 1249914 2452 0
63 2 S102 931 1250845 3383 0
63 2 S102 994 1251839 4377 0
63 2 S102 1000 1252839 5377 0
63 2 S102 914 1253753 6291 0
0 0 0 905 1254658 -8968 0
0 0 0 951 1255609 -8017 0
0 0 0 990 1256599 -7027 0
0 0 0 958 1257557 -6069 0
0 0 0 870 1258427 -5199 0
0 0 0 881 1259308 -4318 0
0 0 0 930 1260238 -3388 0
0 0 0 967 1261205 -2421 0
64 1 S112 921 1262126 -1500 0
64 1 S112 845 1262971 -655 0
64 2 S112 795 1263766 140 0
64 2 S112 849 1264615 989 0
64 2 S112 944 1265559 1933 0
64 2 S112 1014 1266573 2947 0
64 2 S112 996 1267569 3943 0
64 2 S112 938 1268507 4881 0
64 2 S112 974 1269481 5855 0
64 2 S112 1004 1270485 6859 0
0 0 0 999 1271484 -6963 0
0 0 0 924 1272408 -6039 0
0 0 0 844 1273252 -5195 0
0 0 0 822 1274074 -4373 0
0 0 0 805 1274879 -3568 0
0 0 0 817 1275696 -2751 0
65 1 S106 817 1276513 -1934 0
65 1 S106 880 1277393 -1054 0
65 1 S106 986 1278379 -68 0
65 2 S106 1057 1279436 989 0
65 2 S106 987 1280423 1976 0
65 2 S106 896 1281319 2872 0
65 2 S106 865 1282184 3737 0
65 2 S106 887 1283071 4624 0
65 2 S106 905 1283976 5529 0
65 2 S106 919 1284895 6448 0
0 0 0 874 1285769 -7649 0
0 0 0 847 1286616 -6802 0
0 0 0 893 1287509 -5909 0
0 0 0 957 1288466 -4952 0
0 0 0 932 1289398 -4020 0
0 0 0 858 1290256 -3162 0
0 0 0 802 1291058 -2360 0
66 1 S116 741 1291799 -1619 0
66 1 S116 762 1292561 -857 0
66 1 S116 824 1293385 -33 0
66 2 S116 877 1294262 844 0
66 2 S116 856 1295118 1700 0
66 2 S116 883 1296001 2583 0
66 2 S116 946 1296947 3529 0
66 2 S116 964 1297911 4493 0
66 2 S116 925 1298836 5418 0
66 2 S116 819 1299655 6237 0
0 0 0 813 1300468 -11302 0
0 0 0 845 1301313 -10457 0
0 0 0 906 1302219 -9551 0
0 0 0 945 1303164 -8606 0
0 0 0 849 1304013 -7757 0
0 0 0 827 1304840 -6930 0
0 0 0 842 1305682 -6088 0
0 0 0 882 1306564 -5206 0
0 0 0 889 1307453 -4317 0
0 0 0 837 1308290 -3480 0
0 0 0 846 1309136 -2634 0
67 1 S102 939 1310075 -1695 0
67 1 S102 1012 1311087 -683 0
67 2 S102 1054 1312141 371 0
67 2 S102 1001 1313142 1372 0
67 2 S102 908 1314050 2280 0
67 2 S102 897 1314947 3177 0
67 2 S102 907 1315854 4084 0
67 2 S102 931 1316785 5015 0
67 2 S102 934 1317719 5949 0
67 2 S102 878 1318597 6827 0
0 0 0 846 1319443 -6717 0
0 0 0 894 1320337 -5823 0
0 0 0 1005 1321342 -4818 0
0 0 0 962 1322304 -3856 0
0 0 0 870 1323174 -2986 0
0 0 0 870 1324044 -2116 0
68 1 S106 911 1324955 -1205 0
68 1 S106 948 1325903 -257 0
68 2 S106 920 1326823 663 0
68 2 S106 843 1327666 1506 0
68 2 S106 861 1328527 2367 0
68 2 S106 869 1329396 3236 0
68 2 S106 885 1330281 4121 0
68 2 S106 864 1331145 4985 0
68 2 S106 823 1331968 5808 0
68 2 S106 884 1332852 6692 0
0 0 0 974 1333826 -11134 0
0 0 0 1031 1334857 -10103 0
0 0 0 1051 1335908 -9052 0
0 0 0 925 1336833 -8127 0
0 0 0 846 1337679 -7281 0
0 0 0 852 1338531 -6429 0
0 0 0 878 1339409 -5551 0
0 0 0 905 1340314 -4646 0
0 0 0 898 1341212 -3748 0
0 0 0 840 1342052 -2908 0
0 0 0 846 1342898 -2062 0
69 1 S102 899 1343797 -1163 0
69 1 S102 942 1344739 -221 0
69 2 S102 984 1345723 763 0
69 2 S102 946 1346669 1709 0
69 2 S102 904 1347573 2613 0
69 2 S102 966 1348539 3579 0
69 2 S102 994 1349533 4573 0
69 2 S102 968 1350501 5541 0
69 2 S102 885 1351386 6426 0
0 0 0 823 1352209 -9777 0
0 0 0 842 1353051 -8935 0
0 0 0 874 1353925 -8061 0
0 0 0 939 1354864 -7122 0
0 0 0 893 1355757 -6229 0
0 0 0 846 1356603 -5383 0
0 0 0 900 1357503 -4483 0
0 0 0 1000 1358503 -3483 0
0 0 0 1039 1359542 -2444 0
70 1 S112 898 1360440 -1546 0
70 1 S112 881 1361321 -665 0
70 2 S112 881 1362202 216 0
70 2 S112 811 1363013 1027 0
70 2 S112 775 1363788 1802 0
70 2 S112 727 1364515 2529 0
70 2 S112 675 1365190 3204 0
70 2 S112 668 1365858 3872 0
70 2 S112 693 1366551 4565 0
70 2 S112 785 1367336 5350 0
70 2 S112 894 1368230 6244 0
0 0 0 883 1369113 -11689 0
0 0 0 893 1370006 -10796 0
0 0 0 953 1370959 -9843 0
0 0 0 987 1371946 -8856 0
0 0 0 940 1372886 -7916 0
0 0 0 849 1373735 -7067 0
0 0 0 871 1374606 -6196 0
0 0 0 914 1375520 -5282 0
0 0 0 996 1376516 -4286 0
0 0 0 981 1377497 -3305 0
0 0 0 899 1378396 -2406 0
71 1 S116 933 1379329 -1473 0
71 1 S116 951 1380280 -522 0
71 2 S116 975 1381255 453 0
71 2 S116 936 1382191 1389 0
71 2 S116 881 1383072 2270 0
71 2 S116 906 1383978 3176 0
71 2 S116 965 1384943 4141 0
71 2 S116 1014 1385957 5155 0
71 2 S116 980 1386937 6135 0
0 0 0 923 1387860 -9471 0
0 0 0 839 1388699 -8632 0
0 0 0 847 1389546 -7785 0
0 0 0 889 1390435 -6896 0
0 0 0 914 1391349 -5982 0
0 0 0 889 1392238 -5093 0
0 0 0 852 1393090 -4241 0
0 0 0 896 1393986 -3345 0
0 0 0 949 1394935 -2396 0
72 1 S102 949 1395884 -1447 0
72 1 S102 912 1396796 -535 0
72 2 S102 833 1397629 298 0
72 2 S102 822 1398451 1120 0
72 2 S102 858 1399309 1978 0
72 2 S102 891 1400200 2869 0
72 2 S102 923 1401123 3792 0
72 2 S102 884 1402007 4676 0
72 2 S102 897 1402904 5573 0
72 2 S102 958 1403862 6531 0
0 0 0 1018 1404880 -7554 0
0 0 0 1010 1405890 -6544 0
0 0 0 906 1406796 -5638 0
0 0 0 893 1407689 -4745 0
0 0 0 869 1408558 -3876 0
0 0 0 882 1409440 -2994 0
0 0 0 870 1410310 -2124 0
73 1 S116 861 1411171 -1263 0
73 1 S116 951 1412122 -312 0
73 2 S116 1022 1413144 710 0
73 2 S116 1012 1414156 1722 0
73 2 S116 973 1415129 2695 0
73 2 S116 891 1416020 3586 0
73 2 S116 862 1416882 4448 0
73 2 S116 862 1417744 5310 0
73 2 S116 892 1418636 6202 0
0 0 0 915 1419551 -9246 0
0 0 0 878 1420429 -8368 0
0 0 0 864 1421293 -7504 0
0 0 0 904 1422197 -6600 0
0 0 0 887 1423084 -5713 0
0 0 0 826 1423910 -4887 0
0 0 0 767 1424677 -4120 0
0 0 0 731 1425408 -3389 0
0 0 0 775 1426183 -2614 0
74 1 S106 822 1427005 -1792 0
74 1 S106 812 1427817 -980 0
74 1 S106 847 1428664 -133 0
74 2 S106 907 1429571 774 0
74 2 S106 936 1430507 1710 0
74 2 S106 914 1431421 2624 0
74 2 S106 835 1432256 3459 0
74 2 S106 832 1433088 4291 0
74 2 S106 877 1433965 5168 0
74 2 S106 970 1434935 6138 0
0 0 0 1000 1435935 -7152 0
0 0 0 958 1436893 -6194 0
0 0 0 880 1437773 -5314 0
0 0 0 893 1438666 -4421 0
0 0 0 897 1439563 -3524 0
0 0 0 907 1440470 -2617 0
75 1 S112 858 1441328 -1759 0
75 1 S112 853 1442181 -906 0
75 2 S112 925 1443106 19 0
75 2 S112 987 1444093 1006 0
75 2 S112 974 1445067 1980 0
75 2 S112 916 1445983 2896 0
75 2 S112 831 1446814 3727 0
75 2 S112 809 1447623 4536 0
75 2 S112 843 1448466 5379 0
75 2 S112 949 1449415 6328 0
0 0 0 1001 1450416 -7874 0
0 0 0 976 1451392 -6898 0
0 0 0 852 1452244 -6046 0
0 0 0 863 1453107 -5183 0
0 0 0 856 1453963 -4327 0
0 0 0 948 1454911 -3379 0
0 0 0 988 1455899 -2391 0
76 1 S116 947 1456846 -1444 0
76 1 S116 909 1457755 -535 0
76 2 S116 960 1458715 425 0
76 2 S116 983 1459698 1408 0
76 2 S116 974 1460672 2382 0
76 2 S116 882 1461554 3264 0
76 2 S116 880 1462434 4144 0
76 2 S116 886 1463320 5030 0
76 2 S116 939 1464259 5969 0
76 2 S116 941 1465200 6910 0
0 0 0 872 1466072 -7006 0
0 0 0 854 1466926 -6152 0
0 0 0 892 1467818 -5260 0
0 0 0 940 1468758 -4320 0
0 0 0 910 1469668 -3410 0
0 0 0 863 1470531 -2547 0
77 1 S106 908 1471439 -1639 0
77 1 S106 974 1472413 -665 0
77 2 S106 983 1473396 318 0
77 2 S106 920 1474316 1238 0
77 2 S106 848 1475164 2086 0
77 2 S106 869 1476033 2955 0
77 2 S106 935 1476968 3890 0
77 2 S106 984 1477952 4874 0
77 2 S106 980 1478932 5854 0
77 2 S106 899 1479831 6753 0
0 0 0 901 1480732 -9040 0
0 0 0 943 1481675 -8097 0
0 0 0 993 1482668 -7104 0
0 0 0 957 1483625 -6147 0
0 0 0 902 1484527 -5245 0
0 0 0 905 1485432 -4340 0
0 0 0 946 1486378 -3394 0
0 0 0 1000 1487378 -2394 0
78 1 S112 956 1488334 -1438 0
78 1 S112 892 1489226 -546 0
78 2 S112 927 1490153 381 0
78 2 S112 984 1491137 1365 0
78 2 S112 964 1492101 2329 0
78 2 S112 920 1493021 3249 0
78 2 S112 846 1493867 4095 0
78 2 S112 875 1494742 4970 0
78 2 S112 918 1495660 5888 0
78 2 S112 943 1496603 6831 0
0 0 0 932 1497535 -11816 0
0 0 0 861 1498396 -10955 0
0 0 0 905 1499301 -10050 0
0 0 0 981 1500282 -9069 0
0 0 0 944 1501226 -8125 0
0 0 0 827 1502053 -7298 0
0 0 0 737 1502790 -6561 0
0 0 0 701 1503491 -5860 0
0 0 0 717 1504208 -5143 0
0 0 0 809 1505017 -4334 0
0 0 0 943 1505960 -3391 0
0 0 0 973 1506933 -2418 0
79 1 S102 922 1507855 -1496 0
79 1 S102 887 1508742 -609 0
79 2 S102 905 1509647 296 0
79 2 S102 908 1510555 1204 0
79 2 S102 903 1511458 2107 0
79 2 S102 836 1512294 2943 0
79 2 S102 838 1513132 3781 0
79 2 S102 938 1514070 4719 0
79 2 S102 1017 1515087 5736 0
79 2 S102 1032 1516119 6768 0
0 0 0 946 1517065 -9180 0
0 0 0 927 1517992 -8253 0
0 0 0 937 1518929 -7316 0
0 0 0 927 1519856 -6389 0
0 0 0 849 1520705 -5540 0
0 0 0 787 1521492 -4753 0
0 0 0 810 1522302 -3943 0
0 0 0 875 1523177 -3068 0
0 0 0 1066 1524243 -2002 0
80 1 S116 1054 1525297 -948 0
80 2 S116 976 1526273 28 0
80 2 S116 1000 1527273 1028 0
80 2 S116 988 1528261 2016 0
80 2 S116 964 1529225 2980 0
80 2 S116 899 1530124 3879 0
80 2 S116 818 1530942 4697 0
80 2 S116 820 1531762 5517 0
80 2 S116 836 1532598 6353 0
