T_0141
BeatCount Mean SD BeatCountNoOutliers MeanNoOutliers SDNoOutliers
1670 907,848502994012 88,6984195421402 1659 907,01808318264 74,4264579782265

Trial TrialStatus Trialtype IBI AbsPosition RelPosition Outlier
0 0 0 868 1336 -14501 0
0 0 0 947 2283 -13554 0
0 0 0 902 3185 -12652 0
0 0 0 905 4090 -11747 0
0 0 0 921 5011 -10826 0
0 0 0 928 5939 -9898 0
0 0 0 944 6883 -8954 0
0 0 0 952 7835 -8002 0
0 0 0 982 8817 -7020 0
0 0 0 992 9809 -6028 0
0 0 0 988 10797 -5040 0
0 0 0 967 11764 -4073 0
0 0 0 942 12706 -3131 0
0 0 0 901 13607 -2230 0
1 1 S112 879 14486 -1351 0
1 1 S112 879 15365 -472 0
1 2 S112 930 16295 458 0
1 2 S112 904 17199 1362 0
1 2 S112 910 18109 2272 0
1 2 S112 911 19020 3183 0
1 2 S112 930 19950 4113 0
1 2 S112 919 20869 5032 0
1 2 S112 924 21793 5956 0
1 2 S112 933 22726 6889 0
0 0 0 923 23649 -11435 0
0 0 0 933 24582 -10502 0
0 0 0 929 25511 -9573 0
0 0 0 923 26434 -8650 0
0 0 0 911 27345 -7739 0
0 0 0 911 28256 -6828 0
0 0 0 893 29149 -5935 0
0 0 0 905 30054 -5030 0
0 0 0 922 30976 -4108 0
0 0 0 938 31914 -3170 0
0 0 0 935 32849 -2235 0
2 1 S102 923 33772 -1312 0
2 1 S102 923 34695 -389 0
2 2 S102 923 35618 534 0
2 2 S102 926 36544 1460 0
2 2 S102 912 37456 2372 0
2 2 S102 887 38343 3259 0
2 2 S102 881 39224 4140 0
2 2 S102 877 40101 5017 0
2 2 S102 868 40969 5885 0
2 2 S102 886 41855 6771 0
0 0 0 897 42752 -8794 0
0 0 0 921 43673 -7873 0
0 0 0 930 44603 -6943 0
0 0 0 939 45542 -6004 0
0 0 0 940 46482 -5064 0
0 0 0 920 47402 -4144 0
0 0 0 904 48306 -3240 0
0 0 0 864 49170 -2376 0
3 1 S116 895 50065 -1481 0
3 1 S116 881 50946 -600 0
3 2 S116 894 51840 294 0
3 2 S116 922 52762 1216 0
3 2 S116 904 53666 2120 0
3 2 S116 892 54558 3012 0
3 2 S116 867 55425 3879 0
3 2 S116 850 56275 4729 0
3 2 S116 789 57064 5518 0
3 2 S116 756 57820 6274 0
3 2 S116 734 58554 7008 0
0 0 0 737 59291 -10243 0
0 0 0 714 60005 -9529 0
0 0 0 716 60721 -8813 0
0 0 0 743 61464 -8070 0
0 0 0 708 62172 -7362 0
0 0 0 681 62853 -6681 0
0 0 0 667 63520 -6014 1
0 0 0 662 64182 -5352 1
0 0 0 679 64861 -4673 1
0 0 0 698 65559 -3975 0
0 0 0 740 66299 -3235 0
0 0 0 765 67064 -2470 0
4 1 S106 793 67857 -1677 0
4 1 S106 766 68623 -911 0
4 1 S106 742 69365 -169 0
4 2 S106 738 70103 569 0
4 2 S106 742 70845 1311 0
4 2 S106 748 71593 2059 0
4 2 S106 751 72344 2810 0
4 2 S106 757 73101 3567 0
4 2 S106 775 73876 4342 0
4 2 S106 790 74666 5132 0
4 2 S106 809 75475 5941 0
4 2 S106 825 76300 6766 0
0 0 0 832 77132 -6825 0
0 0 0 829 77961 -5996 0
0 0 0 836 78797 -5160 0
0 0 0 824 79621 -4336 0
0 0 0 818 80439 -3518 0
0 0 0 821 81260 -2697 0
5 1 S116 823 82083 -1874 0
5 1 S116 820 82903 -1054 0
5 1 S116 800 83703 -254 0
5 2 S116 796 84499 542 0
5 2 S116 810 85309 1352 0
5 2 S116 823 86132 2175 0
5 2 S116 837 86969 3012 0
5 2 S116 859 87828 3871 0
5 2 S116 883 88711 4754 0
5 2 S116 899 89610 5653 0
5 2 S116 905 90515 6558 0
0 0 0 886 91401 -9019 0
0 0 0 876 92277 -8143 0
0 0 0 859 93136 -7284 0
0 0 0 847 93983 -6437 0
0 0 0 848 94831 -5589 0
0 0 0 858 95689 -4731 0
0 0 0 868 96557 -3863 0
0 0 0 905 97462 -2958 0
0 0 0 933 98395 -2025 0
6 1 S106 948 99343 -1077 0
6 1 S106 967 100310 -110 0
6 2 S106 966 101276 856 0
6 2 S106 1002 102278 1858 0
6 2 S106 1001 103279 2859 0
6 2 S106 987 104266 3846 0
6 2 S106 945 105211 4791 0
6 2 S106 929 106140 5720 0
6 2 S106 957 107097 6677 0
0 0 0 955 108052 -11118 0
0 0 0 970 109022 -10148 0
0 0 0 960 109982 -9188 0
0 0 0 922 110904 -8266 0
0 0 0 912 111816 -7354 0
0 0 0 906 112722 -6448 0
0 0 0 920 113642 -5528 0
0 0 0 918 114560 -4610 0
0 0 0 915 115475 -3695 0
0 0 0 924 116399 -2771 0
7 1 S102 915 117314 -1856 0
7 1 S102 909 118223 -947 0
7 1 S102 898 119121 -49 0
7 2 S102 931 120052 882 0
7 2 S102 939 120991 1821 0
7 2 S102 943 121934 2764 0
7 2 S102 965 122899 3729 0
7 2 S102 967 123866 4696 0
7 2 S102 984 124850 5680 0
7 2 S102 989 125839 6669 0
0 0 0 987 126826 -7845 0
0 0 0 989 127815 -6856 0
0 0 0 977 128792 -5879 0
0 0 0 938 129730 -4941 0
0 0 0 930 130660 -4011 0
0 0 0 921 131581 -3090 0
0 0 0 941 132522 -2149 0
8 1 S112 962 133484 -1187 0
8 1 S112 1026 134510 -161 0
8 2 S112 1013 135523 852 0
8 2 S112 1052 136575 1904 0
8 2 S112 982 137557 2886 0
8 2 S112 941 138498 3827 0
8 2 S112 946 139444 4773 0
8 2 S112 957 140401 5730 0
8 2 S112 995 141396 6725 0
0 0 0 994 142390 -6787 0
0 0 0 1034 143424 -5753 0
0 0 0 1039 144463 -4714 0
0 0 0 992 145455 -3722 0
0 0 0 975 146430 -2747 0
9 1 S116 964 147394 -1783 0
9 1 S116 962 148356 -821 0
9 2 S116 924 149280 103 0
9 2 S116 923 150203 1026 0
9 2 S116 974 151177 2000 0
9 2 S116 996 152173 2996 0
9 2 S116 974 153147 3970 0
9 2 S116 955 154102 4925 0
9 2 S116 917 155019 5842 0
9 2 S116 905 155924 6747 0
0 0 0 896 156820 -11786 0
0 0 0 882 157702 -10904 0
0 0 0 837 158539 -10067 0
0 0 0 878 159417 -9189 0
0 0 0 963 160380 -8226 0
0 0 0 982 161362 -7244 0
0 0 0 948 162310 -6296 0
0 0 0 944 163254 -5352 0
0 0 0 923 164177 -4429 0
0 0 0 902 165079 -3527 0
0 0 0 882 165961 -2645 0
10 1 S102 891 166852 -1754 0
10 1 S102 890 167742 -864 0
10 2 S102 895 168637 31 0
10 2 S102 905 169542 936 0
10 2 S102 924 170466 1860 0
10 2 S102 934 171400 2794 0
10 2 S102 929 172329 3723 0
10 2 S102 936 173265 4659 0
10 2 S102 923 174188 5582 0
10 2 S102 924 175112 6506 0
0 0 0 908 176020 -11121 0
0 0 0 902 176922 -10219 0
0 0 0 893 177815 -9326 0
0 0 0 895 178710 -8431 0
0 0 0 886 179596 -7545 0
0 0 0 900 180496 -6645 0
0 0 0 898 181394 -5747 0
0 0 0 896 182290 -4851 0
0 0 0 888 183178 -3963 0
0 0 0 846 184024 -3117 0
0 0 0 773 184797 -2344 0
11 1 S112 753 185550 -1591 0
11 1 S112 821 186371 -770 0
11 2 S112 864 187235 94 0
11 2 S112 850 188085 944 0
11 2 S112 918 189003 1862 0
11 2 S112 935 189938 2797 0
11 2 S112 879 190817 3676 0
11 2 S112 866 191683 4542 0
11 2 S112 871 192554 5413 0
11 2 S112 887 193441 6300 0
0 0 0 922 194363 -7400 0
0 0 0 966 195329 -6434 0
0 0 0 973 196302 -5461 0
0 0 0 983 197285 -4478 0
0 0 0 987 198272 -3491 0
0 0 0 964 199236 -2527 0
12 1 S116 950 200186 -1577 0
12 1 S116 955 201141 -622 0
12 2 S116 960 202101 338 0
12 2 S116 963 203064 1301 0
12 2 S116 963 204027 2264 0
12 2 S116 892 204919 3156 0
12 2 S116 800 205719 3956 0
12 2 S116 807 206526 4763 0
12 2 S116 846 207372 5609 0
12 2 S116 802 208174 6411 0
0 0 0 801 208975 -11621 0
0 0 0 846 209821 -10775 0
0 0 0 986 210807 -9789 0
0 0 0 941 211748 -8848 0
0 0 0 937 212685 -7911 0
0 0 0 932 213617 -6979 0
0 0 0 937 214554 -6042 0
0 0 0 912 215466 -5130 0
0 0 0 906 216372 -4224 0
0 0 0 902 217274 -3322 0
0 0 0 894 218168 -2428 0
13 1 S112 900 219068 -1528 0
13 1 S112 914 219982 -614 0
13 2 S112 912 220894 298 0
13 2 S112 911 221805 1209 0
13 2 S112 940 222745 2149 0
13 2 S112 945 223690 3094 0
13 2 S112 940 224630 4034 0
13 2 S112 951 225581 4985 0
13 2 S112 957 226538 5942 0
13 2 S112 947 227485 6889 0
0 0 0 974 228459 -10357 0
0 0 0 1005 229464 -9352 0
0 0 0 995 230459 -8357 0
0 0 0 972 231431 -7385 0
0 0 0 969 232400 -6416 0
0 0 0 973 233373 -5443 0
0 0 0 993 234366 -4450 0
0 0 0 1026 235392 -3424 0
0 0 0 1043 236435 -2381 0
14 1 S106 1039 237474 -1342 0
14 1 S106 1019 238493 -323 0
14 2 S106 996 239489 673 0
14 2 S106 987 240476 1660 0
14 2 S106 958 241434 2618 0
14 2 S106 938 242372 3556 0
14 2 S106 915 243287 4471 0
14 2 S106 915 244202 5386 0
14 2 S106 884 245086 6270 0
0 0 0 938 246024 -12620 0
0 0 0 919 246943 -11701 0
0 0 0 935 247878 -10766 0
0 0 0 936 248814 -9830 0
0 0 0 942 249756 -8888 0
0 0 0 936 250692 -7952 0
0 0 0 926 251618 -7026 0
0 0 0 920 252538 -6106 0
0 0 0 909 253447 -5197 0
0 0 0 909 254356 -4288 0
0 0 0 926 255282 -3362 0
0 0 0 919 256201 -2443 0
15 1 S116 933 257134 -1510 0
15 1 S116 927 258061 -583 0
15 2 S116 919 258980 336 0
15 2 S116 913 259893 1249 0
15 2 S116 899 260792 2148 0
15 2 S116 884 261676 3032 0
15 2 S116 892 262568 3924 0
15 2 S116 921 263489 4845 0
15 2 S116 950 264439 5795 0
15 2 S116 973 265412 6768 0
0 0 0 965 266377 -9575 0
0 0 0 977 267354 -8598 0
0 0 0 997 268351 -7601 0
0 0 0 990 269341 -6611 0
0 0 0 934 270275 -5677 0
0 0 0 925 271200 -4752 0
0 0 0 914 272114 -3838 0
0 0 0 913 273027 -2925 0
16 1 S116 935 273962 -1990 0
16 1 S116 964 274926 -1026 0
16 1 S116 970 275896 -56 0
16 2 S116 951 276847 895 0
16 2 S116 969 277816 1864 0
16 2 S116 1004 278820 2868 0
16 2 S116 993 279813 3861 0
16 2 S116 977 280790 4838 0
16 2 S116 954 281744 5792 0
16 2 S116 947 282691 6739 0
0 0 0 949 283640 -10167 0
0 0 0 944 284584 -9223 0
0 0 0 938 285522 -8285 0
0 0 0 951 286473 -7334 0
0 0 0 972 287445 -6362 0
0 0 0 941 288386 -5421 0
0 0 0 936 289322 -4485 0
0 0 0 949 290271 -3536 0
0 0 0 974 291245 -2562 0
17 1 S106 1012 292257 -1550 0
17 1 S106 1010 293267 -540 0
17 2 S106 1008 294275 468 0
17 2 S106 1009 295284 1477 0
17 2 S106 990 296274 2467 0
17 2 S106 936 297210 3403 0
17 2 S106 893 298103 4296 0
17 2 S106 871 298974 5167 0
17 2 S106 878 299852 6045 0
17 2 S106 890 300742 6935 0
0 0 0 917 301659 -9820 0
0 0 0 940 302599 -8880 0
0 0 0 920 303519 -7960 0
0 0 0 929 304448 -7031 0
0 0 0 909 305357 -6122 0
0 0 0 925 306282 -5197 0
0 0 0 940 307222 -4257 0
0 0 0 957 308179 -3300 0
0 0 0 969 309148 -2331 0
18 1 S102 964 310112 -1367 0
18 1 S102 937 311049 -430 0
18 2 S102 949 311998 519 0
18 2 S102 961 312959 1480 0
18 2 S102 969 313928 2449 0
18 2 S102 955 314883 3404 0
18 2 S102 956 315839 4360 0
18 2 S102 954 316793 5314 0
18 2 S102 947 317740 6261 0
0 0 0 927 318667 -7086 0
0 0 0 942 319609 -6144 0
0 0 0 957 320566 -5187 0
0 0 0 953 321519 -4234 0
0 0 0 920 322439 -3314 0
0 0 0 905 323344 -2409 0
19 1 S106 887 324231 -1522 0
19 1 S106 873 325104 -649 0
19 2 S106 885 325989 236 0
19 2 S106 900 326889 1136 0
19 2 S106 927 327816 2063 0
19 2 S106 957 328773 3020 0
19 2 S106 921 329694 3941 0
19 2 S106 872 330566 4813 0
19 2 S106 841 331407 5654 0
19 2 S106 812 332219 6466 0
0 0 0 841 333060 -10714 0
0 0 0 816 333876 -9898 0
0 0 0 824 334700 -9074 0
0 0 0 831 335531 -8243 0
0 0 0 836 336367 -7407 0
0 0 0 838 337205 -6569 0
0 0 0 840 338045 -5729 0
0 0 0 850 338895 -4879 0
0 0 0 865 339760 -4014 0
0 0 0 880 340640 -3134 0
0 0 0 900 341540 -2234 0
20 1 S112 918 342458 -1316 0
20 1 S112 933 343391 -383 0
20 2 S112 936 344327 553 0
20 2 S112 916 345243 1469 0
20 2 S112 903 346146 2372 0
20 2 S112 877 347023 3249 0
20 2 S112 864 347887 4113 0
20 2 S112 854 348741 4967 0
20 2 S112 856 349597 5823 0
20 2 S112 860 350457 6683 0
0 0 0 864 351321 -9114 0
0 0 0 878 352199 -8236 0
0 0 0 903 353102 -7333 0
0 0 0 921 354023 -6412 0
0 0 0 920 354943 -5492 0
0 0 0 929 355872 -4563 0
0 0 0 924 356796 -3639 0
0 0 0 919 357715 -2720 0
21 1 S106 850 358565 -1870 0
21 1 S106 843 359408 -1027 0
21 1 S106 893 360301 -134 0
21 2 S106 936 361237 802 0
21 2 S106 944 362181 1746 0
21 2 S106 903 363084 2649 0
21 2 S106 906 363990 3555 0
21 2 S106 917 364907 4472 0
21 2 S106 917 365824 5389 0
21 2 S106 902 366726 6291 0
0 0 0 899 367625 -11444 0
0 0 0 989 368614 -10455 0
0 0 0 929 369543 -9526 0
0 0 0 958 370501 -8568 0
0 0 0 955 371456 -7613 0
0 0 0 928 372384 -6685 0
0 0 0 788 373172 -5897 0
0 0 0 827 373999 -5070 0
0 0 0 965 374964 -4105 0
0 0 0 964 375928 -3141 0
0 0 0 947 376875 -2194 0
22 1 S116 961 377836 -1233 0
22 1 S116 963 378799 -270 0
22 2 S116 880 379679 610 0
22 2 S116 796 380475 1406 0
22 2 S116 769 381244 2175 0
22 2 S116 784 382028 2959 0
22 2 S116 838 382866 3797 0
22 2 S116 811 383677 4608 0
22 2 S116 783 384460 5391 0
22 2 S116 821 385281 6212 0
0 0 0 818 386099 -10029 0
0 0 0 808 386907 -9221 0
0 0 0 827 387734 -8394 0
0 0 0 854 388588 -7540 0
0 0 0 883 389471 -6657 0
0 0 0 880 390351 -5777 0
0 0 0 886 391237 -4891 0
0 0 0 892 392129 -3999 0
0 0 0 885 393014 -3114 0
0 0 0 870 393884 -2244 0
23 1 S112 854 394738 -1390 0
23 1 S112 847 395585 -543 0
23 2 S112 857 396442 314 0
23 2 S112 870 397312 1184 0
23 2 S112 883 398195 2067 0
23 2 S112 889 399084 2956 0
23 2 S112 886 399970 3842 0
23 2 S112 880 400850 4722 0
23 2 S112 894 401744 5616 0
23 2 S112 908 402652 6524 0
0 0 0 913 403565 -8993 0
0 0 0 949 404514 -8044 0
0 0 0 969 405483 -7075 0
0 0 0 971 406454 -6104 0
0 0 0 957 407411 -5147 0
0 0 0 943 408354 -4204 0
0 0 0 975 409329 -3229 0
0 0 0 971 410300 -2258 0
24 1 S106 946 411246 -1312 0
24 1 S106 944 412190 -368 0
24 2 S106 928 413118 560 0
24 2 S106 939 414057 1499 0
24 2 S106 942 414999 2441 0
24 2 S106 935 415934 3376 0
24 2 S106 918 416852 4294 0
24 2 S106 890 417742 5184 0
24 2 S106 811 418553 5995 0
24 2 S106 818 419371 6813 0
0 0 0 882 420253 -8435 0
0 0 0 944 421197 -7491 0
0 0 0 934 422131 -6557 0
0 0 0 852 422983 -5705 0
0 0 0 850 423833 -4855 0
0 0 0 885 424718 -3970 0
0 0 0 915 425633 -3055 0
0 0 0 912 426545 -2143 0
25 1 S102 936 427481 -1207 0
25 1 S102 1009 428490 -198 0
25 2 S102 956 429446 758 0
25 2 S102 969 430415 1727 0
25 2 S102 1003 431418 2730 0
25 2 S102 983 432401 3713 0
25 2 S102 965 433366 4678 0
25 2 S102 880 434246 5558 0
25 2 S102 907 435153 6465 0
0 0 0 964 436117 -6613 0
0 0 0 934 437051 -5679 0
0 0 0 914 437965 -4765 0
0 0 0 916 438881 -3849 0
0 0 0 909 439790 -2940 0
0 0 0 930 440720 -2010 0
26 1 S116 948 441668 -1062 0
26 1 S116 972 442640 -90 0
26 2 S116 987 443627 897 0
26 2 S116 992 444619 1889 0
26 2 S116 957 445576 2846 0
26 2 S116 932 446508 3778 0
26 2 S116 895 447403 4673 0
26 2 S116 980 448383 5653 0
26 2 S116 947 449330 6600 0
0 0 0 975 450305 -6583 0
0 0 0 985 451290 -5598 0
0 0 0 998 452288 -4600 0
0 0 0 972 453260 -3628 0
0 0 0 960 454220 -2668 0
27 1 S106 905 455125 -1763 0
27 1 S106 861 455986 -902 0
27 2 S106 902 456888 0 0
27 2 S106 958 457846 958 0
27 2 S106 929 458775 1887 0
27 2 S106 912 459687 2799 0
27 2 S106 911 460598 3710 0
27 2 S106 921 461519 4631 0
27 2 S106 925 462444 5556 0
27 2 S106 911 463355 6467 0
0 0 0 917 464272 -6658 0
0 0 0 922 465194 -5736 0
0 0 0 928 466122 -4808 0
0 0 0 907 467029 -3901 0
0 0 0 912 467941 -2989 0
0 0 0 907 468848 -2082 0
28 1 S102 906 469754 -1176 0
28 1 S102 907 470661 -269 0
28 2 S102 910 471571 641 0
28 2 S102 847 472418 1488 0
28 2 S102 781 473199 2269 0
28 2 S102 759 473958 3028 0
28 2 S102 764 474722 3792 0
28 2 S102 760 475482 4552 0
28 2 S102 775 476257 5327 0
28 2 S102 822 477079 6149 0
28 2 S102 879 477958 7028 0
0 0 0 922 478880 -10966 0
0 0 0 938 479818 -10028 0
0 0 0 917 480735 -9111 0
0 0 0 878 481613 -8233 0
0 0 0 872 482485 -7361 0
0 0 0 929 483414 -6432 0
0 0 0 880 484294 -5552 0
0 0 0 878 485172 -4674 0
0 0 0 889 486061 -3785 0
0 0 0 911 486972 -2874 0
29 1 S112 931 487903 -1943 0
29 1 S112 938 488841 -1005 0
29 1 S112 929 489770 -76 0
29 2 S112 919 490689 843 0
29 2 S112 912 491601 1755 0
29 2 S112 910 492511 2665 0
29 2 S112 906 493417 3571 0
29 2 S112 923 494340 4494 0
29 2 S112 922 495262 5416 0
29 2 S112 929 496191 6345 0
0 0 0 954 497145 -7555 0
0 0 0 1000 498145 -6555 0
0 0 0 1023 499168 -5532 0
0 0 0 1030 500198 -4502 0
0 0 0 996 501194 -3506 0
0 0 0 876 502070 -2630 0
30 1 S112 820 502890 -1810 0
30 1 S112 843 503733 -967 0
30 1 S112 937 504670 -30 0
30 2 S112 981 505651 951 0
30 2 S112 916 506567 1867 0
30 2 S112 935 507502 2802 0
30 2 S112 938 508440 3740 0
30 2 S112 940 509380 4680 0
30 2 S112 959 510339 5639 0
30 2 S112 960 511299 6599 0
0 0 0 974 512273 -8674 0
0 0 0 974 513247 -7700 0
0 0 0 991 514238 -6709 0
0 0 0 965 515203 -5744 0
0 0 0 939 516142 -4805 0
0 0 0 937 517079 -3868 0
0 0 0 950 518029 -2918 0
31 1 S106 957 518986 -1961 0
31 1 S106 961 519947 -1000 0
31 1 S106 960 520907 -40 0
31 2 S106 964 521871 924 0
31 2 S106 962 522833 1886 0
31 2 S106 948 523781 2834 0
31 2 S106 924 524705 3758 0
31 2 S106 887 525592 4645 0
31 2 S106 834 526426 5479 0
31 2 S106 880 527306 6359 0
0 0 0 932 528238 -9520 0
0 0 0 899 529137 -8621 0
0 0 0 917 530054 -7704 0
0 0 0 910 530964 -6794 0
0 0 0 892 531856 -5902 0
0 0 0 904 532760 -4998 0
0 0 0 894 533654 -4104 0
0 0 0 853 534507 -3251 0
0 0 0 810 535317 -2441 0
32 1 S102 771 536088 -1670 0
32 1 S102 782 536870 -888 0
32 1 S102 756 537626 -132 0
32 2 S102 731 538357 599 0
32 2 S102 740 539097 1339 0
32 2 S102 809 539906 2148 0
32 2 S102 875 540781 3023 0
32 2 S102 815 541596 3838 0
32 2 S102 823 542419 4661 0
32 2 S102 846 543265 5507 0
32 2 S102 870 544135 6377 0
0 0 0 874 545009 -10935 0
0 0 0 905 545914 -10030 0
0 0 0 943 546857 -9087 0
0 0 0 963 547820 -8124 0
0 0 0 953 548773 -7171 0
0 0 0 918 549691 -6253 0
0 0 0 906 550597 -5347 0
0 0 0 896 551493 -4451 0
0 0 0 919 552412 -3532 0
0 0 0 942 553354 -2590 0
33 1 S112 973 554327 -1617 0
33 1 S112 969 555296 -648 0
33 2 S112 978 556274 330 0
33 2 S112 978 557252 1308 0
33 2 S112 975 558227 2283 0
33 2 S112 974 559201 3257 0
33 2 S112 970 560171 4227 0
33 2 S112 981 561152 5208 0
33 2 S112 964 562116 6172 0
0 0 0 943 563059 -10840 0
0 0 0 956 564015 -9884 0
0 0 0 961 564976 -8923 0
0 0 0 965 565941 -7958 0
0 0 0 957 566898 -7001 0
0 0 0 959 567857 -6042 0
0 0 0 981 568838 -5061 0
0 0 0 999 569837 -4062 0
0 0 0 991 570828 -3071 0
0 0 0 971 571799 -2100 0
34 1 S106 962 572761 -1138 0
34 1 S106 993 573754 -145 0
34 2 S106 989 574743 844 0
34 2 S106 968 575711 1812 0
34 2 S106 950 576661 2762 0
34 2 S106 911 577572 3673 0
34 2 S106 922 578494 4595 0
34 2 S106 877 579371 5472 0
34 2 S106 829 580200 6301 0
0 0 0 817 581017 -8830 0
0 0 0 828 581845 -8002 0
0 0 0 906 582751 -7096 0
0 0 0 920 583671 -6176 0
0 0 0 890 584561 -5286 0
0 0 0 876 585437 -4410 0
0 0 0 906 586343 -3504 0
0 0 0 993 587336 -2511 0
35 1 S102 1000 588336 -1511 0
35 1 S102 871 589207 -640 0
35 2 S102 886 590093 246 0
35 2 S102 961 591054 1207 0
35 2 S102 1034 592088 2241 0
35 2 S102 929 593017 3170 0
35 2 S102 893 593910 4063 0
35 2 S102 868 594778 4931 0
35 2 S102 886 595664 5817 0
35 2 S102 919 596583 6736 0
0 0 0 920 597503 -6734 0
0 0 0 952 598455 -5782 0
0 0 0 956 599411 -4826 0
0 0 0 886 600297 -3940 0
0 0 0 854 601151 -3086 0
0 0 0 867 602018 -2219 0
36 1 S106 903 602921 -1316 0
36 1 S106 921 603842 -395 0
36 2 S106 878 604720 483 0
36 2 S106 885 605605 1368 0
36 2 S106 955 606560 2323 0
36 2 S106 933 607493 3256 0
36 2 S106 879 608372 4135 0
36 2 S106 877 609249 5012 0
36 2 S106 891 610140 5903 0
36 2 S106 886 611026 6789 0
0 0 0 887 611913 -9416 0
0 0 0 898 612811 -8518 0
0 0 0 891 613702 -7627 0
0 0 0 874 614576 -6753 0
0 0 0 851 615427 -5902 0
0 0 0 846 616273 -5056 0
0 0 0 837 617110 -4219 0
0 0 0 845 617955 -3374 0
0 0 0 857 618812 -2517 0
37 1 S116 872 619684 -1645 0
37 1 S116 893 620577 -752 0
37 2 S116 932 621509 180 0
37 2 S116 958 622467 1138 0
37 2 S116 973 623440 2111 0
37 2 S116 977 624417 3088 0
37 2 S116 975 625392 4063 0
37 2 S116 949 626341 5012 0
37 2 S116 927 627268 5939 0
37 2 S116 915 628183 6854 0
0 0 0 898 629081 -10518 0
0 0 0 873 629954 -9645 0
0 0 0 861 630815 -8784 0
0 0 0 844 631659 -7940 0
0 0 0 834 632493 -7106 0
0 0 0 837 633330 -6269 0
0 0 0 844 634174 -5425 0
0 0 0 858 635032 -4567 0
0 0 0 868 635900 -3699 0
0 0 0 889 636789 -2810 0
38 1 S102 913 637702 -1897 0
38 1 S102 932 638634 -965 0
38 1 S102 937 639571 -28 0
38 2 S102 931 640502 903 0
38 2 S102 928 641430 1831 0
38 2 S102 911 642341 2742 0
38 2 S102 902 643243 3644 0
38 2 S102 895 644138 4539 0
38 2 S102 942 645080 5481 0
38 2 S102 936 646016 6417 0
0 0 0 946 646962 -9514 0
0 0 0 965 647927 -8549 0
0 0 0 960 648887 -7589 0
0 0 0 949 649836 -6640 0
0 0 0 939 650775 -5701 0
0 0 0 925 651700 -4776 0
0 0 0 921 652621 -3855 0
0 0 0 929 653550 -2926 0
39 1 S116 941 654491 -1985 0
39 1 S116 969 655460 -1016 0
39 1 S116 987 656447 -29 0
39 2 S116 975 657422 946 0
39 2 S116 983 658405 1929 0
39 2 S116 982 659387 2911 0
39 2 S116 955 660342 3866 0
39 2 S116 956 661298 4822 0
39 2 S116 970 662268 5792 0
39 2 S116 992 663260 6784 0
0 0 0 1002 664262 -7598 0
0 0 0 999 665261 -6599 0
0 0 0 1008 666269 -5591 0
0 0 0 1010 667279 -4581 0
0 0 0 941 668220 -3640 0
0 0 0 848 669068 -2792 0
40 1 S112 862 669930 -1930 0
40 1 S112 862 670792 -1068 0
40 1 S112 862 671654 -206 0
40 2 S112 832 672486 626 0
40 2 S112 852 673338 1478 0
40 2 S112 778 674116 2256 0
40 2 S112 782 674898 3038 0
40 2 S112 831 675729 3869 0
40 2 S112 855 676584 4724 0
40 2 S112 847 677431 5571 0
40 2 S112 835 678266 6406 0
0 0 0 866 679132 -187226 0
0 0 0 857 679989 -186369 0
0 0 0 802 680791 -185567 0
0 0 0 803 681594 -184764 0
0 0 0 880 682474 -183884 0
0 0 0 911 683385 -182973 0
0 0 0 842 684227 -182131 0
0 0 0 854 685081 -181277 0
0 0 0 869 685950 -180408 0
0 0 0 903 686853 -179505 0
0 0 0 928 687781 -178577 0
0 0 0 935 688716 -177642 0
0 0 0 931 689647 -176711 0
0 0 0 933 690580 -175778 0
0 0 0 915 691495 -174863 0
0 0 0 917 692412 -173946 0
0 0 0 902 693314 -173044 0
0 0 0 904 694218 -172140 0
0 0 0 899 695117 -171241 0
0 0 0 912 696029 -170329 0
0 0 0 932 696961 -169397 0
0 0 0 930 697891 -168467 0
0 0 0 927 698818 -167540 0
0 0 0 923 699741 -166617 0
0 0 0 941 700682 -165676 0
0 0 0 916 701598 -164760 0
0 0 0 917 702515 -163843 0
0 0 0 870 703385 -162973 0
0 0 0 979 704364 -161994 0
0 0 0 2738 707102 -159256 1
0 0 0 887 707989 -158369 0
0 0 0 917 708906 -157452 0
0 0 0 913 709819 -156539 0
0 0 0 872 710691 -155667 0
0 0 0 824 711515 -154843 0
0 0 0 779 712294 -154064 0
0 0 0 774 713068 -153290 0
0 0 0 814 713882 -152476 0
0 0 0 784 714666 -151692 0
0 0 0 739 715405 -150953 0
0 0 0 747 716152 -150206 0
0 0 0 770 716922 -149436 0
0 0 0 791 717713 -148645 0
0 0 0 833 718546 -147812 0
0 0 0 884 719430 -146928 0
0 0 0 943 720373 -145985 0
0 0 0 957 721330 -145028 0
0 0 0 962 722292 -144066 0
0 0 0 949 723241 -143117 0
0 0 0 919 724160 -142198 0
0 0 0 894 725054 -141304 0
0 0 0 830 725884 -140474 0
0 0 0 787 726671 -139687 0
0 0 0 769 727440 -138918 0
0 0 0 775 728215 -138143 0
0 0 0 753 728968 -137390 0
0 0 0 733 729701 -136657 0
0 0 0 709 730410 -135948 0
0 0 0 699 731109 -135249 0
0 0 0 681 731790 -134568 0
0 0 0 680 732470 -133888 0
0 0 0 684 733154 -133204 0
0 0 0 688 733842 -132516 0
0 0 0 698 734540 -131818 0
0 0 0 697 735237 -131121 0
0 0 0 723 735960 -130398 0
0 0 0 764 736724 -129634 0
0 0 0 736 737460 -128898 0
0 0 0 761 738221 -128137 0
0 0 0 798 739019 -127339 0
0 0 0 843 739862 -126496 0
0 0 0 894 740756 -125602 0
0 0 0 926 741682 -124676 0
0 0 0 966 742648 -123710 0
0 0 0 956 743604 -122754 0
0 0 0 945 744549 -121809 0
0 0 0 910 745459 -120899 0
0 0 0 785 746244 -120114 0
0 0 0 766 747010 -119348 0
0 0 0 697 747707 -118651 0
0 0 0 894 748601 -117757 0
0 0 0 885 749486 -116872 0
0 0 0 862 750348 -116010 0
0 0 0 771 751119 -115239 0
0 0 0 744 751863 -114495 0
0 0 0 751 752614 -113744 0
0 0 0 768 753382 -112976 0
0 0 0 814 754196 -112162 0
0 0 0 833 755029 -111329 0
0 0 0 1114 756143 -110215 0
0 0 0 1159 757302 -109056 1
0 0 0 1149 758451 -107907 1
0 0 0 937 759388 -106970 0
0 0 0 821 760209 -106149 0
0 0 0 847 761056 -105302 0
0 0 0 884 761940 -104418 0
0 0 0 927 762867 -103491 0
0 0 0 969 763836 -102522 0
0 0 0 925 764761 -101597 0
0 0 0 940 765701 -100657 0
0 0 0 959 766660 -99698 0
0 0 0 951 767611 -98747 0
0 0 0 918 768529 -97829 0
0 0 0 797 769326 -97032 0
0 0 0 813 770139 -96219 0
0 0 0 1037 771176 -95182 0
0 0 0 967 772143 -94215 0
0 0 0 963 773106 -93252 0
0 0 0 973 774079 -92279 0
0 0 0 981 775060 -91298 0
0 0 0 862 775922 -90436 0
0 0 0 861 776783 -89575 0
0 0 0 915 777698 -88660 0
0 0 0 969 778667 -87691 0
0 0 0 962 779629 -86729 0
0 0 0 916 780545 -85813 0
0 0 0 962 781507 -84851 0
0 0 0 943 782450 -83908 0
0 0 0 903 783353 -83005 0
0 0 0 929 784282 -82076 0
0 0 0 941 785223 -81135 0
0 0 0 890 786113 -80245 0
0 0 0 851 786964 -79394 0
0 0 0 769 787733 -78625 0
0 0 0 715 788448 -77910 0
0 0 0 706 789154 -77204 0
0 0 0 693 789847 -76511 0
0 0 0 689 790536 -75822 0
0 0 0 694 791230 -75128 0
0 0 0 771 792001 -74357 0
0 0 0 739 792740 -73618 0
0 0 0 917 793657 -72701 0
0 0 0 947 794604 -71754 0
0 0 0 921 795525 -70833 0
0 0 0 915 796440 -69918 0
0 0 0 856 797296 -69062 0
0 0 0 864 798160 -68198 0
0 0 0 811 798971 -67387 0
0 0 0 801 799772 -66586 0
0 0 0 823 800595 -65763 0
0 0 0 840 801435 -64923 0
0 0 0 783 802218 -64140 0
0 0 0 822 803040 -63318 0
0 0 0 972 804012 -62346 0
0 0 0 919 804931 -61427 0
0 0 0 956 805887 -60471 0
0 0 0 1067 806954 -59404 0
0 0 0 1118 808072 -58286 0
0 0 0 1005 809077 -57281 0
0 0 0 1016 810093 -56265 0
0 0 0 1007 811100 -55258 0
0 0 0 928 812028 -54330 0
0 0 0 1023 813051 -53307 0
0 0 0 970 814021 -52337 0
0 0 0 927 814948 -51410 0
0 0 0 965 815913 -50445 0
0 0 0 1054 816967 -49391 0
0 0 0 969 817936 -48422 0
0 0 0 976 818912 -47446 0
0 0 0 1005 819917 -46441 0
0 0 0 960 820877 -45481 0
0 0 0 987 821864 -44494 0
0 0 0 999 822863 -43495 0
0 0 0 970 823833 -42525 0
0 0 0 982 824815 -41543 0
0 0 0 999 825814 -40544 0
0 0 0 958 826772 -39586 0
0 0 0 840 827612 -38746 0
0 0 0 795 828407 -37951 0
0 0 0 812 829219 -37139 0
0 0 0 865 830084 -36274 0
0 0 0 930 831014 -35344 0
0 0 0 908 831922 -34436 0
0 0 0 947 832869 -33489 0
0 0 0 996 833865 -32493 0
0 0 0 1008 834873 -31485 0
0 0 0 962 835835 -30523 0
0 0 0 886 836721 -29637 0
0 0 0 884 837605 -28753 0
0 0 0 929 838534 -27824 0
0 0 0 980 839514 -26844 0
0 0 0 987 840501 -25857 0
0 0 0 935 841436 -24922 0
0 0 0 955 842391 -23967 0
0 0 0 1010 843401 -22957 0
0 0 0 860 844261 -22097 0
0 0 0 803 845064 -21294 0
0 0 0 880 845944 -20414 0
0 0 0 928 846872 -19486 0
0 0 0 865 847737 -18621 0
0 0 0 822 848559 -17799 0
0 0 0 804 849363 -16995 0
0 0 0 786 850149 -16209 0
0 0 0 757 850906 -15452 0
0 0 0 731 851637 -14721 0
0 0 0 716 852353 -14005 0
0 0 0 696 853049 -13309 0
0 0 0 682 853731 -12627 0
0 0 0 670 854401 -11957 1
0 0 0 661 855062 -11296 1
0 0 0 661 855723 -10635 1
0 0 0 743 856466 -9892 0
0 0 0 812 857278 -9080 0
0 0 0 753 858031 -8327 0
0 0 0 800 858831 -7527 0
0 0 0 835 859666 -6692 0
0 0 0 898 860564 -5794 0
0 0 0 964 861528 -4830 0
0 0 0 1010 862538 -3820 0
0 0 0 948 863486 -2872 0
41 1 S102 906 864392 -1966 0
41 1 S102 888 865280 -1078 0
41 1 S102 876 866156 -202 0
41 2 S102 892 867048 690 0
41 2 S102 922 867970 1612 0
41 2 S102 920 868890 2532 0
41 2 S102 907 869797 3439 0
41 2 S102 795 870592 4234 0
41 2 S102 911 871503 5145 0
41 2 S102 1004 872507 6149 0
0 0 0 942 873449 -7200 0
0 0 0 927 874376 -6273 0
0 0 0 909 875285 -5364 0
0 0 0 897 876182 -4467 0
0 0 0 876 877058 -3591 0
0 0 0 870 877928 -2721 0
42 1 S112 884 878812 -1837 0
42 1 S112 888 879700 -949 0
42 1 S112 915 880615 -34 0
42 2 S112 930 881545 896 0
42 2 S112 968 882513 1864 0
42 2 S112 1040 883553 2904 0
42 2 S112 1121 884674 4025 0
42 2 S112 1071 885745 5096 0
42 2 S112 999 886744 6095 0
0 0 0 1065 887809 -10181 0
0 0 0 1004 888813 -9177 0
0 0 0 1023 889836 -8154 0
0 0 0 1048 890884 -7106 0
0 0 0 1037 891921 -6069 0
0 0 0 1020 892941 -5049 0
0 0 0 1069 894010 -3980 0
0 0 0 1071 895081 -2909 0
43 1 S116 1050 896131 -1859 0
43 1 S116 1048 897179 -811 0
43 2 S116 1107 898286 296 0
43 2 S116 1062 899348 1358 0
43 2 S116 911 900259 2269 0
43 2 S116 784 901043 3053 0
43 2 S116 879 901922 3932 0
43 2 S116 961 902883 4893 0
43 2 S116 979 903862 5872 0
43 2 S116 972 904834 6844 0
0 0 0 910 905744 -7183 0
0 0 0 865 906609 -6318 0
0 0 0 849 907458 -5469 0
0 0 0 869 908327 -4600 0
0 0 0 865 909192 -3735 0
0 0 0 856 910048 -2879 0
0 0 0 855 910903 -2024 0
44 1 S102 886 911789 -1138 0
44 1 S102 916 912705 -222 0
44 2 S102 936 913641 714 0
44 2 S102 949 914590 1663 0
44 2 S102 879 915469 2542 0
44 2 S102 846 916315 3388 0
44 2 S102 885 917200 4273 0
44 2 S102 927 918127 5200 0
44 2 S102 980 919107 6180 0
0 0 0 933 920040 -9233 0
0 0 0 861 920901 -8372 0
0 0 0 913 921814 -7459 0
0 0 0 921 922735 -6538 0
0 0 0 909 923644 -5629 0
0 0 0 885 924529 -4744 0
0 0 0 907 925436 -3837 0
0 0 0 906 926342 -2931 0
0 0 0 860 927202 -2071 0
45 1 S116 842 928044 -1229 0
45 1 S116 865 928909 -364 0
45 2 S116 944 929853 580 0
45 2 S116 952 930805 1532 0
45 2 S116 945 931750 2477 0
45 2 S116 899 932649 3376 0
45 2 S116 909 933558 4285 0
45 2 S116 919 934477 5204 0
45 2 S116 829 935306 6033 0
45 2 S116 775 936081 6808 0
0 0 0 797 936878 -11377 0
0 0 0 961 937839 -10416 0
0 0 0 1042 938881 -9374 0
0 0 0 969 939850 -8405 0
0 0 0 912 940762 -7493 0
0 0 0 936 941698 -6557 0
0 0 0 1001 942699 -5556 0
0 0 0 888 943587 -4668 0
0 0 0 798 944385 -3870 0
0 0 0 811 945196 -3059 0
0 0 0 888 946084 -2171 0
46 1 S102 1100 947184 -1071 0
46 2 S102 1085 948269 14 0
46 2 S102 1063 949332 1077 0
46 2 S102 1019 950351 2096 0
46 2 S102 994 951345 3090 0
46 2 S102 949 952294 4039 0
46 2 S102 915 953209 4954 0
46 2 S102 898 954107 5852 0
46 2 S102 896 955003 6748 0
0 0 0 902 955905 -8763 0
0 0 0 908 956813 -7855 0
0 0 0 959 957772 -6896 0
0 0 0 948 958720 -5948 0
0 0 0 931 959651 -5017 0
0 0 0 824 960475 -4193 0
0 0 0 797 961272 -3396 0
0 0 0 783 962055 -2613 0
47 1 S112 768 962823 -1845 0
47 1 S112 740 963563 -1105 0
47 1 S112 781 964344 -324 0
47 2 S112 869 965213 545 0
47 2 S112 956 966169 1501 0
47 2 S112 973 967142 2474 0
47 2 S112 972 968114 3446 0
47 2 S112 973 969087 4419 0
47 2 S112 880 969967 5299 0
47 2 S112 852 970819 6151 0
47 2 S112 875 971694 7026 0
0 0 0 924 972618 -10667 0
0 0 0 915 973533 -9752 0
0 0 0 859 974392 -8893 0
0 0 0 856 975248 -8037 0
0 0 0 912 976160 -7125 0
0 0 0 910 977070 -6215 0
0 0 0 871 977941 -5344 0
0 0 0 888 978829 -4456 0
0 0 0 1040 979869 -3416 0
0 0 0 1025 980894 -2391 0
48 1 S116 963 981857 -1428 0
48 1 S116 994 982851 -434 0
48 2 S116 1066 983917 632 0
48 2 S116 1042 984959 1674 0
48 2 S116 922 985881 2596 0
48 2 S116 915 986796 3511 0
48 2 S116 964 987760 4475 0
48 2 S116 1011 988771 5486 0
48 2 S116 1019 989790 6505 0
0 0 0 985 990775 -7298 0
0 0 0 1022 991797 -6276 0
0 0 0 1052 992849 -5224 0
0 0 0 1025 993874 -4199 0
0 0 0 960 994834 -3239 0
0 0 0 979 995813 -2260 0
49 1 S112 970 996783 -1290 0
49 1 S112 921 997704 -369 0
49 2 S112 973 998677 604 0
49 2 S112 1010 999687 1614 0
49 2 S112 970 1000657 2584 0
49 2 S112 897 1001554 3481 0
49 2 S112 931 1002485 4412 0
49 2 S112 974 1003459 5386 0
49 2 S112 1000 1004459 6386 0
0 0 0 1004 1005463 -11245 0
0 0 0 956 1006419 -10289 0
0 0 0 975 1007394 -9314 0
0 0 0 979 1008373 -8335 0
0 0 0 957 1009330 -7378 0
0 0 0 929 1010259 -6449 0
0 0 0 939 1011198 -5510 0
0 0 0 915 1012113 -4595 0
0 0 0 916 1013029 -3679 0
0 0 0 916 1013945 -2763 0
50 1 S106 928 1014873 -1835 0
50 1 S106 938 1015811 -897 0
50 2 S106 948 1016759 51 0
50 2 S106 938 1017697 989 0
50 2 S106 937 1018634 1926 0
50 2 S106 922 1019556 2848 0
50 2 S106 920 1020476 3768 0
50 2 S106 920 1021396 4688 0
50 2 S106 908 1022304 5596 0
50 2 S106 910 1023214 6506 0
0 0 0 897 1024111 -7484 0
0 0 0 910 1025021 -6574 0
0 0 0 946 1025967 -5628 0
0 0 0 986 1026953 -4642 0
0 0 0 979 1027932 -3663 0
0 0 0 963 1028895 -2700 0
51 1 S112 893 1029788 -1807 0
51 1 S112 887 1030675 -920 0
51 1 S112 901 1031576 -19 0
51 2 S112 939 1032515 920 0
51 2 S112 934 1033449 1854 0
51 2 S112 874 1034323 2728 0
51 2 S112 916 1035239 3644 0
51 2 S112 966 1036205 4610 0
51 2 S112 1012 1037217 5622 0
51 2 S112 973 1038190 6595 0
0 0 0 945 1039135 -6867 0
0 0 0 938 1040073 -5929 0
0 0 0 937 1041010 -4992 0
0 0 0 920 1041930 -4072 0
0 0 0 921 1042851 -3151 0
0 0 0 932 1043783 -2219 0
52 1 S116 928 1044711 -1291 0
52 1 S116 937 1045648 -354 0
52 2 S116 916 1046564 562 0
52 2 S116 909 1047473 1471 0
52 2 S116 895 1048368 2366 0
52 2 S116 836 1049204 3202 0
52 2 S116 814 1050018 4016 0
52 2 S116 856 1050874 4872 0
52 2 S116 957 1051831 5829 0
52 2 S116 936 1052767 6765 0
0 0 0 856 1053623 -8758 0
0 0 0 827 1054450 -7931 0
0 0 0 848 1055298 -7083 0
0 0 0 857 1056155 -6226 0
0 0 0 840 1056995 -5386 0
0 0 0 827 1057822 -4559 0
0 0 0 812 1058634 -3747 0
0 0 0 805 1059439 -2942 0
0 0 0 826 1060265 -2116 0
53 1 S106 829 1061094 -1287 0
53 1 S106 844 1061938 -443 0
53 2 S106 876 1062814 433 0
53 2 S106 877 1063691 1310 0
53 2 S106 852 1064543 2162 0
53 2 S106 861 1065404 3023 0
53 2 S106 869 1066273 3892 0
53 2 S106 897 1067170 4789 0
53 2 S106 917 1068087 5706 0
53 2 S106 926 1069013 6632 0
0 0 0 919 1069932 -6010 0
0 0 0 908 1070840 -5102 0
0 0 0 899 1071739 -4203 0
0 0 0 854 1072593 -3349 0
0 0 0 806 1073399 -2543 0
54 1 S102 764 1074163 -1779 0
54 1 S102 747 1074910 -1032 0
54 1 S102 726 1075636 -306 0
54 2 S102 745 1076381 439 0
54 2 S102 846 1077227 1285 0
54 2 S102 945 1078172 2230 0
54 2 S102 870 1079042 3100 0
54 2 S102 889 1079931 3989 0
54 2 S102 903 1080834 4892 0
54 2 S102 919 1081753 5811 0
54 2 S102 951 1082704 6762 0
0 0 0 949 1083653 -11255 0
0 0 0 927 1084580 -10328 0
0 0 0 912 1085492 -9416 0
0 0 0 896 1086388 -8520 0
0 0 0 879 1087267 -7641 0
0 0 0 878 1088145 -6763 0
0 0 0 888 1089033 -5875 0
0 0 0 898 1089931 -4977 0
0 0 0 931 1090862 -4046 0
0 0 0 941 1091803 -3105 0
0 0 0 967 1092770 -2138 0
55 1 S106 987 1093757 -1151 0
55 1 S106 987 1094744 -164 0
55 2 S106 938 1095682 774 0
55 2 S106 899 1096581 1673 0
55 2 S106 883 1097464 2556 0
55 2 S106 885 1098349 3441 0
55 2 S106 885 1099234 4326 0
55 2 S106 894 1100128 5220 0
55 2 S106 912 1101040 6132 0
0 0 0 922 1101962 -7502 0
0 0 0 925 1102887 -6577 0
0 0 0 932 1103819 -5645 0
0 0 0 920 1104739 -4725 0
0 0 0 923 1105662 -3802 0
0 0 0 949 1106611 -2853 0
56 1 S116 896 1107507 -1957 0
56 1 S116 876 1108383 -1081 0
56 1 S116 882 1109265 -199 0
56 2 S116 898 1110163 699 0
56 2 S116 939 1111102 1638 0
56 2 S116 902 1112004 2540 0
56 2 S116 815 1112819 3355 0
56 2 S116 814 1113633 4169 0
56 2 S116 829 1114462 4998 0
56 2 S116 790 1115252 5788 0
56 2 S116 775 1116027 6563 0
0 0 0 752 1116779 -7622 0
0 0 0 746 1117525 -6876 0
0 0 0 788 1118313 -6088 0
0 0 0 864 1119177 -5224 0
0 0 0 852 1120029 -4372 0
0 0 0 837 1120866 -3535 0
0 0 0 814 1121680 -2721 0
57 1 S106 807 1122487 -1914 0
57 1 S106 801 1123288 -1113 0
57 1 S106 790 1124078 -323 0
57 2 S106 777 1124855 454 0
57 2 S106 763 1125618 1217 0
57 2 S106 764 1126382 1981 0
57 2 S106 770 1127152 2751 0
57 2 S106 776 1127928 3527 0
57 2 S106 794 1128722 4321 0
57 2 S106 809 1129531 5130 0
57 2 S106 786 1130317 5916 0
57 2 S106 809 1131126 6725 0
0 0 0 833 1131959 -8871 0
0 0 0 883 1132842 -7988 0
0 0 0 1004 1133846 -6984 0
0 0 0 1075 1134921 -5909 0
0 0 0 1111 1136032 -4798 0
0 0 0 910 1136942 -3888 0
0 0 0 858 1137800 -3030 0
0 0 0 905 1138705 -2125 0
58 1 S102 998 1139703 -1127 0
58 1 S102 1031 1140734 -96 0
58 2 S102 1007 1141741 911 0
58 2 S102 969 1142710 1880 0
58 2 S102 851 1143561 2731 0
58 2 S102 803 1144364 3534 0
58 2 S102 814 1145178 4348 0
58 2 S102 997 1146175 5345 0
58 2 S102 1029 1147204 6374 0
0 0 0 1061 1148265 -7021 0
0 0 0 1056 1149321 -5965 0
0 0 0 1015 1150336 -4950 0
0 0 0 969 1151305 -3981 0
0 0 0 891 1152196 -3090 0
0 0 0 887 1153083 -2203 0
59 1 S112 936 1154019 -1267 0
59 1 S112 1041 1155060 -226 0
59 2 S112 1093 1156153 867 0
59 2 S112 1084 1157237 1951 0
59 2 S112 1144 1158381 3095 1
59 2 S112 1174 1159555 4269 1
59 2 S112 1081 1160636 5350 0
59 2 S112 1025 1161661 6375 0
0 0 0 1038 1162699 -10127 0
0 0 0 1116 1163815 -9011 0
0 0 0 1099 1164914 -7912 0
0 0 0 1054 1165968 -6858 0
0 0 0 1041 1167009 -5817 0
0 0 0 958 1167967 -4859 0
0 0 0 883 1168850 -3976 0
0 0 0 840 1169690 -3136 0
0 0 0 877 1170567 -2259 0
60 1 S102 1066 1171633 -1193 0
60 1 S102 1070 1172703 -123 0
60 2 S102 1026 1173729 903 0
60 2 S102 970 1174699 1873 0
60 2 S102 927 1175626 2800 0
60 2 S102 896 1176522 3696 0
60 2 S102 812 1177334 4508 0
60 2 S102 802 1178136 5310 0
60 2 S102 889 1179025 6199 0
0 0 0 959 1179984 -10913 0
0 0 0 914 1180898 -9999 0
0 0 0 915 1181813 -9084 0
0 0 0 940 1182753 -8144 0
0 0 0 912 1183665 -7232 0
0 0 0 879 1184544 -6353 0
0 0 0 821 1185365 -5532 0
0 0 0 774 1186139 -4758 0
0 0 0 854 1186993 -3904 0
0 0 0 1026 1188019 -2878 0
61 1 S106 1041 1189060 -1837 0
61 1 S106 1061 1190121 -776 0
61 2 S106 1077 1191198 301 0
61 2 S106 952 1192150 1253 0
61 2 S106 993 1193143 2246 0
61 2 S106 986 1194129 3232 0
61 2 S106 944 1195073 4176 0
61 2 S106 938 1196011 5114 0
61 2 S106 907 1196918 6021 0
61 2 S106 884 1197802 6905 0
0 0 0 852 1198654 -6964 0
0 0 0 848 1199502 -6116 0
0 0 0 847 1200349 -5269 0
0 0 0 840 1201189 -4429 0
0 0 0 848 1202037 -3581 0
0 0 0 836 1202873 -2745 0
62 1 S112 822 1203695 -1923 0
62 1 S112 841 1204536 -1082 0
62 1 S112 863 1205399 -219 0
62 2 S112 904 1206303 685 0
62 2 S112 946 1207249 1631 0
62 2 S112 957 1208206 2588 0
62 2 S112 961 1209167 3549 0
62 2 S112 871 1210038 4420 0
62 2 S112 842 1210880 5262 0
62 2 S112 783 1211663 6045 0
62 2 S112 757 1212420 6802 0
0 0 0 802 1213222 -11097 0
0 0 0 855 1214077 -10242 0
0 0 0 856 1214933 -9386 0
0 0 0 837 1215770 -8549 0
0 0 0 862 1216632 -7687 0
0 0 0 860 1217492 -6827 0
0 0 0 827 1218319 -6000 0
0 0 0 838 1219157 -5162 0
0 0 0 844 1220001 -4318 0
0 0 0 847 1220848 -3471 0
0 0 0 862 1221710 -2609 0
63 1 S102 882 1222592 -1727 0
63 1 S102 909 1223501 -818 0
63 2 S102 942 1224443 124 0
63 2 S102 969 1225412 1093 0
63 2 S102 993 1226405 2086 0
63 2 S102 974 1227379 3060 0
63 2 S102 902 1228281 3962 0
63 2 S102 903 1229184 4865 0
63 2 S102 940 1230124 5805 0
63 2 S102 1001 1231125 6806 0
0 0 0 981 1232106 -8526 0
0 0 0 930 1233036 -7596 0
0 0 0 944 1233980 -6652 0
0 0 0 927 1234907 -5725 0
0 0 0 914 1235821 -4811 0
0 0 0 907 1236728 -3904 0
0 0 0 942 1237670 -2962 0
0 0 0 957 1238627 -2005 0
64 1 S112 945 1239572 -1060 0
64 1 S112 971 1240543 -89 0
64 2 S112 996 1241539 907 0
64 2 S112 999 1242538 1906 0
64 2 S112 946 1243484 2852 0
64 2 S112 918 1244402 3770 0
64 2 S112 943 1245345 4713 0
64 2 S112 943 1246288 5656 0
64 2 S112 932 1247220 6588 0
0 0 0 898 1248118 -7667 0
0 0 0 939 1249057 -6728 0
0 0 0 957 1250014 -5771 0
0 0 0 960 1250974 -4811 0
0 0 0 900 1251874 -3911 0
0 0 0 894 1252768 -3017 0
0 0 0 905 1253673 -2112 0
65 1 S106 906 1254579 -1206 0
65 1 S106 883 1255462 -323 0
65 2 S106 867 1256329 544 0
65 2 S106 905 1257234 1449 0
65 2 S106 944 1258178 2393 0
65 2 S106 938 1259116 3331 0
65 2 S106 963 1260079 4294 0
65 2 S106 930 1261009 5224 0
65 2 S106 883 1261892 6107 0
65 2 S106 798 1262690 6905 0
0 0 0 769 1263459 -7180 0
0 0 0 792 1264251 -6388 0
0 0 0 865 1265116 -5523 0
0 0 0 891 1266007 -4632 0
0 0 0 844 1266851 -3788 0
0 0 0 811 1267662 -2977 0
0 0 0 806 1268468 -2171 0
66 1 S116 782 1269250 -1389 0
66 1 S116 772 1270022 -617 0
66 2 S116 788 1270810 171 0
66 2 S116 815 1271625 986 0
66 2 S116 869 1272494 1855 0
66 2 S116 854 1273348 2709 0
66 2 S116 838 1274186 3547 0
66 2 S116 858 1275044 4405 0
66 2 S116 877 1275921 5282 0
66 2 S116 914 1276835 6196 0
0 0 0 914 1277749 -10645 0
0 0 0 905 1278654 -9740 0
0 0 0 888 1279542 -8852 0
0 0 0 877 1280419 -7975 0
0 0 0 880 1281299 -7095 0
0 0 0 869 1282168 -6226 0
0 0 0 843 1283011 -5383 0
0 0 0 756 1283767 -4627 0
0 0 0 771 1284538 -3856 0
0 0 0 760 1285298 -3096 0
0 0 0 773 1286071 -2323 0
67 1 S102 836 1286907 -1487 0
67 1 S102 940 1287847 -547 0
67 2 S102 894 1288741 347 0
67 2 S102 922 1289663 1269 0
67 2 S102 964 1290627 2233 0
67 2 S102 947 1291574 3180 0
67 2 S102 953 1292527 4133 0
67 2 S102 852 1293379 4985 0
67 2 S102 863 1294242 5848 0
67 2 S102 945 1295187 6793 0
0 0 0 1001 1296188 -6779 0
0 0 0 986 1297174 -5793 0
0 0 0 970 1298144 -4823 0
0 0 0 908 1299052 -3915 0
0 0 0 881 1299933 -3034 0
0 0 0 848 1300781 -2186 0
68 1 S106 836 1301617 -1350 0
68 1 S106 783 1302400 -567 0
68 2 S106 750 1303150 183 0
68 2 S106 734 1303884 917 0
68 2 S106 712 1304596 1629 0
68 2 S106 732 1305328 2361 0
68 2 S106 789 1306117 3150 0
68 2 S106 856 1306973 4006 0
68 2 S106 878 1307851 4884 0
68 2 S106 850 1308701 5734 0
68 2 S106 855 1309556 6589 0
0 0 0 862 1310418 -11846 0
0 0 0 876 1311294 -10970 0
0 0 0 873 1312167 -10097 0
0 0 0 888 1313055 -9209 0
0 0 0 885 1313940 -8324 0
0 0 0 903 1314843 -7421 0
0 0 0 929 1315772 -6492 0
0 0 0 953 1316725 -5539 0
0 0 0 968 1317693 -4571 0
0 0 0 998 1318691 -3573 0
0 0 0 1012 1319703 -2561 0
69 1 S102 1012 1320715 -1549 0
69 1 S102 1065 1321780 -484 0
69 2 S102 1043 1322823 559 0
69 2 S102 1031 1323854 1590 0
69 2 S102 880 1324734 2470 0
69 2 S102 847 1325581 3317 0
69 2 S102 874 1326455 4191 0
69 2 S102 999 1327454 5190 0
69 2 S102 1071 1328525 6261 0
0 0 0 991 1329516 -9260 0
0 0 0 965 1330481 -8295 0
0 0 0 980 1331461 -7315 0
0 0 0 978 1332439 -6337 0
0 0 0 930 1333369 -5407 0
0 0 0 910 1334279 -4497 0
0 0 0 934 1335213 -3563 0
0 0 0 954 1336167 -2609 0
70 1 S112 964 1337131 -1645 0
70 1 S112 955 1338086 -690 0
70 2 S112 966 1339052 276 0
70 2 S112 954 1340006 1230 0
70 2 S112 940 1340946 2170 0
70 2 S112 944 1341890 3114 0
70 2 S112 960 1342850 4074 0
70 2 S112 977 1343827 5051 0
70 2 S112 944 1344771 5995 0
70 2 S112 959 1345730 6954 0
0 0 0 1007 1346737 -10706 0
0 0 0 958 1347695 -9748 0
0 0 0 927 1348622 -8821 0
0 0 0 929 1349551 -7892 0
0 0 0 925 1350476 -6967 0
0 0 0 897 1351373 -6070 0
0 0 0 905 1352278 -5165 0
0 0 0 921 1353199 -4244 0
0 0 0 922 1354121 -3322 0
0 0 0 901 1355022 -2421 0
71 1 S116 914 1355936 -1507 0
71 1 S116 931 1356867 -576 0
71 2 S116 950 1357817 374 0
71 2 S116 932 1358749 1306 0
71 2 S116 887 1359636 2193 0
71 2 S116 824 1360460 3017 0
71 2 S116 869 1361329 3886 0
71 2 S116 940 1362269 4826 0
71 2 S116 963 1363232 5789 0
71 2 S116 904 1364136 6693 0
0 0 0 828 1364964 -8991 0
0 0 0 782 1365746 -8209 0
0 0 0 802 1366548 -7407 0
0 0 0 875 1367423 -6532 0
0 0 0 856 1368279 -5676 0
0 0 0 801 1369080 -4875 0
0 0 0 790 1369870 -4085 0
0 0 0 770 1370640 -3315 0
0 0 0 759 1371399 -2556 0
72 1 S102 764 1372163 -1792 0
72 1 S102 797 1372960 -995 0
72 1 S102 783 1373743 -212 0
72 2 S102 756 1374499 544 0
72 2 S102 731 1375230 1275 0
72 2 S102 744 1375974 2019 0
72 2 S102 766 1376740 2785 0
72 2 S102 791 1377531 3576 0
72 2 S102 819 1378350 4395 0
72 2 S102 833 1379183 5228 0
72 2 S102 805 1379988 6033 0
72 2 S102 801 1380789 6834 0
0 0 0 815 1381604 -6244 0
0 0 0 831 1382435 -5413 0
0 0 0 852 1383287 -4561 0
0 0 0 879 1384166 -3682 0
0 0 0 892 1385058 -2790 0
73 1 S116 905 1385963 -1885 0
73 1 S116 898 1386861 -987 0
73 1 S116 893 1387754 -94 0
73 2 S116 888 1388642 794 0
73 2 S116 885 1389527 1679 0
73 2 S116 892 1390419 2571 0
73 2 S116 915 1391334 3486 0
73 2 S116 923 1392257 4409 0
73 2 S116 971 1393228 5380 0
73 2 S116 1002 1394230 6382 0
0 0 0 1017 1395247 -9097 0
0 0 0 1016 1396263 -8081 0
0 0 0 983 1397246 -7098 0
0 0 0 931 1398177 -6167 0
0 0 0 910 1399087 -5257 0
0 0 0 883 1399970 -4374 0
0 0 0 860 1400830 -3514 0
0 0 0 869 1401699 -2645 0
74 1 S106 899 1402598 -1746 0
74 1 S106 1012 1403610 -734 0
74 2 S106 916 1404526 182 0
74 2 S106 974 1405500 1156 0
74 2 S106 1019 1406519 2175 0
74 2 S106 997 1407516 3172 0
74 2 S106 1001 1408517 4173 0
74 2 S106 874 1409391 5047 0
74 2 S106 843 1410234 5890 0
74 2 S106 886 1411120 6776 0
0 0 0 921 1412041 -7074 0
0 0 0 1005 1413046 -6069 0
0 0 0 1038 1414084 -5031 0
0 0 0 1006 1415090 -4025 0
0 0 0 961 1416051 -3064 0
0 0 0 942 1416993 -2122 0
75 1 S112 905 1417898 -1217 0
75 1 S112 896 1418794 -321 0
75 2 S112 798 1419592 477 0
75 2 S112 780 1420372 1257 0
75 2 S112 824 1421196 2081 0
75 2 S112 819 1422015 2900 0
75 2 S112 831 1422846 3731 0
75 2 S112 858 1423704 4589 0
75 2 S112 1006 1424710 5595 0
75 2 S112 1049 1425759 6644 0
0 0 0 1025 1426784 -6887 0
0 0 0 1046 1427830 -5841 0
0 0 0 1033 1428863 -4808 0
0 0 0 978 1429841 -3830 0
0 0 0 910 1430751 -2920 0
0 0 0 863 1431614 -2057 0
76 1 S116 818 1432432 -1239 0
76 1 S116 800 1433232 -439 0
76 2 S116 839 1434071 400 0
76 2 S116 1044 1435115 1444 0
76 2 S116 927 1436042 2371 0
76 2 S116 965 1437007 3336 0
76 2 S116 945 1437952 4281 0
76 2 S116 987 1438939 5268 0
76 2 S116 1004 1439943 6272 0
0 0 0 965 1440908 -7186 0
0 0 0 918 1441826 -6268 0
0 0 0 886 1442712 -5382 0
0 0 0 864 1443576 -4518 0
0 0 0 851 1444427 -3667 0
0 0 0 853 1445280 -2814 0
77 1 S106 861 1446141 -1953 0
77 1 S106 883 1447024 -1070 0
77 1 S106 927 1447951 -143 0
77 2 S106 927 1448878 784 0
77 2 S106 963 1449841 1747 0
77 2 S106 987 1450828 2734 0
77 2 S106 995 1451823 3729 0
77 2 S106 1013 1452836 4742 0
77 2 S106 1003 1453839 5745 0
77 2 S106 968 1454807 6713 0
0 0 0 919 1455726 -8051 0
0 0 0 938 1456664 -7113 0
0 0 0 949 1457613 -6164 0
0 0 0 923 1458536 -5241 0
0 0 0 884 1459420 -4357 0
0 0 0 813 1460233 -3544 0
0 0 0 797 1461030 -2747 0
78 1 S112 825 1461855 -1922 0
78 1 S112 889 1462744 -1033 0
78 1 S112 961 1463705 -72 0
78 2 S112 1004 1464709 932 0
78 2 S112 922 1465631 1854 0
78 2 S112 851 1466482 2705 0
78 2 S112 786 1467268 3491 0
78 2 S112 834 1468102 4325 0
78 2 S112 882 1468984 5207 0
78 2 S112 862 1469846 6069 0
78 2 S112 839 1470685 6908 0
0 0 0 836 1471521 -11603 0
0 0 0 915 1472436 -10688 0
0 0 0 1005 1473441 -9683 0
0 0 0 916 1474357 -8767 0
0 0 0 927 1475284 -7840 0
0 0 0 922 1476206 -6918 0
0 0 0 924 1477130 -5994 0
0 0 0 931 1478061 -5063 0
0 0 0 940 1479001 -4123 0
0 0 0 972 1479973 -3151 0
0 0 0 1012 1480985 -2139 0
79 1 S102 1019 1482004 -1120 0
79 1 S102 1052 1483056 -68 0
79 2 S102 1054 1484110 986 0
79 2 S102 964 1485074 1950 0
79 2 S102 941 1486015 2891 0
79 2 S102 943 1486958 3834 0
79 2 S102 973 1487931 4807 0
79 2 S102 936 1488867 5743 0
79 2 S102 919 1489786 6662 0
0 0 0 948 1490734 -9002 0
0 0 0 965 1491699 -8037 0
0 0 0 928 1492627 -7109 0
0 0 0 915 1493542 -6194 0
0 0 0 880 1494422 -5314 0
0 0 0 875 1495297 -4439 0
0 0 0 905 1496202 -3534 0
0 0 0 943 1497145 -2591 0
80 1 S116 1019 1498164 -1572 0
80 1 S116 1028 1499192 -544 0
80 2 S116 1110 1500302 566 0
80 2 S116 1062 1501364 1628 0
80 2 S116 970 1502334 2598 0
80 2 S116 868 1503202 3466 0
80 2 S116 886 1504088 4352 0
80 2 S116 905 1504993 5257 0
80 2 S116 910 1505903 6167 0
