T_0188
BeatCount Mean SD BeatCountNoOutliers MeanNoOutliers SDNoOutliers
1807 857,194798007748 75,56051688265 1767 861,758913412564 67,7968116211876

Trial TrialStatus Trialtype IBI AbsPosition RelPosition Outlier
0 0 0 916 1017 -15088 0
0 0 0 814 1831 -14274 0
0 0 0 755 2586 -13519 0
0 0 0 729 3315 -12790 0
0 0 0 714 4029 -12076 0
0 0 0 692 4721 -11384 0
0 0 0 711 5432 -10673 0
0 0 0 748 6180 -9925 0
0 0 0 862 7042 -9063 0
0 0 0 953 7995 -8110 0
0 0 0 964 8959 -7146 0
0 0 0 934 9893 -6212 0
0 0 0 920 10813 -5292 0
0 0 0 892 11705 -4400 0
0 0 0 879 12584 -3521 0
0 0 0 886 13470 -2635 0
1 1 S112 934 14404 -1701 0
1 1 S112 950 15354 -751 0
1 2 S112 975 16329 224 0
1 2 S112 977 17306 1201 0
1 2 S112 928 18234 2129 0
1 2 S112 925 19159 3054 0
1 2 S112 939 20098 3993 0
1 2 S112 902 21000 4895 0
1 2 S112 819 21819 5714 0
1 2 S112 820 22639 6534 0
0 0 0 911 23550 -11007 0
0 0 0 1045 24595 -9962 0
0 0 0 926 25521 -9036 0
0 0 0 941 26462 -8095 0
0 0 0 956 27418 -7139 0
0 0 0 932 28350 -6207 0
0 0 0 806 29156 -5401 0
0 0 0 778 29934 -4623 0
0 0 0 771 30705 -3852 0
0 0 0 792 31497 -3060 0
0 0 0 899 32396 -2161 0
2 1 S102 892 33288 -1269 0
2 1 S102 855 34143 -414 0
2 2 S102 935 35078 521 0
2 2 S102 1034 36112 1555 0
2 2 S102 999 37111 2554 0
2 2 S102 879 37990 3433 0
2 2 S102 818 38808 4251 0
2 2 S102 813 39621 5064 0
2 2 S102 833 40454 5897 0
2 2 S102 884 41338 6781 0
0 0 0 857 42195 -8261 0
0 0 0 834 43029 -7427 0
0 0 0 885 43914 -6542 0
0 0 0 898 44812 -5644 0
0 0 0 897 45709 -4747 0
0 0 0 811 46520 -3936 0
0 0 0 799 47319 -3137 0
0 0 0 828 48147 -2309 0
3 1 S116 895 49042 -1414 0
3 1 S116 957 49999 -457 0
3 2 S116 876 50875 419 0
3 2 S116 886 51761 1305 0
3 2 S116 908 52669 2213 0
3 2 S116 921 53590 3134 0
3 2 S116 834 54424 3968 0
3 2 S116 817 55241 4785 0
3 2 S116 810 56051 5595 0
3 2 S116 841 56892 6436 0
0 0 0 870 57762 -11013 0
0 0 0 841 58603 -10172 0
0 0 0 741 59344 -9431 0
0 0 0 772 60116 -8659 0
0 0 0 812 60928 -7847 0
0 0 0 890 61818 -6957 0
0 0 0 922 62740 -6035 0
0 0 0 888 63628 -5147 0
0 0 0 816 64444 -4331 0
0 0 0 810 65254 -3521 0
0 0 0 804 66058 -2717 0
4 1 S106 804 66862 -1913 0
4 1 S106 807 67669 -1106 0
4 1 S106 779 68448 -327 0
4 2 S106 797 69245 470 0
4 2 S106 835 70080 1305 0
4 2 S106 845 70925 2150 0
4 2 S106 863 71788 3013 0
4 2 S106 892 72680 3905 0
4 2 S106 836 73516 4741 0
4 2 S106 804 74320 5545 0
4 2 S106 821 75141 6366 0
0 0 0 870 76011 -8961 0
0 0 0 913 76924 -8048 0
0 0 0 862 77786 -7186 0
0 0 0 948 78734 -6238 0
0 0 0 1003 79737 -5235 0
0 0 0 928 80665 -4307 0
0 0 0 937 81602 -3370 0
0 0 0 937 82539 -2433 0
5 1 S116 873 83412 -1560 0
5 1 S116 825 84237 -735 0
5 2 S116 842 85079 107 0
5 2 S116 873 85952 980 0
5 2 S116 860 86812 1840 0
5 2 S116 781 87593 2621 0
5 2 S116 789 88382 3410 0
5 2 S116 837 89219 4247 0
5 2 S116 929 90148 5176 0
5 2 S116 976 91124 6152 0
0 0 0 896 92020 -10161 0
0 0 0 879 92899 -9282 0
0 0 0 901 93800 -8381 0
0 0 0 928 94728 -7453 0
0 0 0 887 95615 -6566 0
0 0 0 890 96505 -5676 0
0 0 0 929 97434 -4747 0
0 0 0 950 98384 -3797 0
0 0 0 932 99316 -2865 0
6 1 S106 873 100189 -1992 0
6 1 S106 870 101059 -1122 0
6 1 S106 873 101932 -249 0
6 2 S106 882 102814 633 0
6 2 S106 854 103668 1487 0
6 2 S106 855 104523 2342 0
6 2 S106 844 105367 3186 0
6 2 S106 902 106269 4088 0
6 2 S106 947 107216 5035 0
6 2 S106 915 108131 5950 0
6 2 S106 857 108988 6807 0
0 0 0 884 109872 -10760 0
0 0 0 908 110780 -9852 0
0 0 0 934 111714 -8918 0
0 0 0 856 112570 -8062 0
0 0 0 903 113473 -7159 0
0 0 0 971 114444 -6188 0
0 0 0 946 115390 -5242 0
0 0 0 849 116239 -4393 0
0 0 0 874 117113 -3519 0
0 0 0 901 118014 -2618 0
7 1 S102 910 118924 -1708 0
7 1 S102 847 119771 -861 0
7 2 S102 921 120692 60 0
7 2 S102 941 121633 1001 0
7 2 S102 915 122548 1916 0
7 2 S102 835 123383 2751 0
7 2 S102 854 124237 3605 0
7 2 S102 900 125137 4505 0
7 2 S102 955 126092 5460 0
7 2 S102 969 127061 6429 0
0 0 0 890 127951 -8365 0
0 0 0 908 128859 -7457 0
0 0 0 921 129780 -6536 0
0 0 0 888 130668 -5648 0
0 0 0 844 131512 -4804 0
0 0 0 866 132378 -3938 0
0 0 0 898 133276 -3040 0
0 0 0 924 134200 -2116 0
8 1 S112 870 135070 -1246 0
8 1 S112 848 135918 -398 0
8 2 S112 871 136789 473 0
8 2 S112 910 137699 1383 0
8 2 S112 902 138601 2285 0
8 2 S112 841 139442 3126 0
8 2 S112 862 140304 3988 0
8 2 S112 894 141198 4882 0
8 2 S112 908 142106 5790 0
8 2 S112 868 142974 6658 0
0 0 0 870 143844 -6845 0
0 0 0 885 144729 -5960 0
0 0 0 928 145657 -5032 0
0 0 0 834 146491 -4198 0
0 0 0 850 147341 -3348 0
0 0 0 896 148237 -2452 0
9 1 S116 948 149185 -1504 0
9 1 S116 929 150114 -575 0
9 2 S116 902 151016 327 0
9 2 S116 899 151915 1226 0
9 2 S116 918 152833 2144 0
9 2 S116 915 153748 3059 0
9 2 S116 903 154651 3962 0
9 2 S116 943 155594 4905 0
9 2 S116 948 156542 5853 0
9 2 S116 946 157488 6799 0
0 0 0 882 158370 -11301 0
0 0 0 878 159248 -10423 0
0 0 0 884 160132 -9539 0
0 0 0 890 161022 -8649 0
0 0 0 823 161845 -7826 0
0 0 0 830 162675 -6996 0
0 0 0 882 163557 -6114 0
0 0 0 997 164554 -5117 0
0 0 0 1008 165562 -4109 0
0 0 0 992 166554 -3117 0
0 0 0 977 167531 -2140 0
10 1 S102 969 168500 -1171 0
10 1 S102 972 169472 -199 0
10 2 S102 926 170398 727 0
10 2 S102 892 171290 1619 0
10 2 S102 879 172169 2498 0
10 2 S102 889 173058 3387 0
10 2 S102 872 173930 4259 0
10 2 S102 851 174781 5110 0
10 2 S102 898 175679 6008 0
10 2 S102 986 176665 6994 0
0 0 0 977 177642 -10730 0
0 0 0 897 178539 -9833 0
0 0 0 905 179444 -8928 0
0 0 0 904 180348 -8024 0
0 0 0 850 181198 -7174 0
0 0 0 843 182041 -6331 0
0 0 0 875 182916 -5456 0
0 0 0 915 183831 -4541 0
0 0 0 899 184730 -3642 0
0 0 0 894 185624 -2748 0
11 1 S112 911 186535 -1837 0
11 1 S112 902 187437 -935 0
11 1 S112 838 188275 -97 0
11 2 S112 780 189055 683 0
11 2 S112 790 189845 1473 0
11 2 S112 836 190681 2309 0
11 2 S112 909 191590 3218 0
11 2 S112 914 192504 4132 0
11 2 S112 925 193429 5057 0
11 2 S112 945 194374 6002 0
11 2 S112 951 195325 6953 0
0 0 0 964 196289 -7551 0
0 0 0 962 197251 -6589 0
0 0 0 943 198194 -5646 0
0 0 0 895 199089 -4751 0
0 0 0 852 199941 -3899 0
0 0 0 865 200806 -3034 0
0 0 0 940 201746 -2094 0
12 1 S116 1011 202757 -1083 0
12 1 S116 963 203720 -120 0
12 2 S116 975 204695 855 0
12 2 S116 967 205662 1822 0
12 2 S116 957 206619 2779 0
12 2 S116 892 207511 3671 0
12 2 S116 845 208356 4516 0
12 2 S116 868 209224 5384 0
12 2 S116 935 210159 6319 0
0 0 0 961 211120 -11719 0
0 0 0 962 212082 -10757 0
0 0 0 964 213046 -9793 0
0 0 0 936 213982 -8857 0
0 0 0 869 214851 -7988 0
0 0 0 859 215710 -7129 0
0 0 0 866 216576 -6263 0
0 0 0 866 217442 -5397 0
0 0 0 832 218274 -4565 0
0 0 0 853 219127 -3712 0
0 0 0 899 220026 -2813 0
13 1 S112 948 220974 -1865 0
13 1 S112 934 221908 -931 0
13 1 S112 868 222776 -63 0
13 2 S112 872 223648 809 0
13 2 S112 872 224520 1681 0
13 2 S112 864 225384 2545 0
13 2 S112 840 226224 3385 0
13 2 S112 790 227014 4175 0
13 2 S112 823 227837 4998 0
13 2 S112 873 228710 5871 0
13 2 S112 935 229645 6806 0
0 0 0 957 230602 -10506 0
0 0 0 891 231493 -9615 0
0 0 0 926 232419 -8689 0
0 0 0 935 233354 -7754 0
0 0 0 947 234301 -6807 0
0 0 0 886 235187 -5921 0
0 0 0 859 236046 -5062 0
0 0 0 810 236856 -4252 0
0 0 0 737 237593 -3515 0
0 0 0 707 238300 -2808 0
0 0 0 756 239056 -2052 0
14 1 S106 833 239889 -1219 0
14 1 S106 859 240748 -360 0
14 2 S106 920 241668 560 0
14 2 S106 927 242595 1487 0
14 2 S106 883 243478 2370 0
14 2 S106 814 244292 3184 0
14 2 S106 805 245097 3989 0
14 2 S106 814 245911 4803 0
14 2 S106 865 246776 5668 0
14 2 S106 894 247670 6562 0
0 0 0 824 248494 -10635 0
0 0 0 847 249341 -9788 0
0 0 0 902 250243 -8886 0
0 0 0 915 251158 -7971 0
0 0 0 844 252002 -7127 0
0 0 0 890 252892 -6237 0
0 0 0 934 253826 -5303 0
0 0 0 905 254731 -4398 0
0 0 0 803 255534 -3595 0
0 0 0 798 256332 -2797 0
0 0 0 796 257128 -2001 0
15 1 S116 828 257956 -1173 0
15 1 S116 830 258786 -343 0
15 2 S116 789 259575 446 0
15 2 S116 832 260407 1278 0
15 2 S116 887 261294 2165 0
15 2 S116 933 262227 3098 0
15 2 S116 855 263082 3953 0
15 2 S116 833 263915 4786 0
15 2 S116 848 264763 5634 0
15 2 S116 853 265616 6487 0
0 0 0 843 266459 -9049 0
0 0 0 804 267263 -8245 0
0 0 0 864 268127 -7381 0
0 0 0 978 269105 -6403 0
0 0 0 973 270078 -5430 0
0 0 0 901 270979 -4529 0
0 0 0 888 271867 -3641 0
0 0 0 869 272736 -2772 0
16 1 S116 838 273574 -1934 0
16 1 S116 755 274329 -1179 0
16 1 S116 760 275089 -419 0
16 2 S116 797 275886 378 0
16 2 S116 911 276797 1289 0
16 2 S116 904 277701 2193 0
16 2 S116 928 278629 3121 0
16 2 S116 834 279463 3955 0
16 2 S116 718 280181 4673 0
16 2 S116 726 280907 5399 0
16 2 S116 739 281646 6138 0
16 2 S116 820 282466 6958 0
0 0 0 950 283416 -8488 0
0 0 0 1007 284423 -7481 0
0 0 0 988 285411 -6493 0
0 0 0 905 286316 -5588 0
0 0 0 879 287195 -4709 0
0 0 0 780 287975 -3929 0
0 0 0 731 288706 -3198 0
0 0 0 703 289409 -2495 0
17 1 S106 722 290131 -1773 0
17 1 S106 794 290925 -979 0
17 1 S106 962 291887 -17 0
17 2 S106 966 292853 949 0
17 2 S106 921 293774 1870 0
17 2 S106 912 294686 2782 0
17 2 S106 895 295581 3677 0
17 2 S106 808 296389 4485 0
17 2 S106 777 297166 5262 0
17 2 S106 811 297977 6073 0
17 2 S106 896 298873 6969 0
0 0 0 940 299813 -10195 0
0 0 0 909 300722 -9286 0
0 0 0 951 301673 -8335 0
0 0 0 1007 302680 -7328 0
0 0 0 921 303601 -6407 0
0 0 0 896 304497 -5511 0
0 0 0 933 305430 -4578 0
0 0 0 935 306365 -3643 0
0 0 0 886 307251 -2757 0
18 1 S102 804 308055 -1953 0
18 1 S102 802 308857 -1151 0
18 1 S102 824 309681 -327 0
18 2 S102 914 310595 587 0
18 2 S102 1011 311606 1598 0
18 2 S102 948 312554 2546 0
18 2 S102 923 313477 3469 0
18 2 S102 949 314426 4418 0
18 2 S102 954 315380 5372 0
18 2 S102 890 316270 6262 0
0 0 0 816 317086 -7528 0
0 0 0 852 317938 -6676 0
0 0 0 934 318872 -5742 0
0 0 0 962 319834 -4780 0
0 0 0 880 320714 -3900 0
0 0 0 910 321624 -2990 0
0 0 0 935 322559 -2055 0
19 1 S106 950 323509 -1105 0
19 1 S106 870 324379 -235 0
19 2 S106 857 325236 622 0
19 2 S106 870 326106 1492 0
19 2 S106 878 326984 2370 0
19 2 S106 827 327811 3197 0
19 2 S106 805 328616 4002 0
19 2 S106 833 329449 4835 0
19 2 S106 932 330381 5767 0
19 2 S106 985 331366 6752 0
0 0 0 947 332313 -11598 0
0 0 0 960 333273 -10638 0
0 0 0 949 334222 -9689 0
0 0 0 869 335091 -8820 0
0 0 0 850 335941 -7970 0
0 0 0 828 336769 -7142 0
0 0 0 765 337534 -6377 0
0 0 0 763 338297 -5614 0
0 0 0 777 339074 -4837 0
0 0 0 796 339870 -4041 0
0 0 0 823 340693 -3218 0
0 0 0 790 341483 -2428 0
20 1 S112 806 342289 -1622 0
20 1 S112 827 343116 -795 0
20 2 S112 820 343936 25 0
20 2 S112 805 344741 830 0
20 2 S112 724 345465 1554 0
20 2 S112 715 346180 2269 0
20 2 S112 716 346896 2985 0
20 2 S112 753 347649 3738 0
20 2 S112 815 348464 4553 0
20 2 S112 848 349312 5401 0
20 2 S112 851 350163 6252 0
0 0 0 795 350958 -10228 0
0 0 0 756 351714 -9472 0
0 0 0 773 352487 -8699 0
0 0 0 854 353341 -7845 0
0 0 0 1020 354361 -6825 0
0 0 0 914 355275 -5911 0
0 0 0 925 356200 -4986 0
0 0 0 941 357141 -4045 0
0 0 0 930 358071 -3115 0
0 0 0 914 358985 -2201 0
21 1 S106 855 359840 -1346 0
21 1 S106 872 360712 -474 0
21 2 S106 906 361618 432 0
21 2 S106 916 362534 1348 0
21 2 S106 826 363360 2174 0
21 2 S106 814 364174 2988 0
21 2 S106 827 365001 3815 0
21 2 S106 860 365861 4675 0
21 2 S106 835 366696 5510 0
21 2 S106 873 367569 6383 0
0 0 0 954 368523 -11778 0
0 0 0 1008 369531 -10770 0
0 0 0 899 370430 -9871 0
0 0 0 904 371334 -8967 0
0 0 0 908 372242 -8059 0
0 0 0 882 373124 -7177 0
0 0 0 833 373957 -6344 0
0 0 0 841 374798 -5503 0
0 0 0 876 375674 -4627 0
0 0 0 910 376584 -3717 0
0 0 0 865 377449 -2852 0
22 1 S116 871 378320 -1981 0
22 1 S116 889 379209 -1092 0
22 1 S116 908 380117 -184 0
22 2 S116 888 381005 704 0
22 2 S116 873 381878 1577 0
22 2 S116 866 382744 2443 0
22 2 S116 834 383578 3277 0
22 2 S116 784 384362 4061 0
22 2 S116 820 385182 4881 0
22 2 S116 891 386073 5772 0
22 2 S116 1017 387090 6789 0
0 0 0 954 388044 -9167 0
0 0 0 975 389019 -8192 0
0 0 0 966 389985 -7226 0
0 0 0 871 390856 -6355 0
0 0 0 860 391716 -5495 0
0 0 0 836 392552 -4659 0
0 0 0 819 393371 -3840 0
0 0 0 758 394129 -3082 0
0 0 0 787 394916 -2295 0
23 1 S112 835 395751 -1460 0
23 1 S112 902 396653 -558 0
23 2 S112 955 397608 397 0
23 2 S112 913 398521 1310 0
23 2 S112 905 399426 2215 0
23 2 S112 868 400294 3083 0
23 2 S112 796 401090 3879 0
23 2 S112 786 401876 4665 0
23 2 S112 806 402682 5471 0
23 2 S112 934 403616 6405 0
0 0 0 1015 404631 -10103 0
0 0 0 951 405582 -9152 0
0 0 0 942 406524 -8210 0
0 0 0 942 407466 -7268 0
0 0 0 926 408392 -6342 0
0 0 0 879 409271 -5463 0
0 0 0 864 410135 -4599 0
0 0 0 870 411005 -3729 0
0 0 0 900 411905 -2829 0
24 1 S106 891 412796 -1938 0
24 1 S106 860 413656 -1078 0
24 1 S106 890 414546 -188 0
24 2 S106 930 415476 742 0
24 2 S106 922 416398 1664 0
24 2 S106 834 417232 2498 0
24 2 S106 839 418071 3337 0
24 2 S106 871 418942 4208 0
24 2 S106 908 419850 5116 0
24 2 S106 899 420749 6015 0
24 2 S106 854 421603 6869 0
0 0 0 856 422459 -9052 0
0 0 0 868 423327 -8184 0
0 0 0 856 424183 -7328 0
0 0 0 895 425078 -6433 0
0 0 0 939 426017 -5494 0
0 0 0 971 426988 -4523 0
0 0 0 945 427933 -3578 0
0 0 0 936 428869 -2642 0
25 1 S102 916 429785 -1726 0
25 1 S102 886 430671 -840 0
25 1 S102 824 431495 -16 0
25 2 S102 851 432346 835 0
25 2 S102 855 433201 1690 0
25 2 S102 850 434051 2540 0
25 2 S102 824 434875 3364 0
25 2 S102 861 435736 4225 0
25 2 S102 918 436654 5143 0
25 2 S102 940 437594 6083 0
25 2 S102 893 438487 6976 0
0 0 0 871 439358 -6228 0
0 0 0 934 440292 -5294 0
0 0 0 972 441264 -4322 0
0 0 0 924 442188 -3398 0
0 0 0 882 443070 -2516 0
26 1 S116 897 443967 -1619 0
26 1 S116 917 444884 -702 0
26 2 S116 890 445774 188 0
26 2 S116 829 446603 1017 0
26 2 S116 853 447456 1870 0
26 2 S116 869 448325 2739 0
26 2 S116 888 449213 3627 0
26 2 S116 841 450054 4468 0
26 2 S116 791 450845 5259 0
26 2 S116 810 451655 6069 0
26 2 S116 839 452494 6908 0
0 0 0 930 453424 -6619 0
0 0 0 858 454282 -5761 0
0 0 0 895 455177 -4866 0
0 0 0 923 456100 -3943 0
0 0 0 927 457027 -3016 0
0 0 0 850 457877 -2166 0
27 1 S106 826 458703 -1340 0
27 1 S106 813 459516 -527 0
27 2 S106 793 460309 266 0
27 2 S106 771 461080 1037 0
27 2 S106 721 461801 1758 0
27 2 S106 723 462524 2481 0
27 2 S106 735 463259 3216 0
27 2 S106 766 464025 3982 0
27 2 S106 803 464828 4785 0
27 2 S106 789 465617 5574 0
27 2 S106 849 466466 6423 0
0 0 0 919 467385 -6766 0
0 0 0 906 468291 -5860 0
0 0 0 829 469120 -5031 0
0 0 0 823 469943 -4208 0
0 0 0 828 470771 -3380 0
0 0 0 836 471607 -2544 0
28 1 S102 801 472408 -1743 0
28 1 S102 852 473260 -891 0
28 2 S102 922 474182 31 0
28 2 S102 979 475161 1010 0
28 2 S102 915 476076 1925 0
28 2 S102 948 477024 2873 0
28 2 S102 944 477968 3817 0
28 2 S102 909 478877 4726 0
28 2 S102 807 479684 5533 0
28 2 S102 789 480473 6322 0
0 0 0 812 481285 -12727 0
0 0 0 885 482170 -11842 0
0 0 0 958 483128 -10884 0
0 0 0 925 484053 -9959 0
0 0 0 963 485016 -8996 0
0 0 0 950 485966 -8046 0
0 0 0 884 486850 -7162 0
0 0 0 858 487708 -6304 0
0 0 0 862 488570 -5442 0
0 0 0 880 489450 -4562 0
0 0 0 841 490291 -3721 0
0 0 0 839 491130 -2882 0
0 0 0 853 491983 -2029 0
29 1 S112 878 492861 -1151 0
29 1 S112 900 493761 -251 0
29 2 S112 859 494620 608 0
29 2 S112 863 495483 1471 0
29 2 S112 879 496362 2350 0
29 2 S112 890 497252 3240 0
29 2 S112 854 498106 4094 0
29 2 S112 899 499005 4993 0
29 2 S112 945 499950 5938 0
29 2 S112 944 500894 6882 0
0 0 0 855 501749 -7465 0
0 0 0 864 502613 -6601 0
0 0 0 884 503497 -5717 0
0 0 0 902 504399 -4815 0
0 0 0 850 505249 -3965 0
0 0 0 880 506129 -3085 0
0 0 0 931 507060 -2154 0
30 1 S112 941 508001 -1213 0
30 1 S112 929 508930 -284 0
30 2 S112 873 509803 589 0
30 2 S112 862 510665 1451 0
30 2 S112 861 511526 2312 0
30 2 S112 844 512370 3156 0
30 2 S112 771 513141 3927 0
30 2 S112 797 513938 4724 0
30 2 S112 826 514764 5550 0
30 2 S112 928 515692 6478 0
0 0 0 988 516680 -10903 0
0 0 0 968 517648 -9935 0
0 0 0 904 518552 -9031 0
0 0 0 841 519393 -8190 0
0 0 0 830 520223 -7360 0
0 0 0 846 521069 -6514 0
0 0 0 862 521931 -5652 0
0 0 0 816 522747 -4836 0
0 0 0 849 523596 -3987 0
0 0 0 866 524462 -3121 0
0 0 0 906 525368 -2215 0
31 1 S106 866 526234 -1349 0
31 1 S106 833 527067 -516 0
31 2 S106 868 527935 352 0
31 2 S106 919 528854 1271 0
31 2 S106 911 529765 2182 0
31 2 S106 861 530626 3043 0
31 2 S106 868 531494 3911 0
31 2 S106 889 532383 4800 0
31 2 S106 930 533313 5730 0
31 2 S106 899 534212 6629 0
0 0 0 845 535057 -10315 0
0 0 0 837 535894 -9478 0
0 0 0 861 536755 -8617 0
0 0 0 852 537607 -7765 0
0 0 0 897 538504 -6868 0
0 0 0 937 539441 -5931 0
0 0 0 970 540411 -4961 0
0 0 0 905 541316 -4056 0
0 0 0 890 542206 -3166 0
0 0 0 895 543101 -2271 0
32 1 S102 872 543973 -1399 0
32 1 S102 794 544767 -605 0
32 2 S102 766 545533 161 0
32 2 S102 780 546313 941 0
32 2 S102 811 547124 1752 0
32 2 S102 816 547940 2568 0
32 2 S102 733 548673 3301 0
32 2 S102 782 549455 4083 0
32 2 S102 841 550296 4924 0
32 2 S102 909 551205 5833 0
32 2 S102 936 552141 6769 0
0 0 0 932 553073 -11497 0
0 0 0 884 553957 -10613 0
0 0 0 814 554771 -9799 0
0 0 0 804 555575 -8995 0
0 0 0 791 556366 -8204 0
0 0 0 745 557111 -7459 0
0 0 0 694 557805 -6765 0
0 0 0 732 558537 -6033 0
0 0 0 704 559241 -5329 0
0 0 0 726 559967 -4603 0
0 0 0 727 560694 -3876 0
0 0 0 720 561414 -3156 0
0 0 0 750 562164 -2406 0
33 1 S112 765 562929 -1641 0
33 1 S112 708 563637 -933 0
33 1 S112 677 564314 -256 0
33 2 S112 680 564994 424 0
33 2 S112 694 565688 1118 0
33 2 S112 716 566404 1834 0
33 2 S112 727 567131 2561 0
33 2 S112 731 567862 3292 0
33 2 S112 755 568617 4047 0
33 2 S112 794 569411 4841 0
33 2 S112 863 570274 5704 0
33 2 S112 844 571118 6548 0
0 0 0 771 571889 -12625 0
0 0 0 776 572665 -11849 0
0 0 0 809 573474 -11040 0
0 0 0 928 574402 -10112 0
0 0 0 984 575386 -9128 0
0 0 0 886 576272 -8242 0
0 0 0 890 577162 -7352 0
0 0 0 919 578081 -6433 0
0 0 0 915 578996 -5518 0
0 0 0 842 579838 -4676 0
0 0 0 767 580605 -3909 0
0 0 0 764 581369 -3145 0
0 0 0 786 582155 -2359 0
34 1 S106 856 583011 -1503 0
34 1 S106 881 583892 -622 0
34 2 S106 881 584773 259 0
34 2 S106 923 585696 1182 0
34 2 S106 934 586630 2116 0
34 2 S106 857 587487 2973 0
34 2 S106 834 588321 3807 0
34 2 S106 822 589143 4629 0
34 2 S106 857 590000 5486 0
34 2 S106 832 590832 6318 0
0 0 0 800 591632 -10422 0
0 0 0 848 592480 -9574 0
0 0 0 916 593396 -8658 0
0 0 0 950 594346 -7708 0
0 0 0 934 595280 -6774 0
0 0 0 936 596216 -5838 0
0 0 0 908 597124 -4930 0
0 0 0 853 597977 -4077 0
0 0 0 819 598796 -3258 0
0 0 0 798 599594 -2460 0
35 1 S102 803 600397 -1657 0
35 1 S102 774 601171 -883 0
35 1 S102 809 601980 -74 0
35 2 S102 846 602826 772 0
35 2 S102 917 603743 1689 0
35 2 S102 885 604628 2574 0
35 2 S102 895 605523 3469 0
35 2 S102 882 606405 4351 0
35 2 S102 879 607284 5230 0
35 2 S102 859 608143 6089 0
35 2 S102 856 608999 6945 0
0 0 0 864 609863 -7426 0
0 0 0 890 610753 -6536 0
0 0 0 875 611628 -5661 0
0 0 0 866 612494 -4795 0
0 0 0 871 613365 -3924 0
0 0 0 884 614249 -3040 0
0 0 0 851 615100 -2189 0
36 1 S106 865 615965 -1324 0
36 1 S106 892 616857 -432 0
36 2 S106 924 617781 492 0
36 2 S106 902 618683 1394 0
36 2 S106 858 619541 2252 0
36 2 S106 863 620404 3115 0
36 2 S106 864 621268 3979 0
36 2 S106 828 622096 4807 0
36 2 S106 794 622890 5601 0
36 2 S106 811 623701 6412 0
0 0 0 848 624549 -9965 0
0 0 0 905 625454 -9060 0
0 0 0 853 626307 -8207 0
0 0 0 881 627188 -7326 0
0 0 0 917 628105 -6409 0
0 0 0 897 629002 -5512 0
0 0 0 824 629826 -4688 0
0 0 0 816 630642 -3872 0
0 0 0 813 631455 -3059 0
0 0 0 815 632270 -2244 0
37 1 S116 792 633062 -1452 0
37 1 S116 794 633856 -658 0
37 2 S116 828 634684 170 0
37 2 S116 881 635565 1051 0
37 2 S116 902 636467 1953 0
37 2 S116 885 637352 2838 0
37 2 S116 913 638265 3751 0
37 2 S116 921 639186 4672 0
37 2 S116 939 640125 5611 0
37 2 S116 900 641025 6511 0
0 0 0 884 641909 -11853 0
0 0 0 857 642766 -10996 0
0 0 0 814 643580 -10182 0
0 0 0 762 644342 -9420 0
0 0 0 815 645157 -8605 0
0 0 0 889 646046 -7716 0
0 0 0 968 647014 -6748 0
0 0 0 951 647965 -5797 0
0 0 0 965 648930 -4832 0
0 0 0 957 649887 -3875 0
0 0 0 949 650836 -2926 0
0 0 0 896 651732 -2030 0
38 1 S102 852 652584 -1178 0
38 1 S102 844 653428 -334 0
38 2 S102 855 654283 521 0
38 2 S102 855 655138 1376 0
38 2 S102 836 655974 2212 0
38 2 S102 853 656827 3065 0
38 2 S102 862 657689 3927 0
38 2 S102 864 658553 4791 0
38 2 S102 812 659365 5603 0
38 2 S102 821 660186 6424 0
0 0 0 839 661025 -10343 0
0 0 0 873 661898 -9470 0
0 0 0 840 662738 -8630 0
0 0 0 875 663613 -7755 0
0 0 0 919 664532 -6836 0
0 0 0 923 665455 -5913 0
0 0 0 860 666315 -5053 0
0 0 0 868 667183 -4185 0
0 0 0 882 668065 -3303 0
0 0 0 854 668919 -2449 0
39 1 S116 791 669710 -1658 0
39 1 S116 789 670499 -869 0
39 1 S116 811 671310 -58 0
39 2 S116 834 672144 776 0
39 2 S116 825 672969 1601 0
39 2 S116 807 673776 2408 0
39 2 S116 848 674624 3256 0
39 2 S116 870 675494 4126 0
39 2 S116 806 676300 4932 0
39 2 S116 759 677059 5691 0
39 2 S116 754 677813 6445 0
0 0 0 754 678567 -8518 0
0 0 0 740 679307 -7778 0
0 0 0 793 680100 -6985 0
0 0 0 889 680989 -6096 0
0 0 0 1010 681999 -5086 0
0 0 0 906 682905 -4180 0
0 0 0 883 683788 -3297 0
0 0 0 877 684665 -2420 0
40 1 S112 848 685513 -1572 0
40 1 S112 816 686329 -756 0
40 1 S112 751 687080 -5 0
40 2 S112 747 687827 742 0
40 2 S112 743 688570 1485 0
40 2 S112 742 689312 2227 0
40 2 S112 736 690048 2963 0
40 2 S112 708 690756 3671 0
40 2 S112 716 691472 4387 0
40 2 S112 748 692220 5135 0
40 2 S112 842 693062 5977 0
40 2 S112 947 694009 6924 0
0 0 0 939 694948 -186917 0
0 0 0 896 695844 -186021 0
0 0 0 912 696756 -185109 0
0 0 0 921 697677 -184188 0
0 0 0 877 698554 -183311 0
0 0 0 803 699357 -182508 0
0 0 0 806 700163 -181702 0
0 0 0 833 700996 -180869 0
0 0 0 882 701878 -179987 0
0 0 0 842 702720 -179145 0
0 0 0 734 703454 -178411 0
0 0 0 761 704215 -177650 0
0 0 0 780 704995 -176870 0
0 0 0 845 705840 -176025 0
0 0 0 912 706752 -175113 0
0 0 0 935 707687 -174178 0
0 0 0 914 708601 -173264 0
0 0 0 905 709506 -172359 0
0 0 0 895 710401 -171464 0
0 0 0 873 711274 -170591 0
0 0 0 865 712139 -169726 0
0 0 0 850 712989 -168876 0
0 0 0 854 713843 -168022 0
0 0 0 869 714712 -167153 0
0 0 0 874 715586 -166279 0
0 0 0 885 716471 -165394 0
0 0 0 882 717353 -164512 0
0 0 0 838 718191 -163674 0
0 0 0 828 719019 -162846 0
0 0 0 872 719891 -161974 0
0 0 0 923 720814 -161051 0
0 0 0 957 721771 -160094 0
0 0 0 885 722656 -159209 0
0 0 0 854 723510 -158355 0
0 0 0 890 724400 -157465 0
0 0 0 935 725335 -156530 0
0 0 0 942 726277 -155588 0
0 0 0 873 727150 -154715 0
0 0 0 901 728051 -153814 0
0 0 0 935 728986 -152879 0
0 0 0 937 729923 -151942 0
0 0 0 865 730788 -151077 0
0 0 0 819 731607 -150258 0
0 0 0 838 732445 -149420 0
0 0 0 901 733346 -148519 0
0 0 0 967 734313 -147552 0
0 0 0 965 735278 -146587 0
0 0 0 942 736220 -145645 0
0 0 0 914 737134 -144731 0
0 0 0 849 737983 -143882 0
0 0 0 811 738794 -143071 0
0 0 0 809 739603 -142262 0
0 0 0 836 740439 -141426 0
0 0 0 878 741317 -140548 0
0 0 0 858 742175 -139690 0
0 0 0 797 742972 -138893 0
0 0 0 751 743723 -138142 0
0 0 0 776 744499 -137366 0
0 0 0 822 745321 -136544 0
0 0 0 922 746243 -135622 0
0 0 0 968 747211 -134654 0
0 0 0 940 748151 -133714 0
0 0 0 874 749025 -132840 0
0 0 0 693 749718 -132147 0
0 0 0 684 750402 -131463 0
0 0 0 679 751081 -130784 0
0 0 0 666 751747 -130118 0
0 0 0 685 752432 -129433 0
0 0 0 708 753140 -128725 0
0 0 0 782 753922 -127943 0
0 0 0 831 754753 -127112 0
0 0 0 774 755527 -126338 0
0 0 0 744 756271 -125594 0
0 0 0 727 756998 -124867 0
0 0 0 726 757724 -124141 0
0 0 0 725 758449 -123416 0
0 0 0 747 759196 -122669 0
0 0 0 742 759938 -121927 0
0 0 0 745 760683 -121182 0
0 0 0 727 761410 -120455 0
0 0 0 705 762115 -119750 0
0 0 0 678 762793 -119072 0
0 0 0 679 763472 -118393 0
0 0 0 674 764146 -117719 0
0 0 0 674 764820 -117045 0
0 0 0 645 765465 -116400 1
0 0 0 611 766076 -115789 1
0 0 0 610 766686 -115179 1
0 0 0 620 767306 -114559 1
0 0 0 617 767923 -113942 1
0 0 0 629 768552 -113313 1
0 0 0 629 769181 -112684 1
0 0 0 614 769795 -112070 1
0 0 0 602 770397 -111468 1
0 0 0 593 770990 -110875 1
0 0 0 584 771574 -110291 1
0 0 0 579 772153 -109712 1
0 0 0 579 772732 -109133 1
0 0 0 587 773319 -108546 1
0 0 0 607 773926 -107939 1
0 0 0 619 774545 -107320 1
0 0 0 650 775195 -106670 1
0 0 0 695 775890 -105975 0
0 0 0 724 776614 -105251 0
0 0 0 733 777347 -104518 0
0 0 0 759 778106 -103759 0
0 0 0 779 778885 -102980 0
0 0 0 784 779669 -102196 0
0 0 0 780 780449 -101416 0
0 0 0 765 781214 -100651 0
0 0 0 771 781985 -99880 0
0 0 0 795 782780 -99085 0
0 0 0 786 783566 -98299 0
0 0 0 820 784386 -97479 0
0 0 0 854 785240 -96625 0
0 0 0 919 786159 -95706 0
0 0 0 841 787000 -94865 0
0 0 0 827 787827 -94038 0
0 0 0 860 788687 -93178 0
0 0 0 898 789585 -92280 0
0 0 0 892 790477 -91388 0
0 0 0 849 791326 -90539 0
0 0 0 741 792067 -89798 0
0 0 0 710 792777 -89088 0
0 0 0 729 793506 -88359 0
0 0 0 780 794286 -87579 0
0 0 0 902 795188 -86677 0
0 0 0 1008 796196 -85669 0
0 0 0 987 797183 -84682 0
0 0 0 957 798140 -83725 0
0 0 0 921 799061 -82804 0
0 0 0 915 799976 -81889 0
0 0 0 809 800785 -81080 0
0 0 0 740 801525 -80340 0
0 0 0 677 802202 -79663 0
0 0 0 643 802845 -79020 1
0 0 0 631 803476 -78389 1
0 0 0 626 804102 -77763 1
0 0 0 632 804734 -77131 1
0 0 0 643 805377 -76488 1
0 0 0 625 806002 -75863 1
0 0 0 623 806625 -75240 1
0 0 0 629 807254 -74611 1
0 0 0 629 807883 -73982 1
0 0 0 632 808515 -73350 1
0 0 0 629 809144 -72721 1
0 0 0 617 809761 -72104 1
0 0 0 621 810382 -71483 1
0 0 0 624 811006 -70859 1
0 0 0 629 811635 -70230 1
0 0 0 633 812268 -69597 1
0 0 0 640 812908 -68957 1
0 0 0 647 813555 -68310 1
0 0 0 639 814194 -67671 1
0 0 0 649 814843 -67022 1
0 0 0 679 815522 -66343 0
0 0 0 732 816254 -65611 0
0 0 0 818 817072 -64793 0
0 0 0 888 817960 -63905 0
0 0 0 914 818874 -62991 0
0 0 0 847 819721 -62144 0
0 0 0 839 820560 -61305 0
0 0 0 833 821393 -60472 0
0 0 0 841 822234 -59631 0
0 0 0 853 823087 -58778 0
0 0 0 842 823929 -57936 0
0 0 0 877 824806 -57059 0
0 0 0 932 825738 -56127 0
0 0 0 971 826709 -55156 0
0 0 0 931 827640 -54225 0
0 0 0 828 828468 -53397 0
0 0 0 864 829332 -52533 0
0 0 0 930 830262 -51603 0
0 0 0 997 831259 -50606 0
0 0 0 965 832224 -49641 0
0 0 0 878 833102 -48763 0
0 0 0 850 833952 -47913 0
0 0 0 865 834817 -47048 0
0 0 0 845 835662 -46203 0
0 0 0 790 836452 -45413 0
0 0 0 837 837289 -44576 0
0 0 0 910 838199 -43666 0
0 0 0 911 839110 -42755 0
0 0 0 869 839979 -41886 0
0 0 0 878 840857 -41008 0
0 0 0 849 841706 -40159 0
0 0 0 787 842493 -39372 0
0 0 0 808 843301 -38564 0
0 0 0 835 844136 -37729 0
0 0 0 896 845032 -36833 0
0 0 0 950 845982 -35883 0
0 0 0 895 846877 -34988 0
0 0 0 911 847788 -34077 0
0 0 0 950 848738 -33127 0
0 0 0 956 849694 -32171 0
0 0 0 957 850651 -31214 0
0 0 0 916 851567 -30298 0
0 0 0 919 852486 -29379 0
0 0 0 942 853428 -28437 0
0 0 0 1002 854430 -27435 0
0 0 0 1037 855467 -26398 0
0 0 0 1040 856507 -25358 0
0 0 0 1029 857536 -24329 0
0 0 0 1024 858560 -23305 0
0 0 0 1001 859561 -22304 0
0 0 0 928 860489 -21376 0
0 0 0 877 861366 -20499 0
0 0 0 889 862255 -19610 0
0 0 0 972 863227 -18638 0
0 0 0 1016 864243 -17622 0
0 0 0 943 865186 -16679 0
0 0 0 977 866163 -15702 0
0 0 0 974 867137 -14728 0
0 0 0 949 868086 -13779 0
0 0 0 855 868941 -12924 0
0 0 0 869 869810 -12055 0
0 0 0 917 870727 -11138 0
0 0 0 937 871664 -10201 0
0 0 0 825 872489 -9376 0
0 0 0 889 873378 -8487 0
0 0 0 1066 874444 -7421 1
0 0 0 1085 875529 -6336 1
0 0 0 1056 876585 -5280 1
0 0 0 1010 877595 -4270 0
0 0 0 853 878448 -3417 0
0 0 0 782 879230 -2635 0
41 1 S102 750 879980 -1885 0
41 1 S102 724 880704 -1161 0
41 1 S102 700 881404 -461 0
41 2 S102 711 882115 250 0
41 2 S102 779 882894 1029 0
41 2 S102 930 883824 1959 0
41 2 S102 965 884789 2924 0
41 2 S102 934 885723 3858 0
41 2 S102 924 886647 4782 0
41 2 S102 895 887542 5677 0
41 2 S102 822 888364 6499 0
0 0 0 807 889171 -6371 0
0 0 0 813 889984 -5558 0
0 0 0 885 890869 -4673 0
0 0 0 883 891752 -3790 0
0 0 0 857 892609 -2933 0
42 1 S112 937 893546 -1996 0
42 1 S112 974 894520 -1022 0
42 1 S112 926 895446 -96 0
42 2 S112 865 896311 769 0
42 2 S112 885 897196 1654 0
42 2 S112 941 898137 2595 0
42 2 S112 970 899107 3565 0
42 2 S112 913 900020 4478 0
42 2 S112 936 900956 5414 0
42 2 S112 943 901899 6357 0
0 0 0 941 902840 -9927 0
0 0 0 868 903708 -9059 0
0 0 0 779 904487 -8280 0
0 0 0 767 905254 -7513 0
0 0 0 826 906080 -6687 0
0 0 0 792 906872 -5895 0
0 0 0 749 907621 -5146 0
0 0 0 803 908424 -4343 0
0 0 0 919 909343 -3424 0
0 0 0 929 910272 -2495 0
43 1 S116 906 911178 -1589 0
43 1 S116 873 912051 -716 0
43 2 S116 881 912932 165 0
43 2 S116 887 913819 1052 0
43 2 S116 869 914688 1921 0
43 2 S116 824 915512 2745 0
43 2 S116 798 916310 3543 0
43 2 S116 832 917142 4375 0
43 2 S116 924 918066 5299 0
43 2 S116 987 919053 6286 0
0 0 0 883 919936 -7735 0
0 0 0 890 920826 -6845 0
0 0 0 917 921743 -5928 0
0 0 0 938 922681 -4990 0
0 0 0 873 923554 -4117 0
0 0 0 886 924440 -3231 0
0 0 0 897 925337 -2334 0
44 1 S102 872 926209 -1462 0
44 1 S102 833 927042 -629 0
44 2 S102 856 927898 227 0
44 2 S102 918 928816 1145 0
44 2 S102 938 929754 2083 0
44 2 S102 871 930625 2954 0
44 2 S102 876 931501 3830 0
44 2 S102 871 932372 4701 0
44 2 S102 864 933236 5565 0
44 2 S102 820 934056 6385 0
0 0 0 812 934868 -9763 0
0 0 0 853 935721 -8910 0
0 0 0 901 936622 -8009 0
0 0 0 893 937515 -7116 0
0 0 0 928 938443 -6188 0
0 0 0 951 939394 -5237 0
0 0 0 919 940313 -4318 0
0 0 0 862 941175 -3456 0
0 0 0 851 942026 -2605 0
45 1 S116 864 942890 -1741 0
45 1 S116 853 943743 -888 0
45 1 S116 836 944579 -52 0
45 2 S116 804 945383 752 0
45 2 S116 820 946203 1572 0
45 2 S116 861 947064 2433 0
45 2 S116 879 947943 3312 0
45 2 S116 856 948799 4168 0
45 2 S116 888 949687 5056 0
45 2 S116 922 950609 5978 0
45 2 S116 881 951490 6859 0
0 0 0 811 952301 -12373 0
0 0 0 826 953127 -11547 0
0 0 0 869 953996 -10678 0
0 0 0 947 954943 -9731 0
0 0 0 894 955837 -8837 0
0 0 0 929 956766 -7908 0
0 0 0 925 957691 -6983 0
0 0 0 875 958566 -6108 0
0 0 0 850 959416 -5258 0
0 0 0 828 960244 -4430 0
0 0 0 824 961068 -3606 0
0 0 0 771 961839 -2835 0
0 0 0 798 962637 -2037 0
46 1 S102 846 963483 -1191 0
46 1 S102 926 964409 -265 0
46 2 S102 958 965367 693 0
46 2 S102 913 966280 1606 0
46 2 S102 909 967189 2515 0
46 2 S102 914 968103 3429 0
46 2 S102 901 969004 4330 0
46 2 S102 854 969858 5184 0
46 2 S102 860 970718 6044 0
46 2 S102 862 971580 6906 0
0 0 0 880 972460 -8676 0
0 0 0 894 973354 -7782 0
0 0 0 916 974270 -6866 0
0 0 0 956 975226 -5910 0
0 0 0 952 976178 -4958 0
0 0 0 871 977049 -4087 0
0 0 0 827 977876 -3260 0
0 0 0 814 978690 -2446 0
47 1 S112 813 979503 -1633 0
47 1 S112 759 980262 -874 0
47 1 S112 734 980996 -140 0
47 2 S112 781 981777 641 0
47 2 S112 823 982600 1464 0
47 2 S112 872 983472 2336 0
47 2 S112 835 984307 3171 0
47 2 S112 831 985138 4002 0
47 2 S112 813 985951 4815 0
47 2 S112 808 986759 5623 0
47 2 S112 779 987538 6402 0
0 0 0 745 988283 -12731 0
0 0 0 778 989061 -11953 0
0 0 0 812 989873 -11141 0
0 0 0 876 990749 -10265 0
0 0 0 840 991589 -9425 0
0 0 0 878 992467 -8547 0
0 0 0 912 993379 -7635 0
0 0 0 918 994297 -6717 0
0 0 0 875 995172 -5842 0
0 0 0 875 996047 -4967 0
0 0 0 885 996932 -4082 0
0 0 0 899 997831 -3183 0
0 0 0 865 998696 -2318 0
48 1 S116 856 999552 -1462 0
48 1 S116 881 1000433 -581 0
48 2 S116 893 1001326 312 0
48 2 S116 888 1002214 1200 0
48 2 S116 828 1003042 2028 0
48 2 S116 807 1003849 2835 0
48 2 S116 812 1004661 3647 0
48 2 S116 831 1005492 4478 0
48 2 S116 849 1006341 5327 0
48 2 S116 814 1007155 6141 0
48 2 S116 852 1008007 6993 0
0 0 0 878 1008885 -7000 0
0 0 0 902 1009787 -6098 0
0 0 0 836 1010623 -5262 0
0 0 0 840 1011463 -4422 0
0 0 0 835 1012298 -3587 0
0 0 0 840 1013138 -2747 0
49 1 S112 835 1013973 -1912 0
49 1 S112 799 1014772 -1113 0
49 1 S112 808 1015580 -305 0
49 2 S112 821 1016401 516 0
49 2 S112 859 1017260 1375 0
49 2 S112 819 1018079 2194 0
49 2 S112 870 1018949 3064 0
49 2 S112 935 1019884 3999 0
49 2 S112 965 1020849 4964 0
49 2 S112 937 1021786 5901 0
49 2 S112 882 1022668 6783 0
0 0 0 848 1023516 -11865 0
0 0 0 832 1024348 -11033 0
0 0 0 804 1025152 -10229 0
0 0 0 822 1025974 -9407 0
0 0 0 845 1026819 -8562 0
0 0 0 902 1027721 -7660 0
0 0 0 904 1028625 -6756 0
0 0 0 896 1029521 -5860 0
0 0 0 918 1030439 -4942 0
0 0 0 940 1031379 -4002 0
0 0 0 902 1032281 -3100 0
0 0 0 858 1033139 -2242 0
50 1 S106 864 1034003 -1378 0
50 1 S106 897 1034900 -481 0
50 2 S106 959 1035859 478 0
50 2 S106 917 1036776 1395 0
50 2 S106 912 1037688 2307 0
50 2 S106 915 1038603 3222 0
50 2 S106 906 1039509 4128 0
50 2 S106 852 1040361 4980 0
50 2 S106 850 1041211 5830 0
50 2 S106 877 1042088 6707 0
0 0 0 879 1042967 -7848 0
0 0 0 834 1043801 -7014 0
0 0 0 871 1044672 -6143 0
0 0 0 893 1045565 -5250 0
0 0 0 834 1046399 -4416 0
0 0 0 833 1047232 -3583 0
0 0 0 848 1048080 -2735 0
51 1 S112 893 1048973 -1842 0
51 1 S112 883 1049856 -959 0
51 1 S112 812 1050668 -147 0
51 2 S112 823 1051491 676 0
51 2 S112 832 1052323 1508 0
51 2 S112 847 1053170 2355 0
51 2 S112 803 1053973 3158 0
51 2 S112 794 1054767 3952 0
51 2 S112 793 1055560 4745 0
51 2 S112 806 1056366 5551 0
51 2 S112 831 1057197 6382 0
0 0 0 813 1058010 -7179 0
0 0 0 828 1058838 -6351 0
0 0 0 885 1059723 -5466 0
0 0 0 931 1060654 -4535 0
0 0 0 876 1061530 -3659 0
0 0 0 830 1062360 -2829 0
52 1 S116 837 1063197 -1992 0
52 1 S116 840 1064037 -1152 0
52 1 S116 851 1064888 -301 0
52 2 S116 804 1065692 503 0
52 2 S116 795 1066487 1298 0
52 2 S116 815 1067302 2113 0
52 2 S116 847 1068149 2960 0
52 2 S116 832 1068981 3792 0
52 2 S116 789 1069770 4581 0
52 2 S116 805 1070575 5386 0
52 2 S116 855 1071430 6241 0
0 0 0 819 1072249 -9883 0
0 0 0 789 1073038 -9094 0
0 0 0 807 1073845 -8287 0
0 0 0 870 1074715 -7417 0
0 0 0 916 1075631 -6501 0
0 0 0 921 1076552 -5580 0
0 0 0 883 1077435 -4697 0
0 0 0 823 1078258 -3874 0
0 0 0 749 1079007 -3125 0
0 0 0 745 1079752 -2380 0
53 1 S106 740 1080492 -1640 0
53 1 S106 741 1081233 -899 0
53 1 S106 745 1081978 -154 0
53 2 S106 761 1082739 607 0
53 2 S106 767 1083506 1374 0
53 2 S106 746 1084252 2120 0
53 2 S106 774 1085026 2894 0
53 2 S106 777 1085803 3671 0
53 2 S106 857 1086660 4528 0
53 2 S106 949 1087609 5477 0
53 2 S106 918 1088527 6395 0
0 0 0 958 1089485 -7966 0
0 0 0 962 1090447 -7004 0
0 0 0 930 1091377 -6074 0
0 0 0 898 1092275 -5176 0
0 0 0 910 1093185 -4266 0
0 0 0 945 1094130 -3321 0
0 0 0 877 1095007 -2444 0
54 1 S102 903 1095910 -1541 0
54 1 S102 941 1096851 -600 0
54 2 S102 970 1097821 370 0
54 2 S102 900 1098721 1270 0
54 2 S102 898 1099619 2168 0
54 2 S102 914 1100533 3082 0
54 2 S102 901 1101434 3983 0
54 2 S102 839 1102273 4822 0
54 2 S102 843 1103116 5665 0
54 2 S102 876 1103992 6541 0
0 0 0 907 1104899 -10390 0
0 0 0 873 1105772 -9517 0
0 0 0 897 1106669 -8620 0
0 0 0 904 1107573 -7716 0
0 0 0 918 1108491 -6798 0
0 0 0 848 1109339 -5950 0
0 0 0 822 1110161 -5128 0
0 0 0 858 1111019 -4270 0
0 0 0 901 1111920 -3369 0
0 0 0 911 1112831 -2458 0
55 1 S106 882 1113713 -1576 0
55 1 S106 914 1114627 -662 0
55 2 S106 948 1115575 286 0
55 2 S106 935 1116510 1221 0
55 2 S106 871 1117381 2092 0
55 2 S106 824 1118205 2916 0
55 2 S106 809 1119014 3725 0
55 2 S106 804 1119818 4529 0
55 2 S106 761 1120579 5290 0
55 2 S106 771 1121350 6061 0
55 2 S106 828 1122178 6889 0
0 0 0 965 1123143 -6287 0
0 0 0 1049 1124192 -5238 0
0 0 0 942 1125134 -4296 0
0 0 0 920 1126054 -3376 0
0 0 0 875 1126929 -2501 0
56 1 S116 782 1127711 -1719 0
56 1 S116 756 1128467 -963 0
56 1 S116 736 1129203 -227 0
56 2 S116 714 1129917 487 0
56 2 S116 699 1130616 1186 0
56 2 S116 683 1131299 1869 0
56 2 S116 716 1132015 2585 0
56 2 S116 744 1132759 3329 0
56 2 S116 857 1133616 4186 0
56 2 S116 889 1134505 5075 0
56 2 S116 921 1135426 5996 0
56 2 S116 952 1136378 6948 0
0 0 0 944 1137322 -6830 0
0 0 0 791 1138113 -6039 0
0 0 0 720 1138833 -5319 0
0 0 0 716 1139549 -4603 0
0 0 0 735 1140284 -3868 0
0 0 0 786 1141070 -3082 0
0 0 0 888 1141958 -2194 0
57 1 S106 926 1142884 -1268 0
57 1 S106 929 1143813 -339 0
57 2 S106 928 1144741 589 0
57 2 S106 906 1145647 1495 0
57 2 S106 875 1146522 2370 0
57 2 S106 834 1147356 3204 0
57 2 S106 794 1148150 3998 0
57 2 S106 765 1148915 4763 0
57 2 S106 736 1149651 5499 0
57 2 S106 720 1150371 6219 0
57 2 S106 732 1151103 6951 0
0 0 0 757 1151860 -9766 0
0 0 0 761 1152621 -9005 0
0 0 0 816 1153437 -8189 0
0 0 0 913 1154350 -7276 0
0 0 0 966 1155316 -6310 0
0 0 0 826 1156142 -5484 0
0 0 0 771 1156913 -4713 0
0 0 0 723 1157636 -3990 0
0 0 0 731 1158367 -3259 0
0 0 0 774 1159141 -2485 0
58 1 S102 809 1159950 -1676 0
58 1 S102 816 1160766 -860 0
58 1 S102 855 1161621 -5 0
58 2 S102 885 1162506 880 0
58 2 S102 861 1163367 1741 0
58 2 S102 763 1164130 2504 0
58 2 S102 763 1164893 3267 0
58 2 S102 760 1165653 4027 0
58 2 S102 779 1166432 4806 0
58 2 S102 807 1167239 5613 0
58 2 S102 769 1168008 6382 0
0 0 0 798 1168806 -7972 0
0 0 0 813 1169619 -7159 0
0 0 0 908 1170527 -6251 0
0 0 0 851 1171378 -5400 0
0 0 0 887 1172265 -4513 0
0 0 0 895 1173160 -3618 0
0 0 0 883 1174043 -2735 0
59 1 S112 815 1174858 -1920 0
59 1 S112 839 1175697 -1081 0
59 1 S112 892 1176589 -189 0
59 2 S112 944 1177533 755 0
59 2 S112 864 1178397 1619 0
59 2 S112 872 1179269 2491 0
59 2 S112 886 1180155 3377 0
59 2 S112 895 1181050 4272 0
59 2 S112 874 1181924 5146 0
59 2 S112 866 1182790 6012 0
59 2 S112 894 1183684 6906 0
0 0 0 926 1184610 -9543 0
0 0 0 901 1185511 -8642 0
0 0 0 883 1186394 -7759 0
0 0 0 894 1187288 -6865 0
0 0 0 889 1188177 -5976 0
0 0 0 832 1189009 -5144 0
0 0 0 829 1189838 -4315 0
0 0 0 827 1190665 -3488 0
0 0 0 873 1191538 -2615 0
60 1 S102 870 1192408 -1745 0
60 1 S102 859 1193267 -886 0
60 1 S102 866 1194133 -20 0
60 2 S102 866 1194999 846 0
60 2 S102 844 1195843 1690 0
60 2 S102 793 1196636 2483 0
60 2 S102 805 1197441 3288 0
60 2 S102 871 1198312 4159 0
60 2 S102 910 1199222 5069 0
60 2 S102 915 1200137 5984 0
60 2 S102 862 1200999 6846 0
0 0 0 864 1201863 -11089 0
0 0 0 853 1202716 -10236 0
0 0 0 848 1203564 -9388 0
0 0 0 814 1204378 -8574 0
0 0 0 829 1205207 -7745 0
0 0 0 847 1206054 -6898 0
0 0 0 861 1206915 -6037 0
0 0 0 815 1207730 -5222 0
0 0 0 813 1208543 -4409 0
0 0 0 814 1209357 -3595 0
0 0 0 814 1210171 -2781 0
0 0 0 749 1210920 -2032 0
61 1 S106 747 1211667 -1285 0
61 1 S106 780 1212447 -505 0
61 2 S106 892 1213339 387 0
61 2 S106 958 1214297 1345 0
61 2 S106 926 1215223 2271 0
61 2 S106 991 1216214 3262 0
61 2 S106 961 1217175 4223 0
61 2 S106 888 1218063 5111 0
61 2 S106 818 1218881 5929 0
61 2 S106 784 1219665 6713 0
0 0 0 777 1220442 -8011 0
0 0 0 749 1221191 -7262 0
0 0 0 712 1221903 -6550 0
0 0 0 734 1222637 -5816 0
0 0 0 769 1223406 -5047 0
0 0 0 841 1224247 -4206 0
0 0 0 909 1225156 -3297 0
0 0 0 886 1226042 -2411 0
62 1 S112 919 1226961 -1492 0
62 1 S112 925 1227886 -567 0
62 2 S112 896 1228782 329 0
62 2 S112 859 1229641 1188 0
62 2 S112 832 1230473 2020 0
62 2 S112 792 1231265 2812 0
62 2 S112 734 1231999 3546 0
62 2 S112 741 1232740 4287 0
62 2 S112 762 1233502 5049 0
62 2 S112 896 1234398 5945 0
62 2 S112 1031 1235429 6976 0
0 0 0 940 1236369 -11630 0
0 0 0 971 1237340 -10659 0
0 0 0 996 1238336 -9663 0
0 0 0 995 1239331 -8668 0
0 0 0 896 1240227 -7772 0
0 0 0 874 1241101 -6898 0
0 0 0 842 1241943 -6056 0
0 0 0 830 1242773 -5226 0
0 0 0 795 1243568 -4431 0
0 0 0 815 1244383 -3616 0
0 0 0 854 1245237 -2762 0
63 1 S102 913 1246150 -1849 0
63 1 S102 961 1247111 -888 0
63 2 S102 914 1248025 26 0
63 2 S102 921 1248946 947 0
63 2 S102 929 1249875 1876 0
63 2 S102 906 1250781 2782 0
63 2 S102 850 1251631 3632 0
63 2 S102 852 1252483 4484 0
63 2 S102 880 1253363 5364 0
63 2 S102 888 1254251 6252 0
0 0 0 852 1255103 -10569 0
0 0 0 895 1255998 -9674 0
0 0 0 944 1256942 -8730 0
0 0 0 953 1257895 -7777 0
0 0 0 912 1258807 -6865 0
0 0 0 907 1259714 -5958 0
0 0 0 887 1260601 -5071 0
0 0 0 820 1261421 -4251 0
0 0 0 855 1262276 -3396 0
0 0 0 925 1263201 -2471 0
64 1 S112 996 1264197 -1475 0
64 1 S112 963 1265160 -512 0
64 2 S112 954 1266114 442 0
64 2 S112 943 1267057 1385 0
64 2 S112 919 1267976 2304 0
64 2 S112 867 1268843 3171 0
64 2 S112 833 1269676 4004 0
64 2 S112 851 1270527 4855 0
64 2 S112 863 1271390 5718 0
64 2 S112 824 1272214 6542 0
0 0 0 881 1273095 -7464 0
0 0 0 956 1274051 -6508 0
0 0 0 943 1274994 -5565 0
0 0 0 902 1275896 -4663 0
0 0 0 893 1276789 -3770 0
0 0 0 883 1277672 -2887 0
0 0 0 818 1278490 -2069 0
65 1 S106 837 1279327 -1232 0
65 1 S106 865 1280192 -367 0
65 2 S106 912 1281104 545 0
65 2 S106 857 1281961 1402 0
65 2 S106 873 1282834 2275 0
65 2 S106 885 1283719 3160 0
65 2 S106 868 1284587 4028 0
65 2 S106 817 1285404 4845 0
65 2 S106 830 1286234 5675 0
65 2 S106 885 1287119 6560 0
0 0 0 929 1288048 -7830 0
0 0 0 868 1288916 -6962 0
0 0 0 871 1289787 -6091 0
0 0 0 896 1290683 -5195 0
0 0 0 862 1291545 -4333 0
0 0 0 797 1292342 -3536 0
0 0 0 734 1293076 -2802 0
0 0 0 714 1293790 -2088 0
66 1 S116 732 1294522 -1356 0
66 1 S116 724 1295246 -632 0
66 2 S116 728 1295974 96 0
66 2 S116 741 1296715 837 0
66 2 S116 765 1297480 1602 0
66 2 S116 753 1298233 2355 0
66 2 S116 709 1298942 3064 0
66 2 S116 737 1299679 3801 0
66 2 S116 753 1300432 4554 0
66 2 S116 825 1301257 5379 0
66 2 S116 870 1302127 6249 0
0 0 0 823 1302950 -11894 0
0 0 0 837 1303787 -11057 0
0 0 0 852 1304639 -10205 0
0 0 0 869 1305508 -9336 0
0 0 0 873 1306381 -8463 0
0 0 0 845 1307226 -7618 0
0 0 0 809 1308035 -6809 0
0 0 0 787 1308822 -6022 0
0 0 0 782 1309604 -5240 0
0 0 0 796 1310400 -4444 0
0 0 0 776 1311176 -3668 0
0 0 0 752 1311928 -2916 0
0 0 0 768 1312696 -2148 0
67 1 S102 841 1313537 -1307 0
67 1 S102 918 1314455 -389 0
67 2 S102 983 1315438 594 0
67 2 S102 951 1316389 1545 0
67 2 S102 890 1317279 2435 0
67 2 S102 886 1318165 3321 0
67 2 S102 871 1319036 4192 0
67 2 S102 846 1319882 5038 0
67 2 S102 887 1320769 5925 0
67 2 S102 915 1321684 6840 0
0 0 0 901 1322585 -7179 0
0 0 0 879 1323464 -6300 0
0 0 0 926 1324390 -5374 0
0 0 0 945 1325335 -4429 0
0 0 0 898 1326233 -3531 0
0 0 0 861 1327094 -2670 0
68 1 S106 878 1327972 -1792 0
68 1 S106 903 1328875 -889 0
68 1 S106 870 1329745 -19 0
68 2 S106 835 1330580 816 0
68 2 S106 879 1331459 1695 0
68 2 S106 923 1332382 2618 0
68 2 S106 932 1333314 3550 0
68 2 S106 898 1334212 4448 0
68 2 S106 909 1335121 5357 0
68 2 S106 914 1336035 6271 0
0 0 0 871 1336906 -11393 0
0 0 0 834 1337740 -10559 0
0 0 0 854 1338594 -9705 0
0 0 0 910 1339504 -8795 0
0 0 0 918 1340422 -7877 0
0 0 0 872 1341294 -7005 0
0 0 0 878 1342172 -6127 0
0 0 0 883 1343055 -5244 0
0 0 0 875 1343930 -4369 0
0 0 0 839 1344769 -3530 0
0 0 0 844 1345613 -2686 0
69 1 S102 862 1346475 -1824 0
69 1 S102 888 1347363 -936 0
69 1 S102 872 1348235 -64 0
69 2 S102 871 1349106 807 0
69 2 S102 882 1349988 1689 0
69 2 S102 894 1350882 2583 0
69 2 S102 840 1351722 3423 0
69 2 S102 844 1352566 4267 0
69 2 S102 867 1353433 5134 0
69 2 S102 872 1354305 6006 0
69 2 S102 817 1355122 6823 0
0 0 0 823 1355945 -8004 0
0 0 0 846 1356791 -7158 0
0 0 0 868 1357659 -6290 0
0 0 0 792 1358451 -5498 0
0 0 0 820 1359271 -4678 0
0 0 0 864 1360135 -3814 0
0 0 0 887 1361022 -2927 0
0 0 0 893 1361915 -2034 0
70 1 S112 867 1362782 -1167 0
70 1 S112 841 1363623 -326 0
70 2 S112 835 1364458 509 0
70 2 S112 855 1365313 1364 0
70 2 S112 836 1366149 2200 0
70 2 S112 815 1366964 3015 0
70 2 S112 844 1367808 3859 0
70 2 S112 917 1368725 4776 0
70 2 S112 937 1369662 5713 0
70 2 S112 934 1370596 6647 0
0 0 0 911 1371507 -11175 0
0 0 0 880 1372387 -10295 0
0 0 0 770 1373157 -9525 0
0 0 0 748 1373905 -8777 0
0 0 0 740 1374645 -8037 0
0 0 0 759 1375404 -7278 0
0 0 0 843 1376247 -6435 0
0 0 0 890 1377137 -5545 0
0 0 0 842 1377979 -4703 0
0 0 0 880 1378859 -3823 0
0 0 0 934 1379793 -2889 0
71 1 S116 929 1380722 -1960 0
71 1 S116 883 1381605 -1077 0
71 1 S116 816 1382421 -261 0
71 2 S116 814 1383235 553 0
71 2 S116 817 1384052 1370 0
71 2 S116 773 1384825 2143 0
71 2 S116 714 1385539 2857 0
71 2 S116 681 1386220 3538 0
71 2 S116 691 1386911 4229 0
71 2 S116 750 1387661 4979 0
71 2 S116 1045 1388706 6024 0
0 0 0 1039 1389745 -9450 0
0 0 0 976 1390721 -8474 0
0 0 0 942 1391663 -7532 0
0 0 0 893 1392556 -6639 0
0 0 0 842 1393398 -5797 0
0 0 0 813 1394211 -4984 0
0 0 0 774 1394985 -4210 0
0 0 0 755 1395740 -3455 0
0 0 0 752 1396492 -2703 0
72 1 S102 753 1397245 -1950 0
72 1 S102 739 1397984 -1211 0
72 1 S102 755 1398739 -456 0
72 2 S102 805 1399544 349 0
72 2 S102 877 1400421 1226 0
72 2 S102 900 1401321 2126 0
72 2 S102 860 1402181 2986 0
72 2 S102 852 1403033 3838 0
72 2 S102 845 1403878 4683 0
72 2 S102 826 1404704 5509 0
72 2 S102 829 1405533 6338 0
0 0 0 832 1406365 -7187 0
0 0 0 825 1407190 -6362 0
0 0 0 816 1408006 -5546 0
0 0 0 899 1408905 -4647 0
0 0 0 950 1409855 -3697 0
0 0 0 910 1410765 -2787 0
73 1 S116 827 1411592 -1960 0
73 1 S116 822 1412414 -1138 0
73 1 S116 837 1413251 -301 0
73 2 S116 862 1414113 561 0
73 2 S116 862 1414975 1423 0
73 2 S116 828 1415803 2251 0
73 2 S116 870 1416673 3121 0
73 2 S116 918 1417591 4039 0
73 2 S116 928 1418519 4967 0
73 2 S116 859 1419378 5826 0
73 2 S116 856 1420234 6682 0
0 0 0 873 1421107 -10316 0
0 0 0 876 1421983 -9440 0
0 0 0 846 1422829 -8594 0
0 0 0 832 1423661 -7762 0
0 0 0 909 1424570 -6853 0
0 0 0 1013 1425583 -5840 0
0 0 0 1034 1426617 -4806 0
0 0 0 982 1427599 -3824 0
0 0 0 935 1428534 -2889 0
74 1 S106 901 1429435 -1988 0
74 1 S106 872 1430307 -1116 0
74 1 S106 832 1431139 -284 0
74 2 S106 808 1431947 524 0
74 2 S106 815 1432762 1339 0
74 2 S106 821 1433583 2160 0
74 2 S106 816 1434399 2976 0
74 2 S106 777 1435176 3753 0
74 2 S106 804 1435980 4557 0
74 2 S106 850 1436830 5407 0
74 2 S106 887 1437717 6294 0
0 0 0 858 1438575 -7271 0
0 0 0 883 1439458 -6388 0
0 0 0 909 1440367 -5479 0
0 0 0 922 1441289 -4557 0
0 0 0 880 1442169 -3677 0
0 0 0 888 1443057 -2789 0
75 1 S112 908 1443965 -1881 0
75 1 S112 839 1444804 -1042 0
75 1 S112 855 1445659 -187 0
75 2 S112 769 1446428 582 0
75 2 S112 740 1447168 1322 0
75 2 S112 778 1447946 2100 0
75 2 S112 822 1448768 2922 0
75 2 S112 861 1449629 3783 0
75 2 S112 900 1450529 4683 0
75 2 S112 898 1451427 5581 0
75 2 S112 842 1452269 6423 0
0 0 0 772 1453041 -8787 0
0 0 0 777 1453818 -8010 0
0 0 0 783 1454601 -7227 0
0 0 0 814 1455415 -6413 0
0 0 0 820 1456235 -5593 0
0 0 0 816 1457051 -4777 0
0 0 0 867 1457918 -3910 0
0 0 0 923 1458841 -2987 0
0 0 0 905 1459746 -2082 0
76 1 S116 878 1460624 -1204 0
76 1 S116 876 1461500 -328 0
76 2 S116 867 1462367 539 0
76 2 S116 826 1463193 1365 0
76 2 S116 825 1464018 2190 0
76 2 S116 860 1464878 3050 0
76 2 S116 925 1465803 3975 0
76 2 S116 931 1466734 4906 0
76 2 S116 977 1467711 5883 0
76 2 S116 980 1468691 6863 0
0 0 0 943 1469634 -7479 0
0 0 0 878 1470512 -6601 0
0 0 0 875 1471387 -5726 0
0 0 0 902 1472289 -4824 0
0 0 0 872 1473161 -3952 0
0 0 0 867 1474028 -3085 0
0 0 0 903 1474931 -2182 0
77 1 S106 931 1475862 -1251 0
77 1 S106 932 1476794 -319 0
77 2 S106 888 1477682 569 0
77 2 S106 865 1478547 1434 0
77 2 S106 852 1479399 2286 0
77 2 S106 827 1480226 3113 0
77 2 S106 791 1481017 3904 0
77 2 S106 810 1481827 4714 0
77 2 S106 850 1482677 5564 0
77 2 S106 911 1483588 6475 0
0 0 0 868 1484456 -9600 0
0 0 0 877 1485333 -8723 0
0 0 0 888 1486221 -7835 0
0 0 0 896 1487117 -6939 0
0 0 0 832 1487949 -6107 0
0 0 0 851 1488800 -5256 0
0 0 0 872 1489672 -4384 0
0 0 0 865 1490537 -3519 0
0 0 0 835 1491372 -2684 0
78 1 S112 850 1492222 -1834 0
78 1 S112 910 1493132 -924 0
78 2 S112 957 1494089 33 0
78 2 S112 906 1494995 939 0
78 2 S112 909 1495904 1848 0
78 2 S112 899 1496803 2747 0
78 2 S112 881 1497684 3628 0
78 2 S112 853 1498537 4481 0
78 2 S112 864 1499401 5345 0
78 2 S112 887 1500288 6232 0
0 0 0 876 1501164 -12753 0
0 0 0 859 1502023 -11894 0
0 0 0 911 1502934 -10983 0
0 0 0 961 1503895 -10022 0
0 0 0 923 1504818 -9099 0
0 0 0 909 1505727 -8190 0
0 0 0 896 1506623 -7294 0
0 0 0 873 1507496 -6421 0
0 0 0 800 1508296 -5621 0
0 0 0 814 1509110 -4807 0
0 0 0 843 1509953 -3964 0
0 0 0 857 1510810 -3107 0
0 0 0 838 1511648 -2269 0
79 1 S102 809 1512457 -1460 0
79 1 S102 843 1513300 -617 0
79 2 S102 920 1514220 303 0
79 2 S102 958 1515178 1261 0
79 2 S102 897 1516075 2158 0
79 2 S102 755 1516830 2913 0
79 2 S102 763 1517593 3676 0
79 2 S102 761 1518354 4437 0
79 2 S102 813 1519167 5250 0
79 2 S102 938 1520105 6188 0
0 0 0 1000 1521105 -10419 0
0 0 0 937 1522042 -9482 0
0 0 0 931 1522973 -8551 0
0 0 0 916 1523889 -7635 0
0 0 0 892 1524781 -6743 0
0 0 0 851 1525632 -5892 0
0 0 0 779 1526411 -5113 0
0 0 0 781 1527192 -4332 0
0 0 0 791 1527983 -3541 0
0 0 0 820 1528803 -2721 0
80 1 S116 807 1529610 -1914 0
80 1 S116 809 1530419 -1105 0
80 1 S116 735 1531154 -370 0
80 2 S116 715 1531869 345 0
80 2 S116 735 1532604 1080 0
80 2 S116 789 1533393 1869 0
80 2 S116 802 1534195 2671 0
80 2 S116 864 1535059 3535 0
80 2 S116 912 1535971 4447 0
80 2 S116 897 1536868 5344 0
80 2 S116 837 1537705 6181 0
80 2 S116 814 1538519 6995 0
