T_0184
BeatCount Mean SD BeatCountNoOutliers MeanNoOutliers SDNoOutliers
1587 965,174543163201 94,2978186116753 1550 967,572258064516 84,9885133090601

Trial TrialStatus Trialtype IBI AbsPosition RelPosition Outlier
0 0 0 916 969 -14912 0
0 0 0 934 1903 -13978 0
0 0 0 918 2821 -13060 0
0 0 0 867 3688 -12193 0
0 0 0 793 4481 -11400 0
0 0 0 773 5254 -10627 0
0 0 0 808 6062 -9819 0
0 0 0 835 6897 -8984 0
0 0 0 802 7699 -8182 0
0 0 0 754 8453 -7428 0
0 0 0 738 9191 -6690 0
0 0 0 800 9991 -5890 0
0 0 0 980 10971 -4910 0
0 0 0 1010 11981 -3900 0
0 0 0 996 12977 -2904 0
1 1 S112 989 13966 -1915 0
1 1 S112 985 14951 -930 0
1 2 S112 991 15942 61 0
1 2 S112 978 16920 1039 0
1 2 S112 962 17882 2001 0
1 2 S112 966 18848 2967 0
1 2 S112 978 19826 3945 0
1 2 S112 994 20820 4939 0
1 2 S112 1033 21853 5972 0
1 2 S112 1034 22887 7006 0
0 0 0 1047 23934 -11493 0
0 0 0 1017 24951 -10476 0
0 0 0 976 25927 -9500 0
0 0 0 1012 26939 -8488 0
0 0 0 1023 27962 -7465 0
0 0 0 1076 29038 -6389 0
0 0 0 1104 30142 -5285 0
0 0 0 1111 31253 -4174 0
0 0 0 1056 32309 -3118 0
0 0 0 990 33299 -2128 0
2 1 S102 1008 34307 -1120 0
2 1 S102 1010 35317 -110 0
2 2 S102 1028 36345 918 0
2 2 S102 995 37340 1913 0
2 2 S102 951 38291 2864 0
2 2 S102 992 39283 3856 0
2 2 S102 1014 40297 4870 0
2 2 S102 1074 41371 5944 0
0 0 0 1126 42497 -10122 0
0 0 0 1106 43603 -9016 0
0 0 0 1051 44654 -7965 0
0 0 0 977 45631 -6988 0
0 0 0 919 46550 -6069 0
0 0 0 946 47496 -5123 0
0 0 0 1000 48496 -4123 0
0 0 0 1031 49527 -3092 0
0 0 0 1027 50554 -2065 0
3 1 S116 981 51535 -1084 0
3 1 S116 1003 52538 -81 0
3 2 S116 1001 53539 920 0
3 2 S116 1021 54560 1941 0
3 2 S116 994 55554 2935 0
3 2 S116 1013 56567 3948 0
3 2 S116 1010 57577 4958 0
3 2 S116 940 58517 5898 0
3 2 S116 969 59486 6867 0
0 0 0 1026 60512 -11868 0
0 0 0 1061 61573 -10807 0
0 0 0 1015 62588 -9792 0
0 0 0 1000 63588 -8792 0
0 0 0 983 64571 -7809 0
0 0 0 984 65555 -6825 0
0 0 0 953 66508 -5872 0
0 0 0 912 67420 -4960 0
0 0 0 950 68370 -4010 0
0 0 0 966 69336 -3044 0
0 0 0 968 70304 -2076 0
4 1 S106 864 71168 -1212 0
4 1 S106 826 71994 -386 0
4 2 S106 821 72815 435 0
4 2 S106 852 73667 1287 0
4 2 S106 903 74570 2190 0
4 2 S106 948 75518 3138 0
4 2 S106 963 76481 4101 0
4 2 S106 953 77434 5054 0
4 2 S106 970 78404 6024 0
4 2 S106 924 79328 6948 0
0 0 0 947 80275 -8319 0
0 0 0 941 81216 -7378 0
0 0 0 945 82161 -6433 0
0 0 0 958 83119 -5475 0
0 0 0 923 84042 -4552 0
0 0 0 872 84914 -3680 0
0 0 0 922 85836 -2758 0
5 1 S116 956 86792 -1802 0
5 1 S116 964 87756 -838 0
5 2 S116 1001 88757 163 0
5 2 S116 1034 89791 1197 0
5 2 S116 1009 90800 2206 0
5 2 S116 1000 91800 3206 0
5 2 S116 994 92794 4200 0
5 2 S116 946 93740 5146 0
5 2 S116 923 94663 6069 0
5 2 S116 935 95598 7004 0
0 0 0 959 96557 -9461 0
0 0 0 964 97521 -8497 0
0 0 0 917 98438 -7580 0
0 0 0 890 99328 -6690 0
0 0 0 924 100252 -5766 0
0 0 0 954 101206 -4812 0
0 0 0 1002 102208 -3810 0
0 0 0 992 103200 -2818 0
6 1 S106 849 104049 -1969 0
6 1 S106 826 104875 -1143 0
6 1 S106 866 105741 -277 0
6 2 S106 829 106570 552 0
6 2 S106 845 107415 1397 0
6 2 S106 926 108341 2323 0
6 2 S106 1006 109347 3329 0
6 2 S106 994 110341 4323 0
6 2 S106 1000 111341 5323 0
6 2 S106 975 112316 6298 0
0 0 0 980 113296 -9698 0
0 0 0 1015 114311 -8683 0
0 0 0 968 115279 -7715 0
0 0 0 979 116258 -6736 0
0 0 0 1015 117273 -5721 0
0 0 0 988 118261 -4733 0
0 0 0 882 119143 -3851 0
0 0 0 887 120030 -2964 0
0 0 0 932 120962 -2032 0
7 1 S102 985 121947 -1047 0
7 1 S102 1041 122988 -6 0
7 2 S102 1078 124066 1072 0
7 2 S102 992 125058 2064 0
7 2 S102 989 126047 3053 0
7 2 S102 981 127028 4034 0
7 2 S102 972 128000 5006 0
7 2 S102 971 128971 5977 0
7 2 S102 900 129871 6877 0
0 0 0 902 130773 -7507 0
0 0 0 973 131746 -6534 0
0 0 0 971 132717 -5563 0
0 0 0 1002 133719 -4561 0
0 0 0 1037 134756 -3524 0
0 0 0 974 135730 -2550 0
8 1 S112 938 136668 -1612 0
8 1 S112 956 137624 -656 0
8 2 S112 996 138620 340 0
8 2 S112 1016 139636 1356 0
8 2 S112 1027 140663 2383 0
8 2 S112 1017 141680 3400 0
8 2 S112 990 142670 4390 0
8 2 S112 932 143602 5322 0
8 2 S112 945 144547 6267 0
0 0 0 980 145527 -8270 0
0 0 0 1010 146537 -7260 0
0 0 0 1026 147563 -6234 0
0 0 0 994 148557 -5240 0
0 0 0 983 149540 -4257 0
0 0 0 950 150490 -3307 0
0 0 0 949 151439 -2358 0
9 1 S116 946 152385 -1412 0
9 1 S116 965 153350 -447 0
9 2 S116 887 154237 440 0
9 2 S116 856 155093 1296 0
9 2 S116 880 155973 2176 0
9 2 S116 931 156904 3107 0
9 2 S116 933 157837 4040 0
9 2 S116 964 158801 5004 0
9 2 S116 988 159789 5992 0
9 2 S116 945 160734 6937 0
0 0 0 900 161634 -11991 0
0 0 0 890 162524 -11101 0
0 0 0 929 163453 -10172 0
0 0 0 985 164438 -9187 0
0 0 0 956 165394 -8231 0
0 0 0 819 166213 -7412 0
0 0 0 790 167003 -6622 0
0 0 0 820 167823 -5802 0
0 0 0 811 168634 -4991 0
0 0 0 775 169409 -4216 0
0 0 0 797 170206 -3419 0
0 0 0 853 171059 -2566 0
10 1 S102 985 172044 -1581 0
10 1 S102 1032 173076 -549 0
10 2 S102 1034 174110 485 0
10 2 S102 929 175039 1414 0
10 2 S102 899 175938 2313 0
10 2 S102 947 176885 3260 0
10 2 S102 967 177852 4227 0
10 2 S102 980 178832 5207 0
10 2 S102 993 179825 6200 0
0 0 0 984 180809 -10986 0
0 0 0 930 181739 -10056 0
0 0 0 969 182708 -9087 0
0 0 0 938 183646 -8149 0
0 0 0 811 184457 -7338 0
0 0 0 766 185223 -6572 0
0 0 0 749 185972 -5823 0
0 0 0 848 186820 -4975 0
0 0 0 1001 187821 -3974 0
0 0 0 902 188723 -3072 0
0 0 0 873 189596 -2199 0
11 1 S112 912 190508 -1287 0
11 1 S112 956 191464 -331 0
11 2 S112 1078 192542 747 0
11 2 S112 1191 193733 1938 0
11 2 S112 1116 194849 3054 0
11 2 S112 1004 195853 4058 0
11 2 S112 915 196768 4973 0
11 2 S112 944 197712 5917 0
11 2 S112 999 198711 6916 0
0 0 0 1049 199760 -8016 0
0 0 0 1084 200844 -6932 0
0 0 0 1040 201884 -5892 0
0 0 0 1014 202898 -4878 0
0 0 0 924 203822 -3954 0
0 0 0 955 204777 -2999 0
0 0 0 996 205773 -2003 0
12 1 S116 1013 206786 -990 0
12 2 S116 1013 207799 23 0
12 2 S116 997 208796 1020 0
12 2 S116 957 209753 1977 0
12 2 S116 902 210655 2879 0
12 2 S116 924 211579 3803 0
12 2 S116 970 212549 4773 0
12 2 S116 1032 213581 5805 0
12 2 S116 1049 214630 6854 0
0 0 0 1067 215697 -12570 0
0 0 0 984 216681 -11586 0
0 0 0 977 217658 -10609 0
0 0 0 1006 218664 -9603 0
0 0 0 1056 219720 -8547 0
0 0 0 991 220711 -7556 0
0 0 0 918 221629 -6638 0
0 0 0 917 222546 -5721 0
0 0 0 973 223519 -4748 0
0 0 0 1016 224535 -3732 0
0 0 0 1052 225587 -2680 0
13 1 S112 937 226524 -1743 0
13 1 S112 908 227432 -835 0
13 2 S112 912 228344 77 0
13 2 S112 909 229253 986 0
13 2 S112 845 230098 1831 0
13 2 S112 826 230924 2657 0
13 2 S112 780 231704 3437 0
13 2 S112 790 232494 4227 0
13 2 S112 822 233316 5049 0
13 2 S112 843 234159 5892 0
13 2 S112 882 235041 6774 0
0 0 0 878 235919 -11513 0
0 0 0 855 236774 -10658 0
0 0 0 810 237584 -9848 0
0 0 0 797 238381 -9051 0
0 0 0 834 239215 -8217 0
0 0 0 819 240034 -7398 0
0 0 0 773 240807 -6625 0
0 0 0 752 241559 -5873 0
0 0 0 957 242516 -4916 0
0 0 0 1080 243596 -3836 0
0 0 0 1103 244699 -2733 0
14 1 S106 1008 245707 -1725 0
14 1 S106 985 246692 -740 0
14 2 S106 980 247672 240 0
14 2 S106 987 248659 1227 0
14 2 S106 887 249546 2114 0
14 2 S106 920 250466 3034 0
14 2 S106 974 251440 4008 0
14 2 S106 1003 252443 5011 0
14 2 S106 997 253440 6008 0
14 2 S106 1016 254456 7024 0
0 0 0 998 255454 -10082 0
0 0 0 997 256451 -9085 0
0 0 0 908 257359 -8177 0
0 0 0 932 258291 -7245 0
0 0 0 978 259269 -6267 0
0 0 0 1042 260311 -5225 0
0 0 0 1089 261400 -4136 0
0 0 0 1084 262484 -3052 0
0 0 0 949 263433 -2103 0
15 1 S116 939 264372 -1164 0
15 1 S116 990 265362 -174 0
15 2 S116 1078 266440 904 0
15 2 S116 1101 267541 2005 0
15 2 S116 1115 268656 3120 0
15 2 S116 1065 269721 4185 0
15 2 S116 993 270714 5178 0
15 2 S116 951 271665 6129 0
0 0 0 980 272645 -9303 0
0 0 0 1010 273655 -8293 0
0 0 0 1012 274667 -7281 0
0 0 0 926 275593 -6355 0
0 0 0 906 276499 -5449 0
0 0 0 936 277435 -4513 0
0 0 0 1015 278450 -3498 0
0 0 0 1034 279484 -2464 0
16 1 S116 969 280453 -1495 0
16 1 S116 980 281433 -515 0
16 2 S116 974 282407 459 0
16 2 S116 985 283392 1444 0
16 2 S116 1010 284402 2454 0
16 2 S116 990 285392 3444 0
16 2 S116 985 286377 4429 0
16 2 S116 979 287356 5408 0
16 2 S116 1005 288361 6413 0
0 0 0 976 289337 -11179 0
0 0 0 934 290271 -10245 0
0 0 0 971 291242 -9274 0
0 0 0 1017 292259 -8257 0
0 0 0 977 293236 -7280 0
0 0 0 964 294200 -6316 0
0 0 0 983 295183 -5333 0
0 0 0 1002 296185 -4331 0
0 0 0 993 297178 -3338 0
0 0 0 909 298087 -2429 0
17 1 S106 910 298997 -1519 0
17 1 S106 925 299922 -594 0
17 2 S106 965 300887 371 0
17 2 S106 957 301844 1328 0
17 2 S106 964 302808 2292 0
17 2 S106 959 303767 3251 0
17 2 S106 912 304679 4163 0
17 2 S106 878 305557 5041 0
17 2 S106 926 306483 5967 0
17 2 S106 969 307452 6936 0
0 0 0 1011 308463 -12130 0
0 0 0 1018 309481 -11112 0
0 0 0 973 310454 -10139 0
0 0 0 969 311423 -9170 0
0 0 0 974 312397 -8196 0
0 0 0 940 313337 -7256 0
0 0 0 899 314236 -6357 0
0 0 0 899 315135 -5458 0
0 0 0 967 316102 -4491 0
0 0 0 1009 317111 -3482 0
0 0 0 1001 318112 -2481 0
18 1 S102 961 319073 -1520 0
18 1 S102 1021 320094 -499 0
18 2 S102 1035 321129 536 0
18 2 S102 1027 322156 1563 0
18 2 S102 998 323154 2561 0
18 2 S102 992 324146 3553 0
18 2 S102 957 325103 4510 0
18 2 S102 953 326056 5463 0
18 2 S102 981 327037 6444 0
0 0 0 996 328033 -8425 0
0 0 0 1011 329044 -7414 0
0 0 0 945 329989 -6469 0
0 0 0 992 330981 -5477 0
0 0 0 1029 332010 -4448 0
0 0 0 990 333000 -3458 0
0 0 0 977 333977 -2481 0
19 1 S106 925 334902 -1556 0
19 1 S106 934 335836 -622 0
19 2 S106 953 336789 331 0
19 2 S106 977 337766 1308 0
19 2 S106 982 338748 2290 0
19 2 S106 987 339735 3277 0
19 2 S106 1022 340757 4299 0
19 2 S106 951 341708 5250 0
19 2 S106 909 342617 6159 0
0 0 0 918 343535 -12635 0
0 0 0 961 344496 -11674 0
0 0 0 981 345477 -10693 0
0 0 0 939 346416 -9754 0
0 0 0 928 347344 -8826 0
0 0 0 950 348294 -7876 0
0 0 0 921 349215 -6955 0
0 0 0 913 350128 -6042 0
0 0 0 820 350948 -5222 0
0 0 0 763 351711 -4459 0
0 0 0 750 352461 -3709 0
0 0 0 755 353216 -2954 0
0 0 0 770 353986 -2184 0
20 1 S112 822 354808 -1362 0
20 1 S112 934 355742 -428 0
20 2 S112 1027 356769 599 0
20 2 S112 1014 357783 1613 0
20 2 S112 924 358707 2537 0
20 2 S112 904 359611 3441 0
20 2 S112 944 360555 4385 0
20 2 S112 1011 361566 5396 0
20 2 S112 1005 362571 6401 0
0 0 0 1006 363577 -11194 0
0 0 0 1008 364585 -10186 0
0 0 0 966 365551 -9220 0
0 0 0 909 366460 -8311 0
0 0 0 962 367422 -7349 0
0 0 0 1028 368450 -6321 0
0 0 0 1023 369473 -5298 0
0 0 0 1000 370473 -4298 0
0 0 0 951 371424 -3347 0
0 0 0 953 372377 -2394 0
21 1 S106 997 373374 -1397 0
21 1 S106 1024 374398 -373 0
21 2 S106 1026 375424 653 0
21 2 S106 1006 376430 1659 0
21 2 S106 979 377409 2638 0
21 2 S106 937 378346 3575 0
21 2 S106 927 379273 4502 0
21 2 S106 949 380222 5451 0
21 2 S106 977 381199 6428 0
0 0 0 1019 382218 -12878 0
0 0 0 1027 383245 -11851 0
0 0 0 964 384209 -10887 0
0 0 0 930 385139 -9957 0
0 0 0 970 386109 -8987 0
0 0 0 894 387003 -8093 0
0 0 0 789 387792 -7304 0
0 0 0 777 388569 -6527 0
0 0 0 824 389393 -5703 0
0 0 0 924 390317 -4779 0
0 0 0 856 391173 -3923 0
0 0 0 841 392014 -3082 0
0 0 0 888 392902 -2194 0
22 1 S116 980 393882 -1214 0
22 1 S116 1061 394943 -153 0
22 2 S116 1084 396027 931 0
22 2 S116 1063 397090 1994 0
22 2 S116 1049 398139 3043 0
22 2 S116 981 399120 4024 0
22 2 S116 969 400089 4993 0
22 2 S116 992 401081 5985 0
22 2 S116 1016 402097 7001 0
0 0 0 1026 403123 -8551 0
0 0 0 973 404096 -7578 0
0 0 0 965 405061 -6613 0
0 0 0 879 405940 -5734 0
0 0 0 824 406764 -4910 0
0 0 0 919 407683 -3991 0
0 0 0 986 408669 -3005 0
23 1 S112 1201 409870 -1804 0
23 1 S112 1207 411077 -597 0
23 2 S112 1086 412163 489 0
23 2 S112 1033 413196 1522 0
23 2 S112 1000 414196 2522 0
23 2 S112 978 415174 3500 0
23 2 S112 1000 416174 4500 0
23 2 S112 991 417165 5491 0
23 2 S112 939 418104 6430 0
0 0 0 918 419022 -10491 0
0 0 0 973 419995 -9518 0
0 0 0 1020 421015 -8498 0
0 0 0 1025 422040 -7473 0
0 0 0 950 422990 -6523 0
0 0 0 822 423812 -5701 0
0 0 0 776 424588 -4925 0
0 0 0 758 425346 -4167 0
0 0 0 835 426181 -3332 0
0 0 0 1093 427274 -2239 0
24 1 S106 1058 428332 -1181 0
24 1 S106 1109 429441 -72 0
24 2 S106 1081 430522 1009 0
24 2 S106 1027 431549 2036 0
24 2 S106 996 432545 3032 0
24 2 S106 955 433500 3987 0
24 2 S106 883 434383 4870 0
24 2 S106 838 435221 5708 0
24 2 S106 828 436049 6536 0
0 0 0 862 436911 -8948 0
0 0 0 891 437802 -8057 0
0 0 0 940 438742 -7117 0
0 0 0 879 439621 -6238 0
0 0 0 893 440514 -5345 0
0 0 0 1011 441525 -4334 0
0 0 0 1160 442685 -3174 0
0 0 0 1109 443794 -2065 0
25 1 S102 1011 444805 -1054 0
25 1 S102 983 445788 -71 0
25 2 S102 991 446779 920 0
25 2 S102 952 447731 1872 0
25 2 S102 832 448563 2704 0
25 2 S102 776 449339 3480 0
25 2 S102 791 450130 4271 0
25 2 S102 932 451062 5203 0
25 2 S102 1058 452120 6261 0
0 0 0 1009 453129 -6474 0
0 0 0 950 454079 -5524 0
0 0 0 1031 455110 -4493 0
0 0 0 1039 456149 -3454 0
0 0 0 1046 457195 -2408 0
26 1 S116 1058 458253 -1350 0
26 1 S116 1095 459348 -255 0
26 2 S116 1024 460372 769 0
26 2 S116 1033 461405 1802 0
26 2 S116 1041 462446 2843 0
26 2 S116 1039 463485 3882 0
26 2 S116 974 464459 4856 0
26 2 S116 1002 465461 5858 0
26 2 S116 1056 466517 6914 0
0 0 0 1078 467595 -7956 0
0 0 0 1088 468683 -6868 0
0 0 0 984 469667 -5884 0
0 0 0 974 470641 -4910 0
0 0 0 975 471616 -3935 0
0 0 0 1044 472660 -2891 0
27 1 S106 1037 473697 -1854 0
27 1 S106 1049 474746 -805 0
27 2 S106 975 475721 170 0
27 2 S106 925 476646 1095 0
27 2 S106 931 477577 2026 0
27 2 S106 949 478526 2975 0
27 2 S106 952 479478 3927 0
27 2 S106 978 480456 4905 0
27 2 S106 980 481436 5885 0
27 2 S106 934 482370 6819 0
0 0 0 895 483265 -6146 0
0 0 0 963 484228 -5183 0
0 0 0 1001 485229 -4182 0
0 0 0 1010 486239 -3172 0
0 0 0 983 487222 -2189 0
28 1 S102 967 488189 -1222 0
28 1 S102 1005 489194 -217 0
28 2 S102 1020 490214 803 0
28 2 S102 999 491213 1802 0
28 2 S102 996 492209 2798 0
28 2 S102 926 493135 3724 0
28 2 S102 939 494074 4663 0
28 2 S102 952 495026 5615 0
28 2 S102 943 495969 6558 0
0 0 0 892 496861 -11250 0
0 0 0 942 497803 -10308 0
0 0 0 957 498760 -9351 0
0 0 0 970 499730 -8381 0
0 0 0 906 500636 -7475 0
0 0 0 929 501565 -6546 0
0 0 0 959 502524 -5587 0
0 0 0 985 503509 -4602 0
0 0 0 955 504464 -3647 0
0 0 0 928 505392 -2719 0
29 1 S112 946 506338 -1773 0
29 1 S112 959 507297 -814 0
29 2 S112 953 508250 139 0
29 2 S112 949 509199 1088 0
29 2 S112 919 510118 2007 0
29 2 S112 944 511062 2951 0
29 2 S112 997 512059 3948 0
29 2 S112 1038 513097 4986 0
29 2 S112 1080 514177 6066 0
0 0 0 1067 515244 -6776 0
0 0 0 993 516237 -5783 0
0 0 0 1020 517257 -4763 0
0 0 0 997 518254 -3766 0
0 0 0 959 519213 -2807 0
30 1 S112 956 520169 -1851 0
30 1 S112 1033 521202 -818 0
30 2 S112 1049 522251 231 0
30 2 S112 1039 523290 1270 0
30 2 S112 1010 524300 2280 0
30 2 S112 931 525231 3211 0
30 2 S112 966 526197 4177 0
30 2 S112 1010 527207 5187 0
30 2 S112 1049 528256 6236 0
0 0 0 1059 529315 -10792 0
0 0 0 1077 530392 -9715 0
0 0 0 961 531353 -8754 0
0 0 0 937 532290 -7817 0
0 0 0 989 533279 -6828 0
0 0 0 894 534173 -5934 0
0 0 0 811 534984 -5123 0
0 0 0 767 535751 -4356 0
0 0 0 777 536528 -3579 0
0 0 0 821 537349 -2758 0
31 1 S106 867 538216 -1891 0
31 1 S106 871 539087 -1020 0
31 1 S106 901 539988 -119 0
31 2 S106 927 540915 808 0
31 2 S106 893 541808 1701 0
31 2 S106 824 542632 2525 0
31 2 S106 846 543478 3371 0
31 2 S106 888 544366 4259 0
31 2 S106 934 545300 5193 0
31 2 S106 1027 546327 6220 0
0 0 0 1022 547349 -10182 0
0 0 0 962 548311 -9220 0
0 0 0 931 549242 -8289 0
0 0 0 981 550223 -7308 0
0 0 0 999 551222 -6309 0
0 0 0 991 552213 -5318 0
0 0 0 1017 553230 -4301 0
0 0 0 969 554199 -3332 0
0 0 0 946 555145 -2386 0
32 1 S102 999 556144 -1387 0
32 1 S102 1024 557168 -363 0
32 2 S102 1015 558183 652 0
32 2 S102 1037 559220 1689 0
32 2 S102 992 560212 2681 0
32 2 S102 917 561129 3598 0
32 2 S102 875 562004 4473 0
32 2 S102 890 562894 5363 0
32 2 S102 951 563845 6314 0
0 0 0 1043 564888 -12670 0
0 0 0 1074 565962 -11596 0
0 0 0 1144 567106 -10452 0
0 0 0 1068 568174 -9384 0
0 0 0 1026 569200 -8358 0
0 0 0 967 570167 -7391 0
0 0 0 941 571108 -6450 0
0 0 0 889 571997 -5561 0
0 0 0 895 572892 -4666 0
0 0 0 933 573825 -3733 0
0 0 0 1001 574826 -2732 0
33 1 S112 1049 575875 -1683 0
33 1 S112 1056 576931 -627 0
33 2 S112 1069 578000 442 0
33 2 S112 1007 579007 1449 0
33 2 S112 926 579933 2375 0
33 2 S112 934 580867 3309 0
33 2 S112 973 581840 4282 0
33 2 S112 1050 582890 5332 0
33 2 S112 1092 583982 6424 0
0 0 0 1083 585065 -12089 0
0 0 0 1034 586099 -11055 0
0 0 0 875 586974 -10180 0
0 0 0 788 587762 -9392 0
0 0 0 809 588571 -8583 0
0 0 0 968 589539 -7615 0
0 0 0 1045 590584 -6570 0
0 0 0 1108 591692 -5462 0
0 0 0 1089 592781 -4373 0
0 0 0 1044 593825 -3329 0
0 0 0 1031 594856 -2298 0
34 1 S106 996 595852 -1302 0
34 1 S106 975 596827 -327 0
34 2 S106 923 597750 596 0
34 2 S106 864 598614 1460 0
34 2 S106 807 599421 2267 0
34 2 S106 793 600214 3060 0
34 2 S106 760 600974 3820 0
34 2 S106 787 601761 4607 0
34 2 S106 831 602592 5438 0
34 2 S106 935 603527 6373 0
0 0 0 1031 604558 -8428 0
0 0 0 1011 605569 -7417 0
0 0 0 972 606541 -6445 0
0 0 0 934 607475 -5511 0
0 0 0 963 608438 -4548 0
0 0 0 961 609399 -3587 0
0 0 0 881 610280 -2706 0
35 1 S102 829 611109 -1877 0
35 1 S102 777 611886 -1100 0
35 1 S102 725 612611 -375 0
35 2 S102 706 613317 331 1
35 2 S102 697 614014 1028 1
35 2 S102 708 614722 1736 1
35 2 S102 718 615440 2454 1
35 2 S102 759 616199 3213 0
35 2 S102 790 616989 4003 0
35 2 S102 794 617783 4797 0
35 2 S102 764 618547 5561 0
35 2 S102 747 619294 6308 0
0 0 0 779 620073 -5960 0
0 0 0 849 620922 -5111 0
0 0 0 961 621883 -4150 0
0 0 0 1050 622933 -3100 0
0 0 0 1047 623980 -2053 0
36 1 S106 1013 624993 -1040 0
36 1 S106 966 625959 -74 0
36 2 S106 980 626939 906 0
36 2 S106 997 627936 1903 0
36 2 S106 1026 628962 2929 0
36 2 S106 1000 629962 3929 0
36 2 S106 997 630959 4926 0
36 2 S106 967 631926 5893 0
36 2 S106 1032 632958 6925 0
0 0 0 1083 634041 -9284 0
0 0 0 1089 635130 -8195 0
0 0 0 986 636116 -7209 0
0 0 0 982 637098 -6227 0
0 0 0 962 638060 -5265 0
0 0 0 973 639033 -4292 0
0 0 0 976 640009 -3316 0
0 0 0 892 640901 -2424 0
37 1 S116 906 641807 -1518 0
37 1 S116 958 642765 -560 0
37 2 S116 1018 643783 458 0
37 2 S116 1067 644850 1525 0
37 2 S116 1041 645891 2566 0
37 2 S116 1023 646914 3589 0
37 2 S116 969 647883 4558 0
37 2 S116 957 648840 5515 0
37 2 S116 960 649800 6475 0
0 0 0 967 650767 -12717 0
0 0 0 957 651724 -11760 0
0 0 0 902 652626 -10858 0
0 0 0 872 653498 -9986 0
0 0 0 939 654437 -9047 0
0 0 0 925 655362 -8122 0
0 0 0 820 656182 -7302 0
0 0 0 794 656976 -6508 0
0 0 0 797 657773 -5711 0
0 0 0 816 658589 -4895 0
0 0 0 867 659456 -4028 0
0 0 0 951 660407 -3077 0
0 0 0 960 661367 -2117 0
38 1 S102 975 662342 -1142 0
38 1 S102 935 663277 -207 0
38 2 S102 900 664177 693 0
38 2 S102 945 665122 1638 0
38 2 S102 946 666068 2584 0
38 2 S102 966 667034 3550 0
38 2 S102 994 668028 4544 0
38 2 S102 954 668982 5498 0
38 2 S102 916 669898 6414 0
0 0 0 966 670864 -8751 0
0 0 0 1029 671893 -7722 0
0 0 0 1064 672957 -6658 0
0 0 0 1036 673993 -5622 0
0 0 0 1059 675052 -4563 0
0 0 0 1039 676091 -3524 0
0 0 0 955 677046 -2569 0
39 1 S116 944 677990 -1625 0
39 1 S116 1003 678993 -622 0
39 2 S116 1023 680016 401 0
39 2 S116 1071 681087 1472 0
39 2 S116 1062 682149 2534 0
39 2 S116 1036 683185 3570 0
39 2 S116 1011 684196 4581 0
39 2 S116 939 685135 5520 0
39 2 S116 906 686041 6426 0
0 0 0 945 686986 -9091 0
0 0 0 1000 687986 -8091 0
0 0 0 1016 689002 -7075 0
0 0 0 971 689973 -6104 0
0 0 0 992 690965 -5112 0
0 0 0 984 691949 -4128 0
0 0 0 924 692873 -3204 0
0 0 0 919 693792 -2285 0
40 1 S112 851 694643 -1434 0
40 1 S112 862 695505 -572 0
40 2 S112 882 696387 310 0
40 2 S112 927 697314 1237 0
40 2 S112 972 698286 2209 0
40 2 S112 971 699257 3180 0
40 2 S112 1002 700259 4182 0
40 2 S112 983 701242 5165 0
40 2 S112 923 702165 6088 0
40 2 S112 917 703082 7005 0
0 0 0 949 704031 -187390 0
0 0 0 987 705018 -186403 0
0 0 0 1021 706039 -185382 0
0 0 0 987 707026 -184395 0
0 0 0 986 708012 -183409 0
0 0 0 1008 709020 -182401 0
0 0 0 888 709908 -181513 0
0 0 0 789 710697 -180724 0
0 0 0 756 711453 -179968 0
0 0 0 725 712178 -179243 0
0 0 0 716 712894 -178527 1
0 0 0 774 713668 -177753 0
0 0 0 1142 714810 -176611 0
0 0 0 1166 715976 -175445 0
0 0 0 1135 717111 -174310 0
0 0 0 1114 718225 -173196 0
0 0 0 979 719204 -172217 0
0 0 0 900 720104 -171317 0
0 0 0 811 720915 -170506 0
0 0 0 791 721706 -169715 0
0 0 0 813 722519 -168902 0
0 0 0 937 723456 -167965 0
0 0 0 1271 724727 -166694 1
0 0 0 1156 725883 -165538 0
0 0 0 1119 727002 -164419 0
0 0 0 1092 728094 -163327 0
0 0 0 1036 729130 -162291 0
0 0 0 1023 730153 -161268 0
0 0 0 991 731144 -160277 0
0 0 0 902 732046 -159375 0
0 0 0 891 732937 -158484 0
0 0 0 827 733764 -157657 0
0 0 0 883 734647 -156774 0
0 0 0 861 735508 -155913 0
0 0 0 784 736292 -155129 0
0 0 0 730 737022 -154399 0
0 0 0 754 737776 -153645 0
0 0 0 891 738667 -152754 0
0 0 0 995 739662 -151759 0
0 0 0 931 740593 -150828 0
0 0 0 915 741508 -149913 0
0 0 0 914 742422 -148999 0
0 0 0 916 743338 -148083 0
0 0 0 863 744201 -147220 0
0 0 0 815 745016 -146405 0
0 0 0 829 745845 -145576 0
0 0 0 837 746682 -144739 0
0 0 0 863 747545 -143876 0
0 0 0 945 748490 -142931 0
0 0 0 840 749330 -142091 0
0 0 0 754 750084 -141337 0
0 0 0 772 750856 -140565 0
0 0 0 881 751737 -139684 0
0 0 0 961 752698 -138723 0
0 0 0 940 753638 -137783 0
0 0 0 833 754471 -136950 0
0 0 0 794 755265 -136156 0
0 0 0 745 756010 -135411 0
0 0 0 761 756771 -134650 0
0 0 0 768 757539 -133882 0
0 0 0 870 758409 -133012 0
0 0 0 818 759227 -132194 0
0 0 0 799 760026 -131395 0
0 0 0 755 760781 -130640 0
0 0 0 727 761508 -129913 0
0 0 0 707 762215 -129206 1
0 0 0 688 762903 -128518 1
0 0 0 676 763579 -127842 1
0 0 0 666 764245 -127176 1
0 0 0 664 764909 -126512 1
0 0 0 658 765567 -125854 1
0 0 0 669 766236 -125185 1
0 0 0 684 766920 -124501 1
0 0 0 700 767620 -123801 1
0 0 0 698 768318 -123103 1
0 0 0 695 769013 -122408 1
0 0 0 698 769711 -121710 1
0 0 0 724 770435 -120986 0
0 0 0 784 771219 -120202 0
0 0 0 978 772197 -119224 0
0 0 0 893 773090 -118331 0
0 0 0 915 774005 -117416 0
0 0 0 987 774992 -116429 0
0 0 0 997 775989 -115432 0
0 0 0 929 776918 -114503 0
0 0 0 882 777800 -113621 0
0 0 0 860 778660 -112761 0
0 0 0 886 779546 -111875 0
0 0 0 892 780438 -110983 0
0 0 0 943 781381 -110040 0
0 0 0 942 782323 -109098 0
0 0 0 936 783259 -108162 0
0 0 0 873 784132 -107289 0
0 0 0 812 784944 -106477 0
0 0 0 896 785840 -105581 0
0 0 0 955 786795 -104626 0
0 0 0 1070 787865 -103556 0
0 0 0 1305 789170 -102251 1
0 0 0 1173 790343 -101078 0
0 0 0 1018 791361 -100060 0
0 0 0 910 792271 -99150 0
0 0 0 991 793262 -98159 0
0 0 0 1115 794377 -97044 0
0 0 0 1036 795413 -96008 0
0 0 0 1014 796427 -94994 0
0 0 0 977 797404 -94017 0
0 0 0 923 798327 -93094 0
0 0 0 970 799297 -92124 0
0 0 0 968 800265 -91156 0
0 0 0 925 801190 -90231 0
0 0 0 879 802069 -89352 0
0 0 0 898 802967 -88454 0
0 0 0 986 803953 -87468 0
0 0 0 1047 805000 -86421 0
0 0 0 1107 806107 -85314 0
0 0 0 1027 807134 -84287 0
0 0 0 985 808119 -83302 0
0 0 0 842 808961 -82460 0
0 0 0 827 809788 -81633 0
0 0 0 835 810623 -80798 0
0 0 0 842 811465 -79956 0
0 0 0 1018 812483 -78938 0
0 0 0 964 813447 -77974 0
0 0 0 924 814371 -77050 0
0 0 0 946 815317 -76104 0
0 0 0 929 816246 -75175 0
0 0 0 911 817157 -74264 0
0 0 0 936 818093 -73328 0
0 0 0 967 819060 -72361 0
0 0 0 986 820046 -71375 0
0 0 0 945 820991 -70430 0
0 0 0 906 821897 -69524 0
0 0 0 918 822815 -68606 0
0 0 0 946 823761 -67660 0
0 0 0 986 824747 -66674 0
0 0 0 1083 825830 -65591 0
0 0 0 1236 827066 -64355 1
0 0 0 1093 828159 -63262 0
0 0 0 1042 829201 -62220 0
0 0 0 1002 830203 -61218 0
0 0 0 876 831079 -60342 0
0 0 0 785 831864 -59557 0
0 0 0 715 832579 -58842 1
0 0 0 696 833275 -58146 1
0 0 0 692 833967 -57454 1
0 0 0 726 834693 -56728 0
0 0 0 1238 835931 -55490 1
0 0 0 1337 837268 -54153 1
0 0 0 1187 838455 -52966 0
0 0 0 1096 839551 -51870 0
0 0 0 1019 840570 -50851 0
0 0 0 959 841529 -49892 0
0 0 0 947 842476 -48945 0
0 0 0 931 843407 -48014 0
0 0 0 892 844299 -47122 0
0 0 0 871 845170 -46251 0
0 0 0 856 846026 -45395 0
0 0 0 808 846834 -44587 0
0 0 0 789 847623 -43798 0
0 0 0 835 848458 -42963 0
0 0 0 922 849380 -42041 0
0 0 0 1026 850406 -41015 0
0 0 0 1008 851414 -40007 0
0 0 0 977 852391 -39030 0
0 0 0 961 853352 -38069 0
0 0 0 949 854301 -37120 0
0 0 0 1001 855302 -36119 0
0 0 0 983 856285 -35136 0
0 0 0 916 857201 -34220 0
0 0 0 941 858142 -33279 0
0 0 0 962 859104 -32317 0
0 0 0 979 860083 -31338 0
0 0 0 1009 861092 -30329 0
0 0 0 991 862083 -29338 0
0 0 0 934 863017 -28404 0
0 0 0 895 863912 -27509 0
0 0 0 898 864810 -26611 0
0 0 0 853 865663 -25758 0
0 0 0 841 866504 -24917 0
0 0 0 799 867303 -24118 0
0 0 0 842 868145 -23276 0
0 0 0 831 868976 -22445 0
0 0 0 790 869766 -21655 0
0 0 0 801 870567 -20854 0
0 0 0 873 871440 -19981 0
0 0 0 937 872377 -19044 0
0 0 0 801 873178 -18243 0
0 0 0 790 873968 -17453 0
0 0 0 802 874770 -16651 0
0 0 0 799 875569 -15852 0
0 0 0 871 876440 -14981 0
0 0 0 950 877390 -14031 0
0 0 0 946 878336 -13085 0
0 0 0 893 879229 -12192 0
0 0 0 879 880108 -11313 0
0 0 0 853 880961 -10460 0
0 0 0 813 881774 -9647 0
0 0 0 856 882630 -8791 0
0 0 0 926 883556 -7865 0
0 0 0 888 884444 -6977 0
0 0 0 758 885202 -6219 0
0 0 0 840 886042 -5379 0
0 0 0 987 887029 -4392 0
0 0 0 1071 888100 -3321 0
0 0 0 1122 889222 -2199 0
41 1 S102 1101 890323 -1098 0
41 1 S102 1067 891390 -31 0
41 2 S102 1030 892420 999 0
41 2 S102 987 893407 1986 0
41 2 S102 918 894325 2904 0
41 2 S102 788 895113 3692 0
41 2 S102 723 895836 4415 0
41 2 S102 731 896567 5146 0
41 2 S102 868 897435 6014 0
0 0 0 1146 898581 -7611 0
0 0 0 1108 899689 -6503 0
0 0 0 1085 900774 -5418 0
0 0 0 1048 901822 -4370 0
0 0 0 943 902765 -3427 0
0 0 0 969 903734 -2458 0
42 1 S112 1023 904757 -1435 0
42 1 S112 1090 905847 -345 0
42 2 S112 1125 906972 780 0
42 2 S112 1116 908088 1896 0
42 2 S112 1081 909169 2977 0
42 2 S112 1092 910261 4069 0
42 2 S112 1056 911317 5125 0
42 2 S112 1054 912371 6179 0
0 0 0 1066 913437 -8588 0
0 0 0 1090 914527 -7498 0
0 0 0 1042 915569 -6456 0
0 0 0 950 916519 -5506 0
0 0 0 972 917491 -4534 0
0 0 0 1021 918512 -3513 0
0 0 0 1073 919585 -2440 0
43 1 S116 1122 920707 -1318 0
43 1 S116 1107 921814 -211 0
43 2 S116 1124 922938 913 0
43 2 S116 1048 923986 1961 0
43 2 S116 999 924985 2960 0
43 2 S116 976 925961 3936 0
43 2 S116 988 926949 4924 0
43 2 S116 1032 927981 5956 0
43 2 S116 1023 929004 6979 0
0 0 0 951 929955 -6576 0
0 0 0 1009 930964 -5567 0
0 0 0 1040 932004 -4527 0
0 0 0 1012 933016 -3515 0
0 0 0 930 933946 -2585 0
44 1 S102 976 934922 -1609 0
44 1 S102 1032 935954 -577 0
44 2 S102 1031 936985 454 0
44 2 S102 983 937968 1437 0
44 2 S102 965 938933 2402 0
44 2 S102 981 939914 3383 0
44 2 S102 986 940900 4369 0
44 2 S102 918 941818 5287 0
44 2 S102 941 942759 6228 0
0 0 0 986 943745 -9182 0
0 0 0 1019 944764 -8163 0
0 0 0 1068 945832 -7095 0
0 0 0 1065 946897 -6030 0
0 0 0 973 947870 -5057 0
0 0 0 981 948851 -4076 0
0 0 0 1003 949854 -3073 0
0 0 0 1050 950904 -2023 0
45 1 S116 1030 951934 -993 0
45 2 S116 1078 953012 85 0
45 2 S116 1074 954086 1159 0
45 2 S116 1007 955093 2166 0
45 2 S116 931 956024 3097 0
45 2 S116 948 956972 4045 0
45 2 S116 983 957955 5028 0
45 2 S116 1035 958990 6063 0
0 0 0 1013 960003 -10978 0
0 0 0 929 960932 -10049 0
0 0 0 989 961921 -9060 0
0 0 0 930 962851 -8130 0
0 0 0 803 963654 -7327 0
0 0 0 779 964433 -6548 0
0 0 0 751 965184 -5797 0
0 0 0 774 965958 -5023 0
0 0 0 845 966803 -4178 0
0 0 0 948 967751 -3230 0
0 0 0 1002 968753 -2228 0
46 1 S102 990 969743 -1238 0
46 1 S102 911 970654 -327 0
46 2 S102 945 971599 618 0
46 2 S102 965 972564 1583 0
46 2 S102 990 973554 2573 0
46 2 S102 1011 974565 3584 0
46 2 S102 1004 975569 4588 0
46 2 S102 991 976560 5579 0
46 2 S102 1031 977591 6610 0
0 0 0 1001 978592 -8950 0
0 0 0 959 979551 -7991 0
0 0 0 1016 980567 -6975 0
0 0 0 993 981560 -5982 0
0 0 0 995 982555 -4987 0
0 0 0 933 983488 -4054 0
0 0 0 938 984426 -3116 0
0 0 0 999 985425 -2117 0
47 1 S112 1109 986534 -1008 0
47 2 S112 1286 987820 278 1
47 2 S112 1126 988946 1404 0
47 2 S112 1088 990034 2492 0
47 2 S112 1007 991041 3499 0
47 2 S112 1011 992052 4510 0
47 2 S112 1019 993071 5529 0
47 2 S112 1034 994105 6563 0
0 0 0 1019 995124 -11401 0
0 0 0 1020 996144 -10381 0
0 0 0 1035 997179 -9346 0
0 0 0 984 998163 -8362 0
0 0 0 956 999119 -7406 0
0 0 0 1009 1000128 -6397 0
0 0 0 1031 1001159 -5366 0
0 0 0 1042 1002201 -4324 0
0 0 0 1007 1003208 -3317 0
0 0 0 938 1004146 -2379 0
48 1 S116 950 1005096 -1429 0
48 1 S116 964 1006060 -465 0
48 2 S116 1005 1007065 540 0
48 2 S116 964 1008029 1504 0
48 2 S116 922 1008951 2426 0
48 2 S116 966 1009917 3392 0
48 2 S116 1007 1010924 4399 0
48 2 S116 1026 1011950 5425 0
48 2 S116 1039 1012989 6464 0
0 0 0 1002 1013991 -7371 0
0 0 0 957 1014948 -6414 0
0 0 0 924 1015872 -5490 0
0 0 0 895 1016767 -4595 0
0 0 0 884 1017651 -3711 0
0 0 0 682 1018333 -3029 1
0 0 0 946 1019279 -2083 0
49 1 S112 717 1019996 -1366 1
49 1 S112 710 1020706 -656 1
49 2 S112 820 1021526 164 0
49 2 S112 1189 1022715 1353 0
49 2 S112 1242 1023957 2595 1
49 2 S112 1198 1025155 3793 0
49 2 S112 1142 1026297 4935 0
49 2 S112 1019 1027316 5954 0
49 2 S112 1028 1028344 6982 0
0 0 0 1047 1029391 -10755 0
0 0 0 1067 1030458 -9688 0
0 0 0 1038 1031496 -8650 0
0 0 0 905 1032401 -7745 0
0 0 0 957 1033358 -6788 0
0 0 0 1032 1034390 -5756 0
0 0 0 1100 1035490 -4656 0
0 0 0 1162 1036652 -3494 0
0 0 0 1016 1037668 -2478 0
50 1 S106 944 1038612 -1534 0
50 1 S106 964 1039576 -570 0
50 2 S106 910 1040486 340 0
50 2 S106 901 1041387 1241 0
50 2 S106 946 1042333 2187 0
50 2 S106 1067 1043400 3254 0
50 2 S106 1127 1044527 4381 0
50 2 S106 1110 1045637 5491 0
50 2 S106 1029 1046666 6520 0
0 0 0 1030 1047696 -6558 0
0 0 0 1038 1048734 -5520 0
0 0 0 1009 1049743 -4511 0
0 0 0 887 1050630 -3624 0
0 0 0 889 1051519 -2735 0
51 1 S112 924 1052443 -1811 0
51 1 S112 988 1053431 -823 0
51 2 S112 1036 1054467 213 0
51 2 S112 1005 1055472 1218 0
51 2 S112 937 1056409 2155 0
51 2 S112 997 1057406 3152 0
51 2 S112 1054 1058460 4206 0
51 2 S112 1075 1059535 5281 0
51 2 S112 1089 1060624 6370 0
0 0 0 1064 1061688 -6094 0
0 0 0 997 1062685 -5097 0
0 0 0 910 1063595 -4187 0
0 0 0 944 1064539 -3243 0
0 0 0 1018 1065557 -2225 0
52 1 S116 1055 1066612 -1170 0
52 1 S116 1129 1067741 -41 0
52 2 S116 1251 1068992 1210 1
52 2 S116 1128 1070120 2338 0
52 2 S116 1063 1071183 3401 0
52 2 S116 1026 1072209 4427 0
52 2 S116 1021 1073230 5448 0
52 2 S116 1029 1074259 6477 0
0 0 0 1079 1075338 -9918 0
0 0 0 1066 1076404 -8852 0
0 0 0 1080 1077484 -7772 0
0 0 0 1163 1078647 -6609 0
0 0 0 1068 1079715 -5541 0
0 0 0 904 1080619 -4637 0
0 0 0 919 1081538 -3718 0
0 0 0 967 1082505 -2751 0
53 1 S106 994 1083499 -1757 0
53 1 S106 1018 1084517 -739 0
53 2 S106 1033 1085550 294 0
53 2 S106 945 1086495 1239 0
53 2 S106 973 1087468 2212 0
53 2 S106 1008 1088476 3220 0
53 2 S106 1005 1089481 4225 0
53 2 S106 950 1090431 5175 0
53 2 S106 929 1091360 6104 0
0 0 0 1018 1092378 -6969 0
0 0 0 1067 1093445 -5902 0
0 0 0 1053 1094498 -4849 0
0 0 0 901 1095399 -3948 0
0 0 0 900 1096299 -3048 0
0 0 0 818 1097117 -2230 0
54 1 S102 773 1097890 -1457 0
54 1 S102 732 1098622 -725 0
54 2 S102 768 1099390 43 0
54 2 S102 840 1100230 883 0
54 2 S102 811 1101041 1694 0
54 2 S102 769 1101810 2463 0
54 2 S102 749 1102559 3212 0
54 2 S102 769 1103328 3981 0
54 2 S102 793 1104121 4774 0
54 2 S102 843 1104964 5617 0
54 2 S102 902 1105866 6519 0
0 0 0 944 1106810 -10044 0
0 0 0 987 1107797 -9057 0
0 0 0 929 1108726 -8128 0
0 0 0 872 1109598 -7256 0
0 0 0 890 1110488 -6366 0
0 0 0 941 1111429 -5425 0
0 0 0 1022 1112451 -4403 0
0 0 0 1143 1113594 -3260 0
0 0 0 1194 1114788 -2066 0
55 1 S106 1073 1115861 -993 0
55 2 S106 1048 1116909 55 0
55 2 S106 1038 1117947 1093 0
55 2 S106 1075 1119022 2168 0
55 2 S106 1043 1120065 3211 0
55 2 S106 944 1121009 4155 0
55 2 S106 916 1121925 5071 0
55 2 S106 993 1122918 6064 0
0 0 0 1089 1124007 -7121 0
0 0 0 1145 1125152 -5976 0
0 0 0 1092 1126244 -4884 0
0 0 0 961 1127205 -3923 0
0 0 0 963 1128168 -2960 0
56 1 S116 983 1129151 -1977 0
56 1 S116 1003 1130154 -974 0
56 2 S116 1040 1131194 66 0
56 2 S116 971 1132165 1037 0
56 2 S116 979 1133144 2016 0
56 2 S116 1010 1134154 3026 0
56 2 S116 1066 1135220 4092 0
56 2 S116 1063 1136283 5155 0
56 2 S116 992 1137275 6147 0
0 0 0 1045 1138320 -7298 0
0 0 0 1086 1139406 -6212 0
0 0 0 1124 1140530 -5088 0
0 0 0 988 1141518 -4100 0
0 0 0 987 1142505 -3113 0
0 0 0 1028 1143533 -2085 0
57 1 S106 1037 1144570 -1048 0
57 2 S106 1073 1145643 25 0
57 2 S106 1067 1146710 1092 0
57 2 S106 1001 1147711 2093 0
57 2 S106 1004 1148715 3097 0
57 2 S106 1055 1149770 4152 0
57 2 S106 1057 1150827 5209 0
57 2 S106 1074 1151901 6283 0
0 0 0 1043 1152944 -8523 0
0 0 0 945 1153889 -7578 0
0 0 0 960 1154849 -6618 0
0 0 0 939 1155788 -5679 0
0 0 0 931 1156719 -4748 0
0 0 0 870 1157589 -3878 0
0 0 0 845 1158434 -3033 0
0 0 0 941 1159375 -2092 0
58 1 S102 965 1160340 -1127 0
58 1 S102 951 1161291 -176 0
58 2 S102 952 1162243 776 0
58 2 S102 976 1163219 1752 0
58 2 S102 978 1164197 2730 0
58 2 S102 969 1165166 3699 0
58 2 S102 939 1166105 4638 0
58 2 S102 878 1166983 5516 0
58 2 S102 905 1167888 6421 0
0 0 0 951 1168839 -8195 0
0 0 0 1006 1169845 -7189 0
0 0 0 1074 1170919 -6115 0
0 0 0 1030 1171949 -5085 0
0 0 0 1031 1172980 -4054 0
0 0 0 1049 1174029 -3005 0
59 1 S112 1090 1175119 -1915 0
59 1 S112 1094 1176213 -821 0
59 2 S112 1032 1177245 211 0
59 2 S112 1080 1178325 1291 0
59 2 S112 1073 1179398 2364 0
59 2 S112 1058 1180456 3422 0
59 2 S112 1055 1181511 4477 0
59 2 S112 964 1182475 5441 0
59 2 S112 1021 1183496 6462 0
0 0 0 1092 1184588 -8162 0
0 0 0 1136 1185724 -7026 0
0 0 0 1097 1186821 -5929 0
0 0 0 990 1187811 -4939 0
0 0 0 1018 1188829 -3921 0
0 0 0 1057 1189886 -2864 0
60 1 S102 1094 1190980 -1770 0
60 1 S102 1107 1192087 -663 0
60 2 S102 1071 1193158 408 0
60 2 S102 1001 1194159 1409 0
60 2 S102 1022 1195181 2431 0
60 2 S102 1070 1196251 3501 0
60 2 S102 1083 1197334 4584 0
60 2 S102 1101 1198435 5685 0
60 2 S102 1061 1199496 6746 0
0 0 0 982 1200478 -10094 0
0 0 0 1001 1201479 -9093 0
0 0 0 989 1202468 -8104 0
0 0 0 985 1203453 -7119 0
0 0 0 990 1204443 -6129 0
0 0 0 998 1205441 -5131 0
0 0 0 1020 1206461 -4111 0
0 0 0 992 1207453 -3119 0
0 0 0 929 1208382 -2190 0
61 1 S106 952 1209334 -1238 0
61 1 S106 985 1210319 -253 0
61 2 S106 1022 1211341 769 0
61 2 S106 1044 1212385 1813 0
61 2 S106 1059 1213444 2872 0
61 2 S106 1049 1214493 3921 0
61 2 S106 1042 1215535 4963 0
61 2 S106 990 1216525 5953 0
61 2 S106 991 1217516 6944 0
0 0 0 1003 1218519 -5531 0
0 0 0 1028 1219547 -4503 0
0 0 0 992 1220539 -3511 0
0 0 0 909 1221448 -2602 0
62 1 S112 935 1222383 -1667 0
62 1 S112 1007 1223390 -660 0
62 2 S112 1101 1224491 441 0
62 2 S112 1156 1225647 1597 0
62 2 S112 987 1226634 2584 0
62 2 S112 846 1227480 3430 0
62 2 S112 862 1228342 4292 0
62 2 S112 932 1229274 5224 0
62 2 S112 986 1230260 6210 0
0 0 0 1030 1231290 -10549 0
0 0 0 1067 1232357 -9482 0
0 0 0 996 1233353 -8486 0
0 0 0 851 1234204 -7635 0
0 0 0 784 1234988 -6851 0
0 0 0 740 1235728 -6111 0
0 0 0 719 1236447 -5392 1
0 0 0 721 1237168 -4671 1
0 0 0 754 1237922 -3917 0
0 0 0 818 1238740 -3099 0
0 0 0 1006 1239746 -2093 0
63 1 S102 1130 1240876 -963 0
63 2 S102 1106 1241982 143 0
63 2 S102 1016 1242998 1159 0
63 2 S102 1020 1244018 2179 0
63 2 S102 1027 1245045 3206 0
63 2 S102 1072 1246117 4278 0
63 2 S102 1083 1247200 5361 0
63 2 S102 1032 1248232 6393 0
0 0 0 995 1249227 -9522 0
0 0 0 1047 1250274 -8475 0
0 0 0 1102 1251376 -7373 0
0 0 0 1026 1252402 -6347 0
0 0 0 971 1253373 -5376 0
0 0 0 1040 1254413 -4336 0
0 0 0 1069 1255482 -3267 0
0 0 0 1079 1256561 -2188 0
64 1 S112 1076 1257637 -1112 0
64 1 S112 964 1258601 -148 0
64 2 S112 964 1259565 816 0
64 2 S112 1003 1260568 1819 0
64 2 S112 1030 1261598 2849 0
64 2 S112 1011 1262609 3860 0
64 2 S112 947 1263556 4807 0
64 2 S112 947 1264503 5754 0
64 2 S112 1027 1265530 6781 0
0 0 0 1062 1266592 -5884 0
0 0 0 1070 1267662 -4814 0
0 0 0 950 1268612 -3864 0
0 0 0 984 1269596 -2880 0
65 1 S106 1022 1270618 -1858 0
65 1 S106 1008 1271626 -850 0
65 2 S106 989 1272615 139 0
65 2 S106 979 1273594 1118 0
65 2 S106 1010 1274604 2128 0
65 2 S106 1028 1275632 3156 0
65 2 S106 1004 1276636 4160 0
65 2 S106 989 1277625 5149 0
65 2 S106 918 1278543 6067 0
65 2 S106 912 1279455 6979 0
0 0 0 956 1280411 -7052 0
0 0 0 1032 1281443 -6020 0
0 0 0 1081 1282524 -4939 0
0 0 0 961 1283485 -3978 0
0 0 0 997 1284482 -2981 0
66 1 S116 1054 1285536 -1927 0
66 1 S116 1055 1286591 -872 0
66 2 S116 1064 1287655 192 0
66 2 S116 967 1288622 1159 0
66 2 S116 942 1289564 2101 0
66 2 S116 954 1290518 3055 0
66 2 S116 958 1291476 4013 0
66 2 S116 996 1292472 5009 0
66 2 S116 951 1293423 5960 0
66 2 S116 991 1294414 6951 0
0 0 0 1035 1295449 -11029 0
0 0 0 1057 1296506 -9972 0
0 0 0 1022 1297528 -8950 0
0 0 0 944 1298472 -8006 0
0 0 0 974 1299446 -7032 0
0 0 0 977 1300423 -6055 0
0 0 0 1006 1301429 -5049 0
0 0 0 995 1302424 -4054 0
0 0 0 987 1303411 -3067 0
0 0 0 1033 1304444 -2034 0
67 1 S102 1034 1305478 -1000 0
67 2 S102 1052 1306530 52 0
67 2 S102 1038 1307568 1090 0
67 2 S102 1027 1308595 2117 0
67 2 S102 956 1309551 3073 0
67 2 S102 947 1310498 4020 0
67 2 S102 983 1311481 5003 0
67 2 S102 1020 1312501 6023 0
0 0 0 1070 1313571 -6850 0
0 0 0 1090 1314661 -5760 0
0 0 0 1082 1315743 -4678 0
0 0 0 926 1316669 -3752 0
0 0 0 934 1317603 -2818 0
68 1 S106 969 1318572 -1849 0
68 1 S106 1036 1319608 -813 0
68 2 S106 1044 1320652 231 0
68 2 S106 1013 1321665 1244 0
68 2 S106 953 1322618 2197 0
68 2 S106 1004 1323622 3201 0
68 2 S106 1020 1324642 4221 0
68 2 S106 995 1325637 5216 0
68 2 S106 1035 1326672 6251 0
0 0 0 1033 1327705 -11200 0
0 0 0 980 1328685 -10220 0
0 0 0 985 1329670 -9235 0
0 0 0 1026 1330696 -8209 0
0 0 0 1022 1331718 -7187 0
0 0 0 1004 1332722 -6183 0
0 0 0 941 1333663 -5242 0
0 0 0 982 1334645 -4260 0
0 0 0 1030 1335675 -3230 0
0 0 0 1054 1336729 -2176 0
69 1 S102 1053 1337782 -1123 0
69 1 S102 970 1338752 -153 0
69 2 S102 953 1339705 800 0
69 2 S102 978 1340683 1778 0
69 2 S102 993 1341676 2771 0
69 2 S102 996 1342672 3767 0
69 2 S102 1019 1343691 4786 0
69 2 S102 1044 1344735 5830 0
69 2 S102 1056 1345791 6886 0
0 0 0 1040 1346831 -7791 0
0 0 0 1000 1347831 -6791 0
0 0 0 880 1348711 -5911 0
0 0 0 921 1349632 -4990 0
0 0 0 970 1350602 -4020 0
0 0 0 1003 1351605 -3017 0
0 0 0 1006 1352611 -2011 0
70 1 S112 959 1353570 -1052 0
70 1 S112 1028 1354598 -24 0
70 2 S112 1050 1355648 1026 0
70 2 S112 1013 1356661 2039 0
70 2 S112 980 1357641 3019 0
70 2 S112 931 1358572 3950 0
70 2 S112 868 1359440 4818 0
70 2 S112 897 1360337 5715 0
70 2 S112 927 1361264 6642 0
0 0 0 952 1362216 -11720 0
0 0 0 938 1363154 -10782 0
0 0 0 917 1364071 -9865 0
0 0 0 1061 1365132 -8804 0
0 0 0 1051 1366183 -7753 0
0 0 0 1090 1367273 -6663 0
0 0 0 1012 1368285 -5651 0
0 0 0 975 1369260 -4676 0
0 0 0 997 1370257 -3679 0
0 0 0 991 1371248 -2688 0
71 1 S116 1001 1372249 -1687 0
71 1 S116 945 1373194 -742 0
71 2 S116 934 1374128 192 0
71 2 S116 965 1375093 1157 0
71 2 S116 976 1376069 2133 0
71 2 S116 964 1377033 3097 0
71 2 S116 960 1377993 4057 0
71 2 S116 986 1378979 5043 0
71 2 S116 990 1379969 6033 0
71 2 S116 979 1380948 7012 0
0 0 0 931 1381879 -7806 0
0 0 0 930 1382809 -6876 0
0 0 0 938 1383747 -5938 0
0 0 0 969 1384716 -4969 0
0 0 0 1000 1385716 -3969 0
0 0 0 1071 1386787 -2898 0
72 1 S102 1064 1387851 -1834 0
72 1 S102 968 1388819 -866 0
72 2 S102 982 1389801 116 0
72 2 S102 876 1390677 992 0
72 2 S102 805 1391482 1797 0
72 2 S102 807 1392289 2604 0
72 2 S102 858 1393147 3462 0
72 2 S102 878 1394025 4340 0
72 2 S102 916 1394941 5256 0
72 2 S102 1008 1395949 6264 0
0 0 0 1019 1396968 -6278 0
0 0 0 1033 1398001 -5245 0
0 0 0 1008 1399009 -4237 0
0 0 0 928 1399937 -3309 0
0 0 0 875 1400812 -2434 0
73 1 S116 915 1401727 -1519 0
73 1 S116 1000 1402727 -519 0
73 2 S116 1076 1403803 557 0
73 2 S116 1049 1404852 1606 0
73 2 S116 1069 1405921 2675 0
73 2 S116 1061 1406982 3736 0
73 2 S116 1062 1408044 4798 0
73 2 S116 1063 1409107 5861 0
73 2 S116 982 1410089 6843 0
0 0 0 947 1411036 -9485 0
0 0 0 1020 1412056 -8465 0
0 0 0 1052 1413108 -7413 0
0 0 0 977 1414085 -6436 0
0 0 0 942 1415027 -5494 0
0 0 0 990 1416017 -4504 0
0 0 0 1008 1417025 -3496 0
0 0 0 1028 1418053 -2468 0
74 1 S106 1016 1419069 -1452 0
74 1 S106 949 1420018 -503 0
74 2 S106 971 1420989 468 0
74 2 S106 992 1421981 1460 0
74 2 S106 1018 1422999 2478 0
74 2 S106 1026 1424025 3504 0
74 2 S106 970 1424995 4474 0
74 2 S106 965 1425960 5439 0
74 2 S106 1008 1426968 6447 0
0 0 0 1068 1428036 -6179 0
0 0 0 1088 1429124 -5091 0
0 0 0 1035 1430159 -4056 0
0 0 0 941 1431100 -3115 0
0 0 0 979 1432079 -2136 0
75 1 S112 1028 1433107 -1108 0
75 1 S112 1087 1434194 -21 0
75 2 S112 1125 1435319 1104 0
75 2 S112 1038 1436357 2142 0
75 2 S112 1031 1437388 3173 0
75 2 S112 1050 1438438 4223 0
75 2 S112 1082 1439520 5305 0
75 2 S112 1086 1440606 6391 0
0 0 0 1092 1441698 -7437 0
0 0 0 988 1442686 -6449 0
0 0 0 910 1443596 -5539 0
0 0 0 825 1444421 -4714 0
0 0 0 832 1445253 -3882 0
0 0 0 1028 1446281 -2854 0
76 1 S116 1249 1447530 -1605 1
76 1 S116 1244 1448774 -361 1
76 2 S116 1133 1449907 772 0
76 2 S116 1086 1450993 1858 0
76 2 S116 1048 1452041 2906 0
76 2 S116 1039 1453080 3945 0
76 2 S116 1021 1454101 4966 0
76 2 S116 1001 1455102 5967 0
76 2 S116 992 1456094 6959 0
0 0 0 972 1457066 -5780 0
0 0 0 952 1458018 -4828 0
0 0 0 868 1458886 -3960 0
0 0 0 776 1459662 -3184 0
0 0 0 741 1460403 -2443 0
77 1 S106 761 1461164 -1682 0
77 1 S106 925 1462089 -757 0
77 2 S106 1004 1463093 247 0
77 2 S106 959 1464052 1206 0
77 2 S106 930 1464982 2136 0
77 2 S106 946 1465928 3082 0
77 2 S106 960 1466888 4042 0
77 2 S106 986 1467874 5028 0
77 2 S106 1007 1468881 6035 0
77 2 S106 925 1469806 6960 0
0 0 0 911 1470717 -9105 0
0 0 0 970 1471687 -8135 0
0 0 0 1026 1472713 -7109 0
0 0 0 1014 1473727 -6095 0
0 0 0 952 1474679 -5143 0
0 0 0 978 1475657 -4165 0
0 0 0 1011 1476668 -3154 0
0 0 0 1025 1477693 -2129 0
78 1 S112 1039 1478732 -1090 0
78 1 S112 950 1479682 -140 0
78 2 S112 987 1480669 847 0
78 2 S112 1025 1481694 1872 0
78 2 S112 1041 1482735 2913 0
78 2 S112 1041 1483776 3954 0
78 2 S112 1015 1484791 4969 0
78 2 S112 981 1485772 5950 0
78 2 S112 901 1486673 6851 0
0 0 0 950 1487623 -11977 0
0 0 0 986 1488609 -10991 0
0 0 0 989 1489598 -10002 0
0 0 0 946 1490544 -9056 0
0 0 0 900 1491444 -8156 0
0 0 0 805 1492249 -7351 0
0 0 0 780 1493029 -6571 0
0 0 0 815 1493844 -5756 0
0 0 0 926 1494770 -4830 0
0 0 0 933 1495703 -3897 0
0 0 0 942 1496645 -2955 0
0 0 0 908 1497553 -2047 0
79 1 S102 870 1498423 -1177 0
79 1 S102 913 1499336 -264 0
79 2 S102 961 1500297 697 0
79 2 S102 992 1501289 1689 0
79 2 S102 1049 1502338 2738 0
79 2 S102 1026 1503364 3764 0
79 2 S102 953 1504317 4717 0
79 2 S102 965 1505282 5682 0
79 2 S102 1011 1506293 6693 0
0 0 0 1049 1507342 -8671 0
0 0 0 1040 1508382 -7631 0
0 0 0 970 1509352 -6661 0
0 0 0 944 1510296 -5717 0
0 0 0 987 1511283 -4730 0
0 0 0 1065 1512348 -3665 0
0 0 0 1110 1513458 -2555 0
80 1 S116 1085 1514543 -1470 0
80 1 S116 668 1515211 -802 1
80 2 S116 1268 1516479 466 1
80 2 S116 968 1517447 1434 0
80 2 S116 961 1518408 2395 0
80 2 S116 946 1519354 3341 0
80 2 S116 936 1520290 4277 0
80 2 S116 928 1521218 5205 0
80 2 S116 959 1522177 6164 0
