T_0157
BeatCount Mean SD BeatCountNoOutliers MeanNoOutliers SDNoOutliers
2371 651,726275832982 50,3620200185035 2325 650,240860215054 43,5570783888933

Trial TrialStatus Trialtype IBI AbsPosition RelPosition Outlier
0 0 0 558 1087 -14506 0
0 0 0 542 1629 -13964 0
0 0 0 536 2165 -13428 0
0 0 0 531 2696 -12897 0
0 0 0 529 3225 -12368 0
0 0 0 530 3755 -11838 0
0 0 0 524 4279 -11314 0
0 0 0 531 4810 -10783 0
0 0 0 555 5365 -10228 0
0 0 0 592 5957 -9636 0
0 0 0 605 6562 -9031 0
0 0 0 656 7218 -8375 0
0 0 0 655 7873 -7720 0
0 0 0 652 8525 -7068 0
0 0 0 663 9188 -6405 0
0 0 0 624 9812 -5781 0
0 0 0 604 10416 -5177 0
0 0 0 582 10998 -4595 0
0 0 0 582 11580 -4013 0
0 0 0 595 12175 -3418 0
0 0 0 620 12795 -2798 0
0 0 0 635 13430 -2163 0
1 1 S112 643 14073 -1520 0
1 1 S112 613 14686 -907 0
1 1 S112 593 15279 -314 0
1 2 S112 606 15885 292 0
1 2 S112 604 16489 896 0
1 2 S112 617 17106 1513 0
1 2 S112 622 17728 2135 0
1 2 S112 633 18361 2768 0
1 2 S112 651 19012 3419 0
1 2 S112 672 19684 4091 0
1 2 S112 643 20327 4734 0
1 2 S112 615 20942 5349 0
1 2 S112 594 21536 5943 0
1 2 S112 589 22125 6532 0
0 0 0 603 22728 -11616 0
0 0 0 639 23367 -10977 0
0 0 0 650 24017 -10327 0
0 0 0 617 24634 -9710 0
0 0 0 597 25231 -9113 0
0 0 0 563 25794 -8550 0
0 0 0 562 26356 -7988 0
0 0 0 566 26922 -7422 0
0 0 0 568 27490 -6854 0
0 0 0 588 28078 -6266 0
0 0 0 603 28681 -5663 0
0 0 0 631 29312 -5032 0
0 0 0 636 29948 -4396 0
0 0 0 621 30569 -3775 0
0 0 0 626 31195 -3149 0
0 0 0 632 31827 -2517 0
2 1 S102 628 32455 -1889 0
2 1 S102 619 33074 -1270 0
2 1 S102 601 33675 -669 0
2 1 S102 598 34273 -71 0
2 2 S102 601 34874 530 0
2 2 S102 615 35489 1145 0
2 2 S102 631 36120 1776 0
2 2 S102 616 36736 2392 0
2 2 S102 639 37375 3031 0
2 2 S102 640 38015 3671 0
2 2 S102 642 38657 4313 0
2 2 S102 642 39299 4955 0
2 2 S102 636 39935 5591 0
2 2 S102 650 40585 6241 0
2 2 S102 655 41240 6896 0
0 0 0 663 41903 -9831 0
0 0 0 639 42542 -9192 0
0 0 0 614 43156 -8578 0
0 0 0 623 43779 -7955 0
0 0 0 637 44416 -7318 0
0 0 0 639 45055 -6679 0
0 0 0 624 45679 -6055 0
0 0 0 631 46310 -5424 0
0 0 0 645 46955 -4779 0
0 0 0 690 47645 -4089 0
0 0 0 723 48368 -3366 0
0 0 0 700 49068 -2666 0
3 1 S116 670 49738 -1996 0
3 1 S116 677 50415 -1319 0
3 1 S116 679 51094 -640 0
3 2 S116 659 51753 19 0
3 2 S116 644 52397 663 0
3 2 S116 657 53054 1320 0
3 2 S116 670 53724 1990 0
3 2 S116 687 54411 2677 0
3 2 S116 673 55084 3350 0
3 2 S116 650 55734 4000 0
3 2 S116 631 56365 4631 0
3 2 S116 637 57002 5268 0
3 2 S116 650 57652 5918 0
3 2 S116 694 58346 6612 0
0 0 0 722 59068 -11997 0
0 0 0 687 59755 -11310 0
0 0 0 708 60463 -10602 0
0 0 0 735 61198 -9867 0
0 0 0 763 61961 -9104 0
0 0 0 704 62665 -8400 0
0 0 0 664 63329 -7736 0
0 0 0 657 63986 -7079 0
0 0 0 648 64634 -6431 0
0 0 0 638 65272 -5793 0
0 0 0 626 65898 -5167 0
0 0 0 634 66532 -4533 0
0 0 0 642 67174 -3891 0
0 0 0 672 67846 -3219 0
0 0 0 694 68540 -2525 0
4 1 S106 668 69208 -1857 0
4 1 S106 655 69863 -1202 0
4 1 S106 677 70540 -525 0
4 2 S106 662 71202 137 0
4 2 S106 677 71879 814 0
4 2 S106 685 72564 1499 0
4 2 S106 658 73222 2157 0
4 2 S106 630 73852 2787 0
4 2 S106 600 74452 3387 0
4 2 S106 610 75062 3997 0
4 2 S106 608 75670 4605 0
4 2 S106 629 76299 5234 0
4 2 S106 664 76963 5898 0
4 2 S106 689 77652 6587 0
0 0 0 689 78341 -7180 0
0 0 0 689 79030 -6491 0
0 0 0 663 79693 -5828 0
0 0 0 669 80362 -5159 0
0 0 0 656 81018 -4503 0
0 0 0 642 81660 -3861 0
0 0 0 629 82289 -3232 0
0 0 0 599 82888 -2633 0
0 0 0 603 83491 -2030 0
5 1 S116 599 84090 -1431 0
5 1 S116 607 84697 -824 0
5 1 S116 620 85317 -204 0
5 2 S116 628 85945 424 0
5 2 S116 636 86581 1060 0
5 2 S116 681 87262 1741 0
5 2 S116 681 87943 2422 0
5 2 S116 673 88616 3095 0
5 2 S116 653 89269 3748 0
5 2 S116 644 89913 4392 0
5 2 S116 658 90571 5050 0
5 2 S116 668 91239 5718 0
5 2 S116 685 91924 6403 0
0 0 0 707 92631 -9468 0
0 0 0 680 93311 -8788 0
0 0 0 657 93968 -8131 0
0 0 0 670 94638 -7461 0
0 0 0 666 95304 -6795 0
0 0 0 649 95953 -6146 0
0 0 0 632 96585 -5514 0
0 0 0 629 97214 -4885 0
0 0 0 612 97826 -4273 0
0 0 0 586 98412 -3687 0
0 0 0 579 98991 -3108 0
0 0 0 610 99601 -2498 0
6 1 S106 625 100226 -1873 0
6 1 S106 626 100852 -1247 0
6 1 S106 628 101480 -619 0
6 2 S106 648 102128 29 0
6 2 S106 654 102782 683 0
6 2 S106 663 103445 1346 0
6 2 S106 673 104118 2019 0
6 2 S106 694 104812 2713 0
6 2 S106 679 105491 3392 0
6 2 S106 700 106191 4092 0
6 2 S106 654 106845 4746 0
6 2 S106 635 107480 5381 0
6 2 S106 650 108130 6031 0
6 2 S106 681 108811 6712 0
0 0 0 698 109509 -11855 0
0 0 0 751 110260 -11104 0
0 0 0 731 110991 -10373 0
0 0 0 767 111758 -9606 0
0 0 0 804 112562 -8802 1
0 0 0 759 113321 -8043 0
0 0 0 696 114017 -7347 0
0 0 0 642 114659 -6705 0
0 0 0 646 115305 -6059 0
0 0 0 668 115973 -5391 0
0 0 0 663 116636 -4728 0
0 0 0 671 117307 -4057 0
0 0 0 660 117967 -3397 0
0 0 0 680 118647 -2717 0
0 0 0 696 119343 -2021 0
7 1 S102 713 120056 -1308 0
7 1 S102 699 120755 -609 0
7 2 S102 700 121455 91 0
7 2 S102 724 122179 815 0
7 2 S102 761 122940 1576 0
7 2 S102 835 123775 2411 1
7 2 S102 788 124563 3199 1
7 2 S102 733 125296 3932 0
7 2 S102 712 126008 4644 0
7 2 S102 701 126709 5345 0
7 2 S102 717 127426 6062 0
7 2 S102 697 128123 6759 0
0 0 0 723 128846 -8880 0
0 0 0 759 129605 -8121 0
0 0 0 839 130444 -7282 1
0 0 0 799 131243 -6483 1
0 0 0 745 131988 -5738 0
0 0 0 741 132729 -4997 0
0 0 0 717 133446 -4280 0
0 0 0 683 134129 -3597 0
0 0 0 675 134804 -2922 0
0 0 0 690 135494 -2232 0
8 1 S112 683 136177 -1549 0
8 1 S112 684 136861 -865 0
8 1 S112 667 137528 -198 0
8 2 S112 674 138202 476 0
8 2 S112 706 138908 1182 0
8 2 S112 702 139610 1884 0
8 2 S112 711 140321 2595 0
8 2 S112 710 141031 3305 0
8 2 S112 770 141801 4075 0
8 2 S112 831 142632 4906 1
8 2 S112 816 143448 5722 1
8 2 S112 710 144158 6432 0
0 0 0 691 144849 -8660 0
0 0 0 666 145515 -7994 0
0 0 0 652 146167 -7342 0
0 0 0 612 146779 -6730 0
0 0 0 607 147386 -6123 0
0 0 0 614 148000 -5509 0
0 0 0 632 148632 -4877 0
0 0 0 649 149281 -4228 0
0 0 0 638 149919 -3590 0
0 0 0 643 150562 -2947 0
0 0 0 667 151229 -2280 0
9 1 S116 712 151941 -1568 0
9 1 S116 746 152687 -822 0
9 1 S116 733 153420 -89 0
9 2 S116 718 154138 629 0
9 2 S116 697 154835 1326 0
9 2 S116 681 155516 2007 0
9 2 S116 651 156167 2658 0
9 2 S116 625 156792 3283 0
9 2 S116 632 157424 3915 0
9 2 S116 631 158055 4546 0
9 2 S116 629 158684 5175 0
9 2 S116 610 159294 5785 0
9 2 S116 600 159894 6385 0
9 2 S116 632 160526 7017 0
0 0 0 687 161213 -12389 0
0 0 0 693 161906 -11696 0
0 0 0 667 162573 -11029 0
0 0 0 668 163241 -10361 0
0 0 0 683 163924 -9678 0
0 0 0 678 164602 -9000 0
0 0 0 647 165249 -8353 0
0 0 0 635 165884 -7718 0
0 0 0 600 166484 -7118 0
0 0 0 605 167089 -6513 0
0 0 0 627 167716 -5886 0
0 0 0 663 168379 -5223 0
0 0 0 676 169055 -4547 0
0 0 0 678 169733 -3869 0
0 0 0 652 170385 -3217 0
0 0 0 646 171031 -2571 0
10 1 S102 653 171684 -1918 0
10 1 S102 663 172347 -1255 0
10 1 S102 675 173022 -580 0
10 2 S102 668 173690 88 0
10 2 S102 666 174356 754 0
10 2 S102 686 175042 1440 0
10 2 S102 686 175728 2126 0
10 2 S102 668 176396 2794 0
10 2 S102 650 177046 3444 0
10 2 S102 657 177703 4101 0
10 2 S102 650 178353 4751 0
10 2 S102 664 179017 5415 0
10 2 S102 647 179664 6062 0
10 2 S102 629 180293 6691 0
0 0 0 641 180934 -12065 0
0 0 0 665 181599 -11400 0
0 0 0 666 182265 -10734 0
0 0 0 634 182899 -10100 0
0 0 0 649 183548 -9451 0
0 0 0 653 184201 -8798 0
0 0 0 634 184835 -8164 0
0 0 0 617 185452 -7547 0
0 0 0 615 186067 -6932 0
0 0 0 629 186696 -6303 0
0 0 0 631 187327 -5672 0
0 0 0 623 187950 -5049 0
0 0 0 601 188551 -4448 0
0 0 0 607 189158 -3841 0
0 0 0 618 189776 -3223 0
0 0 0 647 190423 -2576 0
11 1 S112 658 191081 -1918 0
11 1 S112 623 191704 -1295 0
11 1 S112 621 192325 -674 0
11 1 S112 625 192950 -49 0
11 2 S112 642 193592 593 0
11 2 S112 671 194263 1264 0
11 2 S112 668 194931 1932 0
11 2 S112 665 195596 2597 0
11 2 S112 689 196285 3286 0
11 2 S112 703 196988 3989 0
11 2 S112 677 197665 4666 0
11 2 S112 642 198307 5308 0
11 2 S112 646 198953 5954 0
11 2 S112 651 199604 6605 0
0 0 0 658 200262 -7210 0
0 0 0 649 200911 -6561 0
0 0 0 616 201527 -5945 0
0 0 0 615 202142 -5330 0
0 0 0 610 202752 -4720 0
0 0 0 615 203367 -4105 0
0 0 0 610 203977 -3495 0
0 0 0 606 204583 -2889 0
0 0 0 633 205216 -2256 0
12 1 S116 662 205878 -1594 0
12 1 S116 675 206553 -919 0
12 1 S116 658 207211 -261 0
12 2 S116 638 207849 377 0
12 2 S116 655 208504 1032 0
12 2 S116 666 209170 1698 0
12 2 S116 653 209823 2351 0
12 2 S116 631 210454 2982 0
12 2 S116 616 211070 3598 0
12 2 S116 622 211692 4220 0
12 2 S116 627 212319 4847 0
12 2 S116 620 212939 5467 0
12 2 S116 597 213536 6064 0
12 2 S116 569 214105 6633 0
0 0 0 589 214694 -12407 0
0 0 0 603 215297 -11804 0
0 0 0 628 215925 -11176 0
0 0 0 670 216595 -10506 0
0 0 0 665 217260 -9841 0
0 0 0 642 217902 -9199 0
0 0 0 607 218509 -8592 0
0 0 0 609 219118 -7983 0
0 0 0 614 219732 -7369 0
0 0 0 623 220355 -6746 0
0 0 0 608 220963 -6138 0
0 0 0 591 221554 -5547 0
0 0 0 603 222157 -4944 0
0 0 0 617 222774 -4327 0
0 0 0 627 223401 -3700 0
0 0 0 639 224040 -3061 0
0 0 0 630 224670 -2431 0
13 1 S112 625 225295 -1806 0
13 1 S112 665 225960 -1141 0
13 1 S112 664 226624 -477 0
13 2 S112 658 227282 181 0
13 2 S112 633 227915 814 0
13 2 S112 644 228559 1458 0
13 2 S112 684 229243 2142 0
13 2 S112 686 229929 2828 0
13 2 S112 685 230614 3513 0
13 2 S112 676 231290 4189 0
13 2 S112 677 231967 4866 0
13 2 S112 675 232642 5541 0
13 2 S112 698 233340 6239 0
13 2 S112 688 234028 6927 0
0 0 0 663 234691 -12221 0
0 0 0 648 235339 -11573 0
0 0 0 656 235995 -10917 0
0 0 0 651 236646 -10266 0
0 0 0 646 237292 -9620 0
0 0 0 652 237944 -8968 0
0 0 0 644 238588 -8324 0
0 0 0 649 239237 -7675 0
0 0 0 670 239907 -7005 0
0 0 0 661 240568 -6344 0
0 0 0 663 241231 -5681 0
0 0 0 663 241894 -5018 0
0 0 0 663 242557 -4355 0
0 0 0 662 243219 -3693 0
0 0 0 650 243869 -3043 0
0 0 0 655 244524 -2388 0
14 1 S106 654 245178 -1734 0
14 1 S106 654 245832 -1080 0
14 1 S106 633 246465 -447 0
14 2 S106 625 247090 178 0
14 2 S106 625 247715 803 0
14 2 S106 637 248352 1440 0
14 2 S106 656 249008 2096 0
14 2 S106 647 249655 2743 0
14 2 S106 672 250327 3415 0
14 2 S106 715 251042 4130 0
14 2 S106 685 251727 4815 0
14 2 S106 672 252399 5487 0
14 2 S106 674 253073 6161 0
14 2 S106 689 253762 6850 0
0 0 0 661 254423 -11123 0
0 0 0 641 255064 -10482 0
0 0 0 644 255708 -9838 0
0 0 0 644 256352 -9194 0
0 0 0 630 256982 -8564 0
0 0 0 595 257577 -7969 0
0 0 0 570 258147 -7399 0
0 0 0 555 258702 -6844 0
0 0 0 546 259248 -6298 0
0 0 0 534 259782 -5764 0
0 0 0 553 260335 -5211 0
0 0 0 620 260955 -4591 0
0 0 0 759 261714 -3832 0
0 0 0 776 262490 -3056 0
0 0 0 814 263304 -2242 1
15 1 S116 798 264102 -1444 1
15 1 S116 769 264871 -675 0
15 2 S116 691 265562 16 0
15 2 S116 676 266238 692 0
15 2 S116 657 266895 1349 0
15 2 S116 652 267547 2001 0
15 2 S116 637 268184 2638 0
15 2 S116 608 268792 3246 0
15 2 S116 591 269383 3837 0
15 2 S116 587 269970 4424 0
15 2 S116 587 270557 5011 0
15 2 S116 588 271145 5599 0
15 2 S116 594 271739 6193 0
15 2 S116 607 272346 6800 0
0 0 0 603 272949 -10319 0
0 0 0 594 273543 -9725 0
0 0 0 600 274143 -9125 0
0 0 0 606 274749 -8519 0
0 0 0 601 275350 -7918 0
0 0 0 615 275965 -7303 0
0 0 0 592 276557 -6711 0
0 0 0 586 277143 -6125 0
0 0 0 559 277702 -5566 0
0 0 0 558 278260 -5008 0
0 0 0 576 278836 -4432 0
0 0 0 604 279440 -3828 0
0 0 0 600 280040 -3228 0
0 0 0 619 280659 -2609 0
16 1 S116 630 281289 -1979 0
16 1 S116 653 281942 -1326 0
16 1 S116 633 282575 -693 0
16 1 S116 622 283197 -71 0
16 2 S116 613 283810 542 0
16 2 S116 639 284449 1181 0
16 2 S116 645 285094 1826 0
16 2 S116 669 285763 2495 0
16 2 S116 650 286413 3145 0
16 2 S116 670 287083 3815 0
16 2 S116 661 287744 4476 0
16 2 S116 657 288401 5133 0
16 2 S116 636 289037 5769 0
16 2 S116 635 289672 6404 0
0 0 0 642 290314 -9897 0
0 0 0 646 290960 -9251 0
0 0 0 637 291597 -8614 0
0 0 0 654 292251 -7960 0
0 0 0 672 292923 -7288 0
0 0 0 674 293597 -6614 0
0 0 0 647 294244 -5967 0
0 0 0 617 294861 -5350 0
0 0 0 618 295479 -4732 0
0 0 0 624 296103 -4108 0
0 0 0 652 296755 -3456 0
0 0 0 626 297381 -2830 0
0 0 0 630 298011 -2200 0
17 1 S106 633 298644 -1567 0
17 1 S106 649 299293 -918 0
17 1 S106 650 299943 -268 0
17 2 S106 636 300579 368 0
17 2 S106 635 301214 1003 0
17 2 S106 642 301856 1645 0
17 2 S106 640 302496 2285 0
17 2 S106 626 303122 2911 0
17 2 S106 621 303743 3532 0
17 2 S106 641 304384 4173 0
17 2 S106 647 305031 4820 0
17 2 S106 658 305689 5478 0
17 2 S106 631 306320 6109 0
17 2 S106 632 306952 6741 0
0 0 0 647 307599 -10882 0
0 0 0 645 308244 -10237 0
0 0 0 638 308882 -9599 0
0 0 0 633 309515 -8966 0
0 0 0 622 310137 -8344 0
0 0 0 619 310756 -7725 0
0 0 0 617 311373 -7108 0
0 0 0 601 311974 -6507 0
0 0 0 603 312577 -5904 0
0 0 0 605 313182 -5299 0
0 0 0 636 313818 -4663 0
0 0 0 675 314493 -3988 0
0 0 0 659 315152 -3329 0
0 0 0 667 315819 -2662 0
18 1 S102 691 316510 -1971 0
18 1 S102 689 317199 -1282 0
18 1 S102 675 317874 -607 0
18 2 S102 645 318519 38 0
18 2 S102 631 319150 669 0
18 2 S102 633 319783 1302 0
18 2 S102 630 320413 1932 0
18 2 S102 624 321037 2556 0
18 2 S102 621 321658 3177 0
18 2 S102 634 322292 3811 0
18 2 S102 666 322958 4477 0
18 2 S102 688 323646 5165 0
18 2 S102 680 324326 5845 0
18 2 S102 672 324998 6517 0
0 0 0 685 325683 -8232 0
0 0 0 706 326389 -7526 0
0 0 0 672 327061 -6854 0
0 0 0 653 327714 -6201 0
0 0 0 669 328383 -5532 0
0 0 0 674 329057 -4858 0
0 0 0 644 329701 -4214 0
0 0 0 627 330328 -3587 0
0 0 0 612 330940 -2975 0
0 0 0 619 331559 -2356 0
19 1 S106 628 332187 -1728 0
19 1 S106 644 332831 -1084 0
19 1 S106 619 333450 -465 0
19 2 S106 610 334060 145 0
19 2 S106 613 334673 758 0
19 2 S106 630 335303 1388 0
19 2 S106 654 335957 2042 0
19 2 S106 665 336622 2707 0
19 2 S106 652 337274 3359 0
19 2 S106 656 337930 4015 0
19 2 S106 699 338629 4714 0
19 2 S106 762 339391 5476 0
19 2 S106 858 340249 6334 1
0 0 0 763 341012 -9979 0
0 0 0 683 341695 -9296 0
0 0 0 673 342368 -8623 0
0 0 0 654 343022 -7969 0
0 0 0 646 343668 -7323 0
0 0 0 620 344288 -6703 0
0 0 0 619 344907 -6084 0
0 0 0 635 345542 -5449 0
0 0 0 667 346209 -4782 0
0 0 0 671 346880 -4111 0
0 0 0 660 347540 -3451 0
0 0 0 674 348214 -2777 0
0 0 0 674 348888 -2103 0
20 1 S112 679 349567 -1424 0
20 1 S112 675 350242 -749 0
20 1 S112 653 350895 -96 0
20 2 S112 670 351565 574 0
20 2 S112 671 352236 1245 0
20 2 S112 651 352887 1896 0
20 2 S112 642 353529 2538 0
20 2 S112 635 354164 3173 0
20 2 S112 643 354807 3816 0
20 2 S112 642 355449 4458 0
20 2 S112 632 356081 5090 0
20 2 S112 604 356685 5694 0
20 2 S112 601 357286 6295 0
20 2 S112 607 357893 6902 0
0 0 0 622 358515 -9867 0
0 0 0 633 359148 -9234 0
0 0 0 617 359765 -8617 0
0 0 0 601 360366 -8016 0
0 0 0 629 360995 -7387 0
0 0 0 636 361631 -6751 0
0 0 0 630 362261 -6121 0
0 0 0 605 362866 -5516 0
0 0 0 604 363470 -4912 0
0 0 0 602 364072 -4310 0
0 0 0 603 364675 -3707 0
0 0 0 613 365288 -3094 0
0 0 0 600 365888 -2494 0
21 1 S106 591 366479 -1903 0
21 1 S106 599 367078 -1304 0
21 1 S106 600 367678 -704 0
21 1 S106 622 368300 -82 0
21 2 S106 606 368906 524 0
21 2 S106 609 369515 1133 0
21 2 S106 625 370140 1758 0
21 2 S106 625 370765 2383 0
21 2 S106 621 371386 3004 0
21 2 S106 602 371988 3606 0
21 2 S106 610 372598 4216 0
21 2 S106 611 373209 4827 0
21 2 S106 618 373827 5445 0
21 2 S106 622 374449 6067 0
21 2 S106 608 375057 6675 0
0 0 0 603 375660 -10295 0
0 0 0 614 376274 -9681 0
0 0 0 637 376911 -9044 0
0 0 0 628 377539 -8416 0
0 0 0 609 378148 -7807 0
0 0 0 583 378731 -7224 0
0 0 0 597 379328 -6627 0
0 0 0 589 379917 -6038 0
0 0 0 601 380518 -5437 0
0 0 0 599 381117 -4838 0
0 0 0 589 381706 -4249 0
0 0 0 599 382305 -3650 0
0 0 0 602 382907 -3048 0
0 0 0 615 383522 -2433 0
22 1 S116 613 384135 -1820 0
22 1 S116 592 384727 -1228 0
22 1 S116 588 385315 -640 0
22 1 S116 608 385923 -32 0
22 2 S116 629 386552 597 0
22 2 S116 644 387196 1241 0
22 2 S116 632 387828 1873 0
22 2 S116 612 388440 2485 0
22 2 S116 641 389081 3126 0
22 2 S116 647 389728 3773 0
22 2 S116 652 390380 4425 0
22 2 S116 643 391023 5068 0
22 2 S116 615 391638 5683 0
22 2 S116 581 392219 6264 0
22 2 S116 575 392794 6839 0
0 0 0 594 393388 -9195 0
0 0 0 625 394013 -8570 0
0 0 0 653 394666 -7917 0
0 0 0 670 395336 -7247 0
0 0 0 643 395979 -6604 0
0 0 0 617 396596 -5987 0
0 0 0 616 397212 -5371 0
0 0 0 611 397823 -4760 0
0 0 0 605 398428 -4155 0
0 0 0 601 399029 -3554 0
0 0 0 586 399615 -2968 0
0 0 0 597 400212 -2371 0
23 1 S112 608 400820 -1763 0
23 1 S112 629 401449 -1134 0
23 1 S112 618 402067 -516 0
23 2 S112 603 402670 87 0
23 2 S112 606 403276 693 0
23 2 S112 591 403867 1284 0
23 2 S112 613 404480 1897 0
23 2 S112 653 405133 2550 0
23 2 S112 651 405784 3201 0
23 2 S112 649 406433 3850 0
23 2 S112 648 407081 4498 0
23 2 S112 640 407721 5138 0
23 2 S112 611 408332 5749 0
23 2 S112 602 408934 6351 0
23 2 S112 613 409547 6964 0
0 0 0 630 410177 -8537 0
0 0 0 654 410831 -7883 0
0 0 0 672 411503 -7211 0
0 0 0 644 412147 -6567 0
0 0 0 631 412778 -5936 0
0 0 0 635 413413 -5301 0
0 0 0 639 414052 -4662 0
0 0 0 642 414694 -4020 0
0 0 0 639 415333 -3381 0
0 0 0 656 415989 -2725 0
0 0 0 660 416649 -2065 0
24 1 S106 687 417336 -1378 0
24 1 S106 684 418020 -694 0
24 1 S106 655 418675 -39 0
24 2 S106 668 419343 629 0
24 2 S106 673 420016 1302 0
24 2 S106 670 420686 1972 0
24 2 S106 660 421346 2632 0
24 2 S106 638 421984 3270 0
24 2 S106 623 422607 3893 0
24 2 S106 627 423234 4520 0
24 2 S106 635 423869 5155 0
24 2 S106 652 424521 5807 0
24 2 S106 649 425170 6456 0
0 0 0 660 425830 -9213 0
0 0 0 676 426506 -8537 0
0 0 0 695 427201 -7842 0
0 0 0 704 427905 -7138 0
0 0 0 668 428573 -6470 0
0 0 0 643 429216 -5827 0
0 0 0 643 429859 -5184 0
0 0 0 624 430483 -4560 0
0 0 0 617 431100 -3943 0
0 0 0 604 431704 -3339 0
0 0 0 614 432318 -2725 0
0 0 0 621 432939 -2104 0
25 1 S102 628 433567 -1476 0
25 1 S102 640 434207 -836 0
25 1 S102 620 434827 -216 0
25 2 S102 640 435467 424 0
25 2 S102 645 436112 1069 0
25 2 S102 647 436759 1716 0
25 2 S102 626 437385 2342 0
25 2 S102 604 437989 2946 0
25 2 S102 624 438613 3570 0
25 2 S102 620 439233 4190 0
25 2 S102 638 439871 4828 0
25 2 S102 638 440509 5466 0
25 2 S102 630 441139 6096 0
25 2 S102 649 441788 6745 0
0 0 0 677 442465 -7250 0
0 0 0 670 443135 -6580 0
0 0 0 672 443807 -5908 0
0 0 0 660 444467 -5248 0
0 0 0 655 445122 -4593 0
0 0 0 648 445770 -3945 0
0 0 0 633 446403 -3312 0
0 0 0 610 447013 -2702 0
0 0 0 592 447605 -2110 0
26 1 S116 573 448178 -1537 0
26 1 S116 565 448743 -972 0
26 1 S116 569 449312 -403 0
26 2 S116 577 449889 174 0
26 2 S116 651 450540 825 0
26 2 S116 748 451288 1573 0
26 2 S116 784 452072 2357 1
26 2 S116 776 452848 3133 0
26 2 S116 773 453621 3906 0
26 2 S116 702 454323 4608 0
26 2 S116 652 454975 5260 0
26 2 S116 639 455614 5899 0
26 2 S116 627 456241 6526 0
0 0 0 621 456862 -7227 0
0 0 0 619 457481 -6608 0
0 0 0 598 458079 -6010 0
0 0 0 606 458685 -5404 0
0 0 0 605 459290 -4799 0
0 0 0 606 459896 -4193 0
0 0 0 603 460499 -3590 0
0 0 0 602 461101 -2988 0
0 0 0 587 461688 -2401 0
27 1 S106 583 462271 -1818 0
27 1 S106 569 462840 -1249 0
27 1 S106 555 463395 -694 0
27 1 S106 558 463953 -136 0
27 2 S106 574 464527 438 0
27 2 S106 598 465125 1036 0
27 2 S106 607 465732 1643 0
27 2 S106 622 466354 2265 0
27 2 S106 637 466991 2902 0
27 2 S106 659 467650 3561 0
27 2 S106 639 468289 4200 0
27 2 S106 624 468913 4824 0
27 2 S106 614 469527 5438 0
27 2 S106 613 470140 6051 0
27 2 S106 609 470749 6660 0
0 0 0 601 471350 -6466 0
0 0 0 611 471961 -5855 0
0 0 0 645 472606 -5210 0
0 0 0 653 473259 -4557 0
0 0 0 663 473922 -3894 0
0 0 0 659 474581 -3235 0
0 0 0 662 475243 -2573 0
28 1 S102 664 475907 -1909 0
28 1 S102 680 476587 -1229 0
28 1 S102 665 477252 -564 0
28 2 S102 645 477897 81 0
28 2 S102 651 478548 732 0
28 2 S102 650 479198 1382 0
28 2 S102 659 479857 2041 0
28 2 S102 657 480514 2698 0
28 2 S102 645 481159 3343 0
28 2 S102 654 481813 3997 0
28 2 S102 663 482476 4660 0
28 2 S102 680 483156 5340 0
28 2 S102 691 483847 6031 0
28 2 S102 678 484525 6709 0
0 0 0 681 485206 -10796 0
0 0 0 690 485896 -10106 0
0 0 0 693 486589 -9413 0
0 0 0 673 487262 -8740 0
0 0 0 642 487904 -8098 0
0 0 0 651 488555 -7447 0
0 0 0 649 489204 -6798 0
0 0 0 652 489856 -6146 0
0 0 0 643 490499 -5503 0
0 0 0 637 491136 -4866 0
0 0 0 628 491764 -4238 0
0 0 0 632 492396 -3606 0
0 0 0 626 493022 -2980 0
0 0 0 623 493645 -2357 0
29 1 S112 614 494259 -1743 0
29 1 S112 647 494906 -1096 0
29 1 S112 666 495572 -430 0
29 2 S112 715 496287 285 0
29 2 S112 745 497032 1030 0
29 2 S112 745 497777 1775 0
29 2 S112 773 498550 2548 0
29 2 S112 743 499293 3291 0
29 2 S112 682 499975 3973 0
29 2 S112 628 500603 4601 0
29 2 S112 628 501231 5229 0
29 2 S112 621 501852 5850 0
29 2 S112 624 502476 6474 0
0 0 0 612 503088 -7752 0
0 0 0 622 503710 -7130 0
0 0 0 642 504352 -6488 0
0 0 0 678 505030 -5810 0
0 0 0 675 505705 -5135 0
0 0 0 670 506375 -4465 0
0 0 0 643 507018 -3822 0
0 0 0 634 507652 -3188 0
0 0 0 638 508290 -2550 0
30 1 S112 617 508907 -1933 0
30 1 S112 608 509515 -1325 0
30 1 S112 604 510119 -721 0
30 1 S112 608 510727 -113 0
30 2 S112 634 511361 521 0
30 2 S112 633 511994 1154 0
30 2 S112 620 512614 1774 0
30 2 S112 615 513229 2389 0
30 2 S112 636 513865 3025 0
30 2 S112 646 514511 3671 0
30 2 S112 656 515167 4327 0
30 2 S112 650 515817 4977 0
30 2 S112 622 516439 5599 0
30 2 S112 589 517028 6188 0
30 2 S112 595 517623 6783 0
0 0 0 600 518223 -9527 0
0 0 0 612 518835 -8915 0
0 0 0 621 519456 -8294 0
0 0 0 631 520087 -7663 0
0 0 0 625 520712 -7038 0
0 0 0 611 521323 -6427 0
0 0 0 612 521935 -5815 0
0 0 0 612 522547 -5203 0
0 0 0 652 523199 -4551 0
0 0 0 643 523842 -3908 0
0 0 0 685 524527 -3223 0
0 0 0 694 525221 -2529 0
31 1 S106 689 525910 -1840 0
31 1 S106 675 526585 -1165 0
31 1 S106 695 527280 -470 0
31 2 S106 710 527990 240 0
31 2 S106 708 528698 948 0
31 2 S106 678 529376 1626 0
31 2 S106 659 530035 2285 0
31 2 S106 652 530687 2937 0
31 2 S106 649 531336 3586 0
31 2 S106 633 531969 4219 0
31 2 S106 623 532592 4842 0
31 2 S106 637 533229 5479 0
31 2 S106 639 533868 6118 0
31 2 S106 663 534531 6781 0
0 0 0 662 535193 -8091 0
0 0 0 652 535845 -7439 0
0 0 0 662 536507 -6777 0
0 0 0 654 537161 -6123 0
0 0 0 648 537809 -5475 0
0 0 0 659 538468 -4816 0
0 0 0 629 539097 -4187 0
0 0 0 635 539732 -3552 0
0 0 0 631 540363 -2921 0
0 0 0 634 540997 -2287 0
32 1 S102 629 541626 -1658 0
32 1 S102 634 542260 -1024 0
32 1 S102 660 542920 -364 0
32 2 S102 671 543591 307 0
32 2 S102 679 544270 986 0
32 2 S102 671 544941 1657 0
32 2 S102 682 545623 2339 0
32 2 S102 672 546295 3011 0
32 2 S102 648 546943 3659 0
32 2 S102 635 547578 4294 0
32 2 S102 602 548180 4896 0
32 2 S102 579 548759 5475 0
32 2 S102 569 549328 6044 0
32 2 S102 572 549900 6616 0
0 0 0 587 550487 -10320 0
0 0 0 657 551144 -9663 0
0 0 0 766 551910 -8897 0
0 0 0 778 552688 -8119 0
0 0 0 757 553445 -7362 0
0 0 0 733 554178 -6629 0
0 0 0 697 554875 -5932 0
0 0 0 653 555528 -5279 0
0 0 0 626 556154 -4653 0
0 0 0 630 556784 -4023 0
0 0 0 625 557409 -3398 0
0 0 0 626 558035 -2772 0
0 0 0 626 558661 -2146 0
33 1 S112 607 559268 -1539 0
33 1 S112 615 559883 -924 0
33 1 S112 620 560503 -304 0
33 2 S112 625 561128 321 0
33 2 S112 632 561760 953 0
33 2 S112 645 562405 1598 0
33 2 S112 641 563046 2239 0
33 2 S112 657 563703 2896 0
33 2 S112 692 564395 3588 0
33 2 S112 702 565097 4290 0
33 2 S112 701 565798 4991 0
33 2 S112 659 566457 5650 0
33 2 S112 664 567121 6314 0
33 2 S112 663 567784 6977 0
0 0 0 663 568447 -11591 0
0 0 0 647 569094 -10944 0
0 0 0 621 569715 -10323 0
0 0 0 584 570299 -9739 0
0 0 0 584 570883 -9155 0
0 0 0 584 571467 -8571 0
0 0 0 573 572040 -7998 0
0 0 0 592 572632 -7406 0
0 0 0 611 573243 -6795 0
0 0 0 629 573872 -6166 0
0 0 0 626 574498 -5540 0
0 0 0 664 575162 -4876 0
0 0 0 685 575847 -4191 0
0 0 0 701 576548 -3490 0
0 0 0 694 577242 -2796 0
0 0 0 668 577910 -2128 0
34 1 S106 661 578571 -1467 0
34 1 S106 656 579227 -811 0
34 1 S106 654 579881 -157 0
34 2 S106 631 580512 474 0
34 2 S106 635 581147 1109 0
34 2 S106 650 581797 1759 0
34 2 S106 645 582442 2404 0
34 2 S106 640 583082 3044 0
34 2 S106 610 583692 3654 0
34 2 S106 632 584324 4286 0
34 2 S106 660 584984 4946 0
34 2 S106 694 585678 5640 0
34 2 S106 711 586389 6351 0
0 0 0 695 587084 -9101 0
0 0 0 664 587748 -8437 0
0 0 0 670 588418 -7767 0
0 0 0 673 589091 -7094 0
0 0 0 656 589747 -6438 0
0 0 0 634 590381 -5804 0
0 0 0 624 591005 -5180 0
0 0 0 628 591633 -4552 0
0 0 0 636 592269 -3916 0
0 0 0 658 592927 -3258 0
0 0 0 661 593588 -2597 0
35 1 S102 673 594261 -1924 0
35 1 S102 685 594946 -1239 0
35 1 S102 692 595638 -547 0
35 2 S102 678 596316 131 0
35 2 S102 668 596984 799 0
35 2 S102 676 597660 1475 0
35 2 S102 676 598336 2151 0
35 2 S102 685 599021 2836 0
35 2 S102 668 599689 3504 0
35 2 S102 658 600347 4162 0
35 2 S102 646 600993 4808 0
35 2 S102 666 601659 5474 0
35 2 S102 670 602329 6144 0
35 2 S102 699 603028 6843 0
0 0 0 692 603720 -7203 0
0 0 0 692 604412 -6511 0
0 0 0 735 605147 -5776 0
0 0 0 797 605944 -4979 1
0 0 0 781 606725 -4198 0
0 0 0 715 607440 -3483 0
0 0 0 686 608126 -2797 0
0 0 0 682 608808 -2115 0
36 1 S106 672 609480 -1443 0
36 1 S106 656 610136 -787 0
36 1 S106 650 610786 -137 0
36 2 S106 663 611449 526 0
36 2 S106 681 612130 1207 0
36 2 S106 702 612832 1909 0
36 2 S106 683 613515 2592 0
36 2 S106 698 614213 3290 0
36 2 S106 711 614924 4001 0
36 2 S106 731 615655 4732 0
36 2 S106 733 616388 5465 0
36 2 S106 749 617137 6214 0
36 2 S106 739 617876 6953 0
0 0 0 751 618627 -9737 0
0 0 0 714 619341 -9023 0
0 0 0 696 620037 -8327 0
0 0 0 676 620713 -7651 0
0 0 0 692 621405 -6959 0
0 0 0 675 622080 -6284 0
0 0 0 673 622753 -5611 0
0 0 0 660 623413 -4951 0
0 0 0 658 624071 -4293 0
0 0 0 664 624735 -3629 0
0 0 0 684 625419 -2945 0
0 0 0 678 626097 -2267 0
37 1 S116 654 626751 -1613 0
37 1 S116 657 627408 -956 0
37 1 S116 679 628087 -277 0
37 2 S116 673 628760 396 0
37 2 S116 698 629458 1094 0
37 2 S116 678 630136 1772 0
37 2 S116 667 630803 2439 0
37 2 S116 676 631479 3115 0
37 2 S116 678 632157 3793 0
37 2 S116 684 632841 4477 0
37 2 S116 668 633509 5145 0
37 2 S116 649 634158 5794 0
37 2 S116 657 634815 6451 0
0 0 0 654 635469 -10849 0
0 0 0 668 636137 -10181 0
0 0 0 667 636804 -9514 0
0 0 0 676 637480 -8838 0
0 0 0 666 638146 -8172 0
0 0 0 674 638820 -7498 0
0 0 0 668 639488 -6830 0
0 0 0 649 640137 -6181 0
0 0 0 626 640763 -5555 0
0 0 0 600 641363 -4955 0
0 0 0 589 641952 -4366 0
0 0 0 590 642542 -3776 0
0 0 0 666 643208 -3110 0
0 0 0 758 643966 -2352 0
38 1 S102 768 644734 -1584 0
38 1 S102 749 645483 -835 0
38 1 S102 711 646194 -124 0
38 2 S102 685 646879 561 0
38 2 S102 667 647546 1228 0
38 2 S102 641 648187 1869 0
38 2 S102 641 648828 2510 0
38 2 S102 638 649466 3148 0
38 2 S102 630 650096 3778 0
38 2 S102 616 650712 4394 0
38 2 S102 607 651319 5001 0
38 2 S102 606 651925 5607 0
38 2 S102 608 652533 6215 0
38 2 S102 612 653145 6827 0
0 0 0 613 653758 -8277 0
0 0 0 613 654371 -7664 0
0 0 0 637 655008 -7027 0
0 0 0 643 655651 -6384 0
0 0 0 659 656310 -5725 0
0 0 0 643 656953 -5082 0
0 0 0 623 657576 -4459 0
0 0 0 634 658210 -3825 0
0 0 0 645 658855 -3180 0
0 0 0 660 659515 -2520 0
39 1 S116 655 660170 -1865 0
39 1 S116 646 660816 -1219 0
39 1 S116 665 661481 -554 0
39 2 S116 664 662145 110 0
39 2 S116 674 662819 784 0
39 2 S116 660 663479 1444 0
39 2 S116 650 664129 2094 0
39 2 S116 651 664780 2745 0
39 2 S116 647 665427 3392 0
39 2 S116 648 666075 4040 0
39 2 S116 627 666702 4667 0
39 2 S116 628 667330 5295 0
39 2 S116 632 667962 5927 0
39 2 S116 663 668625 6590 0
0 0 0 672 669297 -6597 0
0 0 0 657 669954 -5940 0
0 0 0 675 670629 -5265 0
0 0 0 668 671297 -4597 0
0 0 0 663 671960 -3934 0
0 0 0 650 672610 -3284 0
0 0 0 653 673263 -2631 0
40 1 S112 646 673909 -1985 0
40 1 S112 648 674557 -1337 0
40 1 S112 642 675199 -695 0
40 1 S112 617 675816 -78 0
40 2 S112 609 676425 531 0
40 2 S112 617 677042 1148 0
40 2 S112 637 677679 1785 0
40 2 S112 636 678315 2421 0
40 2 S112 620 678935 3041 0
40 2 S112 640 679575 3681 0
40 2 S112 640 680215 4321 0
40 2 S112 668 680883 4989 0
40 2 S112 666 681549 5655 0
40 2 S112 664 682213 6319 0
40 2 S112 678 682891 6997 0
0 0 0 669 683560 -186749 0
0 0 0 663 684223 -186086 0
0 0 0 649 684872 -185437 0
0 0 0 650 685522 -184787 0
0 0 0 656 686178 -184131 0
0 0 0 644 686822 -183487 0
0 0 0 605 687427 -182882 0
0 0 0 578 688005 -182304 0
0 0 0 569 688574 -181735 0
0 0 0 561 689135 -181174 0
0 0 0 566 689701 -180608 0
0 0 0 625 690326 -179983 0
0 0 0 667 690993 -179316 0
0 0 0 716 691709 -178600 0
0 0 0 710 692419 -177890 0
0 0 0 690 693109 -177200 0
0 0 0 665 693774 -176535 0
0 0 0 649 694423 -175886 0
0 0 0 642 695065 -175244 0
0 0 0 627 695692 -174617 0
0 0 0 605 696297 -174012 0
0 0 0 584 696881 -173428 0
0 0 0 583 697464 -172845 0
0 0 0 589 698053 -172256 0
0 0 0 600 698653 -171656 0
0 0 0 615 699268 -171041 0
0 0 0 615 699883 -170426 0
0 0 0 634 700517 -169792 0
0 0 0 655 701172 -169137 0
0 0 0 672 701844 -168465 0
0 0 0 684 702528 -167781 0
0 0 0 676 703204 -167105 0
0 0 0 679 703883 -166426 0
0 0 0 687 704570 -165739 0
0 0 0 683 705253 -165056 0
0 0 0 679 705932 -164377 0
0 0 0 653 706585 -163724 0
0 0 0 633 707218 -163091 0
0 0 0 616 707834 -162475 0
0 0 0 605 708439 -161870 0
0 0 0 606 709045 -161264 0
0 0 0 602 709647 -160662 0
0 0 0 614 710261 -160048 0
0 0 0 672 710933 -159376 0
0 0 0 684 711617 -158692 0
0 0 0 711 712328 -157981 0
0 0 0 722 713050 -157259 0
0 0 0 676 713726 -156583 0
0 0 0 633 714359 -155950 0
0 0 0 612 714971 -155338 0
0 0 0 583 715554 -154755 0
0 0 0 577 716131 -154178 0
0 0 0 576 716707 -153602 0
0 0 0 649 717356 -152953 0
0 0 0 711 718067 -152242 0
0 0 0 746 718813 -151496 0
0 0 0 741 719554 -150755 0
0 0 0 728 720282 -150027 0
0 0 0 681 720963 -149346 0
0 0 0 666 721629 -148680 0
0 0 0 651 722280 -148029 0
0 0 0 643 722923 -147386 0
0 0 0 628 723551 -146758 0
0 0 0 607 724158 -146151 0
0 0 0 588 724746 -145563 0
0 0 0 579 725325 -144984 0
0 0 0 564 725889 -144420 0
0 0 0 553 726442 -143867 0
0 0 0 543 726985 -143324 0
0 0 0 537 727522 -142787 0
0 0 0 534 728056 -142253 0
0 0 0 529 728585 -141724 0
0 0 0 535 729120 -141189 0
0 0 0 556 729676 -140633 0
0 0 0 568 730244 -140065 0
0 0 0 574 730818 -139491 0
0 0 0 602 731420 -138889 0
0 0 0 628 732048 -138261 0
0 0 0 629 732677 -137632 0
0 0 0 610 733287 -137022 0
0 0 0 586 733873 -136436 0
0 0 0 572 734445 -135864 0
0 0 0 572 735017 -135292 0
0 0 0 588 735605 -134704 0
0 0 0 602 736207 -134102 0
0 0 0 624 736831 -133478 0
0 0 0 644 737475 -132834 0
0 0 0 656 738131 -132178 0
0 0 0 620 738751 -131558 0
0 0 0 1160 739911 -130398 1
0 0 0 576 740487 -129822 0
0 0 0 592 741079 -129230 0
0 0 0 610 741689 -128620 0
0 0 0 641 742330 -127979 0
0 0 0 669 742999 -127310 0
0 0 0 657 743656 -126653 0
0 0 0 634 744290 -126019 0
0 0 0 611 744901 -125408 0
0 0 0 604 745505 -124804 0
0 0 0 617 746122 -124187 0
0 0 0 667 746789 -123520 0
0 0 0 664 747453 -122856 0
0 0 0 624 748077 -122232 0
0 0 0 622 748699 -121610 0
0 0 0 626 749325 -120984 0
0 0 0 646 749971 -120338 0
0 0 0 675 750646 -119663 0
0 0 0 684 751330 -118979 0
0 0 0 683 752013 -118296 0
0 0 0 667 752680 -117629 0
0 0 0 666 753346 -116963 0
0 0 0 665 754011 -116298 0
0 0 0 654 754665 -115644 0
0 0 0 648 755313 -114996 0
0 0 0 650 755963 -114346 0
0 0 0 661 756624 -113685 0
0 0 0 649 757273 -113036 0
0 0 0 637 757910 -112399 0
0 0 0 634 758544 -111765 0
0 0 0 612 759156 -111153 0
0 0 0 634 759790 -110519 0
0 0 0 653 760443 -109866 0
0 0 0 669 761112 -109197 0
0 0 0 652 761764 -108545 0
0 0 0 608 762372 -107937 0
0 0 0 593 762965 -107344 0
0 0 0 581 763546 -106763 0
0 0 0 574 764120 -106189 0
0 0 0 584 764704 -105605 0
0 0 0 573 765277 -105032 0
0 0 0 558 765835 -104474 0
0 0 0 551 766386 -103923 0
0 0 0 545 766931 -103378 0
0 0 0 536 767467 -102842 0
0 0 0 531 767998 -102311 0
0 0 0 526 768524 -101785 0
0 0 0 516 769040 -101269 1
0 0 0 517 769557 -100752 1
0 0 0 533 770090 -100219 0
0 0 0 541 770631 -99678 0
0 0 0 535 771166 -99143 0
0 0 0 531 771697 -98612 0
0 0 0 556 772253 -98056 0
0 0 0 602 772855 -97454 0
0 0 0 627 773482 -96827 0
0 0 0 605 774087 -96222 0
0 0 0 600 774687 -95622 0
0 0 0 581 775268 -95041 0
0 0 0 568 775836 -94473 0
0 0 0 556 776392 -93917 0
0 0 0 551 776943 -93366 0
0 0 0 533 777476 -92833 0
0 0 0 526 778002 -92307 0
0 0 0 526 778528 -91781 0
0 0 0 535 779063 -91246 0
0 0 0 613 779676 -90633 0
0 0 0 934 780610 -89699 1
0 0 0 896 781506 -88803 1
0 0 0 866 782372 -87937 1
0 0 0 805 783177 -87132 1
0 0 0 760 783937 -86372 0
0 0 0 724 784661 -85648 0
0 0 0 677 785338 -84971 0
0 0 0 658 785996 -84313 0
0 0 0 628 786624 -83685 0
0 0 0 595 787219 -83090 0
0 0 0 586 787805 -82504 0
0 0 0 597 788402 -81907 0
0 0 0 629 789031 -81278 0
0 0 0 645 789676 -80633 0
0 0 0 635 790311 -79998 0
0 0 0 671 790982 -79327 0
0 0 0 690 791672 -78637 0
0 0 0 672 792344 -77965 0
0 0 0 647 792991 -77318 0
0 0 0 659 793650 -76659 0
0 0 0 663 794313 -75996 0
0 0 0 665 794978 -75331 0
0 0 0 670 795648 -74661 0
0 0 0 667 796315 -73994 0
0 0 0 679 796994 -73315 0
0 0 0 667 797661 -72648 0
0 0 0 650 798311 -71998 0
0 0 0 677 798988 -71321 0
0 0 0 710 799698 -70611 0
0 0 0 736 800434 -69875 0
0 0 0 736 801170 -69139 0
0 0 0 966 802136 -68173 1
0 0 0 896 803032 -67277 1
0 0 0 795 803827 -66482 1
0 0 0 703 804530 -65779 0
0 0 0 699 805229 -65080 0
0 0 0 668 805897 -64412 0
0 0 0 644 806541 -63768 0
0 0 0 619 807160 -63149 0
0 0 0 596 807756 -62553 0
0 0 0 580 808336 -61973 0
0 0 0 577 808913 -61396 0
0 0 0 585 809498 -60811 0
0 0 0 590 810088 -60221 0
0 0 0 592 810680 -59629 0
0 0 0 577 811257 -59052 0
0 0 0 562 811819 -58490 0
0 0 0 567 812386 -57923 0
0 0 0 563 812949 -57360 0
0 0 0 561 813510 -56799 0
0 0 0 561 814071 -56238 0
0 0 0 558 814629 -55680 0
0 0 0 549 815178 -55131 0
0 0 0 555 815733 -54576 0
0 0 0 549 816282 -54027 0
0 0 0 548 816830 -53479 0
0 0 0 540 817370 -52939 0
0 0 0 539 817909 -52400 0
0 0 0 534 818443 -51866 0
0 0 0 524 818967 -51342 0
0 0 0 530 819497 -50812 0
0 0 0 531 820028 -50281 0
0 0 0 525 820553 -49756 0
0 0 0 520 821073 -49236 1
0 0 0 514 821587 -48722 1
0 0 0 511 822098 -48211 1
0 0 0 508 822606 -47703 1
0 0 0 502 823108 -47201 1
0 0 0 484 823592 -46717 1
0 0 0 509 824101 -46208 1
0 0 0 500 824601 -45708 1
0 0 0 502 825103 -45206 1
0 0 0 501 825604 -44705 1
0 0 0 500 826104 -44205 1
0 0 0 503 826607 -43702 1
0 0 0 515 827122 -43187 1
0 0 0 525 827647 -42662 0
0 0 0 547 828194 -42115 0
0 0 0 570 828764 -41545 0
0 0 0 608 829372 -40937 0
0 0 0 645 830017 -40292 0
0 0 0 640 830657 -39652 0
0 0 0 664 831321 -38988 0
0 0 0 660 831981 -38328 0
0 0 0 648 832629 -37680 0
0 0 0 658 833287 -37022 0
0 0 0 639 833926 -36383 0
0 0 0 644 834570 -35739 0
0 0 0 603 835173 -35136 0
0 0 0 614 835787 -34522 0
0 0 0 625 836412 -33897 0
0 0 0 642 837054 -33255 0
0 0 0 652 837706 -32603 0
0 0 0 650 838356 -31953 0
0 0 0 654 839010 -31299 0
0 0 0 677 839687 -30622 0
0 0 0 635 840322 -29987 0
0 0 0 623 840945 -29364 0
0 0 0 641 841586 -28723 0
0 0 0 630 842216 -28093 0
0 0 0 603 842819 -27490 0
0 0 0 626 843445 -26864 0
0 0 0 622 844067 -26242 0
0 0 0 619 844686 -25623 0
0 0 0 600 845286 -25023 0
0 0 0 607 845893 -24416 0
0 0 0 603 846496 -23813 0
0 0 0 614 847110 -23199 0
0 0 0 606 847716 -22593 0
0 0 0 599 848315 -21994 0
0 0 0 618 848933 -21376 0
0 0 0 628 849561 -20748 0
0 0 0 626 850187 -20122 0
0 0 0 609 850796 -19513 0
0 0 0 607 851403 -18906 0
0 0 0 619 852022 -18287 0
0 0 0 650 852672 -17637 0
0 0 0 655 853327 -16982 0
0 0 0 638 853965 -16344 0
0 0 0 643 854608 -15701 0
0 0 0 638 855246 -15063 0
0 0 0 640 855886 -14423 0
0 0 0 608 856494 -13815 0
0 0 0 636 857130 -13179 0
0 0 0 641 857771 -12538 0
0 0 0 641 858412 -11897 0
0 0 0 627 859039 -11270 0
0 0 0 636 859675 -10634 0
0 0 0 637 860312 -9997 0
0 0 0 637 860949 -9360 0
0 0 0 623 861572 -8737 0
0 0 0 620 862192 -8117 0
0 0 0 629 862821 -7488 0
0 0 0 649 863470 -6839 0
0 0 0 636 864106 -6203 0
0 0 0 621 864727 -5582 0
0 0 0 641 865368 -4941 0
0 0 0 644 866012 -4297 0
0 0 0 601 866613 -3696 0
0 0 0 574 867187 -3122 0
0 0 0 566 867753 -2556 0
41 1 S102 559 868312 -1997 0
41 1 S102 563 868875 -1434 0
41 1 S102 571 869446 -863 0
41 1 S102 560 870006 -303 0
41 2 S102 549 870555 246 0
41 2 S102 544 871099 790 0
41 2 S102 547 871646 1337 0
41 2 S102 555 872201 1892 0
41 2 S102 578 872779 2470 0
41 2 S102 567 873346 3037 0
41 2 S102 566 873912 3603 0
41 2 S102 577 874489 4180 0
41 2 S102 579 875068 4759 0
41 2 S102 565 875633 5324 0
41 2 S102 554 876187 5878 0
41 2 S102 542 876729 6420 0
41 2 S102 528 877257 6948 0
0 0 0 522 877779 -6704 0
0 0 0 521 878300 -6183 1
0 0 0 522 878822 -5661 0
0 0 0 524 879346 -5137 0
0 0 0 530 879876 -4607 0
0 0 0 538 880414 -4069 0
0 0 0 550 880964 -3519 0
0 0 0 574 881538 -2945 0
0 0 0 600 882138 -2345 0
42 1 S112 610 882748 -1735 0
42 1 S112 625 883373 -1110 0
42 1 S112 624 883997 -486 0
42 2 S112 602 884599 116 0
42 2 S112 614 885213 730 0
42 2 S112 637 885850 1367 0
42 2 S112 652 886502 2019 0
42 2 S112 634 887136 2653 0
42 2 S112 622 887758 3275 0
42 2 S112 625 888383 3900 0
42 2 S112 634 889017 4534 0
42 2 S112 638 889655 5172 0
42 2 S112 620 890275 5792 0
42 2 S112 604 890879 6396 0
42 2 S112 622 891501 7018 0
0 0 0 612 892113 -8219 0
0 0 0 620 892733 -7599 0
0 0 0 615 893348 -6984 0
0 0 0 616 893964 -6368 0
0 0 0 605 894569 -5763 0
0 0 0 619 895188 -5144 0
0 0 0 640 895828 -4504 0
0 0 0 633 896461 -3871 0
0 0 0 668 897129 -3203 0
0 0 0 670 897799 -2533 0
43 1 S116 690 898489 -1843 0
43 1 S116 655 899144 -1188 0
43 1 S116 634 899778 -554 0
43 2 S116 650 900428 96 0
43 2 S116 676 901104 772 0
43 2 S116 677 901781 1449 0
43 2 S116 661 902442 2110 0
43 2 S116 641 903083 2751 0
43 2 S116 644 903727 3395 0
43 2 S116 647 904374 4042 0
43 2 S116 679 905053 4721 0
43 2 S116 688 905741 5409 0
43 2 S116 682 906423 6091 0
43 2 S116 666 907089 6757 0
0 0 0 674 907763 -6893 0
0 0 0 663 908426 -6230 0
0 0 0 675 909101 -5555 0
0 0 0 669 909770 -4886 0
0 0 0 645 910415 -4241 0
0 0 0 644 911059 -3597 0
0 0 0 645 911704 -2952 0
0 0 0 673 912377 -2279 0
44 1 S102 677 913054 -1602 0
44 1 S102 668 913722 -934 0
44 1 S102 684 914406 -250 0
44 2 S102 693 915099 443 0
44 2 S102 702 915801 1145 0
44 2 S102 688 916489 1833 0
44 2 S102 664 917153 2497 0
44 2 S102 651 917804 3148 0
44 2 S102 635 918439 3783 0
44 2 S102 621 919060 4404 0
44 2 S102 606 919666 5010 0
44 2 S102 606 920272 5616 0
44 2 S102 618 920890 6234 0
44 2 S102 610 921500 6844 0
0 0 0 630 922130 -8077 0
0 0 0 657 922787 -7420 0
0 0 0 682 923469 -6738 0
0 0 0 689 924158 -6049 0
0 0 0 674 924832 -5375 0
0 0 0 674 925506 -4701 0
0 0 0 671 926177 -4030 0
0 0 0 674 926851 -3356 0
0 0 0 664 927515 -2692 0
0 0 0 653 928168 -2039 0
45 1 S116 655 928823 -1384 0
45 1 S116 654 929477 -730 0
45 1 S116 661 930138 -69 0
45 2 S116 670 930808 601 0
45 2 S116 675 931483 1276 0
45 2 S116 695 932178 1971 0
45 2 S116 705 932883 2676 0
45 2 S116 707 933590 3383 0
45 2 S116 679 934269 4062 0
45 2 S116 646 934915 4708 0
45 2 S116 611 935526 5319 0
45 2 S116 617 936143 5936 0
45 2 S116 629 936772 6565 0
0 0 0 657 937429 -11196 0
0 0 0 661 938090 -10535 0
0 0 0 661 938751 -9874 0
0 0 0 655 939406 -9219 0
0 0 0 637 940043 -8582 0
0 0 0 624 940667 -7958 0
0 0 0 600 941267 -7358 0
0 0 0 599 941866 -6759 0
0 0 0 588 942454 -6171 0
0 0 0 589 943043 -5582 0
0 0 0 581 943624 -5001 0
0 0 0 566 944190 -4435 0
0 0 0 567 944757 -3868 0
0 0 0 601 945358 -3267 0
0 0 0 643 946001 -2624 0
46 1 S102 667 946668 -1957 0
46 1 S102 690 947358 -1267 0
46 1 S102 688 948046 -579 0
46 2 S102 675 948721 96 0
46 2 S102 689 949410 785 0
46 2 S102 677 950087 1462 0
46 2 S102 680 950767 2142 0
46 2 S102 677 951444 2819 0
46 2 S102 672 952116 3491 0
46 2 S102 670 952786 4161 0
46 2 S102 657 953443 4818 0
46 2 S102 677 954120 5495 0
46 2 S102 692 954812 6187 0
46 2 S102 701 955513 6888 0
0 0 0 710 956223 -9395 0
0 0 0 684 956907 -8711 0
0 0 0 712 957619 -7999 0
0 0 0 730 958349 -7269 0
0 0 0 695 959044 -6574 0
0 0 0 651 959695 -5923 0
0 0 0 633 960328 -5290 0
0 0 0 638 960966 -4652 0
0 0 0 633 961599 -4019 0
0 0 0 644 962243 -3375 0
0 0 0 639 962882 -2736 0
0 0 0 656 963538 -2080 0
47 1 S112 713 964251 -1367 0
47 1 S112 742 964993 -625 0
47 2 S112 732 965725 107 0
47 2 S112 746 966471 853 0
47 2 S112 756 967227 1609 0
47 2 S112 765 967992 2374 0
47 2 S112 742 968734 3116 0
47 2 S112 711 969445 3827 0
47 2 S112 729 970174 4556 0
47 2 S112 725 970899 5281 0
47 2 S112 729 971628 6010 0
47 2 S112 696 972324 6706 0
0 0 0 720 973044 -11822 0
0 0 0 729 973773 -11093 0
0 0 0 702 974475 -10391 0
0 0 0 686 975161 -9705 0
0 0 0 673 975834 -9032 0
0 0 0 678 976512 -8354 0
0 0 0 686 977198 -7668 0
0 0 0 677 977875 -6991 0
0 0 0 675 978550 -6316 0
0 0 0 684 979234 -5632 0
0 0 0 681 979915 -4951 0
0 0 0 677 980592 -4274 0
0 0 0 669 981261 -3605 0
0 0 0 677 981938 -2928 0
0 0 0 671 982609 -2257 0
48 1 S116 666 983275 -1591 0
48 1 S116 653 983928 -938 0
48 1 S116 639 984567 -299 0
48 2 S116 651 985218 352 0
48 2 S116 679 985897 1031 0
48 2 S116 701 986598 1732 0
48 2 S116 690 987288 2422 0
48 2 S116 654 987942 3076 0
48 2 S116 634 988576 3710 0
48 2 S116 603 989179 4313 0
48 2 S116 626 989805 4939 0
48 2 S116 658 990463 5597 0
48 2 S116 701 991164 6298 0
48 2 S116 719 991883 7017 0
0 0 0 725 992608 -6896 0
0 0 0 687 993295 -6209 0
0 0 0 678 993973 -5531 0
0 0 0 675 994648 -4856 0
0 0 0 654 995302 -4202 0
0 0 0 650 995952 -3552 0
0 0 0 642 996594 -2910 0
0 0 0 647 997241 -2263 0
49 1 S112 643 997884 -1620 0
49 1 S112 659 998543 -961 0
49 1 S112 672 999215 -289 0
49 2 S112 678 999893 389 0
49 2 S112 691 1000584 1080 0
49 2 S112 706 1001290 1786 0
49 2 S112 713 1002003 2499 0
49 2 S112 714 1002717 3213 0
49 2 S112 688 1003405 3901 0
49 2 S112 677 1004082 4578 0
49 2 S112 680 1004762 5258 0
49 2 S112 682 1005444 5940 0
49 2 S112 677 1006121 6617 0
0 0 0 674 1006795 -12487 0
0 0 0 673 1007468 -11814 0
0 0 0 672 1008140 -11142 0
0 0 0 685 1008825 -10457 0
0 0 0 691 1009516 -9766 0
0 0 0 689 1010205 -9077 0
0 0 0 683 1010888 -8394 0
0 0 0 675 1011563 -7719 0
0 0 0 657 1012220 -7062 0
0 0 0 640 1012860 -6422 0
0 0 0 637 1013497 -5785 0
0 0 0 636 1014133 -5149 0
0 0 0 687 1014820 -4462 0
0 0 0 711 1015531 -3751 0
0 0 0 703 1016234 -3048 0
0 0 0 696 1016930 -2352 0
50 1 S106 689 1017619 -1663 0
50 1 S106 668 1018287 -995 0
50 1 S106 665 1018952 -330 0
50 2 S106 660 1019612 330 0
50 2 S106 665 1020277 995 0
50 2 S106 668 1020945 1663 0
50 2 S106 687 1021632 2350 0
50 2 S106 679 1022311 3029 0
50 2 S106 693 1023004 3722 0
50 2 S106 696 1023700 4418 0
50 2 S106 694 1024394 5112 0
50 2 S106 692 1025086 5804 0
50 2 S106 696 1025782 6500 0
0 0 0 707 1026489 -7896 0
0 0 0 729 1027218 -7167 0
0 0 0 702 1027920 -6465 0
0 0 0 694 1028614 -5771 0
0 0 0 713 1029327 -5058 0
0 0 0 684 1030011 -4374 0
0 0 0 673 1030684 -3701 0
0 0 0 652 1031336 -3049 0
0 0 0 655 1031991 -2394 0
51 1 S112 667 1032658 -1727 0
51 1 S112 663 1033321 -1064 0
51 1 S112 657 1033978 -407 0
51 2 S112 642 1034620 235 0
51 2 S112 652 1035272 887 0
51 2 S112 665 1035937 1552 0
51 2 S112 681 1036618 2233 0
51 2 S112 677 1037295 2910 0
51 2 S112 662 1037957 3572 0
51 2 S112 671 1038628 4243 0
51 2 S112 677 1039305 4920 0
51 2 S112 694 1039999 5614 0
51 2 S112 686 1040685 6300 0
51 2 S112 677 1041362 6977 0
0 0 0 687 1042049 -6594 0
0 0 0 685 1042734 -5909 0
0 0 0 685 1043419 -5224 0
0 0 0 660 1044079 -4564 0
0 0 0 645 1044724 -3919 0
0 0 0 639 1045363 -3280 0
0 0 0 635 1045998 -2645 0
52 1 S116 646 1046644 -1999 0
52 1 S116 640 1047284 -1359 0
52 1 S116 651 1047935 -708 0
52 1 S116 661 1048596 -47 0
52 2 S116 673 1049269 626 0
52 2 S116 687 1049956 1313 0
52 2 S116 663 1050619 1976 0
52 2 S116 659 1051278 2635 0
52 2 S116 658 1051936 3293 0
52 2 S116 651 1052587 3944 0
52 2 S116 641 1053228 4585 0
52 2 S116 616 1053844 5201 0
52 2 S116 587 1054431 5788 0
52 2 S116 586 1055017 6374 0
52 2 S116 590 1055607 6964 0
0 0 0 606 1056213 -8958 0
0 0 0 648 1056861 -8310 0
0 0 0 695 1057556 -7615 0
0 0 0 735 1058291 -6880 0
0 0 0 694 1058985 -6186 0
0 0 0 652 1059637 -5534 0
0 0 0 631 1060268 -4903 0
0 0 0 613 1060881 -4290 0
0 0 0 595 1061476 -3695 0
0 0 0 602 1062078 -3093 0
0 0 0 593 1062671 -2500 0
53 1 S106 591 1063262 -1909 0
53 1 S106 596 1063858 -1313 0
53 1 S106 607 1064465 -706 0
53 1 S106 611 1065076 -95 0
53 2 S106 601 1065677 506 0
53 2 S106 598 1066275 1104 0
53 2 S106 610 1066885 1714 0
53 2 S106 607 1067492 2321 0
53 2 S106 617 1068109 2938 0
53 2 S106 603 1068712 3541 0
53 2 S106 602 1069314 4143 0
53 2 S106 619 1069933 4762 0
53 2 S106 625 1070558 5387 0
53 2 S106 659 1071217 6046 0
53 2 S106 655 1071872 6701 0
0 0 0 680 1072552 -7673 0
0 0 0 736 1073288 -6937 0
0 0 0 716 1074004 -6221 0
0 0 0 723 1074727 -5498 0
0 0 0 684 1075411 -4814 0
0 0 0 658 1076069 -4156 0
0 0 0 654 1076723 -3502 0
0 0 0 650 1077373 -2852 0
0 0 0 644 1078017 -2208 0
54 1 S102 613 1078630 -1595 0
54 1 S102 585 1079215 -1010 0
54 1 S102 577 1079792 -433 0
54 2 S102 577 1080369 144 0
54 2 S102 605 1080974 749 0
54 2 S102 685 1081659 1434 0
54 2 S102 762 1082421 2196 0
54 2 S102 774 1083195 2970 0
54 2 S102 780 1083975 3750 0
54 2 S102 753 1084728 4503 0
54 2 S102 769 1085497 5272 0
54 2 S102 742 1086239 6014 0
54 2 S102 713 1086952 6727 0
0 0 0 686 1087638 -11154 0
0 0 0 666 1088304 -10488 0
0 0 0 653 1088957 -9835 0
0 0 0 646 1089603 -9189 0
0 0 0 634 1090237 -8555 0
0 0 0 623 1090860 -7932 0
0 0 0 624 1091484 -7308 0
0 0 0 635 1092119 -6673 0
0 0 0 628 1092747 -6045 0
0 0 0 653 1093400 -5392 0
0 0 0 678 1094078 -4714 0
0 0 0 691 1094769 -4023 0
0 0 0 692 1095461 -3331 0
0 0 0 677 1096138 -2654 0
55 1 S106 681 1096819 -1973 0
55 1 S106 683 1097502 -1290 0
55 1 S106 674 1098176 -616 0
55 2 S106 663 1098839 47 0
55 2 S106 647 1099486 694 0
55 2 S106 657 1100143 1351 0
55 2 S106 667 1100810 2018 0
55 2 S106 662 1101472 2680 0
55 2 S106 665 1102137 3345 0
55 2 S106 677 1102814 4022 0
55 2 S106 698 1103512 4720 0
55 2 S106 721 1104233 5441 0
55 2 S106 712 1104945 6153 0
55 2 S106 687 1105632 6840 0
0 0 0 689 1106321 -5585 0
0 0 0 684 1107005 -4901 0
0 0 0 678 1107683 -4223 0
0 0 0 664 1108347 -3559 0
0 0 0 673 1109020 -2886 0
0 0 0 676 1109696 -2210 0
56 1 S116 683 1110379 -1527 0
56 1 S116 654 1111033 -873 0
56 1 S116 675 1111708 -198 0
56 2 S116 699 1112407 501 0
56 2 S116 727 1113134 1228 0
56 2 S116 751 1113885 1979 0
56 2 S116 718 1114603 2697 0
56 2 S116 682 1115285 3379 0
56 2 S116 691 1115976 4070 0
56 2 S116 699 1116675 4769 0
56 2 S116 687 1117362 5456 0
56 2 S116 678 1118040 6134 0
56 2 S116 697 1118737 6831 0
0 0 0 702 1119439 -7321 0
0 0 0 706 1120145 -6615 0
0 0 0 691 1120836 -5924 0
0 0 0 683 1121519 -5241 0
0 0 0 685 1122204 -4556 0
0 0 0 685 1122889 -3871 0
0 0 0 675 1123564 -3196 0
0 0 0 659 1124223 -2537 0
57 1 S106 661 1124884 -1876 0
57 1 S106 668 1125552 -1208 0
57 1 S106 669 1126221 -539 0
57 2 S106 665 1126886 126 0
57 2 S106 660 1127546 786 0
57 2 S106 678 1128224 1464 0
57 2 S106 672 1128896 2136 0
57 2 S106 673 1129569 2809 0
57 2 S106 667 1130236 3476 0
57 2 S106 676 1130912 4152 0
57 2 S106 678 1131590 4830 0
57 2 S106 683 1132273 5513 0
57 2 S106 668 1132941 6181 0
57 2 S106 652 1133593 6833 0
0 0 0 655 1134248 -8693 0
0 0 0 663 1134911 -8030 0
0 0 0 690 1135601 -7340 0
0 0 0 672 1136273 -6668 0
0 0 0 647 1136920 -6021 0
0 0 0 651 1137571 -5370 0
0 0 0 641 1138212 -4729 0
0 0 0 662 1138874 -4067 0
0 0 0 653 1139527 -3414 0
0 0 0 659 1140186 -2755 0
0 0 0 673 1140859 -2082 0
58 1 S102 670 1141529 -1412 0
58 1 S102 670 1142199 -742 0
58 1 S102 660 1142859 -82 0
58 2 S102 650 1143509 568 0
58 2 S102 646 1144155 1214 0
58 2 S102 650 1144805 1864 0
58 2 S102 641 1145446 2505 0
58 2 S102 618 1146064 3123 0
58 2 S102 635 1146699 3758 0
58 2 S102 644 1147343 4402 0
58 2 S102 662 1148005 5064 0
58 2 S102 669 1148674 5733 0
58 2 S102 657 1149331 6390 0
0 0 0 696 1150027 -8033 0
0 0 0 707 1150734 -7326 0
0 0 0 705 1151439 -6621 0
0 0 0 680 1152119 -5941 0
0 0 0 685 1152804 -5256 0
0 0 0 675 1153479 -4581 0
0 0 0 658 1154137 -3923 0
0 0 0 646 1154783 -3277 0
0 0 0 630 1155413 -2647 0
0 0 0 643 1156056 -2004 0
59 1 S112 645 1156701 -1359 0
59 1 S112 675 1157376 -684 0
59 1 S112 666 1158042 -18 0
59 2 S112 693 1158735 675 0
59 2 S112 726 1159461 1401 0
59 2 S112 742 1160203 2143 0
59 2 S112 718 1160921 2861 0
59 2 S112 683 1161604 3544 0
59 2 S112 689 1162293 4233 0
59 2 S112 685 1162978 4918 0
59 2 S112 675 1163653 5593 0
59 2 S112 657 1164310 6250 0
59 2 S112 654 1164964 6904 0
0 0 0 651 1165615 -8327 0
0 0 0 661 1166276 -7666 0
0 0 0 676 1166952 -6990 0
0 0 0 658 1167610 -6332 0
0 0 0 656 1168266 -5676 0
0 0 0 654 1168920 -5022 0
0 0 0 652 1169572 -4370 0
0 0 0 661 1170233 -3709 0
0 0 0 684 1170917 -3025 0
0 0 0 694 1171611 -2331 0
60 1 S102 696 1172307 -1635 0
60 1 S102 679 1172986 -956 0
60 1 S102 670 1173656 -286 0
60 2 S102 673 1174329 387 0
60 2 S102 673 1175002 1060 0
60 2 S102 670 1175672 1730 0
60 2 S102 642 1176314 2372 0
60 2 S102 616 1176930 2988 0
60 2 S102 585 1177515 3573 0
60 2 S102 573 1178088 4146 0
60 2 S102 567 1178655 4713 0
60 2 S102 560 1179215 5273 0
60 2 S102 614 1179829 5887 0
60 2 S102 670 1180499 6557 0
0 0 0 734 1181233 -11343 0
0 0 0 731 1181964 -10612 0
0 0 0 734 1182698 -9878 0
0 0 0 743 1183441 -9135 0
0 0 0 689 1184130 -8446 0
0 0 0 653 1184783 -7793 0
0 0 0 642 1185425 -7151 0
0 0 0 633 1186058 -6518 0
0 0 0 613 1186671 -5905 0
0 0 0 590 1187261 -5315 0
0 0 0 576 1187837 -4739 0
0 0 0 562 1188399 -4177 0
0 0 0 564 1188963 -3613 0
0 0 0 581 1189544 -3032 0
0 0 0 598 1190142 -2434 0
61 1 S106 621 1190763 -1813 0
61 1 S106 625 1191388 -1188 0
61 1 S106 666 1192054 -522 0
61 2 S106 686 1192740 164 0
61 2 S106 690 1193430 854 0
61 2 S106 694 1194124 1548 0
61 2 S106 690 1194814 2238 0
61 2 S106 673 1195487 2911 0
61 2 S106 695 1196182 3606 0
61 2 S106 697 1196879 4303 0
61 2 S106 698 1197577 5001 0
61 2 S106 690 1198267 5691 0
61 2 S106 678 1198945 6369 0
0 0 0 667 1199612 -8067 0
0 0 0 670 1200282 -7397 0
0 0 0 680 1200962 -6717 0
0 0 0 672 1201634 -6045 0
0 0 0 675 1202309 -5370 0
0 0 0 701 1203010 -4669 0
0 0 0 702 1203712 -3967 0
0 0 0 693 1204405 -3274 0
0 0 0 677 1205082 -2597 0
62 1 S112 675 1205757 -1922 0
62 1 S112 668 1206425 -1254 0
62 1 S112 654 1207079 -600 0
62 2 S112 643 1207722 43 0
62 2 S112 638 1208360 681 0
62 2 S112 640 1209000 1321 0
62 2 S112 650 1209650 1971 0
62 2 S112 642 1210292 2613 0
62 2 S112 633 1210925 3246 0
62 2 S112 601 1211526 3847 0
62 2 S112 622 1212148 4469 0
62 2 S112 676 1212824 5145 0
62 2 S112 758 1213582 5903 0
62 2 S112 774 1214356 6677 0
0 0 0 756 1215112 -12030 0
0 0 0 738 1215850 -11292 0
0 0 0 721 1216571 -10571 0
0 0 0 698 1217269 -9873 0
0 0 0 669 1217938 -9204 0
0 0 0 667 1218605 -8537 0
0 0 0 639 1219244 -7898 0
0 0 0 631 1219875 -7267 0
0 0 0 628 1220503 -6639 0
0 0 0 632 1221135 -6007 0
0 0 0 663 1221798 -5344 0
0 0 0 682 1222480 -4662 0
0 0 0 687 1223167 -3975 0
0 0 0 688 1223855 -3287 0
0 0 0 672 1224527 -2615 0
63 1 S102 696 1225223 -1919 0
63 1 S102 709 1225932 -1210 0
63 1 S102 697 1226629 -513 0
63 2 S102 671 1227300 158 0
63 2 S102 673 1227973 831 0
63 2 S102 695 1228668 1526 0
63 2 S102 681 1229349 2207 0
63 2 S102 677 1230026 2884 0
63 2 S102 659 1230685 3543 0
63 2 S102 665 1231350 4208 0
63 2 S102 661 1232011 4869 0
63 2 S102 677 1232688 5546 0
63 2 S102 675 1233363 6221 0
63 2 S102 668 1234031 6889 0
0 0 0 675 1234706 -8666 0
0 0 0 688 1235394 -7978 0
0 0 0 702 1236096 -7276 0
0 0 0 691 1236787 -6585 0
0 0 0 671 1237458 -5914 0
0 0 0 670 1238128 -5244 0
0 0 0 670 1238798 -4574 0
0 0 0 673 1239471 -3901 0
0 0 0 656 1240127 -3245 0
0 0 0 670 1240797 -2575 0
64 1 S112 657 1241454 -1918 0
64 1 S112 657 1242111 -1261 0
64 1 S112 641 1242752 -620 0
64 2 S112 655 1243407 35 0
64 2 S112 660 1244067 695 0
64 2 S112 690 1244757 1385 0
64 2 S112 716 1245473 2101 0
64 2 S112 728 1246201 2829 0
64 2 S112 816 1247017 3645 1
64 2 S112 849 1247866 4494 1
64 2 S112 843 1248709 5337 1
64 2 S112 762 1249471 6099 0
64 2 S112 741 1250212 6840 0
0 0 0 702 1250914 -7661 0
0 0 0 694 1251608 -6967 0
0 0 0 674 1252282 -6293 0
0 0 0 664 1252946 -5629 0
0 0 0 680 1253626 -4949 0
0 0 0 680 1254306 -4269 0
0 0 0 688 1254994 -3581 0
0 0 0 707 1255701 -2874 0
0 0 0 696 1256397 -2178 0
65 1 S106 747 1257144 -1431 0
65 1 S106 799 1257943 -632 1
65 2 S106 889 1258832 257 1
65 2 S106 829 1259661 1086 1
65 2 S106 738 1260399 1824 0
65 2 S106 702 1261101 2526 0
65 2 S106 677 1261778 3203 0
65 2 S106 653 1262431 3856 0
65 2 S106 618 1263049 4474 0
65 2 S106 640 1263689 5114 0
65 2 S106 656 1264345 5770 0
65 2 S106 688 1265033 6458 0
0 0 0 681 1265714 -6787 0
0 0 0 695 1266409 -6092 0
0 0 0 824 1267233 -5268 1
0 0 0 815 1268048 -4453 1
0 0 0 740 1268788 -3713 0
0 0 0 687 1269475 -3026 0
0 0 0 686 1270161 -2340 0
66 1 S116 694 1270855 -1646 0
66 1 S116 680 1271535 -966 0
66 1 S116 663 1272198 -303 0
66 2 S116 664 1272862 361 0
66 2 S116 688 1273550 1049 0
66 2 S116 686 1274236 1735 0
66 2 S116 681 1274917 2416 0
66 2 S116 672 1275589 3088 0
66 2 S116 667 1276256 3755 0
66 2 S116 650 1276906 4405 0
66 2 S116 683 1277589 5088 0
66 2 S116 700 1278289 5788 0
66 2 S116 709 1278998 6497 0
0 0 0 698 1279696 -11687 0
0 0 0 668 1280364 -11019 0
0 0 0 676 1281040 -10343 0
0 0 0 673 1281713 -9670 0
0 0 0 680 1282393 -8990 0
0 0 0 648 1283041 -8342 0
0 0 0 634 1283675 -7708 0
0 0 0 623 1284298 -7085 0
0 0 0 632 1284930 -6453 0
0 0 0 637 1285567 -5816 0
0 0 0 637 1286204 -5179 0
0 0 0 645 1286849 -4534 0
0 0 0 654 1287503 -3880 0
0 0 0 675 1288178 -3205 0
0 0 0 691 1288869 -2514 0
67 1 S102 682 1289551 -1832 0
67 1 S102 679 1290230 -1153 0
67 1 S102 681 1290911 -472 0
67 2 S102 687 1291598 215 0
67 2 S102 694 1292292 909 0
67 2 S102 670 1292962 1579 0
67 2 S102 645 1293607 2224 0
67 2 S102 647 1294254 2871 0
67 2 S102 647 1294901 3518 0
67 2 S102 656 1295557 4174 0
67 2 S102 675 1296232 4849 0
67 2 S102 657 1296889 5506 0
67 2 S102 665 1297554 6171 0
67 2 S102 671 1298225 6842 0
0 0 0 678 1298903 -8760 0
0 0 0 685 1299588 -8075 0
0 0 0 681 1300269 -7394 0
0 0 0 692 1300961 -6702 0
0 0 0 726 1301687 -5976 0
0 0 0 760 1302447 -5216 0
0 0 0 760 1303207 -4456 0
0 0 0 686 1303893 -3770 0
0 0 0 651 1304544 -3119 0
0 0 0 642 1305186 -2477 0
68 1 S106 644 1305830 -1833 0
68 1 S106 657 1306487 -1176 0
68 1 S106 644 1307131 -532 0
68 2 S106 631 1307762 99 0
68 2 S106 622 1308384 721 0
68 2 S106 596 1308980 1317 0
68 2 S106 588 1309568 1905 0
68 2 S106 606 1310174 2511 0
68 2 S106 652 1310826 3163 0
68 2 S106 666 1311492 3829 0
68 2 S106 665 1312157 4494 0
68 2 S106 683 1312840 5177 0
68 2 S106 699 1313539 5876 0
68 2 S106 693 1314232 6569 0
0 0 0 685 1314917 -10386 0
0 0 0 651 1315568 -9735 0
0 0 0 645 1316213 -9090 0
0 0 0 647 1316860 -8443 0
0 0 0 625 1317485 -7818 0
0 0 0 627 1318112 -7191 0
0 0 0 607 1318719 -6584 0
0 0 0 618 1319337 -5966 0
0 0 0 636 1319973 -5330 0
0 0 0 680 1320653 -4650 0
0 0 0 714 1321367 -3936 0
0 0 0 709 1322076 -3227 0
0 0 0 718 1322794 -2509 0
69 1 S102 740 1323534 -1769 0
69 1 S102 749 1324283 -1020 0
69 1 S102 762 1325045 -258 0
69 2 S102 698 1325743 440 0
69 2 S102 639 1326382 1079 0
69 2 S102 600 1326982 1679 0
69 2 S102 582 1327564 2261 0
69 2 S102 571 1328135 2832 0
69 2 S102 609 1328744 3441 0
69 2 S102 659 1329403 4100 0
69 2 S102 685 1330088 4785 0
69 2 S102 716 1330804 5501 0
69 2 S102 693 1331497 6194 0
69 2 S102 691 1332188 6885 0
0 0 0 687 1332875 -8957 0
0 0 0 675 1333550 -8282 0
0 0 0 666 1334216 -7616 0
0 0 0 669 1334885 -6947 0
0 0 0 642 1335527 -6305 0
0 0 0 626 1336153 -5679 0
0 0 0 616 1336769 -5063 0
0 0 0 621 1337390 -4442 0
0 0 0 638 1338028 -3804 0
0 0 0 654 1338682 -3150 0
0 0 0 680 1339362 -2470 0
70 1 S112 674 1340036 -1796 0
70 1 S112 668 1340704 -1128 0
70 1 S112 683 1341387 -445 0
70 2 S112 686 1342073 241 0
70 2 S112 704 1342777 945 0
70 2 S112 698 1343475 1643 0
70 2 S112 677 1344152 2320 0
70 2 S112 663 1344815 2983 0
70 2 S112 679 1345494 3662 0
70 2 S112 682 1346176 4344 0
70 2 S112 698 1346874 5042 0
70 2 S112 690 1347564 5732 0
70 2 S112 667 1348231 6399 0
0 0 0 670 1348901 -10338 0
0 0 0 673 1349574 -9665 0
0 0 0 672 1350246 -8993 0
0 0 0 647 1350893 -8346 0
0 0 0 626 1351519 -7720 0
0 0 0 623 1352142 -7097 0
0 0 0 631 1352773 -6466 0
0 0 0 647 1353420 -5819 0
0 0 0 660 1354080 -5159 0
0 0 0 670 1354750 -4489 0
0 0 0 688 1355438 -3801 0
0 0 0 730 1356168 -3071 0
0 0 0 696 1356864 -2375 0
71 1 S116 671 1357535 -1704 0
71 1 S116 675 1358210 -1029 0
71 1 S116 701 1358911 -328 0
71 2 S116 697 1359608 369 0
71 2 S116 688 1360296 1057 0
71 2 S116 666 1360962 1723 0
71 2 S116 671 1361633 2394 0
71 2 S116 672 1362305 3066 0
71 2 S116 660 1362965 3726 0
71 2 S116 645 1363610 4371 0
71 2 S116 657 1364267 5028 0
71 2 S116 663 1364930 5691 0
71 2 S116 668 1365598 6359 0
0 0 0 705 1366303 -9415 0
0 0 0 671 1366974 -8744 0
0 0 0 688 1367662 -8056 0
0 0 0 676 1368338 -7380 0
0 0 0 668 1369006 -6712 0
0 0 0 644 1369650 -6068 0
0 0 0 645 1370295 -5423 0
0 0 0 659 1370954 -4764 0
0 0 0 675 1371629 -4089 0
0 0 0 665 1372294 -3424 0
0 0 0 646 1372940 -2778 0
0 0 0 635 1373575 -2143 0
72 1 S102 645 1374220 -1498 0
72 1 S102 655 1374875 -843 0
72 1 S102 676 1375551 -167 0
72 2 S102 669 1376220 502 0
72 2 S102 664 1376884 1166 0
72 2 S102 665 1377549 1831 0
72 2 S102 638 1378187 2469 0
72 2 S102 636 1378823 3105 0
72 2 S102 630 1379453 3735 0
72 2 S102 641 1380094 4376 0
72 2 S102 647 1380741 5023 0
72 2 S102 664 1381405 5687 0
72 2 S102 673 1382078 6360 0
72 2 S102 668 1382746 7028 0
0 0 0 673 1383419 -7402 0
0 0 0 683 1384102 -6719 0
0 0 0 690 1384792 -6029 0
0 0 0 705 1385497 -5324 0
0 0 0 668 1386165 -4656 0
0 0 0 682 1386847 -3974 0
0 0 0 693 1387540 -3281 0
0 0 0 686 1388226 -2595 0
73 1 S116 680 1388906 -1915 0
73 1 S116 659 1389565 -1256 0
73 1 S116 664 1390229 -592 0
73 2 S116 662 1390891 70 0
73 2 S116 666 1391557 736 0
73 2 S116 698 1392255 1434 0
73 2 S116 703 1392958 2137 0
73 2 S116 717 1393675 2854 0
73 2 S116 734 1394409 3588 0
73 2 S116 744 1395153 4332 0
73 2 S116 716 1395869 5048 0
73 2 S116 709 1396578 5757 0
73 2 S116 691 1397269 6448 0
0 0 0 690 1397959 -9075 0
0 0 0 672 1398631 -8403 0
0 0 0 660 1399291 -7743 0
0 0 0 671 1399962 -7072 0
0 0 0 677 1400639 -6395 0
0 0 0 669 1401308 -5726 0
0 0 0 654 1401962 -5072 0
0 0 0 634 1402596 -4438 0
0 0 0 638 1403234 -3800 0
0 0 0 630 1403864 -3170 0
0 0 0 629 1404493 -2541 0
74 1 S106 613 1405106 -1928 0
74 1 S106 622 1405728 -1306 0
74 1 S106 663 1406391 -643 0
74 2 S106 668 1407059 25 0
74 2 S106 638 1407697 663 0
74 2 S106 627 1408324 1290 0
74 2 S106 625 1408949 1915 0
74 2 S106 620 1409569 2535 0
74 2 S106 601 1410170 3136 0
74 2 S106 583 1410753 3719 0
74 2 S106 567 1411320 4286 0
74 2 S106 556 1411876 4842 0
74 2 S106 552 1412428 5394 0
74 2 S106 572 1413000 5966 0
74 2 S106 613 1413613 6579 0
0 0 0 684 1414297 -6978 0
0 0 0 729 1415026 -6249 0
0 0 0 760 1415786 -5489 0
0 0 0 720 1416506 -4769 0
0 0 0 686 1417192 -4083 0
0 0 0 668 1417860 -3415 0
0 0 0 635 1418495 -2780 0
0 0 0 614 1419109 -2166 0
75 1 S112 613 1419722 -1553 0
75 1 S112 626 1420348 -927 0
75 1 S112 636 1420984 -291 0
75 2 S112 643 1421627 352 0
75 2 S112 649 1422276 1001 0
75 2 S112 674 1422950 1675 0
75 2 S112 691 1423641 2366 0
75 2 S112 702 1424343 3068 0
75 2 S112 714 1425057 3782 0
75 2 S112 726 1425783 4508 0
75 2 S112 740 1426523 5248 0
75 2 S112 783 1427306 6031 1
75 2 S112 782 1428088 6813 1
0 0 0 761 1428849 -7877 0
0 0 0 717 1429566 -7160 0
0 0 0 698 1430264 -6462 0
0 0 0 683 1430947 -5779 0
0 0 0 698 1431645 -5081 0
0 0 0 682 1432327 -4399 0
0 0 0 670 1432997 -3729 0
0 0 0 671 1433668 -3058 0
0 0 0 676 1434344 -2382 0
76 1 S116 675 1435019 -1707 0
76 1 S116 684 1435703 -1023 0
76 1 S116 678 1436381 -345 0
76 2 S116 663 1437044 318 0
76 2 S116 668 1437712 986 0
76 2 S116 683 1438395 1669 0
76 2 S116 679 1439074 2348 0
76 2 S116 649 1439723 2997 0
76 2 S116 633 1440356 3630 0
76 2 S116 648 1441004 4278 0
76 2 S116 650 1441654 4928 0
76 2 S116 668 1442322 5596 0
76 2 S116 651 1442973 6247 0
76 2 S116 624 1443597 6871 0
0 0 0 642 1444239 -7590 0
0 0 0 660 1444899 -6930 0
0 0 0 681 1445580 -6249 0
0 0 0 668 1446248 -5581 0
0 0 0 681 1446929 -4900 0
0 0 0 667 1447596 -4233 0
0 0 0 664 1448260 -3569 0
0 0 0 651 1448911 -2918 0
0 0 0 638 1449549 -2280 0
77 1 S106 632 1450181 -1648 0
77 1 S106 641 1450822 -1007 0
77 1 S106 658 1451480 -349 0
77 2 S106 652 1452132 303 0
77 2 S106 632 1452764 935 0
77 2 S106 643 1453407 1578 0
77 2 S106 659 1454066 2237 0
77 2 S106 688 1454754 2925 0
77 2 S106 707 1455461 3632 0
77 2 S106 685 1456146 4317 0
77 2 S106 676 1456822 4993 0
77 2 S106 692 1457514 5685 0
77 2 S106 682 1458196 6367 0
0 0 0 681 1458877 -8983 0
0 0 0 655 1459532 -8328 0
0 0 0 662 1460194 -7666 0
0 0 0 679 1460873 -6987 0
0 0 0 658 1461531 -6329 0
0 0 0 644 1462175 -5685 0
0 0 0 620 1462795 -5065 0
0 0 0 619 1463414 -4446 0
0 0 0 635 1464049 -3811 0
0 0 0 660 1464709 -3151 0
0 0 0 675 1465384 -2476 0
78 1 S112 665 1466049 -1811 0
78 1 S112 690 1466739 -1121 0
78 1 S112 691 1467430 -430 0
78 2 S112 681 1468111 251 0
78 2 S112 668 1468779 919 0
78 2 S112 674 1469453 1593 0
78 2 S112 685 1470138 2278 0
78 2 S112 686 1470824 2964 0
78 2 S112 677 1471501 3641 0
78 2 S112 668 1472169 4309 0
78 2 S112 653 1472822 4962 0
78 2 S112 652 1473474 5614 0
78 2 S112 667 1474141 6281 0
78 2 S112 706 1474847 6987 0
0 0 0 729 1475576 -11151 0
0 0 0 751 1476327 -10400 0
0 0 0 705 1477032 -9695 0
0 0 0 730 1477762 -8965 0
0 0 0 703 1478465 -8262 0
0 0 0 676 1479141 -7586 0
0 0 0 672 1479813 -6914 0
0 0 0 671 1480484 -6243 0
0 0 0 682 1481166 -5561 0
0 0 0 674 1481840 -4887 0
0 0 0 685 1482525 -4202 0
0 0 0 667 1483192 -3535 0
0 0 0 668 1483860 -2867 0
0 0 0 675 1484535 -2192 0
79 1 S102 672 1485207 -1520 0
79 1 S102 677 1485884 -843 0
79 1 S102 658 1486542 -185 0
79 2 S102 684 1487226 499 0
79 2 S102 700 1487926 1199 0
79 2 S102 704 1488630 1903 0
79 2 S102 689 1489319 2592 0
79 2 S102 656 1489975 3248 0
79 2 S102 637 1490612 3885 0
79 2 S102 608 1491220 4493 0
79 2 S102 600 1491820 5093 0
79 2 S102 611 1492431 5704 0
79 2 S102 635 1493066 6339 0
0 0 0 753 1493819 -9353 0
0 0 0 745 1494564 -8608 0
0 0 0 770 1495334 -7838 0
0 0 0 772 1496106 -7066 0
0 0 0 725 1496831 -6341 0
0 0 0 691 1497522 -5650 0
0 0 0 671 1498193 -4979 0
0 0 0 649 1498842 -4330 0
0 0 0 641 1499483 -3689 0
0 0 0 638 1500121 -3051 0
0 0 0 625 1500746 -2426 0
80 1 S116 632 1501378 -1794 0
80 1 S116 622 1502000 -1172 0
80 1 S116 631 1502631 -541 0
80 2 S116 628 1503259 87 0
80 2 S116 622 1503881 709 0
80 2 S116 636 1504517 1345 0
80 2 S116 642 1505159 1987 0
80 2 S116 666 1505825 2653 0
80 2 S116 681 1506506 3334 0
80 2 S116 692 1507198 4026 0
80 2 S116 686 1507884 4712 0
80 2 S116 678 1508562 5390 0
80 2 S116 668 1509230 6058 0
80 2 S116 681 1509911 6739 0
