T_0190
BeatCount Mean SD BeatCountNoOutliers MeanNoOutliers SDNoOutliers
2121 730,192833569071 64,8844696475839 2078 727,925409047161 54,6804296712323

Trial TrialStatus Trialtype IBI AbsPosition RelPosition Outlier
0 0 0 615 887 -14756 0
0 0 0 605 1492 -14151 0
0 0 0 594 2086 -13557 0
0 0 0 574 2660 -12983 0
0 0 0 564 3224 -12419 0
0 0 0 554 3778 -11865 1
0 0 0 548 4326 -11317 1
0 0 0 540 4866 -10777 1
0 0 0 541 5407 -10236 1
0 0 0 546 5953 -9690 1
0 0 0 552 6505 -9138 1
0 0 0 554 7059 -8584 1
0 0 0 549 7608 -8035 1
0 0 0 541 8149 -7494 1
0 0 0 536 8685 -6958 1
0 0 0 539 9224 -6419 1
0 0 0 547 9771 -5872 1
0 0 0 553 10324 -5319 1
0 0 0 561 10885 -4758 1
0 0 0 572 11457 -4186 0
0 0 0 598 12055 -3588 0
0 0 0 662 12717 -2926 0
0 0 0 731 13448 -2195 0
1 1 S112 1158 14606 -1037 1
1 1 S112 950 15556 -87 1
1 2 S112 839 16395 752 0
1 2 S112 788 17183 1540 0
1 2 S112 747 17930 2287 0
1 2 S112 757 18687 3044 0
1 2 S112 783 19470 3827 0
1 2 S112 745 20215 4572 0
1 2 S112 707 20922 5279 0
1 2 S112 685 21607 5964 0
1 2 S112 666 22273 6630 0
0 0 0 673 22946 -11895 0
0 0 0 679 23625 -11216 0
0 0 0 674 24299 -10542 0
0 0 0 679 24978 -9863 0
0 0 0 676 25654 -9187 0
0 0 0 692 26346 -8495 0
0 0 0 693 27039 -7802 0
0 0 0 683 27722 -7119 0
0 0 0 683 28405 -6436 0
0 0 0 665 29070 -5771 0
0 0 0 682 29752 -5089 0
0 0 0 674 30426 -4415 0
0 0 0 650 31076 -3765 0
0 0 0 637 31713 -3128 0
0 0 0 637 32350 -2491 0
2 1 S102 637 32987 -1854 0
2 1 S102 644 33631 -1210 0
2 1 S102 670 34301 -540 0
2 2 S102 696 34997 156 0
2 2 S102 705 35702 861 0
2 2 S102 690 36392 1551 0
2 2 S102 687 37079 2238 0
2 2 S102 677 37756 2915 0
2 2 S102 687 38443 3602 0
2 2 S102 690 39133 4292 0
2 2 S102 680 39813 4972 0
2 2 S102 685 40498 5657 0
2 2 S102 666 41164 6323 0
2 2 S102 691 41855 7014 0
0 0 0 714 42569 -9596 0
0 0 0 714 43283 -8882 0
0 0 0 721 44004 -8161 0
0 0 0 721 44725 -7440 0
0 0 0 755 45480 -6685 0
0 0 0 745 46225 -5940 0
0 0 0 716 46941 -5224 0
0 0 0 717 47658 -4507 0
0 0 0 696 48354 -3811 0
0 0 0 697 49051 -3114 0
0 0 0 709 49760 -2405 0
3 1 S116 714 50474 -1691 0
3 1 S116 687 51161 -1004 0
3 1 S116 699 51860 -305 0
3 2 S116 679 52539 374 0
3 2 S116 691 53230 1065 0
3 2 S116 725 53955 1790 0
3 2 S116 739 54694 2529 0
3 2 S116 723 55417 3252 0
3 2 S116 714 56131 3966 0
3 2 S116 714 56845 4680 0
3 2 S116 722 57567 5402 0
3 2 S116 733 58300 6135 0
3 2 S116 728 59028 6863 0
0 0 0 732 59760 -12598 0
0 0 0 741 60501 -11857 0
0 0 0 724 61225 -11133 0
0 0 0 713 61938 -10420 0
0 0 0 713 62651 -9707 0
0 0 0 735 63386 -8972 0
0 0 0 721 64107 -8251 0
0 0 0 706 64813 -7545 0
0 0 0 719 65532 -6826 0
0 0 0 718 66250 -6108 0
0 0 0 780 67030 -5328 0
0 0 0 793 67823 -4535 0
0 0 0 766 68589 -3769 0
0 0 0 756 69345 -3013 0
0 0 0 735 70080 -2278 0
4 1 S106 746 70826 -1532 0
4 1 S106 762 71588 -770 0
4 1 S106 760 72348 -10 0
4 2 S106 727 73075 717 0
4 2 S106 722 73797 1439 0
4 2 S106 702 74499 2141 0
4 2 S106 708 75207 2849 0
4 2 S106 728 75935 3577 0
4 2 S106 743 76678 4320 0
4 2 S106 730 77408 5050 0
4 2 S106 728 78136 5778 0
4 2 S106 705 78841 6483 0
0 0 0 711 79552 -9136 0
0 0 0 730 80282 -8406 0
0 0 0 723 81005 -7683 0
0 0 0 720 81725 -6963 0
0 0 0 733 82458 -6230 0
0 0 0 771 83229 -5459 0
0 0 0 780 84009 -4679 0
0 0 0 754 84763 -3925 0
0 0 0 728 85491 -3197 0
0 0 0 706 86197 -2491 0
5 1 S116 674 86871 -1817 0
5 1 S116 658 87529 -1159 0
5 1 S116 656 88185 -503 0
5 2 S116 661 88846 158 0
5 2 S116 664 89510 822 0
5 2 S116 689 90199 1511 0
5 2 S116 719 90918 2230 0
5 2 S116 734 91652 2964 0
5 2 S116 726 92378 3690 0
5 2 S116 741 93119 4431 0
5 2 S116 759 93878 5190 0
5 2 S116 812 94690 6002 0
5 2 S116 790 95480 6792 0
0 0 0 739 96219 -10721 0
0 0 0 715 96934 -10006 0
0 0 0 709 97643 -9297 0
0 0 0 697 98340 -8600 0
0 0 0 705 99045 -7895 0
0 0 0 724 99769 -7171 0
0 0 0 721 100490 -6450 0
0 0 0 715 101205 -5735 0
0 0 0 709 101914 -5026 0
0 0 0 699 102613 -4327 0
0 0 0 707 103320 -3620 0
0 0 0 686 104006 -2934 0
0 0 0 726 104732 -2208 0
6 1 S106 764 105496 -1444 0
6 1 S106 768 106264 -676 0
6 2 S106 727 106991 51 0
6 2 S106 716 107707 767 0
6 2 S106 710 108417 1477 0
6 2 S106 715 109132 2192 0
6 2 S106 707 109839 2899 0
6 2 S106 709 110548 3608 0
6 2 S106 696 111244 4304 0
6 2 S106 696 111940 5000 0
6 2 S106 694 112634 5694 0
6 2 S106 703 113337 6397 0
0 0 0 706 114043 -10056 0
0 0 0 708 114751 -9348 0
0 0 0 732 115483 -8616 0
0 0 0 710 116193 -7906 0
0 0 0 729 116922 -7177 0
0 0 0 725 117647 -6452 0
0 0 0 707 118354 -5745 0
0 0 0 718 119072 -5027 0
0 0 0 707 119779 -4320 0
0 0 0 736 120515 -3584 0
0 0 0 767 121282 -2817 0
0 0 0 781 122063 -2036 0
7 1 S102 784 122847 -1252 0
7 1 S102 753 123600 -499 0
7 2 S102 762 124362 263 0
7 2 S102 753 125115 1016 0
7 2 S102 736 125851 1752 0
7 2 S102 697 126548 2449 0
7 2 S102 684 127232 3133 0
7 2 S102 685 127917 3818 0
7 2 S102 670 128587 4488 0
7 2 S102 713 129300 5201 0
7 2 S102 754 130054 5955 0
7 2 S102 793 130847 6748 0
0 0 0 787 131634 -9906 0
0 0 0 768 132402 -9138 0
0 0 0 751 133153 -8387 0
0 0 0 748 133901 -7639 0
0 0 0 741 134642 -6898 0
0 0 0 722 135364 -6176 0
0 0 0 722 136086 -5454 0
0 0 0 705 136791 -4749 0
0 0 0 698 137489 -4051 0
0 0 0 690 138179 -3361 0
0 0 0 680 138859 -2681 0
0 0 0 676 139535 -2005 0
8 1 S112 678 140213 -1327 0
8 1 S112 679 140892 -648 0
8 2 S112 702 141594 54 0
8 2 S112 728 142322 782 0
8 2 S112 775 143097 1557 0
8 2 S112 770 143867 2327 0
8 2 S112 775 144642 3102 0
8 2 S112 791 145433 3893 0
8 2 S112 868 146301 4761 0
8 2 S112 826 147127 5587 0
8 2 S112 823 147950 6410 0
0 0 0 796 148746 -9074 0
0 0 0 792 149538 -8282 0
0 0 0 762 150300 -7520 0
0 0 0 720 151020 -6800 0
0 0 0 715 151735 -6085 0
0 0 0 703 152438 -5382 0
0 0 0 723 153161 -4659 0
0 0 0 713 153874 -3946 0
0 0 0 703 154577 -3243 0
0 0 0 704 155281 -2539 0
9 1 S116 693 155974 -1846 0
9 1 S116 715 156689 -1131 0
9 1 S116 723 157412 -408 0
9 2 S116 703 158115 295 0
9 2 S116 713 158828 1008 0
9 2 S116 707 159535 1715 0
9 2 S116 721 160256 2436 0
9 2 S116 740 160996 3176 0
9 2 S116 730 161726 3906 0
9 2 S116 721 162447 4627 0
9 2 S116 710 163157 5337 0
9 2 S116 705 163862 6042 0
9 2 S116 706 164568 6748 0
0 0 0 709 165277 -13149 0
0 0 0 710 165987 -12439 0
0 0 0 692 166679 -11747 0
0 0 0 702 167381 -11045 0
0 0 0 707 168088 -10338 0
0 0 0 710 168798 -9628 0
0 0 0 718 169516 -8910 0
0 0 0 746 170262 -8164 0
0 0 0 740 171002 -7424 0
0 0 0 719 171721 -6705 0
0 0 0 695 172416 -6010 0
0 0 0 697 173113 -5313 0
0 0 0 707 173820 -4606 0
0 0 0 713 174533 -3893 0
0 0 0 691 175224 -3202 0
0 0 0 731 175955 -2471 0
10 1 S102 770 176725 -1701 0
10 1 S102 860 177585 -841 0
10 2 S102 908 178493 67 1
10 2 S102 847 179340 914 0
10 2 S102 841 180181 1755 0
10 2 S102 817 180998 2572 0
10 2 S102 806 181804 3378 0
10 2 S102 778 182582 4156 0
10 2 S102 769 183351 4925 0
10 2 S102 741 184092 5666 0
10 2 S102 743 184835 6409 0
0 0 0 724 185559 -12198 0
0 0 0 727 186286 -11471 0
0 0 0 743 187029 -10728 0
0 0 0 751 187780 -9977 0
0 0 0 782 188562 -9195 0
0 0 0 802 189364 -8393 0
0 0 0 788 190152 -7605 0
0 0 0 840 190992 -6765 0
0 0 0 830 191822 -5935 0
0 0 0 803 192625 -5132 0
0 0 0 781 193406 -4351 0
0 0 0 764 194170 -3587 0
0 0 0 782 194952 -2805 0
0 0 0 729 195681 -2076 0
11 1 S112 740 196421 -1336 0
11 1 S112 725 197146 -611 0
11 2 S112 750 197896 139 0
11 2 S112 752 198648 891 0
11 2 S112 740 199388 1631 0
11 2 S112 723 200111 2354 0
11 2 S112 727 200838 3081 0
11 2 S112 729 201567 3810 0
11 2 S112 1010 202577 4820 1
11 2 S112 944 203521 5764 1
11 2 S112 876 204397 6640 0
0 0 0 840 205237 -7938 0
0 0 0 802 206039 -7136 0
0 0 0 763 206802 -6373 0
0 0 0 750 207552 -5623 0
0 0 0 726 208278 -4897 0
0 0 0 716 208994 -4181 0
0 0 0 686 209680 -3495 0
0 0 0 675 210355 -2820 0
0 0 0 668 211023 -2152 0
12 1 S116 643 211666 -1509 0
12 1 S116 642 212308 -867 0
12 1 S116 694 213002 -173 0
12 2 S116 746 213748 573 0
12 2 S116 743 214491 1316 0
12 2 S116 761 215252 2077 0
12 2 S116 811 216063 2888 0
12 2 S116 810 216873 3698 0
12 2 S116 754 217627 4452 0
12 2 S116 746 218373 5198 0
12 2 S116 723 219096 5921 0
12 2 S116 721 219817 6642 0
0 0 0 699 220516 -12437 0
0 0 0 705 221221 -11732 0
0 0 0 693 221914 -11039 0
0 0 0 699 222613 -10340 0
0 0 0 705 223318 -9635 0
0 0 0 733 224051 -8902 0
0 0 0 718 224769 -8184 0
0 0 0 741 225510 -7443 0
0 0 0 753 226263 -6690 0
0 0 0 740 227003 -5950 0
0 0 0 744 227747 -5206 0
0 0 0 759 228506 -4447 0
0 0 0 786 229292 -3661 0
0 0 0 752 230044 -2909 0
0 0 0 756 230800 -2153 0
13 1 S112 743 231543 -1410 0
13 1 S112 756 232299 -654 0
13 2 S112 742 233041 88 0
13 2 S112 714 233755 802 0
13 2 S112 697 234452 1499 0
13 2 S112 710 235162 2209 0
13 2 S112 708 235870 2917 0
13 2 S112 754 236624 3671 0
13 2 S112 872 237496 4543 0
13 2 S112 863 238359 5406 0
13 2 S112 806 239165 6212 0
13 2 S112 746 239911 6958 0
0 0 0 734 240645 -11472 0
0 0 0 714 241359 -10758 0
0 0 0 706 242065 -10052 0
0 0 0 706 242771 -9346 0
0 0 0 695 243466 -8651 0
0 0 0 689 244155 -7962 0
0 0 0 694 244849 -7268 0
0 0 0 692 245541 -6576 0
0 0 0 702 246243 -5874 0
0 0 0 708 246951 -5166 0
0 0 0 707 247658 -4459 0
0 0 0 714 248372 -3745 0
0 0 0 772 249144 -2973 0
0 0 0 752 249896 -2221 0
14 1 S106 715 250611 -1506 0
14 1 S106 682 251293 -824 0
14 1 S106 679 251972 -145 0
14 2 S106 687 252659 542 0
14 2 S106 710 253369 1252 0
14 2 S106 724 254093 1976 0
14 2 S106 761 254854 2737 0
14 2 S106 783 255637 3520 0
14 2 S106 754 256391 4274 0
14 2 S106 748 257139 5022 0
14 2 S106 731 257870 5753 0
14 2 S106 744 258614 6497 0
0 0 0 761 259375 -10017 0
0 0 0 752 260127 -9265 0
0 0 0 751 260878 -8514 0
0 0 0 716 261594 -7798 0
0 0 0 724 262318 -7074 0
0 0 0 725 263043 -6349 0
0 0 0 727 263770 -5622 0
0 0 0 705 264475 -4917 0
0 0 0 713 265188 -4204 0
0 0 0 699 265887 -3505 0
0 0 0 718 266605 -2787 0
0 0 0 752 267357 -2035 0
15 1 S116 744 268101 -1291 0
15 1 S116 732 268833 -559 0
15 2 S116 756 269589 197 0
15 2 S116 748 270337 945 0
15 2 S116 804 271141 1749 0
15 2 S116 845 271986 2594 0
15 2 S116 795 272781 3389 0
15 2 S116 758 273539 4147 0
15 2 S116 741 274280 4888 0
15 2 S116 730 275010 5618 0
15 2 S116 745 275755 6363 0
0 0 0 729 276484 -10929 0
0 0 0 742 277226 -10187 0
0 0 0 724 277950 -9463 0
0 0 0 739 278689 -8724 0
0 0 0 773 279462 -7951 0
0 0 0 762 280224 -7189 0
0 0 0 758 280982 -6431 0
0 0 0 760 281742 -5671 0
0 0 0 745 282487 -4926 0
0 0 0 748 283235 -4178 0
0 0 0 741 283976 -3437 0
0 0 0 756 284732 -2681 0
16 1 S116 788 285520 -1893 0
16 1 S116 759 286279 -1134 0
16 1 S116 757 287036 -377 0
16 2 S116 738 287774 361 0
16 2 S116 766 288540 1127 0
16 2 S116 800 289340 1927 0
16 2 S116 775 290115 2702 0
16 2 S116 736 290851 3438 0
16 2 S116 737 291588 4175 0
16 2 S116 712 292300 4887 0
16 2 S116 738 293038 5625 0
16 2 S116 741 293779 6366 0
0 0 0 720 294499 -9923 0
0 0 0 740 295239 -9183 0
0 0 0 724 295963 -8459 0
0 0 0 748 296711 -7711 0
0 0 0 781 297492 -6930 0
0 0 0 750 298242 -6180 0
0 0 0 739 298981 -5441 0
0 0 0 731 299712 -4710 0
0 0 0 737 300449 -3973 0
0 0 0 733 301182 -3240 0
0 0 0 733 301915 -2507 0
17 1 S106 738 302653 -1769 0
17 1 S106 749 303402 -1020 0
17 1 S106 775 304177 -245 0
17 2 S106 805 304982 560 0
17 2 S106 795 305777 1355 0
17 2 S106 783 306560 2138 0
17 2 S106 777 307337 2915 0
17 2 S106 767 308104 3682 0
17 2 S106 737 308841 4419 0
17 2 S106 748 309589 5167 0
17 2 S106 724 310313 5891 0
17 2 S106 751 311064 6642 0
0 0 0 766 311830 -12901 0
0 0 0 780 312610 -12121 0
0 0 0 832 313442 -11289 0
0 0 0 790 314232 -10499 0
0 0 0 832 315064 -9667 0
0 0 0 871 315935 -8796 0
0 0 0 810 316745 -7986 0
0 0 0 757 317502 -7229 0
0 0 0 737 318239 -6492 0
0 0 0 719 318958 -5773 0
0 0 0 705 319663 -5068 0
0 0 0 686 320349 -4382 0
0 0 0 671 321020 -3711 0
0 0 0 673 321693 -3038 0
0 0 0 659 322352 -2379 0
18 1 S102 665 323017 -1714 0
18 1 S102 675 323692 -1039 0
18 1 S102 666 324358 -373 0
18 2 S102 652 325010 279 0
18 2 S102 658 325668 937 0
18 2 S102 677 326345 1614 0
18 2 S102 685 327030 2299 0
18 2 S102 710 327740 3009 0
18 2 S102 722 328462 3731 0
18 2 S102 748 329210 4479 0
18 2 S102 766 329976 5245 0
18 2 S102 778 330754 6023 0
18 2 S102 742 331496 6765 0
0 0 0 732 332228 -9098 0
0 0 0 727 332955 -8371 0
0 0 0 734 333689 -7637 0
0 0 0 725 334414 -6912 0
0 0 0 747 335161 -6165 0
0 0 0 744 335905 -5421 0
0 0 0 803 336708 -4618 0
0 0 0 773 337481 -3845 0
0 0 0 733 338214 -3112 0
0 0 0 732 338946 -2380 0
19 1 S106 713 339659 -1667 0
19 1 S106 727 340386 -940 0
19 1 S106 743 341129 -197 0
19 2 S106 699 341828 502 0
19 2 S106 718 342546 1220 0
19 2 S106 700 343246 1920 0
19 2 S106 712 343958 2632 0
19 2 S106 725 344683 3357 0
19 2 S106 711 345394 4068 0
19 2 S106 716 346110 4784 0
19 2 S106 711 346821 5495 0
19 2 S106 712 347533 6207 0
19 2 S106 705 348238 6912 0
0 0 0 692 348930 -11627 0
0 0 0 684 349614 -10943 0
0 0 0 687 350301 -10256 0
0 0 0 694 350995 -9562 0
0 0 0 709 351704 -8853 0
0 0 0 692 352396 -8161 0
0 0 0 702 353098 -7459 0
0 0 0 705 353803 -6754 0
0 0 0 718 354521 -6036 0
0 0 0 736 355257 -5300 0
0 0 0 746 356003 -4554 0
0 0 0 752 356755 -3802 0
0 0 0 754 357509 -3048 0
0 0 0 775 358284 -2273 0
20 1 S112 763 359047 -1510 0
20 1 S112 757 359804 -753 0
20 2 S112 759 360563 6 0
20 2 S112 756 361319 762 0
20 2 S112 742 362061 1504 0
20 2 S112 735 362796 2239 0
20 2 S112 717 363513 2956 0
20 2 S112 752 364265 3708 0
20 2 S112 746 365011 4454 0
20 2 S112 731 365742 5185 0
20 2 S112 720 366462 5905 0
20 2 S112 707 367169 6612 0
0 0 0 700 367869 -10062 0
0 0 0 705 368574 -9357 0
0 0 0 698 369272 -8659 0
0 0 0 706 369978 -7953 0
0 0 0 696 370674 -7257 0
0 0 0 703 371377 -6554 0
0 0 0 703 372080 -5851 0
0 0 0 706 372786 -5145 0
0 0 0 701 373487 -4444 0
0 0 0 704 374191 -3740 0
0 0 0 711 374902 -3029 0
0 0 0 712 375614 -2317 0
21 1 S106 708 376322 -1609 0
21 1 S106 698 377020 -911 0
21 1 S106 699 377719 -212 0
21 2 S106 705 378424 493 0
21 2 S106 699 379123 1192 0
21 2 S106 702 379825 1894 0
21 2 S106 686 380511 2580 0
21 2 S106 702 381213 3282 0
21 2 S106 707 381920 3989 0
21 2 S106 698 382618 4687 0
21 2 S106 700 383318 5387 0
21 2 S106 690 384008 6077 0
21 2 S106 690 384698 6767 0
0 0 0 704 385402 -12423 0
0 0 0 714 386116 -11709 0
0 0 0 713 386829 -10996 0
0 0 0 718 387547 -10278 0
0 0 0 738 388285 -9540 0
0 0 0 742 389027 -8798 0
0 0 0 724 389751 -8074 0
0 0 0 712 390463 -7362 0
0 0 0 686 391149 -6676 0
0 0 0 669 391818 -6007 0
0 0 0 655 392473 -5352 0
0 0 0 645 393118 -4707 0
0 0 0 647 393765 -4060 0
0 0 0 657 394422 -3403 0
0 0 0 673 395095 -2730 0
0 0 0 701 395796 -2029 0
22 1 S116 719 396515 -1310 0
22 1 S116 738 397253 -572 0
22 2 S116 722 397975 150 0
22 2 S116 714 398689 864 0
22 2 S116 710 399399 1574 0
22 2 S116 713 400112 2287 0
22 2 S116 719 400831 3006 0
22 2 S116 723 401554 3729 0
22 2 S116 712 402266 4441 0
22 2 S116 708 402974 5149 0
22 2 S116 724 403698 5873 0
22 2 S116 743 404441 6616 0
0 0 0 726 405167 -10214 0
0 0 0 738 405905 -9476 0
0 0 0 717 406622 -8759 0
0 0 0 736 407358 -8023 0
0 0 0 742 408100 -7281 0
0 0 0 731 408831 -6550 0
0 0 0 720 409551 -5830 0
0 0 0 717 410268 -5113 0
0 0 0 725 410993 -4388 0
0 0 0 716 411709 -3672 0
0 0 0 705 412414 -2967 0
0 0 0 700 413114 -2267 0
23 1 S112 690 413804 -1577 0
23 1 S112 694 414498 -883 0
23 1 S112 697 415195 -186 0
23 2 S112 681 415876 495 0
23 2 S112 675 416551 1170 0
23 2 S112 678 417229 1848 0
23 2 S112 669 417898 2517 0
23 2 S112 678 418576 3195 0
23 2 S112 708 419284 3903 0
23 2 S112 743 420027 4646 0
23 2 S112 732 420759 5378 0
23 2 S112 745 421504 6123 0
23 2 S112 716 422220 6839 0
0 0 0 723 422943 -9481 0
0 0 0 735 423678 -8746 0
0 0 0 701 424379 -8045 0
0 0 0 700 425079 -7345 0
0 0 0 686 425765 -6659 0
0 0 0 681 426446 -5978 0
0 0 0 680 427126 -5298 0
0 0 0 672 427798 -4626 0
0 0 0 665 428463 -3961 0
0 0 0 672 429135 -3289 0
0 0 0 672 429807 -2617 0
24 1 S106 702 430509 -1915 0
24 1 S106 745 431254 -1170 0
24 1 S106 760 432014 -410 0
24 2 S106 733 432747 323 0
24 2 S106 707 433454 1030 0
24 2 S106 689 434143 1719 0
24 2 S106 674 434817 2393 0
24 2 S106 671 435488 3064 0
24 2 S106 671 436159 3735 0
24 2 S106 687 436846 4422 0
24 2 S106 694 437540 5116 0
24 2 S106 712 438252 5828 0
24 2 S106 731 438983 6559 0
0 0 0 799 439782 -9436 0
0 0 0 801 440583 -8635 0
0 0 0 844 441427 -7791 0
0 0 0 834 442261 -6957 0
0 0 0 791 443052 -6166 0
0 0 0 760 443812 -5406 0
0 0 0 723 444535 -4683 0
0 0 0 708 445243 -3975 0
0 0 0 679 445922 -3296 0
0 0 0 671 446593 -2625 0
25 1 S102 652 447245 -1973 0
25 1 S102 634 447879 -1339 0
25 1 S102 624 448503 -715 0
25 1 S102 614 449117 -101 0
25 2 S102 612 449729 511 0
25 2 S102 613 450342 1124 0
25 2 S102 616 450958 1740 0
25 2 S102 625 451583 2365 0
25 2 S102 635 452218 3000 0
25 2 S102 658 452876 3658 0
25 2 S102 689 453565 4347 0
25 2 S102 754 454319 5101 0
25 2 S102 888 455207 5989 0
25 2 S102 883 456090 6872 0
0 0 0 811 456901 -8763 0
0 0 0 767 457668 -7996 0
0 0 0 747 458415 -7249 0
0 0 0 739 459154 -6510 0
0 0 0 737 459891 -5773 0
0 0 0 749 460640 -5024 0
0 0 0 728 461368 -4296 0
0 0 0 715 462083 -3581 0
0 0 0 704 462787 -2877 0
0 0 0 698 463485 -2179 0
26 1 S116 702 464187 -1477 0
26 1 S116 711 464898 -766 0
26 1 S116 751 465649 -15 0
26 2 S116 802 466451 787 0
26 2 S116 812 467263 1599 0
26 2 S116 809 468072 2408 0
26 2 S116 780 468852 3188 0
26 2 S116 798 469650 3986 0
26 2 S116 787 470437 4773 0
26 2 S116 750 471187 5523 0
26 2 S116 741 471928 6264 0
26 2 S116 717 472645 6981 0
0 0 0 720 473365 -7932 0
0 0 0 716 474081 -7216 0
0 0 0 707 474788 -6509 0
0 0 0 699 475487 -5810 0
0 0 0 703 476190 -5107 0
0 0 0 699 476889 -4408 0
0 0 0 684 477573 -3724 0
0 0 0 688 478261 -3036 0
0 0 0 671 478932 -2365 0
27 1 S106 682 479614 -1683 0
27 1 S106 706 480320 -977 0
27 1 S106 724 481044 -253 0
27 2 S106 730 481774 477 0
27 2 S106 732 482506 1209 0
27 2 S106 742 483248 1951 0
27 2 S106 759 484007 2710 0
27 2 S106 737 484744 3447 0
27 2 S106 733 485477 4180 0
27 2 S106 712 486189 4892 0
27 2 S106 708 486897 5600 0
27 2 S106 704 487601 6304 0
27 2 S106 692 488293 6996 0
0 0 0 695 488988 -6251 0
0 0 0 686 489674 -5565 0
0 0 0 716 490390 -4849 0
0 0 0 741 491131 -4108 0
0 0 0 741 491872 -3367 0
0 0 0 747 492619 -2620 0
28 1 S102 735 493354 -1885 0
28 1 S102 745 494099 -1140 0
28 1 S102 742 494841 -398 0
28 2 S102 720 495561 322 0
28 2 S102 715 496276 1037 0
28 2 S102 695 496971 1732 0
28 2 S102 697 497668 2429 0
28 2 S102 685 498353 3114 0
28 2 S102 706 499059 3820 0
28 2 S102 675 499734 4495 0
28 2 S102 670 500404 5165 0
28 2 S102 659 501063 5824 0
28 2 S102 649 501712 6473 0
0 0 0 647 502359 -11747 0
0 0 0 645 503004 -11102 0
0 0 0 657 503661 -10445 0
0 0 0 671 504332 -9774 0
0 0 0 684 505016 -9090 0
0 0 0 684 505700 -8406 0
0 0 0 670 506370 -7736 0
0 0 0 657 507027 -7079 0
0 0 0 646 507673 -6433 0
0 0 0 639 508312 -5794 0
0 0 0 640 508952 -5154 0
0 0 0 646 509598 -4508 0
0 0 0 649 510247 -3859 0
0 0 0 662 510909 -3197 0
0 0 0 683 511592 -2514 0
29 1 S112 708 512300 -1806 0
29 1 S112 709 513009 -1097 0
29 1 S112 696 513705 -401 0
29 2 S112 700 514405 299 0
29 2 S112 699 515104 998 0
29 2 S112 723 515827 1721 0
29 2 S112 752 516579 2473 0
29 2 S112 749 517328 3222 0
29 2 S112 723 518051 3945 0
29 2 S112 727 518778 4672 0
29 2 S112 713 519491 5385 0
29 2 S112 742 520233 6127 0
29 2 S112 778 521011 6905 0
0 0 0 787 521798 -7411 0
0 0 0 748 522546 -6663 0
0 0 0 716 523262 -5947 0
0 0 0 710 523972 -5237 0
0 0 0 698 524670 -4539 0
0 0 0 680 525350 -3859 0
0 0 0 665 526015 -3194 0
0 0 0 671 526686 -2523 0
30 1 S112 654 527340 -1869 0
30 1 S112 660 528000 -1209 0
30 1 S112 690 528690 -519 0
30 2 S112 745 529435 226 0
30 2 S112 766 530201 992 0
30 2 S112 798 530999 1790 0
30 2 S112 765 531764 2555 0
30 2 S112 782 532546 3337 0
30 2 S112 806 533352 4143 0
30 2 S112 785 534137 4928 0
30 2 S112 778 534915 5706 0
30 2 S112 747 535662 6453 0
0 0 0 732 536394 -10769 0
0 0 0 721 537115 -10048 0
0 0 0 701 537816 -9347 0
0 0 0 690 538506 -8657 0
0 0 0 689 539195 -7968 0
0 0 0 693 539888 -7275 0
0 0 0 693 540581 -6582 0
0 0 0 693 541274 -5889 0
0 0 0 675 541949 -5214 0
0 0 0 658 542607 -4556 0
0 0 0 651 543258 -3905 0
0 0 0 665 543923 -3240 0
0 0 0 688 544611 -2552 0
31 1 S106 710 545321 -1842 0
31 1 S106 723 546044 -1119 0
31 1 S106 730 546774 -389 0
31 2 S106 749 547523 360 0
31 2 S106 749 548272 1109 0
31 2 S106 731 549003 1840 0
31 2 S106 716 549719 2556 0
31 2 S106 698 550417 3254 0
31 2 S106 692 551109 3946 0
31 2 S106 689 551798 4635 0
31 2 S106 684 552482 5319 0
31 2 S106 674 553156 5993 0
31 2 S106 677 553833 6670 0
0 0 0 664 554497 -8863 0
0 0 0 678 555175 -8185 0
0 0 0 714 555889 -7471 0
0 0 0 723 556612 -6748 0
0 0 0 718 557330 -6030 0
0 0 0 713 558043 -5317 0
0 0 0 726 558769 -4591 0
0 0 0 715 559484 -3876 0
0 0 0 706 560190 -3170 0
0 0 0 700 560890 -2470 0
32 1 S102 698 561588 -1772 0
32 1 S102 712 562300 -1060 0
32 1 S102 730 563030 -330 0
32 2 S102 717 563747 387 0
32 2 S102 718 564465 1105 0
32 2 S102 716 565181 1821 0
32 2 S102 718 565899 2539 0
32 2 S102 713 566612 3252 0
32 2 S102 699 567311 3951 0
32 2 S102 677 567988 4628 0
32 2 S102 704 568692 5332 0
32 2 S102 693 569385 6025 0
32 2 S102 712 570097 6737 0
0 0 0 761 570858 -10622 0
0 0 0 726 571584 -9896 0
0 0 0 700 572284 -9196 0
0 0 0 702 572986 -8494 0
0 0 0 691 573677 -7803 0
0 0 0 684 574361 -7119 0
0 0 0 671 575032 -6448 0
0 0 0 667 575699 -5781 0
0 0 0 663 576362 -5118 0
0 0 0 661 577023 -4457 0
0 0 0 652 577675 -3805 0
0 0 0 640 578315 -3165 0
0 0 0 631 578946 -2534 0
33 1 S112 624 579570 -1910 0
33 1 S112 624 580194 -1286 0
33 1 S112 627 580821 -659 0
33 1 S112 627 581448 -32 0
33 2 S112 636 582084 604 0
33 2 S112 702 582786 1306 0
33 2 S112 787 583573 2093 0
33 2 S112 862 584435 2955 0
33 2 S112 845 585280 3800 0
33 2 S112 818 586098 4618 0
33 2 S112 787 586885 5405 0
33 2 S112 785 587670 6190 0
33 2 S112 804 588474 6994 0
0 0 0 795 589269 -11475 0
0 0 0 742 590011 -10733 0
0 0 0 714 590725 -10019 0
0 0 0 699 591424 -9320 0
0 0 0 698 592122 -8622 0
0 0 0 692 592814 -7930 0
0 0 0 691 593505 -7239 0
0 0 0 687 594192 -6552 0
0 0 0 680 594872 -5872 0
0 0 0 710 595582 -5162 0
0 0 0 743 596325 -4419 0
0 0 0 750 597075 -3669 0
0 0 0 729 597804 -2940 0
0 0 0 706 598510 -2234 0
34 1 S106 706 599216 -1528 0
34 1 S106 712 599928 -816 0
34 1 S106 709 600637 -107 0
34 2 S106 712 601349 605 0
34 2 S106 696 602045 1301 0
34 2 S106 689 602734 1990 0
34 2 S106 670 603404 2660 0
34 2 S106 673 604077 3333 0
34 2 S106 682 604759 4015 0
34 2 S106 686 605445 4701 0
34 2 S106 684 606129 5385 0
34 2 S106 691 606820 6076 0
34 2 S106 680 607500 6756 0
0 0 0 682 608182 -8826 0
0 0 0 700 608882 -8126 0
0 0 0 705 609587 -7421 0
0 0 0 703 610290 -6718 0
0 0 0 692 610982 -6026 0
0 0 0 681 611663 -5345 0
0 0 0 676 612339 -4669 0
0 0 0 673 613012 -3996 0
0 0 0 673 613685 -3323 0
0 0 0 678 614363 -2645 0
35 1 S102 667 615030 -1978 0
35 1 S102 680 615710 -1298 0
35 1 S102 690 616400 -608 0
35 2 S102 711 617111 103 0
35 2 S102 722 617833 825 0
35 2 S102 710 618543 1535 0
35 2 S102 718 619261 2253 0
35 2 S102 713 619974 2966 0
35 2 S102 704 620678 3670 0
35 2 S102 700 621378 4370 0
35 2 S102 703 622081 5073 0
35 2 S102 702 622783 5775 0
35 2 S102 705 623488 6480 0
0 0 0 691 624179 -6721 0
0 0 0 692 624871 -6029 0
0 0 0 689 625560 -5340 0
0 0 0 710 626270 -4630 0
0 0 0 715 626985 -3915 0
0 0 0 712 627697 -3203 0
0 0 0 700 628397 -2503 0
36 1 S106 685 629082 -1818 0
36 1 S106 670 629752 -1148 0
36 1 S106 657 630409 -491 0
36 2 S106 638 631047 147 0
36 2 S106 627 631674 774 0
36 2 S106 622 632296 1396 0
36 2 S106 619 632915 2015 0
36 2 S106 619 633534 2634 0
36 2 S106 618 634152 3252 0
36 2 S106 618 634770 3870 0
36 2 S106 655 635425 4525 0
36 2 S106 723 636148 5248 0
36 2 S106 759 636907 6007 0
36 2 S106 745 637652 6752 0
0 0 0 737 638389 -10002 0
0 0 0 734 639123 -9268 0
0 0 0 722 639845 -8546 0
0 0 0 702 640547 -7844 0
0 0 0 693 641240 -7151 0
0 0 0 671 641911 -6480 0
0 0 0 658 642569 -5822 0
0 0 0 651 643220 -5171 0
0 0 0 643 643863 -4528 0
0 0 0 645 644508 -3883 0
0 0 0 634 645142 -3249 0
0 0 0 640 645782 -2609 0
37 1 S116 657 646439 -1952 0
37 1 S116 691 647130 -1261 0
37 1 S116 687 647817 -574 0
37 2 S116 705 648522 131 0
37 2 S116 691 649213 822 0
37 2 S116 737 649950 1559 0
37 2 S116 786 650736 2345 0
37 2 S116 773 651509 3118 0
37 2 S116 727 652236 3845 0
37 2 S116 724 652960 4569 0
37 2 S116 698 653658 5267 0
37 2 S116 695 654353 5962 0
37 2 S116 683 655036 6645 0
0 0 0 678 655714 -11742 0
0 0 0 677 656391 -11065 0
0 0 0 663 657054 -10402 0
0 0 0 658 657712 -9744 0
0 0 0 656 658368 -9088 0
0 0 0 653 659021 -8435 0
0 0 0 662 659683 -7773 0
0 0 0 651 660334 -7122 0
0 0 0 657 660991 -6465 0
0 0 0 673 661664 -5792 0
0 0 0 691 662355 -5101 0
0 0 0 696 663051 -4405 0
0 0 0 688 663739 -3717 0
0 0 0 698 664437 -3019 0
0 0 0 716 665153 -2303 0
38 1 S102 714 665867 -1589 0
38 1 S102 707 666574 -882 0
38 1 S102 688 667262 -194 0
38 2 S102 681 667943 487 0
38 2 S102 679 668622 1166 0
38 2 S102 678 669300 1844 0
38 2 S102 670 669970 2514 0
38 2 S102 672 670642 3186 0
38 2 S102 670 671312 3856 0
38 2 S102 683 671995 4539 0
38 2 S102 701 672696 5240 0
38 2 S102 705 673401 5945 0
38 2 S102 708 674109 6653 0
0 0 0 727 674836 -10690 0
0 0 0 696 675532 -9994 0
0 0 0 710 676242 -9284 0
0 0 0 729 676971 -8555 0
0 0 0 747 677718 -7808 0
0 0 0 742 678460 -7066 0
0 0 0 723 679183 -6343 0
0 0 0 702 679885 -5641 0
0 0 0 682 680567 -4959 0
0 0 0 665 681232 -4294 0
0 0 0 652 681884 -3642 0
0 0 0 637 682521 -3005 0
0 0 0 628 683149 -2377 0
39 1 S116 621 683770 -1756 0
39 1 S116 626 684396 -1130 0
39 1 S116 631 685027 -499 0
39 2 S116 651 685678 152 0
39 2 S116 728 686406 880 0
39 2 S116 856 687262 1736 0
39 2 S116 854 688116 2590 0
39 2 S116 788 688904 3378 0
39 2 S116 772 689676 4150 0
39 2 S116 769 690445 4919 0
39 2 S116 775 691220 5694 0
39 2 S116 769 691989 6463 0
0 0 0 733 692722 -8587 0
0 0 0 725 693447 -7862 0
0 0 0 703 694150 -7159 0
0 0 0 705 694855 -6454 0
0 0 0 701 695556 -5753 0
0 0 0 701 696257 -5052 0
0 0 0 700 696957 -4352 0
0 0 0 691 697648 -3661 0
0 0 0 690 698338 -2971 0
0 0 0 704 699042 -2267 0
40 1 S112 706 699748 -1561 0
40 1 S112 716 700464 -845 0
40 1 S112 713 701177 -132 0
40 2 S112 756 701933 624 0
40 2 S112 764 702697 1388 0
40 2 S112 750 703447 2138 0
40 2 S112 730 704177 2868 0
40 2 S112 737 704914 3605 0
40 2 S112 734 705648 4339 0
40 2 S112 727 706375 5066 0
40 2 S112 717 707092 5783 0
40 2 S112 708 707800 6491 0
0 0 0 699 708499 -188783 0
0 0 0 693 709192 -188090 0
0 0 0 685 709877 -187405 0
0 0 0 677 710554 -186728 0
0 0 0 680 711234 -186048 0
0 0 0 686 711920 -185362 0
0 0 0 708 712628 -184654 0
0 0 0 708 713336 -183946 0
0 0 0 699 714035 -183247 0
0 0 0 699 714734 -182548 0
0 0 0 692 715426 -181856 0
0 0 0 710 716136 -181146 0
0 0 0 716 716852 -180430 0
0 0 0 710 717562 -179720 0
0 0 0 700 718262 -179020 0
0 0 0 702 718964 -178318 0
0 0 0 700 719664 -177618 0
0 0 0 684 720348 -176934 0
0 0 0 673 721021 -176261 0
0 0 0 674 721695 -175587 0
0 0 0 661 722356 -174926 0
0 0 0 664 723020 -174262 0
0 0 0 671 723691 -173591 0
0 0 0 676 724367 -172915 0
0 0 0 676 725043 -172239 0
0 0 0 683 725726 -171556 0
0 0 0 666 726392 -170890 0
0 0 0 680 727072 -170210 0
0 0 0 700 727772 -169510 0
0 0 0 715 728487 -168795 0
0 0 0 711 729198 -168084 0
0 0 0 708 729906 -167376 0
0 0 0 699 730605 -166677 0
0 0 0 702 731307 -165975 0
0 0 0 705 732012 -165270 0
0 0 0 716 732728 -164554 0
0 0 0 711 733439 -163843 0
0 0 0 693 734132 -163150 0
0 0 0 689 734821 -162461 0
0 0 0 673 735494 -161788 0
0 0 0 678 736172 -161110 0
0 0 0 687 736859 -160423 0
0 0 0 693 737552 -159730 0
0 0 0 678 738230 -159052 0
0 0 0 683 738913 -158369 0
0 0 0 671 739584 -157698 0
0 0 0 682 740266 -157016 0
0 0 0 693 740959 -156323 0
0 0 0 712 741671 -155611 0
0 0 0 704 742375 -154907 0
0 0 0 712 743087 -154195 0
0 0 0 702 743789 -153493 0
0 0 0 717 744506 -152776 0
0 0 0 713 745219 -152063 0
0 0 0 717 745936 -151346 0
0 0 0 705 746641 -150641 0
0 0 0 717 747358 -149924 0
0 0 0 708 748066 -149216 0
0 0 0 708 748774 -148508 0
0 0 0 712 749486 -147796 0
0 0 0 708 750194 -147088 0
0 0 0 709 750903 -146379 0
0 0 0 699 751602 -145680 0
0 0 0 694 752296 -144986 0
0 0 0 704 753000 -144282 0
0 0 0 707 753707 -143575 0
0 0 0 704 754411 -142871 0
0 0 0 705 755116 -142166 0
0 0 0 686 755802 -141480 0
0 0 0 694 756496 -140786 0
0 0 0 699 757195 -140087 0
0 0 0 714 757909 -139373 0
0 0 0 704 758613 -138669 0
0 0 0 716 759329 -137953 0
0 0 0 706 760035 -137247 0
0 0 0 725 760760 -136522 0
0 0 0 734 761494 -135788 0
0 0 0 712 762206 -135076 0
0 0 0 706 762912 -134370 0
0 0 0 690 763602 -133680 0
0 0 0 679 764281 -133001 0
0 0 0 678 764959 -132323 0
0 0 0 681 765640 -131642 0
0 0 0 670 766310 -130972 0
0 0 0 675 766985 -130297 0
0 0 0 663 767648 -129634 0
0 0 0 662 768310 -128972 0
0 0 0 668 768978 -128304 0
0 0 0 661 769639 -127643 0
0 0 0 643 770282 -127000 0
0 0 0 627 770909 -126373 0
0 0 0 618 771527 -125755 0
0 0 0 621 772148 -125134 0
0 0 0 619 772767 -124515 0
0 0 0 649 773416 -123866 0
0 0 0 715 774131 -123151 0
0 0 0 878 775009 -122273 0
0 0 0 754 775763 -121519 0
0 0 0 753 776516 -120766 0
0 0 0 700 777216 -120066 0
0 0 0 714 777930 -119352 0
0 0 0 707 778637 -118645 0
0 0 0 688 779325 -117957 0
0 0 0 682 780007 -117275 0
0 0 0 668 780675 -116607 0
0 0 0 661 781336 -115946 0
0 0 0 661 781997 -115285 0
0 0 0 655 782652 -114630 0
0 0 0 651 783303 -113979 0
0 0 0 643 783946 -113336 0
0 0 0 640 784586 -112696 0
0 0 0 643 785229 -112053 0
0 0 0 641 785870 -111412 0
0 0 0 653 786523 -110759 0
0 0 0 672 787195 -110087 0
0 0 0 681 787876 -109406 0
0 0 0 670 788546 -108736 0
0 0 0 660 789206 -108076 0
0 0 0 652 789858 -107424 0
0 0 0 643 790501 -106781 0
0 0 0 622 791123 -106159 0
0 0 0 594 791717 -105565 0
0 0 0 591 792308 -104974 0
0 0 0 595 792903 -104379 0
0 0 0 614 793517 -103765 0
0 0 0 621 794138 -103144 0
0 0 0 632 794770 -102512 0
0 0 0 638 795408 -101874 0
0 0 0 633 796041 -101241 0
0 0 0 623 796664 -100618 0
0 0 0 617 797281 -100001 0
0 0 0 613 797894 -99388 0
0 0 0 617 798511 -98771 0
0 0 0 620 799131 -98151 0
0 0 0 628 799759 -97523 0
0 0 0 636 800395 -96887 0
0 0 0 643 801038 -96244 0
0 0 0 673 801711 -95571 0
0 0 0 727 802438 -94844 0
0 0 0 741 803179 -94103 0
0 0 0 728 803907 -93375 0
0 0 0 708 804615 -92667 0
0 0 0 704 805319 -91963 0
0 0 0 690 806009 -91273 0
0 0 0 684 806693 -90589 0
0 0 0 666 807359 -89923 0
0 0 0 647 808006 -89276 0
0 0 0 634 808640 -88642 0
0 0 0 635 809275 -88007 0
0 0 0 631 809906 -87376 0
0 0 0 653 810559 -86723 0
0 0 0 647 811206 -86076 0
0 0 0 655 811861 -85421 0
0 0 0 676 812537 -84745 0
0 0 0 706 813243 -84039 0
0 0 0 706 813949 -83333 0
0 0 0 701 814650 -82632 0
0 0 0 688 815338 -81944 0
0 0 0 683 816021 -81261 0
0 0 0 675 816696 -80586 0
0 0 0 680 817376 -79906 0
0 0 0 699 818075 -79207 0
0 0 0 717 818792 -78490 0
0 0 0 699 819491 -77791 0
0 0 0 686 820177 -77105 0
0 0 0 675 820852 -76430 0
0 0 0 683 821535 -75747 0
0 0 0 685 822220 -75062 0
0 0 0 684 822904 -74378 0
0 0 0 691 823595 -73687 0
0 0 0 685 824280 -73002 0
0 0 0 698 824978 -72304 0
0 0 0 708 825686 -71596 0
0 0 0 708 826394 -70888 0
0 0 0 699 827093 -70189 0
0 0 0 693 827786 -69496 0
0 0 0 693 828479 -68803 0
0 0 0 682 829161 -68121 0
0 0 0 683 829844 -67438 0
0 0 0 680 830524 -66758 0
0 0 0 689 831213 -66069 0
0 0 0 693 831906 -65376 0
0 0 0 687 832593 -64689 0
0 0 0 684 833277 -64005 0
0 0 0 689 833966 -63316 0
0 0 0 701 834667 -62615 0
0 0 0 701 835368 -61914 0
0 0 0 705 836073 -61209 0
0 0 0 701 836774 -60508 0
0 0 0 705 837479 -59803 0
0 0 0 709 838188 -59094 0
0 0 0 706 838894 -58388 0
0 0 0 697 839591 -57691 0
0 0 0 698 840289 -56993 0
0 0 0 696 840985 -56297 0
0 0 0 691 841676 -55606 0
0 0 0 691 842367 -54915 0
0 0 0 685 843052 -54230 0
0 0 0 691 843743 -53539 0
0 0 0 690 844433 -52849 0
0 0 0 689 845122 -52160 0
0 0 0 677 845799 -51483 0
0 0 0 674 846473 -50809 0
0 0 0 663 847136 -50146 0
0 0 0 670 847806 -49476 0
0 0 0 677 848483 -48799 0
0 0 0 682 849165 -48117 0
0 0 0 674 849839 -47443 0
0 0 0 674 850513 -46769 0
0 0 0 664 851177 -46105 0
0 0 0 677 851854 -45428 0
0 0 0 684 852538 -44744 0
0 0 0 691 853229 -44053 0
0 0 0 689 853918 -43364 0
0 0 0 677 854595 -42687 0
0 0 0 675 855270 -42012 0
0 0 0 657 855927 -41355 0
0 0 0 655 856582 -40700 0
0 0 0 655 857237 -40045 0
0 0 0 662 857899 -39383 0
0 0 0 664 858563 -38719 0
0 0 0 676 859239 -38043 0
0 0 0 669 859908 -37374 0
0 0 0 667 860575 -36707 0
0 0 0 660 861235 -36047 0
0 0 0 653 861888 -35394 0
0 0 0 672 862560 -34722 0
0 0 0 711 863271 -34011 0
0 0 0 739 864010 -33272 0
0 0 0 715 864725 -32557 0
0 0 0 718 865443 -31839 0
0 0 0 693 866136 -31146 0
0 0 0 687 866823 -30459 0
0 0 0 691 867514 -29768 0
0 0 0 687 868201 -29081 0
0 0 0 685 868886 -28396 0
0 0 0 672 869558 -27724 0
0 0 0 665 870223 -27059 0
0 0 0 655 870878 -26404 0
0 0 0 654 871532 -25750 0
0 0 0 650 872182 -25100 0
0 0 0 656 872838 -24444 0
0 0 0 654 873492 -23790 0
0 0 0 660 874152 -23130 0
0 0 0 652 874804 -22478 0
0 0 0 653 875457 -21825 0
0 0 0 657 876114 -21168 0
0 0 0 656 876770 -20512 0
0 0 0 655 877425 -19857 0
0 0 0 656 878081 -19201 0
0 0 0 658 878739 -18543 0
0 0 0 663 879402 -17880 0
0 0 0 667 880069 -17213 0
0 0 0 669 880738 -16544 0
0 0 0 678 881416 -15866 0
0 0 0 667 882083 -15199 0
0 0 0 663 882746 -14536 0
0 0 0 658 883404 -13878 0
0 0 0 656 884060 -13222 0
0 0 0 650 884710 -12572 0
0 0 0 647 885357 -11925 0
0 0 0 640 885997 -11285 0
0 0 0 640 886637 -10645 0
0 0 0 642 887279 -10003 0
0 0 0 638 887917 -9365 0
0 0 0 642 888559 -8723 0
0 0 0 633 889192 -8090 0
0 0 0 636 889828 -7454 0
0 0 0 641 890469 -6813 0
0 0 0 649 891118 -6164 0
0 0 0 647 891765 -5517 0
0 0 0 651 892416 -4866 0
0 0 0 647 893063 -4219 0
0 0 0 645 893708 -3574 0
0 0 0 630 894338 -2944 0
0 0 0 623 894961 -2321 0
41 1 S102 612 895573 -1709 0
41 1 S102 602 896175 -1107 0
41 1 S102 595 896770 -512 0
41 2 S102 592 897362 80 0
41 2 S102 593 897955 673 0
41 2 S102 619 898574 1292 0
41 2 S102 662 899236 1954 0
41 2 S102 742 899978 2696 0
41 2 S102 749 900727 3445 0
41 2 S102 715 901442 4160 0
41 2 S102 703 902145 4863 0
41 2 S102 696 902841 5559 0
41 2 S102 695 903536 6254 0
41 2 S102 691 904227 6945 0
0 0 0 682 904909 -7244 0
0 0 0 674 905583 -6570 0
0 0 0 655 906238 -5915 0
0 0 0 652 906890 -5263 0
0 0 0 649 907539 -4614 0
0 0 0 642 908181 -3972 0
0 0 0 634 908815 -3338 0
0 0 0 637 909452 -2701 0
0 0 0 627 910079 -2074 0
42 1 S112 647 910726 -1427 0
42 1 S112 696 911422 -731 0
42 2 S112 833 912255 102 0
42 2 S112 886 913141 988 0
42 2 S112 917 914058 1905 1
42 2 S112 903 914961 2808 1
42 2 S112 839 915800 3647 0
42 2 S112 786 916586 4433 0
42 2 S112 764 917350 5197 0
42 2 S112 750 918100 5947 0
42 2 S112 732 918832 6679 0
0 0 0 725 919557 -10500 0
0 0 0 710 920267 -9790 0
0 0 0 699 920966 -9091 0
0 0 0 688 921654 -8403 0
0 0 0 681 922335 -7722 0
0 0 0 680 923015 -7042 0
0 0 0 672 923687 -6370 0
0 0 0 660 924347 -5710 0
0 0 0 660 925007 -5050 0
0 0 0 658 925665 -4392 0
0 0 0 668 926333 -3724 0
0 0 0 728 927061 -2996 0
0 0 0 791 927852 -2205 0
43 1 S116 863 928715 -1342 0
43 1 S116 858 929573 -484 0
43 2 S116 904 930477 420 1
43 2 S116 905 931382 1325 1
43 2 S116 840 932222 2165 0
43 2 S116 811 933033 2976 0
43 2 S116 780 933813 3756 0
43 2 S116 756 934569 4512 0
43 2 S116 757 935326 5269 0
43 2 S116 745 936071 6014 0
43 2 S116 718 936789 6732 0
0 0 0 713 937502 -7642 0
0 0 0 711 938213 -6931 0
0 0 0 697 938910 -6234 0
0 0 0 701 939611 -5533 0
0 0 0 704 940315 -4829 0
0 0 0 709 941024 -4120 0
0 0 0 705 941729 -3415 0
0 0 0 718 942447 -2697 0
44 1 S102 702 943149 -1995 0
44 1 S102 741 943890 -1254 0
44 1 S102 755 944645 -499 0
44 2 S102 744 945389 245 0
44 2 S102 745 946134 990 0
44 2 S102 731 946865 1721 0
44 2 S102 739 947604 2460 0
44 2 S102 742 948346 3202 0
44 2 S102 720 949066 3922 0
44 2 S102 713 949779 4635 0
44 2 S102 675 950454 5310 0
44 2 S102 678 951132 5988 0
44 2 S102 678 951810 6666 0
0 0 0 666 952476 -8948 0
0 0 0 675 953151 -8273 0
0 0 0 786 953937 -7487 0
0 0 0 826 954763 -6661 0
0 0 0 761 955524 -5900 0
0 0 0 734 956258 -5166 0
0 0 0 706 956964 -4460 0
0 0 0 685 957649 -3775 0
0 0 0 669 958318 -3106 0
0 0 0 666 958984 -2440 0
45 1 S116 679 959663 -1761 0
45 1 S116 697 960360 -1064 0
45 1 S116 706 961066 -358 0
45 2 S116 698 961764 340 0
45 2 S116 680 962444 1020 0
45 2 S116 668 963112 1688 0
45 2 S116 663 963775 2351 0
45 2 S116 660 964435 3011 0
45 2 S116 663 965098 3674 0
45 2 S116 673 965771 4347 0
45 2 S116 673 966444 5020 0
45 2 S116 686 967130 5706 0
45 2 S116 712 967842 6418 0
0 0 0 725 968567 -12237 0
0 0 0 714 969281 -11523 0
0 0 0 723 970004 -10800 0
0 0 0 723 970727 -10077 0
0 0 0 770 971497 -9307 0
0 0 0 750 972247 -8557 0
0 0 0 737 972984 -7820 0
0 0 0 701 973685 -7119 0
0 0 0 680 974365 -6439 0
0 0 0 684 975049 -5755 0
0 0 0 714 975763 -5041 0
0 0 0 708 976471 -4333 0
0 0 0 731 977202 -3602 0
0 0 0 733 977935 -2869 0
0 0 0 764 978699 -2105 0
46 1 S102 774 979473 -1331 0
46 1 S102 736 980209 -595 0
46 2 S102 742 980951 147 0
46 2 S102 729 981680 876 0
46 2 S102 746 982426 1622 0
46 2 S102 742 983168 2364 0
46 2 S102 745 983913 3109 0
46 2 S102 759 984672 3868 0
46 2 S102 791 985463 4659 0
46 2 S102 814 986277 5473 0
46 2 S102 777 987054 6250 0
0 0 0 786 987840 -9708 0
0 0 0 793 988633 -8915 0
0 0 0 814 989447 -8101 0
0 0 0 788 990235 -7313 0
0 0 0 785 991020 -6528 0
0 0 0 766 991786 -5762 0
0 0 0 775 992561 -4987 0
0 0 0 758 993319 -4229 0
0 0 0 786 994105 -3443 0
0 0 0 783 994888 -2660 0
47 1 S112 858 995746 -1802 0
47 1 S112 886 996632 -916 0
47 1 S112 823 997455 -93 0
47 2 S112 804 998259 711 0
47 2 S112 828 999087 1539 0
47 2 S112 858 999945 2397 0
47 2 S112 876 1000821 3273 0
47 2 S112 861 1001682 4134 0
47 2 S112 801 1002483 4935 0
47 2 S112 779 1003262 5714 0
47 2 S112 758 1004020 6472 0
0 0 0 781 1004801 -12077 0
0 0 0 790 1005591 -11287 0
0 0 0 869 1006460 -10418 0
0 0 0 1037 1007497 -9381 1
0 0 0 932 1008429 -8449 1
0 0 0 871 1009300 -7578 0
0 0 0 838 1010138 -6740 0
0 0 0 827 1010965 -5913 0
0 0 0 838 1011803 -5075 0
0 0 0 842 1012645 -4233 0
0 0 0 845 1013490 -3388 0
0 0 0 837 1014327 -2551 0
48 1 S116 873 1015200 -1678 0
48 1 S116 888 1016088 -790 0
48 2 S116 865 1016953 75 0
48 2 S116 810 1017763 885 0
48 2 S116 816 1018579 1701 0
48 2 S116 798 1019377 2499 0
48 2 S116 799 1020176 3298 0
48 2 S116 775 1020951 4073 0
48 2 S116 814 1021765 4887 0
48 2 S116 817 1022582 5704 0
48 2 S116 952 1023534 6656 1
0 0 0 864 1024398 -7368 0
0 0 0 861 1025259 -6507 0
0 0 0 834 1026093 -5673 0
0 0 0 803 1026896 -4870 0
0 0 0 803 1027699 -4067 0
0 0 0 767 1028466 -3300 0
0 0 0 770 1029236 -2530 0
49 1 S112 757 1029993 -1773 0
49 1 S112 774 1030767 -999 0
49 1 S112 811 1031578 -188 0
49 2 S112 852 1032430 664 0
49 2 S112 1016 1033446 1680 1
49 2 S112 912 1034358 2592 1
49 2 S112 863 1035221 3455 0
49 2 S112 935 1036156 4390 1
49 2 S112 911 1037067 5301 1
49 2 S112 824 1037891 6125 0
49 2 S112 816 1038707 6941 0
0 0 0 830 1039537 -11659 0
0 0 0 827 1040364 -10832 0
0 0 0 820 1041184 -10012 0
0 0 0 830 1042014 -9182 0
0 0 0 826 1042840 -8356 0
0 0 0 805 1043645 -7551 0
0 0 0 784 1044429 -6767 0
0 0 0 769 1045198 -5998 0
0 0 0 769 1045967 -5229 0
0 0 0 766 1046733 -4463 0
0 0 0 807 1047540 -3656 0
0 0 0 815 1048355 -2841 0
0 0 0 804 1049159 -2037 0
50 1 S106 804 1049963 -1233 0
50 1 S106 790 1050753 -443 0
50 2 S106 809 1051562 366 0
50 2 S106 799 1052361 1165 0
50 2 S106 780 1053141 1945 0
50 2 S106 774 1053915 2719 0
50 2 S106 775 1054690 3494 0
50 2 S106 771 1055461 4265 0
50 2 S106 726 1056187 4991 0
50 2 S106 735 1056922 5726 0
50 2 S106 719 1057641 6445 0
0 0 0 735 1058376 -6812 0
0 0 0 781 1059157 -6031 0
0 0 0 775 1059932 -5256 0
0 0 0 793 1060725 -4463 0
0 0 0 771 1061496 -3692 0
0 0 0 768 1062264 -2924 0
0 0 0 752 1063016 -2172 0
51 1 S112 761 1063777 -1411 0
51 1 S112 718 1064495 -693 0
51 2 S112 698 1065193 5 0
51 2 S112 678 1065871 683 0
51 2 S112 671 1066542 1354 0
51 2 S112 673 1067215 2027 0
51 2 S112 676 1067891 2703 0
51 2 S112 690 1068581 3393 0
51 2 S112 696 1069277 4089 0
51 2 S112 710 1069987 4799 0
51 2 S112 734 1070721 5533 0
51 2 S112 753 1071474 6286 0
51 2 S112 742 1072216 7028 0
0 0 0 740 1072956 -5379 0
0 0 0 749 1073705 -4630 0
0 0 0 748 1074453 -3882 0
0 0 0 734 1075187 -3148 0
0 0 0 752 1075939 -2396 0
52 1 S116 735 1076674 -1661 0
52 1 S116 769 1077443 -892 0
52 1 S116 775 1078218 -117 0
52 2 S116 768 1078986 651 0
52 2 S116 782 1079768 1433 0
52 2 S116 776 1080544 2209 0
52 2 S116 791 1081335 3000 0
52 2 S116 793 1082128 3793 0
52 2 S116 778 1082906 4571 0
52 2 S116 759 1083665 5330 0
52 2 S116 767 1084432 6097 0
52 2 S116 770 1085202 6867 0
0 0 0 725 1085927 -9682 0
0 0 0 734 1086661 -8948 0
0 0 0 713 1087374 -8235 0
0 0 0 727 1088101 -7508 0
0 0 0 741 1088842 -6767 0
0 0 0 733 1089575 -6034 0
0 0 0 721 1090296 -5313 0
0 0 0 726 1091022 -4587 0
0 0 0 764 1091786 -3823 0
0 0 0 746 1092532 -3077 0
0 0 0 782 1093314 -2295 0
53 1 S106 759 1094073 -1536 0
53 1 S106 774 1094847 -762 0
53 2 S106 793 1095640 31 0
53 2 S106 742 1096382 773 0
53 2 S106 765 1097147 1538 0
53 2 S106 750 1097897 2288 0
53 2 S106 757 1098654 3045 0
53 2 S106 773 1099427 3818 0
53 2 S106 747 1100174 4565 0
53 2 S106 756 1100930 5321 0
53 2 S106 738 1101668 6059 0
53 2 S106 781 1102449 6840 0
0 0 0 762 1103211 -7800 0
0 0 0 778 1103989 -7022 0
0 0 0 756 1104745 -6266 0
0 0 0 775 1105520 -5491 0
0 0 0 785 1106305 -4706 0
0 0 0 753 1107058 -3953 0
0 0 0 739 1107797 -3214 0
0 0 0 748 1108545 -2466 0
54 1 S102 754 1109299 -1712 0
54 1 S102 729 1110028 -983 0
54 1 S102 740 1110768 -243 0
54 2 S102 728 1111496 485 0
54 2 S102 753 1112249 1238 0
54 2 S102 819 1113068 2057 0
54 2 S102 815 1113883 2872 0
54 2 S102 819 1114702 3691 0
54 2 S102 823 1115525 4514 0
54 2 S102 831 1116356 5345 0
54 2 S102 801 1117157 6146 0
54 2 S102 803 1117960 6949 0
0 0 0 802 1118762 -12093 0
0 0 0 786 1119548 -11307 0
0 0 0 756 1120304 -10551 0
0 0 0 765 1121069 -9786 0
0 0 0 769 1121838 -9017 0
0 0 0 780 1122618 -8237 0
0 0 0 736 1123354 -7501 0
0 0 0 750 1124104 -6751 0
0 0 0 744 1124848 -6007 0
0 0 0 784 1125632 -5223 0
0 0 0 768 1126400 -4455 0
0 0 0 788 1127188 -3667 0
0 0 0 775 1127963 -2892 0
0 0 0 809 1128772 -2083 0
55 1 S106 808 1129580 -1275 0
55 1 S106 784 1130364 -491 0
55 2 S106 778 1131142 287 0
55 2 S106 772 1131914 1059 0
55 2 S106 767 1132681 1826 0
55 2 S106 731 1133412 2557 0
55 2 S106 727 1134139 3284 0
55 2 S106 739 1134878 4023 0
55 2 S106 763 1135641 4786 0
55 2 S106 826 1136467 5612 0
55 2 S106 825 1137292 6437 0
0 0 0 792 1138084 -7575 0
0 0 0 809 1138893 -6766 0
0 0 0 770 1139663 -5996 0
0 0 0 772 1140435 -5224 0
0 0 0 815 1141250 -4409 0
0 0 0 713 1141963 -3696 0
0 0 0 725 1142688 -2971 0
0 0 0 705 1143393 -2266 0
56 1 S116 704 1144097 -1562 0
56 1 S116 710 1144807 -852 0
56 1 S116 680 1145487 -172 0
56 2 S116 707 1146194 535 0
56 2 S116 679 1146873 1214 0
56 2 S116 703 1147576 1917 0
56 2 S116 741 1148317 2658 0
56 2 S116 763 1149080 3421 0
56 2 S116 788 1149868 4209 0
56 2 S116 785 1150653 4994 0
56 2 S116 762 1151415 5756 0
56 2 S116 759 1152174 6515 0
0 0 0 751 1152925 -7771 0
0 0 0 772 1153697 -6999 0
0 0 0 793 1154490 -6206 0
0 0 0 795 1155285 -5411 0
0 0 0 810 1156095 -4601 0
0 0 0 777 1156872 -3824 0
0 0 0 737 1157609 -3087 0
0 0 0 706 1158315 -2381 0
57 1 S106 687 1159002 -1694 0
57 1 S106 691 1159693 -1003 0
57 1 S106 695 1160388 -308 0
57 2 S106 712 1161100 404 0
57 2 S106 729 1161829 1133 0
57 2 S106 777 1162606 1910 0
57 2 S106 886 1163492 2796 0
57 2 S106 874 1164366 3670 0
57 2 S106 831 1165197 4501 0
57 2 S106 786 1165983 5287 0
57 2 S106 796 1166779 6083 0
57 2 S106 821 1167600 6904 0
0 0 0 783 1168383 -8792 0
0 0 0 778 1169161 -8014 0
0 0 0 782 1169943 -7232 0
0 0 0 797 1170740 -6435 0
0 0 0 759 1171499 -5676 0
0 0 0 739 1172238 -4937 0
0 0 0 730 1172968 -4207 0
0 0 0 737 1173705 -3470 0
0 0 0 760 1174465 -2710 0
58 1 S102 752 1175217 -1958 0
58 1 S102 761 1175978 -1197 0
58 1 S102 756 1176734 -441 0
58 2 S102 770 1177504 329 0
58 2 S102 798 1178302 1127 0
58 2 S102 772 1179074 1899 0
58 2 S102 761 1179835 2660 0
58 2 S102 742 1180577 3402 0
58 2 S102 751 1181328 4153 0
58 2 S102 761 1182089 4914 0
58 2 S102 751 1182840 5665 0
58 2 S102 728 1183568 6393 0
0 0 0 733 1184301 -7264 0
0 0 0 732 1185033 -6532 0
0 0 0 742 1185775 -5790 0
0 0 0 754 1186529 -5036 0
0 0 0 752 1187281 -4284 0
0 0 0 728 1188009 -3556 0
0 0 0 739 1188748 -2817 0
0 0 0 733 1189481 -2084 0
59 1 S112 730 1190211 -1354 0
59 1 S112 729 1190940 -625 0
59 2 S112 729 1191669 104 0
59 2 S112 748 1192417 852 0
59 2 S112 741 1193158 1593 0
59 2 S112 743 1193901 2336 0
59 2 S112 741 1194642 3077 0
59 2 S112 742 1195384 3819 0
59 2 S112 785 1196169 4604 0
59 2 S112 770 1196939 5374 0
59 2 S112 760 1197699 6134 0
59 2 S112 759 1198458 6893 0
0 0 0 782 1199240 -9517 0
0 0 0 800 1200040 -8717 0
0 0 0 762 1200802 -7955 0
0 0 0 776 1201578 -7179 0
0 0 0 760 1202338 -6419 0
0 0 0 756 1203094 -5663 0
0 0 0 729 1203823 -4934 0
0 0 0 734 1204557 -4200 0
0 0 0 726 1205283 -3474 0
0 0 0 734 1206017 -2740 0
60 1 S102 760 1206777 -1980 0
60 1 S102 757 1207534 -1223 0
60 1 S102 793 1208327 -430 0
60 2 S102 764 1209091 334 0
60 2 S102 798 1209889 1132 0
60 2 S102 793 1210682 1925 0
60 2 S102 773 1211455 2698 0
60 2 S102 773 1212228 3471 0
60 2 S102 759 1212987 4230 0
60 2 S102 751 1213738 4981 0
60 2 S102 729 1214467 5710 0
60 2 S102 735 1215202 6445 0
0 0 0 721 1215923 -10788 0
0 0 0 734 1216657 -10054 0
0 0 0 760 1217417 -9294 0
0 0 0 752 1218169 -8542 0
0 0 0 703 1218872 -7839 0
0 0 0 695 1219567 -7144 0
0 0 0 712 1220279 -6432 0
0 0 0 722 1221001 -5710 0
0 0 0 773 1221774 -4937 0
0 0 0 805 1222579 -4132 0
0 0 0 833 1223412 -3299 0
0 0 0 807 1224219 -2492 0
61 1 S106 760 1224979 -1732 0
61 1 S106 728 1225707 -1004 0
61 1 S106 707 1226414 -297 0
61 2 S106 702 1227116 405 0
61 2 S106 676 1227792 1081 0
61 2 S106 662 1228454 1743 0
61 2 S106 650 1229104 2393 0
61 2 S106 646 1229750 3039 0
61 2 S106 646 1230396 3685 0
61 2 S106 646 1231042 4331 0
61 2 S106 651 1231693 4982 0
61 2 S106 665 1232358 5647 0
61 2 S106 670 1233028 6317 0
0 0 0 715 1233743 -6977 0
0 0 0 845 1234588 -6132 0
0 0 0 940 1235528 -5192 1
0 0 0 874 1236402 -4318 0
0 0 0 831 1237233 -3487 0
0 0 0 793 1238026 -2694 0
62 1 S112 765 1238791 -1929 0
62 1 S112 747 1239538 -1182 0
62 1 S112 713 1240251 -469 0
62 2 S112 697 1240948 228 0
62 2 S112 709 1241657 937 0
62 2 S112 717 1242374 1654 0
62 2 S112 841 1243215 2495 0
62 2 S112 1169 1244384 3664 1
62 2 S112 1001 1245385 4665 1
62 2 S112 880 1246265 5545 0
62 2 S112 826 1247091 6371 0
0 0 0 785 1247876 -11577 0
0 0 0 769 1248645 -10808 0
0 0 0 763 1249408 -10045 0
0 0 0 743 1250151 -9302 0
0 0 0 750 1250901 -8552 0
0 0 0 728 1251629 -7824 0
0 0 0 736 1252365 -7088 0
0 0 0 712 1253077 -6376 0
0 0 0 728 1253805 -5648 0
0 0 0 709 1254514 -4939 0
0 0 0 733 1255247 -4206 0
0 0 0 767 1256014 -3439 0
0 0 0 733 1256747 -2706 0
63 1 S102 723 1257470 -1983 0
63 1 S102 723 1258193 -1260 0
63 1 S102 737 1258930 -523 0
63 2 S102 863 1259793 340 0
63 2 S102 1001 1260794 1341 1
63 2 S102 872 1261666 2213 0
63 2 S102 824 1262490 3037 0
63 2 S102 788 1263278 3825 0
63 2 S102 767 1264045 4592 0
63 2 S102 723 1264768 5315 0
63 2 S102 724 1265492 6039 0
63 2 S102 708 1266200 6747 0
0 0 0 714 1266914 -7941 0
0 0 0 727 1267641 -7214 0
0 0 0 718 1268359 -6496 0
0 0 0 720 1269079 -5776 0
0 0 0 705 1269784 -5071 0
0 0 0 689 1270473 -4382 0
0 0 0 671 1271144 -3711 0
0 0 0 662 1271806 -3049 0
0 0 0 648 1272454 -2401 0
64 1 S112 660 1273114 -1741 0
64 1 S112 657 1273771 -1084 0
64 1 S112 676 1274447 -408 0
64 2 S112 731 1275178 323 0
64 2 S112 759 1275937 1082 0
64 2 S112 759 1276696 1841 0
64 2 S112 794 1277490 2635 0
64 2 S112 792 1278282 3427 0
64 2 S112 820 1279102 4247 0
64 2 S112 792 1279894 5039 0
64 2 S112 763 1280657 5802 0
64 2 S112 755 1281412 6557 0
0 0 0 758 1282170 -8119 0
0 0 0 757 1282927 -7362 0
0 0 0 733 1283660 -6629 0
0 0 0 757 1284417 -5872 0
0 0 0 747 1285164 -5125 0
0 0 0 763 1285927 -4362 0
0 0 0 735 1286662 -3627 0
0 0 0 731 1287393 -2896 0
0 0 0 723 1288116 -2173 0
65 1 S106 746 1288862 -1427 0
65 1 S106 783 1289645 -644 0
65 2 S106 777 1290422 133 0
65 2 S106 805 1291227 938 0
65 2 S106 802 1292029 1740 0
65 2 S106 836 1292865 2576 0
65 2 S106 822 1293687 3398 0
65 2 S106 809 1294496 4207 0
65 2 S106 797 1295293 5004 0
65 2 S106 807 1296100 5811 0
65 2 S106 770 1296870 6581 0
0 0 0 771 1297641 -6624 0
0 0 0 768 1298409 -5856 0
0 0 0 810 1299219 -5046 0
0 0 0 793 1300012 -4253 0
0 0 0 784 1300796 -3469 0
0 0 0 765 1301561 -2704 0
66 1 S116 783 1302344 -1921 0
66 1 S116 802 1303146 -1119 0
66 1 S116 778 1303924 -341 0
66 2 S116 792 1304716 451 0
66 2 S116 828 1305544 1279 0
66 2 S116 851 1306395 2130 0
66 2 S116 876 1307271 3006 0
66 2 S116 922 1308193 3928 1
66 2 S116 906 1309099 4834 1
66 2 S116 862 1309961 5696 0
66 2 S116 823 1310784 6519 0
0 0 0 802 1311586 -12424 0
0 0 0 789 1312375 -11635 0
0 0 0 803 1313178 -10832 0
0 0 0 802 1313980 -10030 0
0 0 0 848 1314828 -9182 0
0 0 0 839 1315667 -8343 0
0 0 0 837 1316504 -7506 0
0 0 0 809 1317313 -6697 0
0 0 0 823 1318136 -5874 0
0 0 0 830 1318966 -5044 0
0 0 0 874 1319840 -4170 0
0 0 0 835 1320675 -3335 0
0 0 0 817 1321492 -2518 0
67 1 S102 810 1322302 -1708 0
67 1 S102 842 1323144 -866 0
67 1 S102 819 1323963 -47 0
67 2 S102 870 1324833 823 0
67 2 S102 825 1325658 1648 0
67 2 S102 808 1326466 2456 0
67 2 S102 776 1327242 3232 0
67 2 S102 762 1328004 3994 0
67 2 S102 749 1328753 4743 0
67 2 S102 761 1329514 5504 0
67 2 S102 772 1330286 6276 0
67 2 S102 753 1331039 7029 0
0 0 0 768 1331807 -5764 0
0 0 0 754 1332561 -5010 0
0 0 0 766 1333327 -4244 0
0 0 0 730 1334057 -3514 0
0 0 0 707 1334764 -2807 0
0 0 0 691 1335455 -2116 0
68 1 S106 683 1336138 -1433 0
68 1 S106 696 1336834 -737 0
68 1 S106 694 1337528 -43 0
68 2 S106 738 1338266 695 0
68 2 S106 772 1339038 1467 0
68 2 S106 783 1339821 2250 0
68 2 S106 754 1340575 3004 0
68 2 S106 744 1341319 3748 0
68 2 S106 768 1342087 4516 0
68 2 S106 750 1342837 5266 0
68 2 S106 725 1343562 5991 0
68 2 S106 728 1344290 6719 0
0 0 0 730 1345020 -11069 0
0 0 0 763 1345783 -10306 0
0 0 0 801 1346584 -9505 0
0 0 0 870 1347454 -8635 0
0 0 0 936 1348390 -7699 1
0 0 0 818 1349208 -6881 0
0 0 0 782 1349990 -6099 0
0 0 0 782 1350772 -5317 0
0 0 0 767 1351539 -4550 0
0 0 0 784 1352323 -3766 0
0 0 0 794 1353117 -2972 0
0 0 0 825 1353942 -2147 0
69 1 S102 870 1354812 -1277 0
69 1 S102 862 1355674 -415 0
69 2 S102 841 1356515 426 0
69 2 S102 807 1357322 1233 0
69 2 S102 783 1358105 2016 0
69 2 S102 773 1358878 2789 0
69 2 S102 727 1359605 3516 0
69 2 S102 739 1360344 4255 0
69 2 S102 712 1361056 4967 0
69 2 S102 720 1361776 5687 0
69 2 S102 739 1362515 6426 0
0 0 0 755 1363270 -8253 0
0 0 0 777 1364047 -7476 0
0 0 0 793 1364840 -6683 0
0 0 0 808 1365648 -5875 0
0 0 0 791 1366439 -5084 0
0 0 0 801 1367240 -4283 0
0 0 0 778 1368018 -3505 0
0 0 0 779 1368797 -2726 0
70 1 S112 764 1369561 -1962 0
70 1 S112 770 1370331 -1192 0
70 1 S112 776 1371107 -416 0
70 2 S112 790 1371897 374 0
70 2 S112 754 1372651 1128 0
70 2 S112 738 1373389 1866 0
70 2 S112 749 1374138 2615 0
70 2 S112 758 1374896 3373 0
70 2 S112 947 1375843 4320 1
70 2 S112 962 1376805 5282 1
70 2 S112 893 1377698 6175 0
0 0 0 867 1378565 -11509 0
0 0 0 838 1379403 -10671 0
0 0 0 764 1380167 -9907 0
0 0 0 756 1380923 -9151 0
0 0 0 733 1381656 -8418 0
0 0 0 712 1382368 -7706 0
0 0 0 688 1383056 -7018 0
0 0 0 670 1383726 -6348 0
0 0 0 658 1384384 -5690 0
0 0 0 647 1385031 -5043 0
0 0 0 662 1385693 -4381 0
0 0 0 672 1386365 -3709 0
0 0 0 718 1387083 -2991 0
0 0 0 808 1387891 -2183 0
71 1 S116 814 1388705 -1369 0
71 1 S116 810 1389515 -559 0
71 2 S116 802 1390317 243 0
71 2 S116 826 1391143 1069 0
71 2 S116 812 1391955 1881 0
71 2 S116 789 1392744 2670 0
71 2 S116 777 1393521 3447 0
71 2 S116 793 1394314 4240 0
71 2 S116 805 1395119 5045 0
71 2 S116 826 1395945 5871 0
71 2 S116 822 1396767 6693 0
0 0 0 806 1397573 -9428 0
0 0 0 763 1398336 -8665 0
0 0 0 767 1399103 -7898 0
0 0 0 780 1399883 -7118 0
0 0 0 794 1400677 -6324 0
0 0 0 757 1401434 -5567 0
0 0 0 770 1402204 -4797 0
0 0 0 767 1402971 -4030 0
0 0 0 808 1403779 -3222 0
0 0 0 783 1404562 -2439 0
72 1 S102 782 1405344 -1657 0
72 1 S102 775 1406119 -882 0
72 1 S102 778 1406897 -104 0
72 2 S102 805 1407702 701 0
72 2 S102 800 1408502 1501 0
72 2 S102 752 1409254 2253 0
72 2 S102 770 1410024 3023 0
72 2 S102 754 1410778 3777 0
72 2 S102 770 1411548 4547 0
72 2 S102 789 1412337 5336 0
72 2 S102 760 1413097 6096 0
72 2 S102 764 1413861 6860 0
0 0 0 765 1414626 -5936 0
0 0 0 777 1415403 -5159 0
0 0 0 743 1416146 -4416 0
0 0 0 739 1416885 -3677 0
0 0 0 735 1417620 -2942 0
0 0 0 748 1418368 -2194 0
73 1 S116 800 1419168 -1394 0
73 1 S116 823 1419991 -571 0
73 2 S116 771 1420762 200 0
73 2 S116 766 1421528 966 0
73 2 S116 787 1422315 1753 0
73 2 S116 816 1423131 2569 0
73 2 S116 819 1423950 3388 0
73 2 S116 859 1424809 4247 0
73 2 S116 817 1425626 5064 0
73 2 S116 793 1426419 5857 0
73 2 S116 760 1427179 6617 0
0 0 0 764 1427943 -9164 0
0 0 0 757 1428700 -8407 0
0 0 0 746 1429446 -7661 0
0 0 0 780 1430226 -6881 0
0 0 0 773 1430999 -6108 0
0 0 0 785 1431784 -5323 0
0 0 0 785 1432569 -4538 0
0 0 0 793 1433362 -3745 0
0 0 0 811 1434173 -2934 0
0 0 0 814 1434987 -2120 0
74 1 S106 827 1435814 -1293 0
74 1 S106 828 1436642 -465 0
74 2 S106 835 1437477 370 0
74 2 S106 819 1438296 1189 0
74 2 S106 784 1439080 1973 0
74 2 S106 783 1439863 2756 0
74 2 S106 778 1440641 3534 0
74 2 S106 771 1441412 4305 0
74 2 S106 733 1442145 5038 0
74 2 S106 703 1442848 5741 0
74 2 S106 699 1443547 6440 0
0 0 0 728 1444275 -6742 0
0 0 0 723 1444998 -6019 0
0 0 0 784 1445782 -5235 0
0 0 0 785 1446567 -4450 0
0 0 0 755 1447322 -3695 0
0 0 0 745 1448067 -2950 0
0 0 0 732 1448799 -2218 0
75 1 S112 706 1449505 -1512 0
75 1 S112 698 1450203 -814 0
75 1 S112 685 1450888 -129 0
75 2 S112 674 1451562 545 0
75 2 S112 666 1452228 1211 0
75 2 S112 658 1452886 1869 0
75 2 S112 641 1453527 2510 0
75 2 S112 630 1454157 3140 0
75 2 S112 630 1454787 3770 0
75 2 S112 648 1455435 4418 0
75 2 S112 673 1456108 5091 0
75 2 S112 704 1456812 5795 0
75 2 S112 758 1457570 6553 0
0 0 0 754 1458324 -7166 0
0 0 0 785 1459109 -6381 0
0 0 0 815 1459924 -5566 0
0 0 0 1020 1460944 -4546 1
0 0 0 878 1461822 -3668 0
0 0 0 854 1462676 -2814 0
76 1 S116 851 1463527 -1963 0
76 1 S116 870 1464397 -1093 0
76 1 S116 885 1465282 -208 0
76 2 S116 810 1466092 602 0
76 2 S116 783 1466875 1385 0
76 2 S116 743 1467618 2128 0
76 2 S116 708 1468326 2836 0
76 2 S116 713 1469039 3549 0
76 2 S116 706 1469745 4255 0
76 2 S116 737 1470482 4992 0
76 2 S116 788 1471270 5780 0
76 2 S116 775 1472045 6555 0
0 0 0 774 1472819 -7027 0
0 0 0 754 1473573 -6273 0
0 0 0 780 1474353 -5493 0
0 0 0 745 1475098 -4748 0
0 0 0 751 1475849 -3997 0
0 0 0 717 1476566 -3280 0
0 0 0 748 1477314 -2532 0
77 1 S106 752 1478066 -1780 0
77 1 S106 722 1478788 -1058 0
77 1 S106 737 1479525 -321 0
77 2 S106 711 1480236 390 0
77 2 S106 744 1480980 1134 0
77 2 S106 772 1481752 1906 0
77 2 S106 746 1482498 2652 0
77 2 S106 757 1483255 3409 0
77 2 S106 1511 1484766 4920 1
77 2 S106 731 1485497 5651 0
77 2 S106 709 1486206 6360 0
0 0 0 712 1486918 -10104 0
0 0 0 704 1487622 -9400 0
0 0 0 749 1488371 -8651 0
0 0 0 922 1489293 -7729 1
0 0 0 918 1490211 -6811 1
0 0 0 850 1491061 -5961 0
0 0 0 828 1491889 -5133 0
0 0 0 820 1492709 -4313 0
0 0 0 762 1493471 -3551 0
0 0 0 758 1494229 -2793 0
0 0 0 728 1494957 -2065 0
78 1 S112 737 1495694 -1328 0
78 1 S112 737 1496431 -591 0
78 2 S112 719 1497150 128 0
78 2 S112 736 1497886 864 0
78 2 S112 729 1498615 1593 0
78 2 S112 741 1499356 2334 0
78 2 S112 791 1500147 3125 0
78 2 S112 783 1500930 3908 0
78 2 S112 821 1501751 4729 0
78 2 S112 787 1502538 5516 0
78 2 S112 807 1503345 6323 0
0 0 0 779 1504124 -12178 0
0 0 0 774 1504898 -11404 0
0 0 0 744 1505642 -10660 0
0 0 0 761 1506403 -9899 0
0 0 0 773 1507176 -9126 0
0 0 0 765 1507941 -8361 0
0 0 0 734 1508675 -7627 0
0 0 0 722 1509397 -6905 0
0 0 0 695 1510092 -6210 0
0 0 0 661 1510753 -5549 0
0 0 0 658 1511411 -4891 0
0 0 0 651 1512062 -4240 0
0 0 0 676 1512738 -3564 0
0 0 0 699 1513437 -2865 0
0 0 0 801 1514238 -2064 0
79 1 S102 838 1515076 -1226 0
79 1 S102 837 1515913 -389 0
79 2 S102 814 1516727 425 0
79 2 S102 796 1517523 1221 0
79 2 S102 781 1518304 2002 0
79 2 S102 777 1519081 2779 0
79 2 S102 745 1519826 3524 0
79 2 S102 746 1520572 4270 0
79 2 S102 738 1521310 5008 0
79 2 S102 752 1522062 5760 0
79 2 S102 744 1522806 6504 0
0 0 0 764 1523570 -9742 0
0 0 0 740 1524310 -9002 0
0 0 0 767 1525077 -8235 0
0 0 0 769 1525846 -7466 0
0 0 0 785 1526631 -6681 0
0 0 0 749 1527380 -5932 0
0 0 0 749 1528129 -5183 0
0 0 0 720 1528849 -4463 0
0 0 0 694 1529543 -3769 0
0 0 0 677 1530220 -3092 0
0 0 0 662 1530882 -2430 0
80 1 S116 650 1531532 -1780 0
80 1 S116 657 1532189 -1123 0
80 1 S116 651 1532840 -472 0
80 2 S116 689 1533529 217 0
80 2 S116 825 1534354 1042 0
80 2 S116 882 1535236 1924 0
80 2 S116 836 1536072 2760 0
80 2 S116 782 1536854 3542 0
80 2 S116 750 1537604 4292 0
80 2 S116 745 1538349 5037 0
80 2 S116 727 1539076 5764 0
80 2 S116 738 1539814 6502 0
