T_0189
BeatCount Mean SD BeatCountNoOutliers MeanNoOutliers SDNoOutliers
1849 792,353163872363 74,8469014010999 1831 794,244128891316 71,9783781676114

Trial TrialStatus Trialtype IBI AbsPosition RelPosition Outlier
0 0 0 823 998 -14960 0
0 0 0 768 1766 -14192 0
0 0 0 730 2496 -13462 0
0 0 0 740 3236 -12722 0
0 0 0 844 4080 -11878 0
0 0 0 893 4973 -10985 0
0 0 0 869 5842 -10116 0
0 0 0 765 6607 -9351 0
0 0 0 690 7297 -8661 0
0 0 0 652 7949 -8009 0
0 0 0 665 8614 -7344 0
0 0 0 738 9352 -6606 0
0 0 0 867 10219 -5739 0
0 0 0 880 11099 -4859 0
0 0 0 812 11911 -4047 0
0 0 0 773 12684 -3274 0
0 0 0 817 13501 -2457 0
1 1 S112 838 14339 -1619 0
1 1 S112 861 15200 -758 0
1 2 S112 860 16060 102 0
1 2 S112 842 16902 944 0
1 2 S112 837 17739 1781 0
1 2 S112 789 18528 2570 0
1 2 S112 790 19318 3360 0
1 2 S112 831 20149 4191 0
1 2 S112 863 21012 5054 0
1 2 S112 875 21887 5929 0
1 2 S112 881 22768 6810 0
0 0 0 863 23631 -11243 0
0 0 0 839 24470 -10404 0
0 0 0 799 25269 -9605 0
0 0 0 747 26016 -8858 0
0 0 0 726 26742 -8132 0
0 0 0 789 27531 -7343 0
0 0 0 816 28347 -6527 0
0 0 0 838 29185 -5689 0
0 0 0 868 30053 -4821 0
0 0 0 803 30856 -4018 0
0 0 0 739 31595 -3279 0
0 0 0 764 32359 -2515 0
2 1 S102 853 33212 -1662 0
2 1 S102 875 34087 -787 0
2 2 S102 886 34973 99 0
2 2 S102 809 35782 908 0
2 2 S102 773 36555 1681 0
2 2 S102 817 37372 2498 0
2 2 S102 865 38237 3363 0
2 2 S102 888 39125 4251 0
2 2 S102 862 39987 5113 0
2 2 S102 798 40785 5911 0
2 2 S102 805 41590 6716 0
0 0 0 845 42435 -9415 0
0 0 0 882 43317 -8533 0
0 0 0 884 44201 -7649 0
0 0 0 840 45041 -6809 0
0 0 0 745 45786 -6064 0
0 0 0 716 46502 -5348 0
0 0 0 718 47220 -4630 0
0 0 0 773 47993 -3857 0
0 0 0 769 48762 -3088 0
0 0 0 732 49494 -2356 0
3 1 S116 782 50276 -1574 0
3 1 S116 863 51139 -711 0
3 2 S116 916 52055 205 0
3 2 S116 913 52968 1118 0
3 2 S116 840 53808 1958 0
3 2 S116 798 54606 2756 0
3 2 S116 805 55411 3561 0
3 2 S116 807 56218 4368 0
3 2 S116 823 57041 5191 0
3 2 S116 829 57870 6020 0
3 2 S116 858 58728 6878 0
0 0 0 841 59569 -9838 0
0 0 0 769 60338 -9069 0
0 0 0 748 61086 -8321 0
0 0 0 771 61857 -7550 0
0 0 0 806 62663 -6744 0
0 0 0 779 63442 -5965 0
0 0 0 748 64190 -5217 0
0 0 0 804 64994 -4413 0
0 0 0 855 65849 -3558 0
0 0 0 880 66729 -2678 0
4 1 S106 892 67621 -1786 0
4 1 S106 815 68436 -971 0
4 1 S106 743 69179 -228 0
4 2 S106 748 69927 520 0
4 2 S106 798 70725 1318 0
4 2 S106 830 71555 2148 0
4 2 S106 844 72399 2992 0
4 2 S106 800 73199 3792 0
4 2 S106 822 74021 4614 0
4 2 S106 859 74880 5473 0
4 2 S106 928 75808 6401 0
0 0 0 926 76734 -7460 0
0 0 0 864 77598 -6596 0
0 0 0 773 78371 -5823 0
0 0 0 747 79118 -5076 0
0 0 0 747 79865 -4329 0
0 0 0 788 80653 -3541 0
0 0 0 827 81480 -2714 0
5 1 S116 785 82265 -1929 0
5 1 S116 754 83019 -1175 0
5 1 S116 819 83838 -356 0
5 2 S116 861 84699 505 0
5 2 S116 879 85578 1384 0
5 2 S116 825 86403 2209 0
5 2 S116 762 87165 2971 0
5 2 S116 773 87938 3744 0
5 2 S116 822 88760 4566 0
5 2 S116 879 89639 5445 0
5 2 S116 894 90533 6339 0
0 0 0 808 91341 -8537 0
0 0 0 827 92168 -7710 0
0 0 0 841 93009 -6869 0
0 0 0 820 93829 -6049 0
0 0 0 827 94656 -5222 0
0 0 0 775 95431 -4447 0
0 0 0 738 96169 -3709 0
0 0 0 774 96943 -2935 0
0 0 0 817 97760 -2118 0
6 1 S106 846 98606 -1272 0
6 1 S106 826 99432 -446 0
6 2 S106 766 100198 320 0
6 2 S106 788 100986 1108 0
6 2 S106 858 101844 1966 0
6 2 S106 906 102750 2872 0
6 2 S106 927 103677 3799 0
6 2 S106 897 104574 4696 0
6 2 S106 886 105460 5582 0
6 2 S106 819 106279 6401 0
0 0 0 744 107023 -10809 0
0 0 0 740 107763 -10069 0
0 0 0 798 108561 -9271 0
0 0 0 834 109395 -8437 0
0 0 0 837 110232 -7600 0
0 0 0 777 111009 -6823 0
0 0 0 761 111770 -6062 0
0 0 0 808 112578 -5254 0
0 0 0 839 113417 -4415 0
0 0 0 836 114253 -3579 0
0 0 0 739 114992 -2840 0
0 0 0 688 115680 -2152 0
7 1 S102 695 116375 -1457 0
7 1 S102 714 117089 -743 0
7 2 S102 787 117876 44 0
7 2 S102 834 118710 878 0
7 2 S102 803 119513 1681 0
7 2 S102 763 120276 2444 0
7 2 S102 780 121056 3224 0
7 2 S102 813 121869 4037 0
7 2 S102 859 122728 4896 0
7 2 S102 869 123597 5765 0
7 2 S102 824 124421 6589 0
0 0 0 769 125190 -8806 0
0 0 0 778 125968 -8028 0
0 0 0 832 126800 -7196 0
0 0 0 848 127648 -6348 0
0 0 0 834 128482 -5514 0
0 0 0 778 129260 -4736 0
0 0 0 788 130048 -3948 0
0 0 0 830 130878 -3118 0
0 0 0 864 131742 -2254 0
8 1 S112 865 132607 -1389 0
8 1 S112 825 133432 -564 0
8 2 S112 750 134182 186 0
8 2 S112 742 134924 928 0
8 2 S112 797 135721 1725 0
8 2 S112 880 136601 2605 0
8 2 S112 886 137487 3491 0
8 2 S112 852 138339 4343 0
8 2 S112 787 139126 5130 0
8 2 S112 802 139928 5932 0
8 2 S112 845 140773 6777 0
0 0 0 871 141644 -5963 0
0 0 0 840 142484 -5123 0
0 0 0 765 143249 -4358 0
0 0 0 760 144009 -3598 0
0 0 0 776 144785 -2822 0
0 0 0 801 145586 -2021 0
9 1 S116 763 146349 -1258 0
9 1 S116 724 147073 -534 0
9 2 S116 744 147817 210 0
9 2 S116 796 148613 1006 0
9 2 S116 867 149480 1873 0
9 2 S116 880 150360 2753 0
9 2 S116 825 151185 3578 0
9 2 S116 836 152021 4414 0
9 2 S116 861 152882 5275 0
9 2 S116 858 153740 6133 0
9 2 S116 833 154573 6966 0
0 0 0 801 155374 -10121 0
0 0 0 816 156190 -9305 0
0 0 0 789 156979 -8516 0
0 0 0 732 157711 -7784 0
0 0 0 701 158412 -7083 0
0 0 0 731 159143 -6352 0
0 0 0 817 159960 -5535 0
0 0 0 860 160820 -4675 0
0 0 0 853 161673 -3822 0
0 0 0 793 162466 -3029 0
0 0 0 808 163274 -2221 0
10 1 S102 860 164134 -1361 0
10 1 S102 884 165018 -477 0
10 2 S102 878 165896 401 0
10 2 S102 810 166706 1211 0
10 2 S102 735 167441 1946 0
10 2 S102 725 168166 2671 0
10 2 S102 760 168926 3431 0
10 2 S102 787 169713 4218 0
10 2 S102 806 170519 5024 0
10 2 S102 784 171303 5808 0
10 2 S102 767 172070 6575 0
0 0 0 814 172884 -11096 0
0 0 0 852 173736 -10244 0
0 0 0 893 174629 -9351 0
0 0 0 834 175463 -8517 0
0 0 0 736 176199 -7781 0
0 0 0 719 176918 -7062 0
0 0 0 728 177646 -6334 0
0 0 0 769 178415 -5565 0
0 0 0 811 179226 -4754 0
0 0 0 762 179988 -3992 0
0 0 0 761 180749 -3231 0
0 0 0 826 181575 -2405 0
11 1 S112 848 182423 -1557 0
11 1 S112 862 183285 -695 0
11 2 S112 815 184100 120 0
11 2 S112 805 184905 925 0
11 2 S112 810 185715 1735 0
11 2 S112 832 186547 2567 0
11 2 S112 837 187384 3404 0
11 2 S112 789 188173 4193 0
11 2 S112 807 188980 5000 0
11 2 S112 868 189848 5868 0
11 2 S112 929 190777 6797 0
0 0 0 937 191714 -6606 0
0 0 0 881 192595 -5725 0
0 0 0 773 193368 -4952 0
0 0 0 736 194104 -4216 0
0 0 0 727 194831 -3489 0
0 0 0 756 195587 -2733 0
12 1 S116 759 196346 -1974 0
12 1 S116 726 197072 -1248 0
12 1 S116 695 197767 -553 0
12 2 S116 713 198480 160 0
12 2 S116 809 199289 969 0
12 2 S116 888 200177 1857 0
12 2 S116 931 201108 2788 0
12 2 S116 857 201965 3645 0
12 2 S116 787 202752 4432 0
12 2 S116 792 203544 5224 0
12 2 S116 835 204379 6059 0
12 2 S116 877 205256 6936 0
0 0 0 863 206119 -11233 0
0 0 0 795 206914 -10438 0
0 0 0 783 207697 -9655 0
0 0 0 799 208496 -8856 0
0 0 0 788 209284 -8068 0
0 0 0 762 210046 -7306 0
0 0 0 713 210759 -6593 0
0 0 0 710 211469 -5883 0
0 0 0 770 212239 -5113 0
0 0 0 774 213013 -4339 0
0 0 0 746 213759 -3593 0
0 0 0 711 214470 -2882 0
0 0 0 799 215269 -2083 0
13 1 S112 808 216077 -1275 0
13 1 S112 742 216819 -533 0
13 2 S112 719 217538 186 0
13 2 S112 755 218293 941 0
13 2 S112 810 219103 1751 0
13 2 S112 830 219933 2581 0
13 2 S112 840 220773 3421 0
13 2 S112 753 221526 4174 0
13 2 S112 710 222236 4884 0
13 2 S112 733 222969 5617 0
13 2 S112 793 223762 6410 0
0 0 0 852 224614 -10212 0
0 0 0 887 225501 -9325 0
0 0 0 806 226307 -8519 0
0 0 0 733 227040 -7786 0
0 0 0 735 227775 -7051 0
0 0 0 773 228548 -6278 0
0 0 0 818 229366 -5460 0
0 0 0 814 230180 -4646 0
0 0 0 753 230933 -3893 0
0 0 0 772 231705 -3121 0
0 0 0 802 232507 -2319 0
14 1 S106 823 233330 -1496 0
14 1 S106 802 234132 -694 0
14 2 S106 734 234866 40 0
14 2 S106 712 235578 752 0
14 2 S106 737 236315 1489 0
14 2 S106 776 237091 2265 0
14 2 S106 809 237900 3074 0
14 2 S106 814 238714 3888 0
14 2 S106 854 239568 4742 0
14 2 S106 864 240432 5606 0
14 2 S106 835 241267 6441 0
0 0 0 749 242016 -11013 0
0 0 0 721 242737 -10292 0
0 0 0 747 243484 -9545 0
0 0 0 790 244274 -8755 0
0 0 0 795 245069 -7960 0
0 0 0 766 245835 -7194 0
0 0 0 718 246553 -6476 0
0 0 0 725 247278 -5751 0
0 0 0 783 248061 -4968 0
0 0 0 828 248889 -4140 0
0 0 0 828 249717 -3312 0
0 0 0 773 250490 -2539 0
15 1 S116 739 251229 -1800 0
15 1 S116 767 251996 -1033 0
15 1 S116 785 252781 -248 0
15 2 S116 798 253579 550 0
15 2 S116 803 254382 1353 0
15 2 S116 738 255120 2091 0
15 2 S116 703 255823 2794 0
15 2 S116 741 256564 3535 0
15 2 S116 784 257348 4319 0
15 2 S116 824 258172 5143 0
15 2 S116 801 258973 5944 0
15 2 S116 757 259730 6701 0
0 0 0 791 260521 -8954 0
0 0 0 821 261342 -8133 0
0 0 0 841 262183 -7292 0
0 0 0 786 262969 -6506 0
0 0 0 717 263686 -5789 0
0 0 0 711 264397 -5078 0
0 0 0 730 265127 -4348 0
0 0 0 792 265919 -3556 0
0 0 0 806 266725 -2750 0
16 1 S116 769 267494 -1981 0
16 1 S116 746 268240 -1235 0
16 1 S116 800 269040 -435 0
16 2 S116 832 269872 397 0
16 2 S116 876 270748 1273 0
16 2 S116 842 271590 2115 0
16 2 S116 790 272380 2905 0
16 2 S116 787 273167 3692 0
16 2 S116 790 273957 4482 0
16 2 S116 798 274755 5280 0
16 2 S116 794 275549 6074 0
16 2 S116 774 276323 6848 0
0 0 0 797 277120 -8784 0
0 0 0 795 277915 -7989 0
0 0 0 732 278647 -7257 0
0 0 0 705 279352 -6552 0
0 0 0 725 280077 -5827 0
0 0 0 793 280870 -5034 0
0 0 0 845 281715 -4189 0
0 0 0 817 282532 -3372 0
0 0 0 758 283290 -2614 0
17 1 S106 765 284055 -1849 0
17 1 S106 805 284860 -1044 0
17 1 S106 828 285688 -216 0
17 2 S106 812 286500 596 0
17 2 S106 739 287239 1335 0
17 2 S106 736 287975 2071 0
17 2 S106 763 288738 2834 0
17 2 S106 825 289563 3659 0
17 2 S106 849 290412 4508 0
17 2 S106 786 291198 5294 0
17 2 S106 742 291940 6036 0
17 2 S106 760 292700 6796 0
0 0 0 777 293477 -11426 0
0 0 0 815 294292 -10611 0
0 0 0 806 295098 -9805 0
0 0 0 760 295858 -9045 0
0 0 0 751 296609 -8294 0
0 0 0 769 297378 -7525 0
0 0 0 796 298174 -6729 0
0 0 0 739 298913 -5990 0
0 0 0 720 299633 -5270 0
0 0 0 758 300391 -4512 0
0 0 0 818 301209 -3694 0
0 0 0 833 302042 -2861 0
0 0 0 841 302883 -2020 0
18 1 S102 799 303682 -1221 0
18 1 S102 755 304437 -466 0
18 2 S102 765 305202 299 0
18 2 S102 813 306015 1112 0
18 2 S102 833 306848 1945 0
18 2 S102 846 307694 2791 0
18 2 S102 809 308503 3600 0
18 2 S102 776 309279 4376 0
18 2 S102 789 310068 5165 0
18 2 S102 840 310908 6005 0
18 2 S102 879 311787 6884 0
0 0 0 890 312677 -7014 0
0 0 0 895 313572 -6119 0
0 0 0 831 314403 -5288 0
0 0 0 747 315150 -4541 0
0 0 0 706 315856 -3835 0
0 0 0 701 316557 -3134 0
0 0 0 709 317266 -2425 0
19 1 S106 768 318034 -1657 0
19 1 S106 772 318806 -885 0
19 1 S106 741 319547 -144 0
19 2 S106 817 320364 673 0
19 2 S106 888 321252 1561 0
19 2 S106 915 322167 2476 0
19 2 S106 872 323039 3348 0
19 2 S106 792 323831 4140 0
19 2 S106 793 324624 4933 0
19 2 S106 798 325422 5731 0
19 2 S106 794 326216 6525 0
0 0 0 777 326993 -12890 0
0 0 0 710 327703 -12180 0
0 0 0 694 328397 -11486 0
0 0 0 709 329106 -10777 0
0 0 0 769 329875 -10008 0
0 0 0 843 330718 -9165 0
0 0 0 800 331518 -8365 0
0 0 0 765 332283 -7600 0
0 0 0 785 333068 -6815 0
0 0 0 833 333901 -5982 0
0 0 0 857 334758 -5125 0
0 0 0 833 335591 -4292 0
0 0 0 776 336367 -3516 0
0 0 0 745 337112 -2771 0
0 0 0 763 337875 -2008 0
20 1 S112 807 338682 -1201 0
20 1 S112 824 339506 -377 0
20 2 S112 823 340329 446 0
20 2 S112 772 341101 1218 0
20 2 S112 767 341868 1985 0
20 2 S112 789 342657 2774 0
20 2 S112 838 343495 3612 0
20 2 S112 901 344396 4513 0
20 2 S112 906 345302 5419 0
20 2 S112 844 346146 6263 0
0 0 0 863 347009 -9851 0
0 0 0 903 347912 -8948 0
0 0 0 879 348791 -8069 0
0 0 0 826 349617 -7243 0
0 0 0 756 350373 -6487 0
0 0 0 725 351098 -5762 0
0 0 0 721 351819 -5041 0
0 0 0 759 352578 -4282 0
0 0 0 769 353347 -3513 0
0 0 0 736 354083 -2777 0
0 0 0 744 354827 -2033 0
21 1 S106 831 355658 -1202 0
21 1 S106 891 356549 -311 0
21 2 S106 909 357458 598 0
21 2 S106 851 358309 1449 0
21 2 S106 790 359099 2239 0
21 2 S106 834 359933 3073 0
21 2 S106 884 360817 3957 0
21 2 S106 898 361715 4855 0
21 2 S106 870 362585 5725 0
21 2 S106 847 363432 6572 0
0 0 0 776 364208 -11004 0
0 0 0 747 364955 -10257 0
0 0 0 780 365735 -9477 0
0 0 0 819 366554 -8658 0
0 0 0 820 367374 -7838 0
0 0 0 830 368204 -7008 0
0 0 0 768 368972 -6240 0
0 0 0 756 369728 -5484 0
0 0 0 832 370560 -4652 0
0 0 0 852 371412 -3800 0
0 0 0 839 372251 -2961 0
0 0 0 791 373042 -2170 0
22 1 S116 704 373746 -1466 0
22 1 S116 664 374410 -802 0
22 1 S116 653 375063 -149 0
22 2 S116 639 375702 490 0
22 2 S116 685 376387 1175 0
22 2 S116 818 377205 1993 0
22 2 S116 866 378071 2859 0
22 2 S116 886 378957 3745 0
22 2 S116 866 379823 4611 0
22 2 S116 815 380638 5426 0
22 2 S116 821 381459 6247 0
0 0 0 847 382306 -8572 0
0 0 0 847 383153 -7725 0
0 0 0 786 383939 -6939 0
0 0 0 733 384672 -6206 0
0 0 0 708 385380 -5498 0
0 0 0 681 386061 -4817 0
0 0 0 642 386703 -4175 0
0 0 0 627 387330 -3548 0
0 0 0 628 387958 -2920 0
0 0 0 653 388611 -2267 0
23 1 S112 732 389343 -1535 0
23 1 S112 812 390155 -723 0
23 2 S112 831 390986 108 0
23 2 S112 834 391820 942 0
23 2 S112 772 392592 1714 0
23 2 S112 773 393365 2487 0
23 2 S112 787 394152 3274 0
23 2 S112 849 395001 4123 0
23 2 S112 870 395871 4993 0
23 2 S112 865 396736 5858 0
23 2 S112 866 397602 6724 0
0 0 0 861 398463 -8380 0
0 0 0 866 399329 -7514 0
0 0 0 798 400127 -6716 0
0 0 0 710 400837 -6006 0
0 0 0 696 401533 -5310 0
0 0 0 750 402283 -4560 0
0 0 0 876 403159 -3684 0
0 0 0 928 404087 -2756 0
24 1 S106 902 404989 -1854 0
24 1 S106 882 405871 -972 0
24 1 S106 884 406755 -88 0
24 2 S106 811 407566 723 0
24 2 S106 741 408307 1464 0
24 2 S106 743 409050 2207 0
24 2 S106 783 409833 2990 0
24 2 S106 806 410639 3796 0
24 2 S106 837 411476 4633 0
24 2 S106 793 412269 5426 0
24 2 S106 745 413014 6171 0
24 2 S106 780 413794 6951 0
0 0 0 840 414634 -8920 0
0 0 0 890 415524 -8030 0
0 0 0 854 416378 -7176 0
0 0 0 783 417161 -6393 0
0 0 0 789 417950 -5604 0
0 0 0 808 418758 -4796 0
0 0 0 831 419589 -3965 0
0 0 0 790 420379 -3175 0
0 0 0 728 421107 -2447 0
25 1 S102 732 421839 -1715 0
25 1 S102 761 422600 -954 0
25 1 S102 810 423410 -144 0
25 2 S102 836 424246 692 0
25 2 S102 786 425032 1478 0
25 2 S102 725 425757 2203 0
25 2 S102 729 426486 2932 0
25 2 S102 773 427259 3705 0
25 2 S102 830 428089 4535 0
25 2 S102 848 428937 5383 0
25 2 S102 832 429769 6215 0
0 0 0 839 430608 -6143 0
0 0 0 789 431397 -5354 0
0 0 0 711 432108 -4643 0
0 0 0 668 432776 -3975 0
0 0 0 631 433407 -3344 0
0 0 0 622 434029 -2722 0
0 0 0 616 434645 -2106 0
26 1 S116 616 435261 -1490 0
26 1 S116 724 435985 -766 0
26 2 S116 815 436800 49 0
26 2 S116 800 437600 849 0
26 2 S116 834 438434 1683 0
26 2 S116 800 439234 2483 0
26 2 S116 730 439964 3213 0
26 2 S116 757 440721 3970 0
26 2 S116 762 441483 4732 0
26 2 S116 784 442267 5516 0
26 2 S116 779 443046 6295 0
0 0 0 761 443807 -6853 0
0 0 0 700 444507 -6153 0
0 0 0 699 445206 -5454 0
0 0 0 709 445915 -4745 0
0 0 0 696 446611 -4049 0
0 0 0 677 447288 -3372 0
0 0 0 672 447960 -2700 0
0 0 0 670 448630 -2030 0
27 1 S106 695 449325 -1335 0
27 1 S106 761 450086 -574 0
27 2 S106 833 450919 259 0
27 2 S106 870 451789 1129 0
27 2 S106 875 452664 2004 0
27 2 S106 835 453499 2839 0
27 2 S106 758 454257 3597 0
27 2 S106 755 455012 4352 0
27 2 S106 784 455796 5136 0
27 2 S106 811 456607 5947 0
27 2 S106 816 457423 6763 0
0 0 0 774 458197 -7069 0
0 0 0 746 458943 -6323 0
0 0 0 781 459724 -5542 0
0 0 0 807 460531 -4735 0
0 0 0 775 461306 -3960 0
0 0 0 740 462046 -3220 0
0 0 0 698 462744 -2522 0
28 1 S102 701 463445 -1821 0
28 1 S102 759 464204 -1062 0
28 1 S102 832 465036 -230 0
28 2 S102 849 465885 619 0
28 2 S102 829 466714 1448 0
28 2 S102 759 467473 2207 0
28 2 S102 761 468234 2968 0
28 2 S102 829 469063 3797 0
28 2 S102 864 469927 4661 0
28 2 S102 842 470769 5503 0
28 2 S102 792 471561 6295 0
28 2 S102 720 472281 7015 0
0 0 0 719 473000 -9540 0
0 0 0 762 473762 -8778 0
0 0 0 790 474552 -7988 0
0 0 0 814 475366 -7174 0
0 0 0 795 476161 -6379 0
0 0 0 746 476907 -5633 0
0 0 0 774 477681 -4859 0
0 0 0 799 478480 -4060 0
0 0 0 833 479313 -3227 0
0 0 0 804 480117 -2423 0
29 1 S112 735 480852 -1688 0
29 1 S112 729 481581 -959 0
29 1 S112 770 482351 -189 0
29 2 S112 795 483146 606 0
29 2 S112 806 483952 1412 0
29 2 S112 794 484746 2206 0
29 2 S112 764 485510 2970 0
29 2 S112 807 486317 3777 0
29 2 S112 847 487164 4624 0
29 2 S112 854 488018 5478 0
29 2 S112 856 488874 6334 0
0 0 0 819 489693 -6790 0
0 0 0 794 490487 -5996 0
0 0 0 792 491279 -5204 0
0 0 0 768 492047 -4436 0
0 0 0 701 492748 -3735 0
0 0 0 645 493393 -3090 0
0 0 0 620 494013 -2470 0
30 1 S112 615 494628 -1855 0
30 1 S112 618 495246 -1237 0
30 1 S112 740 495986 -497 0
30 2 S112 898 496884 401 0
30 2 S112 916 497800 1317 0
30 2 S112 919 498719 2236 0
30 2 S112 951 499670 3187 0
30 2 S112 910 500580 4097 0
30 2 S112 823 501403 4920 0
30 2 S112 808 502211 5728 0
30 2 S112 781 502992 6509 0
0 0 0 791 503783 -9212 0
0 0 0 808 504591 -8404 0
0 0 0 828 505419 -7576 0
0 0 0 809 506228 -6767 0
0 0 0 769 506997 -5998 0
0 0 0 763 507760 -5235 0
0 0 0 723 508483 -4512 0
0 0 0 688 509171 -3824 0
0 0 0 710 509881 -3114 0
0 0 0 814 510695 -2300 0
31 1 S106 891 511586 -1409 0
31 1 S106 913 512499 -496 0
31 2 S106 906 513405 410 0
31 2 S106 881 514286 1291 0
31 2 S106 796 515082 2087 0
31 2 S106 728 515810 2815 0
31 2 S106 740 516550 3555 0
31 2 S106 786 517336 4341 0
31 2 S106 832 518168 5173 0
31 2 S106 848 519016 6021 0
31 2 S106 826 519842 6847 0
0 0 0 778 520620 -9136 0
0 0 0 764 521384 -8372 0
0 0 0 773 522157 -7599 0
0 0 0 791 522948 -6808 0
0 0 0 762 523710 -6046 0
0 0 0 713 524423 -5333 0
0 0 0 679 525102 -4654 0
0 0 0 653 525755 -4001 0
0 0 0 681 526436 -3320 0
0 0 0 826 527262 -2494 0
32 1 S102 888 528150 -1606 0
32 1 S102 880 529030 -726 0
32 2 S102 887 529917 161 0
32 2 S102 850 530767 1011 0
32 2 S102 772 531539 1783 0
32 2 S102 703 532242 2486 0
32 2 S102 687 532929 3173 0
32 2 S102 699 533628 3872 0
32 2 S102 746 534374 4618 0
32 2 S102 770 535144 5388 0
32 2 S102 778 535922 6166 0
32 2 S102 752 536674 6918 0
0 0 0 729 537403 -9594 0
0 0 0 780 538183 -8814 0
0 0 0 778 538961 -8036 0
0 0 0 811 539772 -7225 0
0 0 0 798 540570 -6427 0
0 0 0 748 541318 -5679 0
0 0 0 769 542087 -4910 0
0 0 0 805 542892 -4105 0
0 0 0 850 543742 -3255 0
0 0 0 884 544626 -2371 0
33 1 S112 839 545465 -1532 0
33 1 S112 753 546218 -779 0
33 1 S112 746 546964 -33 0
33 2 S112 760 547724 727 0
33 2 S112 803 548527 1530 0
33 2 S112 844 549371 2374 0
33 2 S112 863 550234 3237 0
33 2 S112 843 551077 4080 0
33 2 S112 867 551944 4947 0
33 2 S112 897 552841 5844 0
33 2 S112 940 553781 6784 0
0 0 0 934 554715 -10999 0
0 0 0 873 555588 -10126 0
0 0 0 797 556385 -9329 0
0 0 0 767 557152 -8562 0
0 0 0 731 557883 -7831 0
0 0 0 727 558610 -7104 0
0 0 0 714 559324 -6390 0
0 0 0 696 560020 -5694 0
0 0 0 708 560728 -4986 0
0 0 0 798 561526 -4188 0
0 0 0 904 562430 -3284 0
0 0 0 901 563331 -2383 0
34 1 S106 844 564175 -1539 0
34 1 S106 831 565006 -708 0
34 2 S106 923 565929 215 0
34 2 S106 945 566874 1160 0
34 2 S106 905 567779 2065 0
34 2 S106 881 568660 2946 0
34 2 S106 812 569472 3758 0
34 2 S106 733 570205 4491 0
34 2 S106 742 570947 5233 0
34 2 S106 779 571726 6012 0
34 2 S106 834 572560 6846 0
0 0 0 843 573403 -8359 0
0 0 0 797 574200 -7562 0
0 0 0 740 574940 -6822 0
0 0 0 729 575669 -6093 0
0 0 0 767 576436 -5326 0
0 0 0 805 577241 -4521 0
0 0 0 788 578029 -3733 0
0 0 0 738 578767 -2995 0
0 0 0 763 579530 -2232 0
35 1 S102 804 580334 -1428 0
35 1 S102 841 581175 -587 0
35 2 S102 841 582016 254 0
35 2 S102 784 582800 1038 0
35 2 S102 746 583546 1784 0
35 2 S102 765 584311 2549 0
35 2 S102 787 585098 3336 0
35 2 S102 800 585898 4136 0
35 2 S102 783 586681 4919 0
35 2 S102 733 587414 5652 0
35 2 S102 756 588170 6408 0
0 0 0 795 588965 -6259 0
0 0 0 808 589773 -5451 0
0 0 0 795 590568 -4656 0
0 0 0 754 591322 -3902 0
0 0 0 685 592007 -3217 0
0 0 0 665 592672 -2552 0
36 1 S106 644 593316 -1908 0
36 1 S106 660 593976 -1248 0
36 1 S106 791 594767 -457 0
36 2 S106 832 595599 375 0
36 2 S106 811 596410 1186 0
36 2 S106 756 597166 1942 0
36 2 S106 795 597961 2737 0
36 2 S106 831 598792 3568 0
36 2 S106 905 599697 4473 0
36 2 S106 887 600584 5360 0
36 2 S106 852 601436 6212 0
36 2 S106 768 602204 6980 0
0 0 0 746 602950 -7576 0
0 0 0 742 603692 -6834 0
0 0 0 749 604441 -6085 0
0 0 0 788 605229 -5297 0
0 0 0 757 605986 -4540 0
0 0 0 732 606718 -3808 0
0 0 0 776 607494 -3032 0
0 0 0 849 608343 -2183 0
37 1 S116 864 609207 -1319 0
37 1 S116 868 610075 -451 0
37 2 S116 818 610893 367 0
37 2 S116 766 611659 1133 0
37 2 S116 793 612452 1926 0
37 2 S116 831 613283 2757 0
37 2 S116 879 614162 3636 0
37 2 S116 859 615021 4495 0
37 2 S116 775 615796 5270 0
37 2 S116 770 616566 6040 0
37 2 S116 788 617354 6828 0
0 0 0 816 618170 -9746 0
0 0 0 833 619003 -8913 0
0 0 0 768 619771 -8145 0
0 0 0 712 620483 -7433 0
0 0 0 720 621203 -6713 0
0 0 0 767 621970 -5946 0
0 0 0 821 622791 -5125 0
0 0 0 853 623644 -4272 0
0 0 0 798 624442 -3474 0
0 0 0 781 625223 -2693 0
38 1 S102 800 626023 -1893 0
38 1 S102 883 626906 -1010 0
38 1 S102 869 627775 -141 0
38 2 S102 844 628619 703 0
38 2 S102 776 629395 1479 0
38 2 S102 739 630134 2218 0
38 2 S102 747 630881 2965 0
38 2 S102 801 631682 3766 0
38 2 S102 823 632505 4589 0
38 2 S102 792 633297 5381 0
38 2 S102 735 634032 6116 0
38 2 S102 728 634760 6844 0
0 0 0 771 635531 -7638 0
0 0 0 824 636355 -6814 0
0 0 0 789 637144 -6025 0
0 0 0 706 637850 -5319 0
0 0 0 676 638526 -4643 0
0 0 0 678 639204 -3965 0
0 0 0 718 639922 -3247 0
0 0 0 823 640745 -2424 0
39 1 S116 840 641585 -1584 0
39 1 S116 797 642382 -787 0
39 1 S116 766 643148 -21 0
39 2 S116 794 643942 773 0
39 2 S116 796 644738 1569 0
39 2 S116 835 645573 2404 0
39 2 S116 833 646406 3237 0
39 2 S116 794 647200 4031 0
39 2 S116 783 647983 4814 0
39 2 S116 788 648771 5602 0
39 2 S116 833 649604 6435 0
0 0 0 859 650463 -6200 0
0 0 0 852 651315 -5348 0
0 0 0 753 652068 -4595 0
0 0 0 719 652787 -3876 0
0 0 0 716 653503 -3160 0
0 0 0 760 654263 -2400 0
40 1 S112 780 655043 -1620 0
40 1 S112 734 655777 -886 0
40 1 S112 723 656500 -163 0
40 2 S112 748 657248 585 0
40 2 S112 840 658088 1425 0
40 2 S112 874 658962 2299 0
40 2 S112 835 659797 3134 0
40 2 S112 818 660615 3952 0
40 2 S112 844 661459 4796 0
40 2 S112 880 662339 5676 0
40 2 S112 891 663230 6567 0
0 0 0 855 664085 -186778 0
0 0 0 776 664861 -186002 0
0 0 0 763 665624 -185239 0
0 0 0 755 666379 -184484 0
0 0 0 780 667159 -183704 0
0 0 0 773 667932 -182931 0
0 0 0 769 668701 -182162 0
0 0 0 723 669424 -181439 0
0 0 0 660 670084 -180779 0
0 0 0 642 670726 -180137 0
0 0 0 637 671363 -179500 0
0 0 0 648 672011 -178852 0
0 0 0 808 672819 -178044 0
0 0 0 775 673594 -177269 0
0 0 0 720 674314 -176549 0
0 0 0 701 675015 -175848 0
0 0 0 710 675725 -175138 0
0 0 0 704 676429 -174434 0
0 0 0 680 677109 -173754 0
0 0 0 649 677758 -173105 0
0 0 0 633 678391 -172472 0
0 0 0 629 679020 -171843 0
0 0 0 625 679645 -171218 0
0 0 0 634 680279 -170584 0
0 0 0 624 680903 -169960 0
0 0 0 614 681517 -169346 0
0 0 0 605 682122 -168741 0
0 0 0 590 682712 -168151 1
0 0 0 578 683290 -167573 1
0 0 0 594 683884 -166979 1
0 0 0 613 684497 -166366 0
0 0 0 675 685172 -165691 0
0 0 0 730 685902 -164961 0
0 0 0 770 686672 -164191 0
0 0 0 776 687448 -163415 0
0 0 0 728 688176 -162687 0
0 0 0 673 688849 -162014 0
0 0 0 658 689507 -161356 0
0 0 0 666 690173 -160690 0
0 0 0 743 690916 -159947 0
0 0 0 792 691708 -159155 0
0 0 0 817 692525 -158338 0
0 0 0 791 693316 -157547 0
0 0 0 740 694056 -156807 0
0 0 0 765 694821 -156042 0
0 0 0 801 695622 -155241 0
0 0 0 840 696462 -154401 0
0 0 0 804 697266 -153597 0
0 0 0 819 698085 -152778 0
0 0 0 780 698865 -151998 0
0 0 0 694 699559 -151304 0
0 0 0 663 700222 -150641 0
0 0 0 671 700893 -149970 0
0 0 0 798 701691 -149172 0
0 0 0 868 702559 -148304 0
0 0 0 855 703414 -147449 0
0 0 0 786 704200 -146663 0
0 0 0 744 704944 -145919 0
0 0 0 764 705708 -145155 0
0 0 0 819 706527 -144336 0
0 0 0 841 707368 -143495 0
0 0 0 811 708179 -142684 0
0 0 0 729 708908 -141955 0
0 0 0 664 709572 -141291 0
0 0 0 648 710220 -140643 0
0 0 0 634 710854 -140009 0
0 0 0 651 711505 -139358 0
0 0 0 687 712192 -138671 0
0 0 0 687 712879 -137984 0
0 0 0 647 713526 -137337 0
0 0 0 636 714162 -136701 0
0 0 0 628 714790 -136073 0
0 0 0 619 715409 -135454 0
0 0 0 618 716027 -134836 0
0 0 0 632 716659 -134204 0
0 0 0 650 717309 -133554 0
0 0 0 642 717951 -132912 0
0 0 0 625 718576 -132287 0
0 0 0 619 719195 -131668 0
0 0 0 600 719795 -131068 0
0 0 0 583 720378 -130485 1
0 0 0 571 720949 -129914 1
0 0 0 565 721514 -129349 1
0 0 0 558 722072 -128791 1
0 0 0 552 722624 -128239 1
0 0 0 567 723191 -127672 1
0 0 0 620 723811 -127052 0
0 0 0 667 724478 -126385 0
0 0 0 634 725112 -125751 0
0 0 0 582 725694 -125169 1
0 0 0 581 726275 -124588 1
0 0 0 641 726916 -123947 0
0 0 0 798 727714 -123149 0
0 0 0 840 728554 -122309 0
0 0 0 885 729439 -121424 0
0 0 0 908 730347 -120516 0
0 0 0 896 731243 -119620 0
0 0 0 890 732133 -118730 0
0 0 0 867 733000 -117863 0
0 0 0 841 733841 -117022 0
0 0 0 823 734664 -116199 0
0 0 0 853 735517 -115346 0
0 0 0 869 736386 -114477 0
0 0 0 902 737288 -113575 0
0 0 0 875 738163 -112700 0
0 0 0 815 738978 -111885 0
0 0 0 816 739794 -111069 0
0 0 0 842 740636 -110227 0
0 0 0 886 741522 -109341 0
0 0 0 899 742421 -108442 0
0 0 0 871 743292 -107571 0
0 0 0 811 744103 -106760 0
0 0 0 846 744949 -105914 0
0 0 0 919 745868 -104995 0
0 0 0 926 746794 -104069 0
0 0 0 866 747660 -103203 0
0 0 0 775 748435 -102428 0
0 0 0 759 749194 -101669 0
0 0 0 831 750025 -100838 0
0 0 0 870 750895 -99968 0
0 0 0 882 751777 -99086 0
0 0 0 840 752617 -98246 0
0 0 0 777 753394 -97469 0
0 0 0 780 754174 -96689 0
0 0 0 837 755011 -95852 0
0 0 0 885 755896 -94967 0
0 0 0 857 756753 -94110 0
0 0 0 741 757494 -93369 0
0 0 0 687 758181 -92682 0
0 0 0 685 758866 -91997 0
0 0 0 739 759605 -91258 0
0 0 0 822 760427 -90436 0
0 0 0 874 761301 -89562 0
0 0 0 912 762213 -88650 0
0 0 0 932 763145 -87718 0
0 0 0 929 764074 -86789 0
0 0 0 866 764940 -85923 0
0 0 0 766 765706 -85157 0
0 0 0 739 766445 -84418 0
0 0 0 755 767200 -83663 0
0 0 0 809 768009 -82854 0
0 0 0 839 768848 -82015 0
0 0 0 831 769679 -81184 0
0 0 0 794 770473 -80390 0
0 0 0 756 771229 -79634 0
0 0 0 763 771992 -78871 0
0 0 0 807 772799 -78064 0
0 0 0 837 773636 -77227 0
0 0 0 863 774499 -76364 0
0 0 0 865 775364 -75499 0
0 0 0 835 776199 -74664 0
0 0 0 760 776959 -73904 0
0 0 0 727 777686 -73177 0
0 0 0 748 778434 -72429 0
0 0 0 793 779227 -71636 0
0 0 0 832 780059 -70804 0
0 0 0 882 780941 -69922 0
0 0 0 886 781827 -69036 0
0 0 0 888 782715 -68148 0
0 0 0 898 783613 -67250 0
0 0 0 836 784449 -66414 0
0 0 0 751 785200 -65663 0
0 0 0 745 785945 -64918 0
0 0 0 790 786735 -64128 0
0 0 0 838 787573 -63290 0
0 0 0 868 788441 -62422 0
0 0 0 838 789279 -61584 0
0 0 0 770 790049 -60814 0
0 0 0 761 790810 -60053 0
0 0 0 792 791602 -59261 0
0 0 0 810 792412 -58451 0
0 0 0 841 793253 -57610 0
0 0 0 822 794075 -56788 0
0 0 0 727 794802 -56061 0
0 0 0 698 795500 -55363 0
0 0 0 697 796197 -54666 0
0 0 0 748 796945 -53918 0
0 0 0 785 797730 -53133 0
0 0 0 740 798470 -52393 0
0 0 0 723 799193 -51670 0
0 0 0 757 799950 -50913 0
0 0 0 839 800789 -50074 0
0 0 0 889 801678 -49185 0
0 0 0 919 802597 -48266 0
0 0 0 862 803459 -47404 0
0 0 0 784 804243 -46620 0
0 0 0 777 805020 -45843 0
0 0 0 803 805823 -45040 0
0 0 0 816 806639 -44224 0
0 0 0 819 807458 -43405 0
0 0 0 814 808272 -42591 0
0 0 0 752 809024 -41839 0
0 0 0 723 809747 -41116 0
0 0 0 738 810485 -40378 0
0 0 0 787 811272 -39591 0
0 0 0 840 812112 -38751 0
0 0 0 867 812979 -37884 0
0 0 0 937 813916 -36947 0
0 0 0 946 814862 -36001 0
0 0 0 897 815759 -35104 0
0 0 0 818 816577 -34286 0
0 0 0 741 817318 -33545 0
0 0 0 726 818044 -32819 0
0 0 0 752 818796 -32067 0
0 0 0 821 819617 -31246 0
0 0 0 861 820478 -30385 0
0 0 0 838 821316 -29547 0
0 0 0 767 822083 -28780 0
0 0 0 751 822834 -28029 0
0 0 0 830 823664 -27199 0
0 0 0 908 824572 -26291 0
0 0 0 939 825511 -25352 0
0 0 0 944 826455 -24408 0
0 0 0 883 827338 -23525 0
0 0 0 860 828198 -22665 0
0 0 0 849 829047 -21816 0
0 0 0 856 829903 -20960 0
0 0 0 827 830730 -20133 0
0 0 0 784 831514 -19349 0
0 0 0 722 832236 -18627 0
0 0 0 742 832978 -17885 0
0 0 0 786 833764 -17099 0
0 0 0 845 834609 -16254 0
0 0 0 880 835489 -15374 0
0 0 0 831 836320 -14543 0
0 0 0 750 837070 -13793 0
0 0 0 726 837796 -13067 0
0 0 0 783 838579 -12284 0
0 0 0 866 839445 -11418 0
0 0 0 895 840340 -10523 0
0 0 0 910 841250 -9613 0
0 0 0 877 842127 -8736 0
0 0 0 905 843032 -7831 0
0 0 0 902 843934 -6929 0
0 0 0 841 844775 -6088 0
0 0 0 744 845519 -5344 0
0 0 0 685 846204 -4659 0
0 0 0 645 846849 -4014 0
0 0 0 647 847496 -3367 0
0 0 0 739 848235 -2628 0
41 1 S102 866 849101 -1762 0
41 1 S102 778 849879 -984 0
41 1 S102 721 850600 -263 0
41 2 S102 836 851436 573 0
41 2 S102 910 852346 1483 0
41 2 S102 852 853198 2335 0
41 2 S102 792 853990 3127 0
41 2 S102 813 854803 3940 0
41 2 S102 842 855645 4782 0
41 2 S102 850 856495 5632 0
41 2 S102 826 857321 6458 0
0 0 0 768 858089 -6136 0
0 0 0 726 858815 -5410 0
0 0 0 726 859541 -4684 0
0 0 0 714 860255 -3970 0
0 0 0 752 861007 -3218 0
0 0 0 771 861778 -2447 0
42 1 S112 754 862532 -1693 0
42 1 S112 756 863288 -937 0
42 1 S112 763 864051 -174 0
42 2 S112 725 864776 551 0
42 2 S112 720 865496 1271 0
42 2 S112 778 866274 2049 0
42 2 S112 903 867177 2952 0
42 2 S112 927 868104 3879 0
42 2 S112 900 869004 4779 0
42 2 S112 826 869830 5605 0
42 2 S112 834 870664 6439 0
0 0 0 872 871536 -8405 0
0 0 0 905 872441 -7500 0
0 0 0 845 873286 -6655 0
0 0 0 768 874054 -5887 0
0 0 0 707 874761 -5180 0
0 0 0 699 875460 -4481 0
0 0 0 728 876188 -3753 0
0 0 0 798 876986 -2955 0
0 0 0 884 877870 -2071 0
43 1 S116 849 878719 -1222 0
43 1 S116 792 879511 -430 0
43 2 S116 821 880332 391 0
43 2 S116 888 881220 1279 0
43 2 S116 937 882157 2216 0
43 2 S116 947 883104 3163 0
43 2 S116 905 884009 4068 0
43 2 S116 856 884865 4924 0
43 2 S116 891 885756 5815 0
43 2 S116 876 886632 6691 0
0 0 0 896 887528 -6157 0
0 0 0 871 888399 -5286 0
0 0 0 759 889158 -4527 0
0 0 0 719 889877 -3808 0
0 0 0 687 890564 -3121 0
0 0 0 685 891249 -2436 0
44 1 S102 660 891909 -1776 0
44 1 S102 701 892610 -1075 0
44 1 S102 795 893405 -280 0
44 2 S102 801 894206 521 0
44 2 S102 754 894960 1275 0
44 2 S102 800 895760 2075 0
44 2 S102 849 896609 2924 0
44 2 S102 890 897499 3814 0
44 2 S102 850 898349 4664 0
44 2 S102 770 899119 5434 0
44 2 S102 761 899880 6195 0
44 2 S102 809 900689 7004 0
0 0 0 830 901519 -7766 0
0 0 0 864 902383 -6902 0
0 0 0 770 903153 -6132 0
0 0 0 733 903886 -5399 0
0 0 0 759 904645 -4640 0
0 0 0 836 905481 -3804 0
0 0 0 902 906383 -2902 0
45 1 S116 928 907311 -1974 0
45 1 S116 942 908253 -1032 0
45 1 S116 930 909183 -102 0
45 2 S116 866 910049 764 0
45 2 S116 773 910822 1537 0
45 2 S116 780 911602 2317 0
45 2 S116 822 912424 3139 0
45 2 S116 917 913341 4056 0
45 2 S116 941 914282 4997 0
45 2 S116 890 915172 5887 0
45 2 S116 844 916016 6731 0
0 0 0 883 916899 -10357 0
0 0 0 894 917793 -9463 0
0 0 0 879 918672 -8584 0
0 0 0 825 919497 -7759 0
0 0 0 799 920296 -6960 0
0 0 0 781 921077 -6179 0
0 0 0 720 921797 -5459 0
0 0 0 699 922496 -4760 0
0 0 0 718 923214 -4042 0
0 0 0 791 924005 -3251 0
0 0 0 875 924880 -2376 0
46 1 S102 884 925764 -1492 0
46 1 S102 807 926571 -685 0
46 2 S102 801 927372 116 0
46 2 S102 843 928215 959 0
46 2 S102 872 929087 1831 0
46 2 S102 878 929965 2709 0
46 2 S102 814 930779 3523 0
46 2 S102 741 931520 4264 0
46 2 S102 725 932245 4989 0
46 2 S102 759 933004 5748 0
46 2 S102 806 933810 6554 0
0 0 0 862 934672 -8085 0
0 0 0 861 935533 -7224 0
0 0 0 770 936303 -6454 0
0 0 0 761 937064 -5693 0
0 0 0 787 937851 -4906 0
0 0 0 825 938676 -4081 0
0 0 0 827 939503 -3254 0
0 0 0 779 940282 -2475 0
47 1 S112 787 941069 -1688 0
47 1 S112 795 941864 -893 0
47 1 S112 820 942684 -73 0
47 2 S112 862 943546 789 0
47 2 S112 811 944357 1600 0
47 2 S112 796 945153 2396 0
47 2 S112 839 945992 3235 0
47 2 S112 856 946848 4091 0
47 2 S112 869 947717 4960 0
47 2 S112 842 948559 5802 0
47 2 S112 770 949329 6572 0
0 0 0 704 950033 -10678 0
0 0 0 676 950709 -10002 0
0 0 0 673 951382 -9329 0
0 0 0 750 952132 -8579 0
0 0 0 705 952837 -7874 0
0 0 0 663 953500 -7211 0
0 0 0 642 954142 -6569 0
0 0 0 634 954776 -5935 0
0 0 0 628 955404 -5307 0
0 0 0 663 956067 -4644 0
0 0 0 785 956852 -3859 0
0 0 0 842 957694 -3017 0
0 0 0 838 958532 -2179 0
48 1 S116 811 959343 -1368 0
48 1 S116 744 960087 -624 0
48 2 S116 724 960811 100 0
48 2 S116 753 961564 853 0
48 2 S116 770 962334 1623 0
48 2 S116 773 963107 2396 0
48 2 S116 788 963895 3184 0
48 2 S116 792 964687 3976 0
48 2 S116 789 965476 4765 0
48 2 S116 783 966259 5548 0
48 2 S116 807 967066 6355 0
0 0 0 777 967843 -6446 0
0 0 0 739 968582 -5707 0
0 0 0 765 969347 -4942 0
0 0 0 766 970113 -4176 0
0 0 0 776 970889 -3400 0
0 0 0 738 971627 -2662 0
49 1 S112 731 972358 -1931 0
49 1 S112 769 973127 -1162 0
49 1 S112 849 973976 -313 0
49 2 S112 890 974866 577 0
49 2 S112 924 975790 1501 0
49 2 S112 908 976698 2409 0
49 2 S112 894 977592 3303 0
49 2 S112 876 978468 4179 0
49 2 S112 811 979279 4990 0
49 2 S112 768 980047 5758 0
49 2 S112 792 980839 6550 0
0 0 0 869 981708 -10569 0
0 0 0 907 982615 -9662 0
0 0 0 881 983496 -8781 0
0 0 0 778 984274 -8003 0
0 0 0 725 984999 -7278 0
0 0 0 739 985738 -6539 0
0 0 0 813 986551 -5726 0
0 0 0 876 987427 -4850 0
0 0 0 868 988295 -3982 0
0 0 0 819 989114 -3163 0
0 0 0 835 989949 -2328 0
50 1 S106 872 990821 -1456 0
50 1 S106 916 991737 -540 0
50 2 S106 908 992645 368 0
50 2 S106 853 993498 1221 0
50 2 S106 823 994321 2044 0
50 2 S106 749 995070 2793 0
50 2 S106 713 995783 3506 0
50 2 S106 733 996516 4239 0
50 2 S106 828 997344 5067 0
50 2 S106 885 998229 5952 0
50 2 S106 912 999141 6864 0
0 0 0 847 999988 -6264 0
0 0 0 832 1000820 -5432 0
0 0 0 850 1001670 -4582 0
0 0 0 878 1002548 -3704 0
0 0 0 850 1003398 -2854 0
0 0 0 791 1004189 -2063 0
51 1 S112 765 1004954 -1298 0
51 1 S112 726 1005680 -572 0
51 2 S112 687 1006367 115 0
51 2 S112 677 1007044 792 0
51 2 S112 703 1007747 1495 0
51 2 S112 838 1008585 2333 0
51 2 S112 921 1009506 3254 0
51 2 S112 952 1010458 4206 0
51 2 S112 972 1011430 5178 0
51 2 S112 954 1012384 6132 0
0 0 0 909 1013293 -7581 0
0 0 0 824 1014117 -6757 0
0 0 0 820 1014937 -5937 0
0 0 0 843 1015780 -5094 0
0 0 0 799 1016579 -4295 0
0 0 0 754 1017333 -3541 0
0 0 0 708 1018041 -2833 0
0 0 0 725 1018766 -2108 0
52 1 S116 770 1019536 -1338 0
52 1 S116 874 1020410 -464 0
52 2 S116 949 1021359 485 0
52 2 S116 940 1022299 1425 0
52 2 S116 923 1023222 2348 0
52 2 S116 934 1024156 3282 0
52 2 S116 909 1025065 4191 0
52 2 S116 806 1025871 4997 0
52 2 S116 767 1026638 5764 0
52 2 S116 751 1027389 6515 0
0 0 0 803 1028192 -8216 0
0 0 0 846 1029038 -7370 0
0 0 0 773 1029811 -6597 0
0 0 0 736 1030547 -5861 0
0 0 0 793 1031340 -5068 0
0 0 0 812 1032152 -4256 0
0 0 0 816 1032968 -3440 0
0 0 0 772 1033740 -2668 0
53 1 S106 748 1034488 -1920 0
53 1 S106 770 1035258 -1150 0
53 1 S106 803 1036061 -347 0
53 2 S106 837 1036898 490 0
53 2 S106 815 1037713 1305 0
53 2 S106 747 1038460 2052 0
53 2 S106 755 1039215 2807 0
53 2 S106 801 1040016 3608 0
53 2 S106 811 1040827 4419 0
53 2 S106 794 1041621 5213 0
53 2 S106 733 1042354 5946 0
53 2 S106 725 1043079 6671 0
0 0 0 767 1043846 -6836 0
0 0 0 836 1044682 -6000 0
0 0 0 868 1045550 -5132 0
0 0 0 821 1046371 -4311 0
0 0 0 754 1047125 -3557 0
0 0 0 755 1047880 -2802 0
0 0 0 792 1048672 -2010 0
54 1 S102 834 1049506 -1176 0
54 1 S102 845 1050351 -331 0
54 2 S102 778 1051129 447 0
54 2 S102 777 1051906 1224 0
54 2 S102 790 1052696 2014 0
54 2 S102 816 1053512 2830 0
54 2 S102 834 1054346 3664 0
54 2 S102 784 1055130 4448 0
54 2 S102 767 1055897 5215 0
54 2 S102 794 1056691 6009 0
54 2 S102 858 1057549 6867 0
0 0 0 865 1058414 -9676 0
0 0 0 807 1059221 -8869 0
0 0 0 732 1059953 -8137 0
0 0 0 717 1060670 -7420 0
0 0 0 737 1061407 -6683 0
0 0 0 798 1062205 -5885 0
0 0 0 831 1063036 -5054 0
0 0 0 836 1063872 -4218 0
0 0 0 834 1064706 -3384 0
0 0 0 775 1065481 -2609 0
55 1 S106 781 1066262 -1828 0
55 1 S106 864 1067126 -964 0
55 1 S106 920 1068046 -44 0
55 2 S106 927 1068973 883 0
55 2 S106 904 1069877 1787 0
55 2 S106 901 1070778 2688 0
55 2 S106 906 1071684 3594 0
55 2 S106 876 1072560 4470 0
55 2 S106 818 1073378 5288 0
55 2 S106 756 1074134 6044 0
55 2 S106 712 1074846 6756 0
0 0 0 723 1075569 -6397 0
0 0 0 787 1076356 -5610 0
0 0 0 843 1077199 -4767 0
0 0 0 824 1078023 -3943 0
0 0 0 786 1078809 -3157 0
0 0 0 795 1079604 -2362 0
56 1 S116 840 1080444 -1522 0
56 1 S116 903 1081347 -619 0
56 2 S116 906 1082253 287 0
56 2 S116 854 1083107 1141 0
56 2 S116 786 1083893 1927 0
56 2 S116 769 1084662 2696 0
56 2 S116 808 1085470 3504 0
56 2 S116 855 1086325 4359 0
56 2 S116 868 1087193 5227 0
56 2 S116 809 1088002 6036 0
56 2 S116 801 1088803 6837 0
0 0 0 828 1089631 -5863 0
0 0 0 849 1090480 -5014 0
0 0 0 817 1091297 -4197 0
0 0 0 760 1092057 -3437 0
0 0 0 758 1092815 -2679 0
57 1 S106 816 1093631 -1863 0
57 1 S106 865 1094496 -998 0
57 1 S106 877 1095373 -121 0
57 2 S106 824 1096197 703 0
57 2 S106 800 1096997 1503 0
57 2 S106 809 1097806 2312 0
57 2 S106 814 1098620 3126 0
57 2 S106 844 1099464 3970 0
57 2 S106 807 1100271 4777 0
57 2 S106 752 1101023 5529 0
57 2 S106 759 1101782 6288 0
0 0 0 794 1102576 -8186 0
0 0 0 859 1103435 -7327 0
0 0 0 851 1104286 -6476 0
0 0 0 792 1105078 -5684 0
0 0 0 743 1105821 -4941 0
0 0 0 763 1106584 -4178 0
0 0 0 795 1107379 -3383 0
0 0 0 855 1108234 -2528 0
58 1 S102 868 1109102 -1660 0
58 1 S102 832 1109934 -828 0
58 1 S102 772 1110706 -56 0
58 2 S102 765 1111471 709 0
58 2 S102 806 1112277 1515 0
58 2 S102 829 1113106 2344 0
58 2 S102 869 1113975 3213 0
58 2 S102 872 1114847 4085 0
58 2 S102 869 1115716 4954 0
58 2 S102 807 1116523 5761 0
58 2 S102 763 1117286 6524 0
0 0 0 777 1118063 -6178 0
0 0 0 828 1118891 -5350 0
0 0 0 818 1119709 -4532 0
0 0 0 764 1120473 -3768 0
0 0 0 699 1121172 -3069 0
0 0 0 678 1121850 -2391 0
59 1 S112 657 1122507 -1734 0
59 1 S112 717 1123224 -1017 0
59 1 S112 842 1124066 -175 0
59 2 S112 888 1124954 713 0
59 2 S112 824 1125778 1537 0
59 2 S112 766 1126544 2303 0
59 2 S112 785 1127329 3088 0
59 2 S112 838 1128167 3926 0
59 2 S112 847 1129014 4773 0
59 2 S112 817 1129831 5590 0
59 2 S112 807 1130638 6397 0
0 0 0 801 1131439 -8153 0
0 0 0 772 1132211 -7381 0
0 0 0 707 1132918 -6674 0
0 0 0 694 1133612 -5980 0
0 0 0 730 1134342 -5250 0
0 0 0 868 1135210 -4382 0
0 0 0 887 1136097 -3495 0
0 0 0 847 1136944 -2648 0
60 1 S102 765 1137709 -1883 0
60 1 S102 791 1138500 -1092 0
60 1 S102 863 1139363 -229 0
60 2 S102 928 1140291 699 0
60 2 S102 931 1141222 1630 0
60 2 S102 862 1142084 2492 0
60 2 S102 844 1142928 3336 0
60 2 S102 832 1143760 4168 0
60 2 S102 792 1144552 4960 0
60 2 S102 735 1145287 5695 0
60 2 S102 783 1146070 6478 0
0 0 0 887 1146957 -10225 0
0 0 0 935 1147892 -9290 0
0 0 0 890 1148782 -8400 0
0 0 0 820 1149602 -7580 0
0 0 0 745 1150347 -6835 0
0 0 0 733 1151080 -6102 0
0 0 0 748 1151828 -5354 0
0 0 0 814 1152642 -4540 0
0 0 0 884 1153526 -3656 0
0 0 0 872 1154398 -2784 0
61 1 S106 818 1155216 -1966 0
61 1 S106 834 1156050 -1132 0
61 1 S106 866 1156916 -266 0
61 2 S106 851 1157767 585 0
61 2 S106 812 1158579 1397 0
61 2 S106 763 1159342 2160 0
61 2 S106 718 1160060 2878 0
61 2 S106 751 1160811 3629 0
61 2 S106 806 1161617 4435 0
61 2 S106 887 1162504 5322 0
61 2 S106 919 1163423 6241 0
0 0 0 838 1164261 -6366 0
0 0 0 767 1165028 -5599 0
0 0 0 764 1165792 -4835 0
0 0 0 750 1166542 -4085 0
0 0 0 766 1167308 -3319 0
0 0 0 741 1168049 -2578 0
62 1 S112 714 1168763 -1864 0
62 1 S112 736 1169499 -1128 0
62 1 S112 771 1170270 -357 0
62 2 S112 800 1171070 443 0
62 2 S112 839 1171909 1282 0
62 2 S112 813 1172722 2095 0
62 2 S112 784 1173506 2879 0
62 2 S112 818 1174324 3697 0
62 2 S112 849 1175173 4546 0
62 2 S112 887 1176060 5433 0
62 2 S112 876 1176936 6309 0
0 0 0 848 1177784 -10267 0
0 0 0 839 1178623 -9428 0
0 0 0 797 1179420 -8631 0
0 0 0 741 1180161 -7890 0
0 0 0 693 1180854 -7197 0
0 0 0 703 1181557 -6494 0
0 0 0 838 1182395 -5656 0
0 0 0 955 1183350 -4701 0
0 0 0 964 1184314 -3737 0
0 0 0 909 1185223 -2828 0
63 1 S102 863 1186086 -1965 0
63 1 S102 905 1186991 -1060 0
63 1 S102 951 1187942 -109 0
63 2 S102 967 1188909 858 0
63 2 S102 925 1189834 1783 0
63 2 S102 793 1190627 2576 0
63 2 S102 766 1191393 3342 0
63 2 S102 796 1192189 4138 0
63 2 S102 810 1192999 4948 0
63 2 S102 833 1193832 5781 0
63 2 S102 800 1194632 6581 0
0 0 0 767 1195399 -7871 0
0 0 0 802 1196201 -7069 0
0 0 0 794 1196995 -6275 0
0 0 0 844 1197839 -5431 0
0 0 0 862 1198701 -4569 0
0 0 0 771 1199472 -3798 0
0 0 0 756 1200228 -3042 0
0 0 0 799 1201027 -2243 0
64 1 S112 870 1201897 -1373 0
64 1 S112 899 1202796 -474 0
64 2 S112 902 1203698 428 0
64 2 S112 875 1204573 1303 0
64 2 S112 790 1205363 2093 0
64 2 S112 775 1206138 2868 0
64 2 S112 784 1206922 3652 0
64 2 S112 808 1207730 4460 0
64 2 S112 845 1208575 5305 0
64 2 S112 846 1209421 6151 0
64 2 S112 780 1210201 6931 0
0 0 0 784 1210985 -5730 0
0 0 0 811 1211796 -4919 0
0 0 0 756 1212552 -4163 0
0 0 0 720 1213272 -3443 0
0 0 0 679 1213951 -2764 0
0 0 0 675 1214626 -2089 0
65 1 S106 710 1215336 -1379 0
65 1 S106 818 1216154 -561 0
65 2 S106 856 1217010 295 0
65 2 S106 868 1217878 1163 0
65 2 S106 806 1218684 1969 0
65 2 S106 734 1219418 2703 0
65 2 S106 715 1220133 3418 0
65 2 S106 736 1220869 4154 0
65 2 S106 772 1221641 4926 0
65 2 S106 821 1222462 5747 0
65 2 S106 821 1223283 6568 0
0 0 0 777 1224060 -6017 0
0 0 0 744 1224804 -5273 0
0 0 0 732 1225536 -4541 0
0 0 0 747 1226283 -3794 0
0 0 0 778 1227061 -3016 0
0 0 0 792 1227853 -2224 0
66 1 S116 804 1228657 -1420 0
66 1 S116 836 1229493 -584 0
66 2 S116 827 1230320 243 0
66 2 S116 749 1231069 992 0
66 2 S116 709 1231778 1701 0
66 2 S116 723 1232501 2424 0
66 2 S116 776 1233277 3200 0
66 2 S116 887 1234164 4087 0
66 2 S116 910 1235074 4997 0
66 2 S116 840 1235914 5837 0
66 2 S116 776 1236690 6613 0
0 0 0 793 1237483 -10632 0
0 0 0 870 1238353 -9762 0
0 0 0 891 1239244 -8871 0
0 0 0 829 1240073 -8042 0
0 0 0 759 1240832 -7283 0
0 0 0 743 1241575 -6540 0
0 0 0 780 1242355 -5760 0
0 0 0 843 1243198 -4917 0
0 0 0 860 1244058 -4057 0
0 0 0 792 1244850 -3265 0
0 0 0 767 1245617 -2498 0
67 1 S102 785 1246402 -1713 0
67 1 S102 816 1247218 -897 0
67 1 S102 839 1248057 -58 0
67 2 S102 833 1248890 775 0
67 2 S102 766 1249656 1541 0
67 2 S102 696 1250352 2237 0
67 2 S102 674 1251026 2911 0
67 2 S102 654 1251680 3565 0
67 2 S102 656 1252336 4221 0
67 2 S102 736 1253072 4957 0
67 2 S102 834 1253906 5791 0
67 2 S102 911 1254817 6702 0
0 0 0 969 1255786 -5641 0
0 0 0 936 1256722 -4705 0
0 0 0 853 1257575 -3852 0
0 0 0 763 1258338 -3089 0
0 0 0 719 1259057 -2370 0
68 1 S106 726 1259783 -1644 0
68 1 S106 756 1260539 -888 0
68 1 S106 792 1261331 -96 0
68 2 S106 840 1262171 744 0
68 2 S106 840 1263011 1584 0
68 2 S106 789 1263800 2373 0
68 2 S106 819 1264619 3192 0
68 2 S106 843 1265462 4035 0
68 2 S106 851 1266313 4886 0
68 2 S106 853 1267166 5739 0
68 2 S106 849 1268015 6588 0
0 0 0 808 1268823 -9995 0
0 0 0 768 1269591 -9227 0
0 0 0 759 1270350 -8468 0
0 0 0 783 1271133 -7685 0
0 0 0 835 1271968 -6850 0
0 0 0 770 1272738 -6080 0
0 0 0 727 1273465 -5353 0
0 0 0 715 1274180 -4638 0
0 0 0 779 1274959 -3859 0
0 0 0 748 1275707 -3111 0
0 0 0 698 1276405 -2413 0
69 1 S102 665 1277070 -1748 0
69 1 S102 663 1277733 -1085 0
69 1 S102 749 1278482 -336 0
69 2 S102 855 1279337 519 0
69 2 S102 880 1280217 1399 0
69 2 S102 879 1281096 2278 0
69 2 S102 895 1281991 3173 0
69 2 S102 895 1282886 4068 0
69 2 S102 864 1283750 4932 0
69 2 S102 813 1284563 5745 0
69 2 S102 730 1285293 6475 0
0 0 0 683 1285976 -7895 0
0 0 0 687 1286663 -7208 0
0 0 0 704 1287367 -6504 0
0 0 0 698 1288065 -5806 0
0 0 0 688 1288753 -5118 0
0 0 0 689 1289442 -4429 0
0 0 0 671 1290113 -3758 0
0 0 0 643 1290756 -3115 0
0 0 0 625 1291381 -2490 0
70 1 S112 621 1292002 -1869 0
70 1 S112 650 1292652 -1219 0
70 1 S112 769 1293421 -450 0
70 2 S112 826 1294247 376 0
70 2 S112 796 1295043 1172 0
70 2 S112 785 1295828 1957 0
70 2 S112 775 1296603 2732 0
70 2 S112 787 1297390 3519 0
70 2 S112 788 1298178 4307 0
70 2 S112 730 1298908 5037 0
70 2 S112 689 1299597 5726 0
70 2 S112 685 1300282 6411 0
0 0 0 695 1300977 -10169 0
0 0 0 677 1301654 -9492 0
0 0 0 704 1302358 -8788 0
0 0 0 688 1303046 -8100 0
0 0 0 658 1303704 -7442 0
0 0 0 677 1304381 -6765 0
0 0 0 770 1305151 -5995 0
0 0 0 873 1306024 -5122 0
0 0 0 931 1306955 -4191 0
0 0 0 920 1307875 -3271 0
0 0 0 867 1308742 -2404 0
71 1 S116 879 1309621 -1525 0
71 1 S116 921 1310542 -604 0
71 2 S116 909 1311451 305 0
71 2 S116 906 1312357 1211 0
71 2 S116 856 1313213 2067 0
71 2 S116 790 1314003 2857 0
71 2 S116 729 1314732 3586 0
71 2 S116 730 1315462 4316 0
71 2 S116 782 1316244 5098 0
71 2 S116 871 1317115 5969 0
71 2 S116 907 1318022 6876 0
0 0 0 816 1318838 -7726 0
0 0 0 838 1319676 -6888 0
0 0 0 790 1320466 -6098 0
0 0 0 757 1321223 -5341 0
0 0 0 723 1321946 -4618 0
0 0 0 685 1322631 -3933 0
0 0 0 665 1323296 -3268 0
0 0 0 679 1323975 -2589 0
72 1 S102 698 1324673 -1891 0
72 1 S102 678 1325351 -1213 0
72 1 S102 696 1326047 -517 0
72 2 S102 807 1326854 290 0
72 2 S102 892 1327746 1182 0
72 2 S102 914 1328660 2096 0
72 2 S102 900 1329560 2996 0
72 2 S102 820 1330380 3816 0
72 2 S102 793 1331173 4609 0
72 2 S102 809 1331982 5418 0
72 2 S102 826 1332808 6244 0
0 0 0 819 1333627 -6166 0
0 0 0 773 1334400 -5393 0
0 0 0 716 1335116 -4677 0
0 0 0 681 1335797 -3996 0
0 0 0 681 1336478 -3315 0
0 0 0 787 1337265 -2528 0
73 1 S116 900 1338165 -1628 0
73 1 S116 906 1339071 -722 0
73 2 S116 872 1339943 150 0
73 2 S116 792 1340735 942 0
73 2 S116 779 1341514 1721 0
73 2 S116 729 1342243 2450 0
73 2 S116 691 1342934 3141 0
73 2 S116 660 1343594 3801 0
73 2 S116 632 1344226 4433 0
73 2 S116 626 1344852 5059 0
73 2 S116 627 1345479 5686 0
73 2 S116 643 1346122 6329 0
0 0 0 753 1346875 -8469 0
0 0 0 833 1347708 -7636 0
0 0 0 767 1348475 -6869 0
0 0 0 691 1349166 -6178 0
0 0 0 675 1349841 -5503 0
0 0 0 667 1350508 -4836 0
0 0 0 674 1351182 -4162 0
0 0 0 672 1351854 -3490 0
0 0 0 660 1352514 -2830 0
0 0 0 646 1353160 -2184 0
74 1 S106 637 1353797 -1547 0
74 1 S106 643 1354440 -904 0
74 1 S106 692 1355132 -212 0
74 2 S106 753 1355885 541 0
74 2 S106 801 1356686 1342 0
74 2 S106 809 1357495 2151 0
74 2 S106 757 1358252 2908 0
74 2 S106 758 1359010 3666 0
74 2 S106 822 1359832 4488 0
74 2 S106 831 1360663 5319 0
74 2 S106 842 1361505 6161 0
74 2 S106 804 1362309 6965 0
0 0 0 741 1363050 -6087 0
0 0 0 721 1363771 -5366 0
0 0 0 719 1364490 -4647 0
0 0 0 689 1365179 -3958 0
0 0 0 656 1365835 -3302 0
0 0 0 630 1366465 -2672 0
0 0 0 614 1367079 -2058 0
75 1 S112 626 1367705 -1432 0
75 1 S112 691 1368396 -741 0
75 2 S112 851 1369247 110 0
75 2 S112 903 1370150 1013 0
75 2 S112 908 1371058 1921 0
75 2 S112 858 1371916 2779 0
75 2 S112 794 1372710 3573 0
75 2 S112 864 1373574 4437 0
75 2 S112 924 1374498 5361 0
75 2 S112 952 1375450 6313 0
0 0 0 939 1376389 -6210 0
0 0 0 885 1377274 -5325 0
0 0 0 756 1378030 -4569 0
0 0 0 712 1378742 -3857 0
0 0 0 705 1379447 -3152 0
0 0 0 755 1380202 -2397 0
76 1 S116 814 1381016 -1583 0
76 1 S116 778 1381794 -805 0
76 1 S116 756 1382550 -49 0
76 2 S116 802 1383352 753 0
76 2 S116 863 1384215 1616 0
76 2 S116 891 1385106 2507 0
76 2 S116 866 1385972 3373 0
76 2 S116 799 1386771 4172 0
76 2 S116 825 1387596 4997 0
76 2 S116 867 1388463 5864 0
76 2 S116 868 1389331 6732 0
0 0 0 832 1390163 -5814 0
0 0 0 756 1390919 -5058 0
0 0 0 717 1391636 -4341 0
0 0 0 669 1392305 -3672 0
0 0 0 650 1392955 -3022 0
0 0 0 636 1393591 -2386 0
77 1 S106 665 1394256 -1721 0
77 1 S106 679 1394935 -1042 0
77 1 S106 668 1395603 -374 0
77 2 S106 677 1396280 303 0
77 2 S106 742 1397022 1045 0
77 2 S106 811 1397833 1856 0
77 2 S106 880 1398713 2736 0
77 2 S106 850 1399563 3586 0
77 2 S106 792 1400355 4378 0
77 2 S106 740 1401095 5118 0
77 2 S106 745 1401840 5863 0
77 2 S106 773 1402613 6636 0
0 0 0 814 1403427 -7720 0
0 0 0 806 1404233 -6914 0
0 0 0 715 1404948 -6199 0
0 0 0 652 1405600 -5547 0
0 0 0 636 1406236 -4911 0
0 0 0 624 1406860 -4287 0
0 0 0 610 1407470 -3677 0
0 0 0 644 1408114 -3033 0
0 0 0 850 1408964 -2183 0
78 1 S112 917 1409881 -1266 0
78 1 S112 913 1410794 -353 0
78 2 S112 929 1411723 576 0
78 2 S112 915 1412638 1491 0
78 2 S112 871 1413509 2362 0
78 2 S112 841 1414350 3203 0
78 2 S112 796 1415146 3999 0
78 2 S112 715 1415861 4714 0
78 2 S112 701 1416562 5415 0
78 2 S112 674 1417236 6089 0
78 2 S112 710 1417946 6799 0
0 0 0 811 1418757 -9797 0
0 0 0 820 1419577 -8977 0
0 0 0 741 1420318 -8236 0
0 0 0 670 1420988 -7566 0
0 0 0 631 1421619 -6935 0
0 0 0 607 1422226 -6328 0
0 0 0 592 1422818 -5736 1
0 0 0 582 1423400 -5154 1
0 0 0 575 1423975 -4579 1
0 0 0 566 1424541 -4013 1
0 0 0 560 1425101 -3453 1
0 0 0 566 1425667 -2887 1
0 0 0 615 1426282 -2272 0
79 1 S102 681 1426963 -1591 0
79 1 S102 840 1427803 -751 0
79 2 S102 912 1428715 161 0
79 2 S102 889 1429604 1050 0
79 2 S102 883 1430487 1933 0
79 2 S102 864 1431351 2797 0
79 2 S102 847 1432198 3644 0
79 2 S102 864 1433062 4508 0
79 2 S102 860 1433922 5368 0
79 2 S102 879 1434801 6247 0
0 0 0 902 1435703 -8385 0
0 0 0 911 1436614 -7474 0
0 0 0 862 1437476 -6612 0
0 0 0 766 1438242 -5846 0
0 0 0 703 1438945 -5143 0
0 0 0 670 1439615 -4473 0
0 0 0 679 1440294 -3794 0
0 0 0 729 1441023 -3065 0
0 0 0 1038 1442061 -2027 1
80 1 S116 985 1443046 -1042 0
80 1 S116 962 1444008 -80 0
80 2 S116 850 1444858 770 0
80 2 S116 868 1445726 1638 0
80 2 S116 896 1446622 2534 0
80 2 S116 913 1447535 3447 0
80 2 S116 891 1448426 4338 0
80 2 S116 863 1449289 5201 0
80 2 S116 772 1450061 5973 0
80 2 S116 753 1450814 6726 0
