T_0148
BeatCount Mean SD BeatCountNoOutliers MeanNoOutliers SDNoOutliers
2138 712,845182413471 45,2361440631788 2090 712,844497607656 40,5308507494147

Trial TrialStatus Trialtype IBI AbsPosition RelPosition Outlier
0 0 0 659 1248 -13329 0
0 0 0 667 1915 -12662 0
0 0 0 684 2599 -11978 0
0 0 0 753 3352 -11225 0
0 0 0 802 4154 -10423 0
0 0 0 774 4928 -9649 0
0 0 0 796 5724 -8853 0
0 0 0 796 6520 -8057 0
0 0 0 797 7317 -7260 0
0 0 0 772 8089 -6488 0
0 0 0 727 8816 -5761 0
0 0 0 720 9536 -5041 0
0 0 0 726 10262 -4315 0
0 0 0 729 10991 -3586 0
0 0 0 745 11736 -2841 0
0 0 0 711 12447 -2130 0
1 1 S112 715 13162 -1415 0
1 1 S112 732 13894 -683 0
1 2 S112 730 14624 47 0
1 2 S112 751 15375 798 0
1 2 S112 740 16115 1538 0
1 2 S112 727 16842 2265 0
1 2 S112 747 17589 3012 0
1 2 S112 764 18353 3776 0
1 2 S112 775 19128 4551 0
1 2 S112 768 19896 5319 0
1 2 S112 745 20641 6064 0
1 2 S112 753 21394 6817 0
0 0 0 743 22137 -11754 0
0 0 0 755 22892 -10999 0
0 0 0 746 23638 -10253 0
0 0 0 723 24361 -9530 0
0 0 0 736 25097 -8794 0
0 0 0 739 25836 -8055 0
0 0 0 747 26583 -7308 0
0 0 0 739 27322 -6569 0
0 0 0 727 28049 -5842 0
0 0 0 742 28791 -5100 0
0 0 0 760 29551 -4340 0
0 0 0 758 30309 -3582 0
0 0 0 732 31041 -2850 0
0 0 0 730 31771 -2120 0
2 1 S102 723 32494 -1397 0
2 1 S102 722 33216 -675 0
2 2 S102 700 33916 25 0
2 2 S102 695 34611 720 0
2 2 S102 718 35329 1438 0
2 2 S102 740 36069 2178 0
2 2 S102 757 36826 2935 0
2 2 S102 729 37555 3664 0
2 2 S102 729 38284 4393 0
2 2 S102 739 39023 5132 0
2 2 S102 732 39755 5864 0
2 2 S102 722 40477 6586 0
0 0 0 697 41174 -7787 0
0 0 0 701 41875 -7086 0
0 0 0 713 42588 -6373 0
0 0 0 715 43303 -5658 0
0 0 0 717 44020 -4941 0
0 0 0 704 44724 -4237 0
0 0 0 726 45450 -3511 0
0 0 0 740 46190 -2771 0
3 1 S116 779 46969 -1992 0
3 1 S116 771 47740 -1221 0
3 1 S116 748 48488 -473 0
3 2 S116 742 49230 269 0
3 2 S116 731 49961 1000 0
3 2 S116 730 50691 1730 0
3 2 S116 708 51399 2438 0
3 2 S116 683 52082 3121 0
3 2 S116 677 52759 3798 0
3 2 S116 695 53454 4493 0
3 2 S116 709 54163 5202 0
3 2 S116 735 54898 5937 0
3 2 S116 759 55657 6696 0
0 0 0 736 56393 -11765 0
0 0 0 740 57133 -11025 0
0 0 0 749 57882 -10276 0
0 0 0 762 58644 -9514 0
0 0 0 754 59398 -8760 0
0 0 0 715 60113 -8045 0
0 0 0 701 60814 -7344 0
0 0 0 689 61503 -6655 0
0 0 0 685 62188 -5970 0
0 0 0 679 62867 -5291 0
0 0 0 664 63531 -4627 0
0 0 0 673 64204 -3954 0
0 0 0 684 64888 -3270 0
0 0 0 709 65597 -2561 0
4 1 S106 737 66334 -1824 0
4 1 S106 754 67088 -1070 0
4 1 S106 754 67842 -316 0
4 2 S106 765 68607 449 0
4 2 S106 776 69383 1225 0
4 2 S106 760 70143 1985 0
4 2 S106 742 70885 2727 0
4 2 S106 718 71603 3445 0
4 2 S106 712 72315 4157 0
4 2 S106 706 73021 4863 0
4 2 S106 699 73720 5562 0
4 2 S106 685 74405 6247 0
4 2 S106 683 75088 6930 0
0 0 0 695 75783 -7694 0
0 0 0 711 76494 -6983 0
0 0 0 736 77230 -6247 0
0 0 0 744 77974 -5503 0
0 0 0 746 78720 -4757 0
0 0 0 738 79458 -4019 0
0 0 0 726 80184 -3293 0
0 0 0 698 80882 -2595 0
5 1 S116 677 81559 -1918 0
5 1 S116 675 82234 -1243 0
5 1 S116 671 82905 -572 0
5 2 S116 681 83586 109 0
5 2 S116 700 84286 809 0
5 2 S116 725 85011 1534 0
5 2 S116 751 85762 2285 0
5 2 S116 789 86551 3074 0
5 2 S116 801 87352 3875 0
5 2 S116 790 88142 4665 0
5 2 S116 766 88908 5431 0
5 2 S116 738 89646 6169 0
5 2 S116 717 90363 6886 0
0 0 0 703 91066 -10548 0
0 0 0 701 91767 -9847 0
0 0 0 686 92453 -9161 0
0 0 0 672 93125 -8489 0
0 0 0 693 93818 -7796 0
0 0 0 711 94529 -7085 0
0 0 0 741 95270 -6344 0
0 0 0 726 95996 -5618 0
0 0 0 698 96694 -4920 0
0 0 0 707 97401 -4213 0
0 0 0 705 98106 -3508 0
0 0 0 724 98830 -2784 0
0 0 0 722 99552 -2062 0
6 1 S106 714 100266 -1348 0
6 1 S106 716 100982 -632 0
6 2 S106 720 101702 88 0
6 2 S106 728 102430 816 0
6 2 S106 726 103156 1542 0
6 2 S106 702 103858 2244 0
6 2 S106 680 104538 2924 0
6 2 S106 682 105220 3606 0
6 2 S106 678 105898 4284 0
6 2 S106 681 106579 4965 0
6 2 S106 685 107264 5650 0
6 2 S106 690 107954 6340 0
6 2 S106 680 108634 7020 0
0 0 0 686 109320 -9485 0
0 0 0 695 110015 -8790 0
0 0 0 707 110722 -8083 0
0 0 0 734 111456 -7349 0
0 0 0 720 112176 -6629 0
0 0 0 725 112901 -5904 0
0 0 0 722 113623 -5182 0
0 0 0 724 114347 -4458 0
0 0 0 718 115065 -3740 0
0 0 0 699 115764 -3041 0
0 0 0 688 116452 -2353 0
7 1 S102 689 117141 -1664 0
7 1 S102 705 117846 -959 0
7 1 S102 722 118568 -237 0
7 2 S102 725 119293 488 0
7 2 S102 739 120032 1227 0
7 2 S102 743 120775 1970 0
7 2 S102 730 121505 2700 0
7 2 S102 726 122231 3426 0
7 2 S102 713 122944 4139 0
7 2 S102 695 123639 4834 0
7 2 S102 724 124363 5558 0
7 2 S102 736 125099 6294 0
0 0 0 765 125864 -7978 0
0 0 0 759 126623 -7219 0
0 0 0 770 127393 -6449 0
0 0 0 779 128172 -5670 0
0 0 0 781 128953 -4889 0
0 0 0 762 129715 -4127 0
0 0 0 732 130447 -3395 0
0 0 0 727 131174 -2668 0
8 1 S112 738 131912 -1930 0
8 1 S112 752 132664 -1178 0
8 1 S112 728 133392 -450 0
8 2 S112 708 134100 258 0
8 2 S112 711 134811 969 0
8 2 S112 720 135531 1689 0
8 2 S112 716 136247 2405 0
8 2 S112 711 136958 3116 0
8 2 S112 699 137657 3815 0
8 2 S112 726 138383 4541 0
8 2 S112 757 139140 5298 0
8 2 S112 782 139922 6080 0
8 2 S112 782 140704 6862 0
0 0 0 766 141470 -7690 0
0 0 0 782 142252 -6908 0
0 0 0 774 143026 -6134 0
0 0 0 765 143791 -5369 0
0 0 0 734 144525 -4635 0
0 0 0 728 145253 -3907 0
0 0 0 723 145976 -3184 0
0 0 0 727 146703 -2457 0
9 1 S116 718 147421 -1739 0
9 1 S116 695 148116 -1044 0
9 1 S116 705 148821 -339 0
9 2 S116 712 149533 373 0
9 2 S116 743 150276 1116 0
9 2 S116 764 151040 1880 0
9 2 S116 735 151775 2615 0
9 2 S116 709 152484 3324 0
9 2 S116 700 153184 4024 0
9 2 S116 699 153883 4723 0
9 2 S116 700 154583 5423 0
9 2 S116 718 155301 6141 0
9 2 S116 731 156032 6872 0
0 0 0 729 156761 -12128 0
0 0 0 730 157491 -11398 0
0 0 0 749 158240 -10649 0
0 0 0 747 158987 -9902 0
0 0 0 739 159726 -9163 0
0 0 0 715 160441 -8448 0
0 0 0 706 161147 -7742 0
0 0 0 703 161850 -7039 0
0 0 0 702 162552 -6337 0
0 0 0 693 163245 -5644 0
0 0 0 698 163943 -4946 0
0 0 0 696 164639 -4250 0
0 0 0 705 165344 -3545 0
0 0 0 709 166053 -2836 0
0 0 0 699 166752 -2137 0
10 1 S102 700 167452 -1437 0
10 1 S102 708 168160 -729 0
10 1 S102 718 168878 -11 0
10 2 S102 717 169595 706 0
10 2 S102 717 170312 1423 0
10 2 S102 719 171031 2142 0
10 2 S102 717 171748 2859 0
10 2 S102 721 172469 3580 0
10 2 S102 728 173197 4308 0
10 2 S102 725 173922 5033 0
10 2 S102 728 174650 5761 0
10 2 S102 736 175386 6497 0
0 0 0 728 176114 -11309 0
0 0 0 721 176835 -10588 0
0 0 0 702 177537 -9886 0
0 0 0 713 178250 -9173 0
0 0 0 707 178957 -8466 0
0 0 0 708 179665 -7758 0
0 0 0 689 180354 -7069 0
0 0 0 689 181043 -6380 0
0 0 0 695 181738 -5685 0
0 0 0 710 182448 -4975 0
0 0 0 717 183165 -4258 0
0 0 0 709 183874 -3549 0
0 0 0 677 184551 -2872 0
0 0 0 672 185223 -2200 0
11 1 S112 659 185882 -1541 0
11 1 S112 649 186531 -892 0
11 1 S112 647 187178 -245 0
11 2 S112 643 187821 398 0
11 2 S112 641 188462 1039 0
11 2 S112 643 189105 1682 0
11 2 S112 655 189760 2337 0
11 2 S112 694 190454 3031 0
11 2 S112 711 191165 3742 0
11 2 S112 714 191879 4456 0
11 2 S112 730 192609 5186 0
11 2 S112 740 193349 5926 0
11 2 S112 735 194084 6661 0
0 0 0 712 194796 -7349 0
0 0 0 694 195490 -6655 0
0 0 0 701 196191 -5954 0
0 0 0 698 196889 -5256 0
0 0 0 691 197580 -4565 0
0 0 0 673 198253 -3892 0
0 0 0 669 198922 -3223 0
0 0 0 668 199590 -2555 0
12 1 S116 647 200237 -1908 0
12 1 S116 637 200874 -1271 0
12 1 S116 646 201520 -625 0
12 2 S116 663 202183 38 0
12 2 S116 680 202863 718 0
12 2 S116 713 203576 1431 0
12 2 S116 737 204313 2168 0
12 2 S116 740 205053 2908 0
12 2 S116 737 205790 3645 0
12 2 S116 708 206498 4353 0
12 2 S116 706 207204 5059 0
12 2 S116 709 207913 5768 0
12 2 S116 696 208609 6464 0
0 0 0 693 209302 -12472 0
0 0 0 702 210004 -11770 0
0 0 0 708 210712 -11062 0
0 0 0 732 211444 -10330 0
0 0 0 733 212177 -9597 0
0 0 0 744 212921 -8853 0
0 0 0 746 213667 -8107 0
0 0 0 727 214394 -7380 0
0 0 0 714 215108 -6666 0
0 0 0 695 215803 -5971 0
0 0 0 705 216508 -5266 0
0 0 0 723 217231 -4543 0
0 0 0 746 217977 -3797 0
0 0 0 733 218710 -3064 0
0 0 0 730 219440 -2334 0
13 1 S112 736 220176 -1598 0
13 1 S112 737 220913 -861 0
13 1 S112 746 221659 -115 0
13 2 S112 756 222415 641 0
13 2 S112 736 223151 1377 0
13 2 S112 737 223888 2114 0
13 2 S112 742 224630 2856 0
13 2 S112 746 225376 3602 0
13 2 S112 715 226091 4317 0
13 2 S112 701 226792 5018 0
13 2 S112 703 227495 5721 0
13 2 S112 704 228199 6425 0
0 0 0 734 228933 -11757 0
0 0 0 761 229694 -10996 0
0 0 0 738 230432 -10258 0
0 0 0 737 231169 -9521 0
0 0 0 741 231910 -8780 0
0 0 0 736 232646 -8044 0
0 0 0 726 233372 -7318 0
0 0 0 711 234083 -6607 0
0 0 0 712 234795 -5895 0
0 0 0 730 235525 -5165 0
0 0 0 727 236252 -4438 0
0 0 0 728 236980 -3710 0
0 0 0 710 237690 -3000 0
0 0 0 707 238397 -2293 0
14 1 S106 701 239098 -1592 0
14 1 S106 694 239792 -898 0
14 1 S106 682 240474 -216 0
14 2 S106 668 241142 452 0
14 2 S106 675 241817 1127 0
14 2 S106 680 242497 1807 0
14 2 S106 700 243197 2507 0
14 2 S106 724 243921 3231 0
14 2 S106 714 244635 3945 0
14 2 S106 703 245338 4648 0
14 2 S106 708 246046 5356 0
14 2 S106 706 246752 6062 0
14 2 S106 703 247455 6765 0
0 0 0 680 248135 -12349 0
0 0 0 673 248808 -11676 0
0 0 0 679 249487 -10997 0
0 0 0 690 250177 -10307 0
0 0 0 716 250893 -9591 0
0 0 0 738 251631 -8853 0
0 0 0 734 252365 -8119 0
0 0 0 734 253099 -7385 0
0 0 0 732 253831 -6653 0
0 0 0 745 254576 -5908 0
0 0 0 720 255296 -5188 0
0 0 0 714 256010 -4474 0
0 0 0 713 256723 -3761 0
0 0 0 703 257426 -3058 0
0 0 0 687 258113 -2371 0
15 1 S116 666 258779 -1705 0
15 1 S116 671 259450 -1034 0
15 1 S116 683 260133 -351 0
15 2 S116 711 260844 360 0
15 2 S116 752 261596 1112 0
15 2 S116 766 262362 1878 0
15 2 S116 762 263124 2640 0
15 2 S116 778 263902 3418 0
15 2 S116 817 264719 4235 0
15 2 S116 811 265530 5046 0
15 2 S116 774 266304 5820 0
15 2 S116 757 267061 6577 0
0 0 0 756 267817 -10821 0
0 0 0 745 268562 -10076 0
0 0 0 726 269288 -9350 0
0 0 0 700 269988 -8650 0
0 0 0 703 270691 -7947 0
0 0 0 712 271403 -7235 0
0 0 0 730 272133 -6505 0
0 0 0 708 272841 -5797 0
0 0 0 702 273543 -5095 0
0 0 0 718 274261 -4377 0
0 0 0 742 275003 -3635 0
0 0 0 740 275743 -2895 0
0 0 0 721 276464 -2174 0
16 1 S116 699 277163 -1475 0
16 1 S116 699 277862 -776 0
16 1 S116 713 278575 -63 0
16 2 S116 728 279303 665 0
16 2 S116 747 280050 1412 0
16 2 S116 723 280773 2135 0
16 2 S116 713 281486 2848 0
16 2 S116 702 282188 3550 0
16 2 S116 702 282890 4252 0
16 2 S116 710 283600 4962 0
16 2 S116 721 284321 5683 0
16 2 S116 714 285035 6397 0
0 0 0 724 285759 -9954 0
0 0 0 734 286493 -9220 0
0 0 0 739 287232 -8481 0
0 0 0 735 287967 -7746 0
0 0 0 721 288688 -7025 0
0 0 0 726 289414 -6299 0
0 0 0 711 290125 -5588 0
0 0 0 708 290833 -4880 0
0 0 0 685 291518 -4195 0
0 0 0 685 292203 -3510 0
0 0 0 691 292894 -2819 0
0 0 0 721 293615 -2098 0
17 1 S106 727 294342 -1371 0
17 1 S106 729 295071 -642 0
17 2 S106 712 295783 70 0
17 2 S106 722 296505 792 0
17 2 S106 719 297224 1511 0
17 2 S106 714 297938 2225 0
17 2 S106 710 298648 2935 0
17 2 S106 683 299331 3618 0
17 2 S106 679 300010 4297 0
17 2 S106 685 300695 4982 0
17 2 S106 685 301380 5667 0
17 2 S106 696 302076 6363 0
0 0 0 709 302785 -11811 0
0 0 0 741 303526 -11070 0
0 0 0 752 304278 -10318 0
0 0 0 777 305055 -9541 0
0 0 0 757 305812 -8784 0
0 0 0 719 306531 -8065 0
0 0 0 710 307241 -7355 0
0 0 0 696 307937 -6659 0
0 0 0 699 308636 -5960 0
0 0 0 681 309317 -5279 0
0 0 0 672 309989 -4607 0
0 0 0 676 310665 -3931 0
0 0 0 690 311355 -3241 0
0 0 0 705 312060 -2536 0
18 1 S102 730 312790 -1806 0
18 1 S102 722 313512 -1084 0
18 1 S102 721 314233 -363 0
18 2 S102 723 314956 360 0
18 2 S102 728 315684 1088 0
18 2 S102 735 316419 1823 0
18 2 S102 739 317158 2562 0
18 2 S102 747 317905 3309 0
18 2 S102 741 318646 4050 0
18 2 S102 751 319397 4801 0
18 2 S102 734 320131 5535 0
18 2 S102 714 320845 6249 0
18 2 S102 724 321569 6973 0
0 0 0 741 322310 -6328 0
0 0 0 718 323028 -5610 0
0 0 0 702 323730 -4908 0
0 0 0 675 324405 -4233 0
0 0 0 660 325065 -3573 0
0 0 0 651 325716 -2922 0
0 0 0 658 326374 -2264 0
19 1 S106 679 327053 -1585 0
19 1 S106 689 327742 -896 0
19 1 S106 729 328471 -167 0
19 2 S106 794 329265 627 0
19 2 S106 786 330051 1413 0
19 2 S106 775 330826 2188 0
19 2 S106 748 331574 2936 0
19 2 S106 729 332303 3665 0
19 2 S106 707 333010 4372 0
19 2 S106 684 333694 5056 0
19 2 S106 661 334355 5717 0
19 2 S106 659 335014 6376 0
0 0 0 659 335673 -10936 0
0 0 0 668 336341 -10268 0
0 0 0 667 337008 -9601 0
0 0 0 679 337687 -8922 0
0 0 0 664 338351 -8258 0
0 0 0 662 339013 -7596 0
0 0 0 663 339676 -6933 0
0 0 0 664 340340 -6269 0
0 0 0 668 341008 -5601 0
0 0 0 668 341676 -4933 0
0 0 0 689 342365 -4244 0
0 0 0 692 343057 -3552 0
0 0 0 712 343769 -2840 0
0 0 0 722 344491 -2118 0
20 1 S112 724 345215 -1394 0
20 1 S112 715 345930 -679 0
20 2 S112 714 346644 35 0
20 2 S112 705 347349 740 0
20 2 S112 689 348038 1429 0
20 2 S112 681 348719 2110 0
20 2 S112 680 349399 2790 0
20 2 S112 690 350089 3480 0
20 2 S112 720 350809 4200 0
20 2 S112 715 351524 4915 0
20 2 S112 731 352255 5646 0
20 2 S112 697 352952 6343 0
0 0 0 693 353645 -9775 0
0 0 0 686 354331 -9089 0
0 0 0 692 355023 -8397 0
0 0 0 699 355722 -7698 0
0 0 0 699 356421 -6999 0
0 0 0 710 357131 -6289 0
0 0 0 708 357839 -5581 0
0 0 0 704 358543 -4877 0
0 0 0 686 359229 -4191 0
0 0 0 691 359920 -3500 0
0 0 0 692 360612 -2808 0
0 0 0 692 361304 -2116 0
21 1 S106 691 361995 -1425 0
21 1 S106 678 362673 -747 0
21 1 S106 674 363347 -73 0
21 2 S106 678 364025 605 0
21 2 S106 690 364715 1295 0
21 2 S106 696 365411 1991 0
21 2 S106 703 366114 2694 0
21 2 S106 704 366818 3398 0
21 2 S106 717 367535 4115 0
21 2 S106 720 368255 4835 0
21 2 S106 725 368980 5560 0
21 2 S106 715 369695 6275 0
21 2 S106 705 370400 6980 0
0 0 0 710 371110 -11673 0
0 0 0 724 371834 -10949 0
0 0 0 704 372538 -10245 0
0 0 0 687 373225 -9558 0
0 0 0 681 373906 -8877 0
0 0 0 693 374599 -8184 0
0 0 0 693 375292 -7491 0
0 0 0 693 375985 -6798 0
0 0 0 684 376669 -6114 0
0 0 0 680 377349 -5434 0
0 0 0 672 378021 -4762 0
0 0 0 652 378673 -4110 0
0 0 0 654 379327 -3456 0
0 0 0 656 379983 -2800 0
0 0 0 656 380639 -2144 0
22 1 S116 643 381282 -1501 0
22 1 S116 644 381926 -857 0
22 1 S116 642 382568 -215 0
22 2 S116 646 383214 431 0
22 2 S116 647 383861 1078 0
22 2 S116 654 384515 1732 0
22 2 S116 665 385180 2397 0
22 2 S116 688 385868 3085 0
22 2 S116 717 386585 3802 0
22 2 S116 735 387320 4537 0
22 2 S116 733 388053 5270 0
22 2 S116 730 388783 6000 0
22 2 S116 736 389519 6736 0
0 0 0 736 390255 -8991 0
0 0 0 733 390988 -8258 0
0 0 0 717 391705 -7541 0
0 0 0 723 392428 -6818 0
0 0 0 721 393149 -6097 0
0 0 0 722 393871 -5375 0
0 0 0 707 394578 -4668 0
0 0 0 690 395268 -3978 0
0 0 0 701 395969 -3277 0
0 0 0 709 396678 -2568 0
23 1 S112 723 397401 -1845 0
23 1 S112 713 398114 -1132 0
23 1 S112 701 398815 -431 0
23 2 S112 697 399512 266 0
23 2 S112 690 400202 956 0
23 2 S112 683 400885 1639 0
23 2 S112 670 401555 2309 0
23 2 S112 663 402218 2972 0
23 2 S112 658 402876 3630 0
23 2 S112 651 403527 4281 0
23 2 S112 655 404182 4936 0
23 2 S112 668 404850 5604 0
23 2 S112 669 405519 6273 0
23 2 S112 663 406182 6936 0
0 0 0 671 406853 -8905 0
0 0 0 688 407541 -8217 0
0 0 0 706 408247 -7511 0
0 0 0 716 408963 -6795 0
0 0 0 698 409661 -6097 0
0 0 0 696 410357 -5401 0
0 0 0 694 411051 -4707 0
0 0 0 701 411752 -4006 0
0 0 0 701 412453 -3305 0
0 0 0 692 413145 -2613 0
24 1 S106 700 413845 -1913 0
24 1 S106 699 414544 -1214 0
24 1 S106 693 415237 -521 0
24 2 S106 692 415929 171 0
24 2 S106 679 416608 850 0
24 2 S106 675 417283 1525 0
24 2 S106 668 417951 2193 0
24 2 S106 674 418625 2867 0
24 2 S106 675 419300 3542 0
24 2 S106 677 419977 4219 0
24 2 S106 677 420654 4896 0
24 2 S106 695 421349 5591 0
24 2 S106 701 422050 6292 0
24 2 S106 724 422774 7016 0
0 0 0 716 423490 -7437 0
0 0 0 699 424189 -6738 0
0 0 0 683 424872 -6055 0
0 0 0 667 425539 -5388 0
0 0 0 658 426197 -4730 0
0 0 0 644 426841 -4086 0
0 0 0 648 427489 -3438 0
0 0 0 662 428151 -2776 0
0 0 0 691 428842 -2085 0
25 1 S102 717 429559 -1368 0
25 1 S102 721 430280 -647 0
25 2 S102 717 430997 70 0
25 2 S102 732 431729 802 0
25 2 S102 722 432451 1524 0
25 2 S102 704 433155 2228 0
25 2 S102 692 433847 2920 0
25 2 S102 674 434521 3594 0
25 2 S102 661 435182 4255 0
25 2 S102 649 435831 4904 0
25 2 S102 646 436477 5550 0
25 2 S102 637 437114 6187 0
25 2 S102 647 437761 6834 0
0 0 0 659 438420 -7328 0
0 0 0 685 439105 -6643 0
0 0 0 739 439844 -5904 0
0 0 0 758 440602 -5146 0
0 0 0 755 441357 -4391 0
0 0 0 741 442098 -3650 0
0 0 0 729 442827 -2921 0
0 0 0 702 443529 -2219 0
26 1 S116 686 444215 -1533 0
26 1 S116 682 444897 -851 0
26 1 S116 671 445568 -180 0
26 2 S116 667 446235 487 0
26 2 S116 657 446892 1144 0
26 2 S116 659 447551 1803 0
26 2 S116 662 448213 2465 0
26 2 S116 687 448900 3152 0
26 2 S116 709 449609 3861 0
26 2 S116 713 450322 4574 0
26 2 S116 709 451031 5283 0
26 2 S116 715 451746 5998 0
26 2 S116 717 452463 6715 0
0 0 0 710 453173 -7595 0
0 0 0 687 453860 -6908 0
0 0 0 682 454542 -6226 0
0 0 0 683 455225 -5543 0
0 0 0 686 455911 -4857 0
0 0 0 684 456595 -4173 0
0 0 0 670 457265 -3503 0
0 0 0 667 457932 -2836 0
0 0 0 669 458601 -2167 0
27 1 S106 676 459277 -1491 0
27 1 S106 688 459965 -803 0
27 1 S106 693 460658 -110 0
27 2 S106 704 461362 594 0
27 2 S106 700 462062 1294 0
27 2 S106 708 462770 2002 0
27 2 S106 711 463481 2713 0
27 2 S106 695 464176 3408 0
27 2 S106 685 464861 4093 0
27 2 S106 690 465551 4783 0
27 2 S106 700 466251 5483 0
27 2 S106 728 466979 6211 0
27 2 S106 729 467708 6940 0
0 0 0 723 468431 -7059 0
0 0 0 728 469159 -6331 0
0 0 0 721 469880 -5610 0
0 0 0 731 470611 -4879 0
0 0 0 710 471321 -4169 0
0 0 0 690 472011 -3479 0
0 0 0 685 472696 -2794 0
0 0 0 688 473384 -2106 0
28 1 S102 687 474071 -1419 0
28 1 S102 695 474766 -724 0
28 1 S102 679 475445 -45 0
28 2 S102 683 476128 638 0
28 2 S102 698 476826 1336 0
28 2 S102 693 477519 2029 0
28 2 S102 700 478219 2729 0
28 2 S102 690 478909 3419 0
28 2 S102 701 479610 4120 0
28 2 S102 707 480317 4827 0
28 2 S102 727 481044 5554 0
28 2 S102 740 481784 6294 0
28 2 S102 716 482500 7010 0
0 0 0 701 483201 -11536 0
0 0 0 699 483900 -10837 0
0 0 0 715 484615 -10122 0
0 0 0 711 485326 -9411 0
0 0 0 712 486038 -8699 0
0 0 0 708 486746 -7991 0
0 0 0 696 487442 -7295 0
0 0 0 687 488129 -6608 0
0 0 0 666 488795 -5942 0
0 0 0 665 489460 -5277 0
0 0 0 670 490130 -4607 0
0 0 0 674 490804 -3933 0
0 0 0 678 491482 -3255 0
0 0 0 663 492145 -2592 0
29 1 S112 663 492808 -1929 0
29 1 S112 661 493469 -1268 0
29 1 S112 661 494130 -607 0
29 2 S112 658 494788 51 0
29 2 S112 647 495435 698 0
29 2 S112 644 496079 1342 0
29 2 S112 654 496733 1996 0
29 2 S112 666 497399 2662 0
29 2 S112 678 498077 3340 0
29 2 S112 666 498743 4006 0
29 2 S112 676 499419 4682 0
29 2 S112 683 500102 5365 0
29 2 S112 703 500805 6068 0
29 2 S112 705 501510 6773 0
0 0 0 682 502192 -7913 0
0 0 0 678 502870 -7235 0
0 0 0 686 503556 -6549 0
0 0 0 697 504253 -5852 0
0 0 0 712 504965 -5140 0
0 0 0 709 505674 -4431 0
0 0 0 709 506383 -3722 0
0 0 0 708 507091 -3014 0
0 0 0 711 507802 -2303 0
30 1 S112 702 508504 -1601 0
30 1 S112 692 509196 -909 0
30 1 S112 697 509893 -212 0
30 2 S112 701 510594 489 0
30 2 S112 719 511313 1208 0
30 2 S112 726 512039 1934 0
30 2 S112 720 512759 2654 0
30 2 S112 731 513490 3385 0
30 2 S112 741 514231 4126 0
30 2 S112 737 514968 4863 0
30 2 S112 729 515697 5592 0
30 2 S112 710 516407 6302 0
30 2 S112 722 517129 7024 0
0 0 0 732 517861 -9701 0
0 0 0 726 518587 -8975 0
0 0 0 715 519302 -8260 0
0 0 0 705 520007 -7555 0
0 0 0 712 520719 -6843 0
0 0 0 712 521431 -6131 0
0 0 0 713 522144 -5418 0
0 0 0 693 522837 -4725 0
0 0 0 687 523524 -4038 0
0 0 0 693 524217 -3345 0
0 0 0 701 524918 -2644 0
31 1 S106 708 525626 -1936 0
31 1 S106 692 526318 -1244 0
31 1 S106 686 527004 -558 0
31 2 S106 696 527700 138 0
31 2 S106 707 528407 845 0
31 2 S106 695 529102 1540 0
31 2 S106 692 529794 2232 0
31 2 S106 681 530475 2913 0
31 2 S106 689 531164 3602 0
31 2 S106 711 531875 4313 0
31 2 S106 724 532599 5037 0
31 2 S106 721 533320 5758 0
31 2 S106 691 534011 6449 0
0 0 0 685 534696 -9809 0
0 0 0 693 535389 -9116 0
0 0 0 704 536093 -8412 0
0 0 0 716 536809 -7696 0
0 0 0 706 537515 -6990 0
0 0 0 697 538212 -6293 0
0 0 0 696 538908 -5597 0
0 0 0 701 539609 -4896 0
0 0 0 702 540311 -4194 0
0 0 0 683 540994 -3511 0
0 0 0 683 541677 -2828 0
0 0 0 689 542366 -2139 0
32 1 S102 700 543066 -1439 0
32 1 S102 706 543772 -733 0
32 1 S102 694 544466 -39 0
32 2 S102 675 545141 636 0
32 2 S102 684 545825 1320 0
32 2 S102 682 546507 2002 0
32 2 S102 683 547190 2685 0
32 2 S102 674 547864 3359 0
32 2 S102 673 548537 4032 0
32 2 S102 689 549226 4721 0
32 2 S102 716 549942 5437 0
32 2 S102 741 550683 6178 0
32 2 S102 763 551446 6941 0
0 0 0 749 552195 -10364 0
0 0 0 727 552922 -9637 0
0 0 0 707 553629 -8930 0
0 0 0 688 554317 -8242 0
0 0 0 668 554985 -7574 0
0 0 0 669 555654 -6905 0
0 0 0 676 556330 -6229 0
0 0 0 715 557045 -5514 0
0 0 0 754 557799 -4760 0
0 0 0 759 558558 -4001 0
0 0 0 776 559334 -3225 0
0 0 0 790 560124 -2435 0
33 1 S112 795 560919 -1640 0
33 1 S112 796 561715 -844 0
33 1 S112 756 562471 -88 0
33 2 S112 739 563210 651 0
33 2 S112 719 563929 1370 0
33 2 S112 713 564642 2083 0
33 2 S112 690 565332 2773 0
33 2 S112 672 566004 3445 0
33 2 S112 676 566680 4121 0
33 2 S112 690 567370 4811 0
33 2 S112 727 568097 5538 0
33 2 S112 748 568845 6286 0
33 2 S112 744 569589 7030 0
0 0 0 764 570353 -11238 0
0 0 0 816 571169 -10422 0
0 0 0 832 572001 -9590 1
0 0 0 798 572799 -8792 0
0 0 0 745 573544 -8047 0
0 0 0 718 574262 -7329 0
0 0 0 698 574960 -6631 0
0 0 0 690 575650 -5941 0
0 0 0 677 576327 -5264 0
0 0 0 672 576999 -4592 0
0 0 0 678 577677 -3914 0
0 0 0 691 578368 -3223 0
0 0 0 708 579076 -2515 0
34 1 S106 723 579799 -1792 0
34 1 S106 732 580531 -1060 0
34 1 S106 730 581261 -330 0
34 2 S106 733 581994 403 0
34 2 S106 736 582730 1139 0
34 2 S106 727 583457 1866 0
34 2 S106 708 584165 2574 0
34 2 S106 694 584859 3268 0
34 2 S106 683 585542 3951 0
34 2 S106 675 586217 4626 0
34 2 S106 682 586899 5308 0
34 2 S106 673 587572 5981 0
34 2 S106 692 588264 6673 0
0 0 0 703 588967 -9020 0
0 0 0 710 589677 -8310 0
0 0 0 716 590393 -7594 0
0 0 0 724 591117 -6870 0
0 0 0 706 591823 -6164 0
0 0 0 696 592519 -5468 0
0 0 0 696 593215 -4772 0
0 0 0 699 593914 -4073 0
0 0 0 701 594615 -3372 0
0 0 0 703 595318 -2669 0
35 1 S102 702 596020 -1967 0
35 1 S102 702 596722 -1265 0
35 1 S102 699 597421 -566 0
35 2 S102 695 598116 129 0
35 2 S102 681 598797 810 0
35 2 S102 687 599484 1497 0
35 2 S102 687 600171 2184 0
35 2 S102 702 600873 2886 0
35 2 S102 707 601580 3593 0
35 2 S102 726 602306 4319 0
35 2 S102 755 603061 5074 0
35 2 S102 799 603860 5873 0
35 2 S102 803 604663 6676 0
0 0 0 768 605431 -7908 0
0 0 0 771 606202 -7137 0
0 0 0 771 606973 -6366 0
0 0 0 746 607719 -5620 0
0 0 0 724 608443 -4896 0
0 0 0 692 609135 -4204 0
0 0 0 692 609827 -3512 0
0 0 0 707 610534 -2805 0
0 0 0 725 611259 -2080 0
36 1 S106 747 612006 -1333 0
36 1 S106 745 612751 -588 0
36 2 S106 775 613526 187 0
36 2 S106 803 614329 990 0
36 2 S106 826 615155 1816 0
36 2 S106 783 615938 2599 0
36 2 S106 762 616700 3361 0
36 2 S106 747 617447 4108 0
36 2 S106 727 618174 4835 0
36 2 S106 701 618875 5536 0
36 2 S106 666 619541 6202 0
36 2 S106 655 620196 6857 0
0 0 0 642 620838 -8151 0
0 0 0 638 621476 -7513 0
0 0 0 634 622110 -6879 0
0 0 0 625 622735 -6254 0
0 0 0 619 623354 -5635 0
0 0 0 620 623974 -5015 0
0 0 0 610 624584 -4405 0
0 0 0 609 625193 -3796 0
0 0 0 629 625822 -3167 0
0 0 0 699 626521 -2468 0
37 1 S116 753 627274 -1715 0
37 1 S116 747 628021 -968 0
37 1 S116 729 628750 -239 0
37 2 S116 733 629483 494 0
37 2 S116 722 630205 1216 0
37 2 S116 716 630921 1932 0
37 2 S116 704 631625 2636 0
37 2 S116 676 632301 3312 0
37 2 S116 671 632972 3983 0
37 2 S116 680 633652 4663 0
37 2 S116 703 634355 5366 0
37 2 S116 726 635081 6092 0
37 2 S116 744 635825 6836 0
0 0 0 724 636549 -10345 0
0 0 0 717 637266 -9628 0
0 0 0 722 637988 -8906 0
0 0 0 708 638696 -8198 0
0 0 0 685 639381 -7513 0
0 0 0 688 640069 -6825 0
0 0 0 690 640759 -6135 0
0 0 0 688 641447 -5447 0
0 0 0 697 642144 -4750 0
0 0 0 712 642856 -4038 0
0 0 0 704 643560 -3334 0
0 0 0 710 644270 -2624 0
38 1 S102 719 644989 -1905 0
38 1 S102 716 645705 -1189 0
38 1 S102 709 646414 -480 0
38 2 S102 692 647106 212 0
38 2 S102 683 647789 895 0
38 2 S102 682 648471 1577 0
38 2 S102 667 649138 2244 0
38 2 S102 661 649799 2905 0
38 2 S102 672 650471 3577 0
38 2 S102 686 651157 4263 0
38 2 S102 711 651868 4974 0
38 2 S102 719 652587 5693 0
38 2 S102 702 653289 6395 0
0 0 0 672 653961 -9843 0
0 0 0 652 654613 -9191 0
0 0 0 653 655266 -8538 0
0 0 0 646 655912 -7892 0
0 0 0 638 656550 -7254 0
0 0 0 629 657179 -6625 0
0 0 0 620 657799 -6005 0
0 0 0 613 658412 -5392 0
0 0 0 616 659028 -4776 0
0 0 0 630 659658 -4146 0
0 0 0 631 660289 -3515 0
0 0 0 633 660922 -2882 0
0 0 0 625 661547 -2257 0
39 1 S116 612 662159 -1645 0
39 1 S116 605 662764 -1040 0
39 1 S116 597 663361 -443 0
39 2 S116 588 663949 145 1
39 2 S116 579 664528 724 1
39 2 S116 574 665102 1298 1
39 2 S116 577 665679 1875 1
39 2 S116 588 666267 2463 1
39 2 S116 606 666873 3069 0
39 2 S116 626 667499 3695 0
39 2 S116 647 668146 4342 0
39 2 S116 676 668822 5018 0
39 2 S116 734 669556 5752 0
39 2 S116 758 670314 6510 0
0 0 0 782 671096 -6617 0
0 0 0 781 671877 -5836 0
0 0 0 769 672646 -5067 0
0 0 0 719 673365 -4348 0
0 0 0 689 674054 -3659 0
0 0 0 687 674741 -2972 0
0 0 0 690 675431 -2282 0
40 1 S112 698 676129 -1584 0
40 1 S112 701 676830 -883 0
40 1 S112 699 677529 -184 0
40 2 S112 708 678237 524 0
40 2 S112 723 678960 1247 0
40 2 S112 730 679690 1977 0
40 2 S112 731 680421 2708 0
40 2 S112 719 681140 3427 0
40 2 S112 684 681824 4111 0
40 2 S112 673 682497 4784 0
40 2 S112 659 683156 5443 0
40 2 S112 653 683809 6096 0
40 2 S112 652 684461 6748 0
0 0 0 663 685124 -187833 0
0 0 0 683 685807 -187150 0
0 0 0 729 686536 -186421 0
0 0 0 763 687299 -185658 0
0 0 0 757 688056 -184901 0
0 0 0 751 688807 -184150 0
0 0 0 749 689556 -183401 0
0 0 0 740 690296 -182661 0
0 0 0 693 690989 -181968 0
0 0 0 662 691651 -181306 0
0 0 0 672 692323 -180634 0
0 0 0 654 692977 -179980 0
0 0 0 634 693611 -179346 0
0 0 0 618 694229 -178728 0
0 0 0 610 694839 -178118 0
0 0 0 611 695450 -177507 0
0 0 0 607 696057 -176900 0
0 0 0 610 696667 -176290 0
0 0 0 607 697274 -175683 0
0 0 0 606 697880 -175077 0
0 0 0 608 698488 -174469 0
0 0 0 603 699091 -173866 0
0 0 0 595 699686 -173271 1
0 0 0 586 700272 -172685 1
0 0 0 582 700854 -172103 1
0 0 0 578 701432 -171525 1
0 0 0 572 702004 -170953 1
0 0 0 566 702570 -170387 1
0 0 0 562 703132 -169825 1
0 0 0 557 703689 -169268 1
0 0 0 557 704246 -168711 1
0 0 0 564 704810 -168147 1
0 0 0 580 705390 -167567 1
0 0 0 579 705969 -166988 1
0 0 0 596 706565 -166392 1
0 0 0 605 707170 -165787 0
0 0 0 600 707770 -165187 0
0 0 0 602 708372 -164585 0
0 0 0 617 708989 -163968 0
0 0 0 647 709636 -163321 0
0 0 0 669 710305 -162652 0
0 0 0 660 710965 -161992 0
0 0 0 667 711632 -161325 0
0 0 0 666 712298 -160659 0
0 0 0 684 712982 -159975 0
0 0 0 714 713696 -159261 0
0 0 0 752 714448 -158509 0
0 0 0 778 715226 -157731 0
0 0 0 767 715993 -156964 0
0 0 0 737 716730 -156227 0
0 0 0 718 717448 -155509 0
0 0 0 714 718162 -154795 0
0 0 0 719 718881 -154076 0
0 0 0 721 719602 -153355 0
0 0 0 699 720301 -152656 0
0 0 0 706 721007 -151950 0
0 0 0 725 721732 -151225 0
0 0 0 755 722487 -150470 0
0 0 0 760 723247 -149710 0
0 0 0 729 723976 -148981 0
0 0 0 700 724676 -148281 0
0 0 0 698 725374 -147583 0
0 0 0 722 726096 -146861 0
0 0 0 741 726837 -146120 0
0 0 0 782 727619 -145338 0
0 0 0 764 728383 -144574 0
0 0 0 752 729135 -143822 0
0 0 0 782 729917 -143040 0
0 0 0 781 730698 -142259 0
0 0 0 769 731467 -141490 0
0 0 0 731 732198 -140759 0
0 0 0 703 732901 -140056 0
0 0 0 693 733594 -139363 0
0 0 0 691 734285 -138672 0
0 0 0 717 735002 -137955 0
0 0 0 742 735744 -137213 0
0 0 0 735 736479 -136478 0
0 0 0 748 737227 -135730 0
0 0 0 790 738017 -134940 0
0 0 0 801 738818 -134139 0
0 0 0 792 739610 -133347 0
0 0 0 757 740367 -132590 0
0 0 0 750 741117 -131840 0
0 0 0 759 741876 -131081 0
0 0 0 750 742626 -130331 0
0 0 0 749 743375 -129582 0
0 0 0 700 744075 -128882 0
0 0 0 697 744772 -128185 0
0 0 0 702 745474 -127483 0
0 0 0 727 746201 -126756 0
0 0 0 741 746942 -126015 0
0 0 0 721 747663 -125294 0
0 0 0 713 748376 -124581 0
0 0 0 724 749100 -123857 0
0 0 0 745 749845 -123112 0
0 0 0 778 750623 -122334 0
0 0 0 749 751372 -121585 0
0 0 0 717 752089 -120868 0
0 0 0 706 752795 -120162 0
0 0 0 686 753481 -119476 0
0 0 0 667 754148 -118809 0
0 0 0 642 754790 -118167 0
0 0 0 628 755418 -117539 0
0 0 0 622 756040 -116917 0
0 0 0 615 756655 -116302 0
0 0 0 606 757261 -115696 0
0 0 0 600 757861 -115096 0
0 0 0 619 758480 -114477 0
0 0 0 663 759143 -113814 0
0 0 0 672 759815 -113142 0
0 0 0 678 760493 -112464 0
0 0 0 688 761181 -111776 0
0 0 0 697 761878 -111079 0
0 0 0 699 762577 -110380 0
0 0 0 681 763258 -109699 0
0 0 0 667 763925 -109032 0
0 0 0 668 764593 -108364 0
0 0 0 680 765273 -107684 0
0 0 0 690 765963 -106994 0
0 0 0 681 766644 -106313 0
0 0 0 661 767305 -105652 0
0 0 0 643 767948 -105009 0
0 0 0 624 768572 -104385 0
0 0 0 616 769188 -103769 0
0 0 0 608 769796 -103161 0
0 0 0 600 770396 -102561 0
0 0 0 593 770989 -101968 1
0 0 0 584 771573 -101384 1
0 0 0 578 772151 -100806 1
0 0 0 575 772726 -100231 1
0 0 0 585 773311 -99646 1
0 0 0 601 773912 -99045 0
0 0 0 615 774527 -98430 0
0 0 0 634 775161 -97796 0
0 0 0 652 775813 -97144 0
0 0 0 657 776470 -96487 0
0 0 0 672 777142 -95815 0
0 0 0 699 777841 -95116 0
0 0 0 719 778560 -94397 0
0 0 0 750 779310 -93647 0
0 0 0 772 780082 -92875 0
0 0 0 787 780869 -92088 0
0 0 0 777 781646 -91311 0
0 0 0 773 782419 -90538 0
0 0 0 722 783141 -89816 0
0 0 0 696 783837 -89120 0
0 0 0 695 784532 -88425 0
0 0 0 708 785240 -87717 0
0 0 0 721 785961 -86996 0
0 0 0 741 786702 -86255 0
0 0 0 736 787438 -85519 0
0 0 0 716 788154 -84803 0
0 0 0 723 788877 -84080 0
0 0 0 722 789599 -83358 0
0 0 0 731 790330 -82627 0
0 0 0 723 791053 -81904 0
0 0 0 733 791786 -81171 0
0 0 0 708 792494 -80463 0
0 0 0 715 793209 -79748 0
0 0 0 705 793914 -79043 0
0 0 0 699 794613 -78344 0
0 0 0 694 795307 -77650 0
0 0 0 691 795998 -76959 0
0 0 0 680 796678 -76279 0
0 0 0 676 797354 -75603 0
0 0 0 681 798035 -74922 0
0 0 0 692 798727 -74230 0
0 0 0 721 799448 -73509 0
0 0 0 742 800190 -72767 0
0 0 0 736 800926 -72031 0
0 0 0 741 801667 -71290 0
0 0 0 742 802409 -70548 0
0 0 0 737 803146 -69811 0
0 0 0 735 803881 -69076 0
0 0 0 698 804579 -68378 0
0 0 0 690 805269 -67688 0
0 0 0 683 805952 -67005 0
0 0 0 683 806635 -66322 0
0 0 0 694 807329 -65628 0
0 0 0 675 808004 -64953 0
0 0 0 665 808669 -64288 0
0 0 0 655 809324 -63633 0
0 0 0 646 809970 -62987 0
0 0 0 644 810614 -62343 0
0 0 0 630 811244 -61713 0
0 0 0 627 811871 -61086 0
0 0 0 630 812501 -60456 0
0 0 0 626 813127 -59830 0
0 0 0 621 813748 -59209 0
0 0 0 634 814382 -58575 0
0 0 0 632 815014 -57943 0
0 0 0 631 815645 -57312 0
0 0 0 631 816276 -56681 0
0 0 0 620 816896 -56061 0
0 0 0 611 817507 -55450 0
0 0 0 607 818114 -54843 0
0 0 0 601 818715 -54242 0
0 0 0 596 819311 -53646 1
0 0 0 595 819906 -53051 1
0 0 0 607 820513 -52444 0
0 0 0 616 821129 -51828 0
0 0 0 626 821755 -51202 0
0 0 0 641 822396 -50561 0
0 0 0 669 823065 -49892 0
0 0 0 677 823742 -49215 0
0 0 0 691 824433 -48524 0
0 0 0 699 825132 -47825 0
0 0 0 703 825835 -47122 0
0 0 0 699 826534 -46423 0
0 0 0 670 827204 -45753 0
0 0 0 648 827852 -45105 0
0 0 0 636 828488 -44469 0
0 0 0 636 829124 -43833 0
0 0 0 630 829754 -43203 0
0 0 0 636 830390 -42567 0
0 0 0 660 831050 -41907 0
0 0 0 713 831763 -41194 0
0 0 0 807 832570 -40387 0
0 0 0 886 833456 -39501 1
0 0 0 874 834330 -38627 1
0 0 0 866 835196 -37761 1
0 0 0 886 836082 -36875 1
0 0 0 878 836960 -35997 1
0 0 0 880 837840 -35117 1
0 0 0 806 838646 -34311 0
0 0 0 770 839416 -33541 0
0 0 0 740 840156 -32801 0
0 0 0 726 840882 -32075 0
0 0 0 720 841602 -31355 0
0 0 0 708 842310 -30647 0
0 0 0 693 843003 -29954 0
0 0 0 711 843714 -29243 0
0 0 0 736 844450 -28507 0
0 0 0 802 845252 -27705 0
0 0 0 862 846114 -26843 1
0 0 0 830 846944 -26013 1
0 0 0 776 847720 -25237 0
0 0 0 750 848470 -24487 0
0 0 0 735 849205 -23752 0
0 0 0 731 849936 -23021 0
0 0 0 718 850654 -22303 0
0 0 0 713 851367 -21590 0
0 0 0 727 852094 -20863 0
0 0 0 743 852837 -20120 0
0 0 0 771 853608 -19349 0
0 0 0 775 854383 -18574 0
0 0 0 752 855135 -17822 0
0 0 0 765 855900 -17057 0
0 0 0 772 856672 -16285 0
0 0 0 776 857448 -15509 0
0 0 0 755 858203 -14754 0
0 0 0 712 858915 -14042 0
0 0 0 707 859622 -13335 0
0 0 0 702 860324 -12633 0
0 0 0 708 861032 -11925 0
0 0 0 706 861738 -11219 0
0 0 0 709 862447 -10510 0
0 0 0 731 863178 -9779 0
0 0 0 759 863937 -9020 0
0 0 0 776 864713 -8244 0
0 0 0 760 865473 -7484 0
0 0 0 745 866218 -6739 0
0 0 0 753 866971 -5986 0
0 0 0 756 867727 -5230 0
0 0 0 769 868496 -4461 0
0 0 0 746 869242 -3715 0
0 0 0 705 869947 -3010 0
0 0 0 694 870641 -2316 0
41 1 S102 686 871327 -1630 0
41 1 S102 723 872050 -907 0
41 1 S102 781 872831 -126 0
41 2 S102 792 873623 666 0
41 2 S102 818 874441 1484 0
41 2 S102 844 875285 2328 1
41 2 S102 842 876127 3170 1
41 2 S102 799 876926 3969 0
41 2 S102 781 877707 4750 0
41 2 S102 780 878487 5530 0
41 2 S102 762 879249 6292 0
41 2 S102 725 879974 7017 0
0 0 0 696 880670 -5417 0
0 0 0 692 881362 -4725 0
0 0 0 677 882039 -4048 0
0 0 0 667 882706 -3381 0
0 0 0 655 883361 -2726 0
0 0 0 651 884012 -2075 0
42 1 S112 659 884671 -1416 0
42 1 S112 672 885343 -744 0
42 1 S112 706 886049 -38 0
42 2 S112 730 886779 692 0
42 2 S112 748 887527 1440 0
42 2 S112 801 888328 2241 0
42 2 S112 832 889160 3073 1
42 2 S112 826 889986 3899 0
42 2 S112 798 890784 4697 0
42 2 S112 778 891562 5475 0
42 2 S112 763 892325 6238 0
42 2 S112 760 893085 6998 0
0 0 0 747 893832 -10856 0
0 0 0 736 894568 -10120 0
0 0 0 759 895327 -9361 0
0 0 0 770 896097 -8591 0
0 0 0 810 896907 -7781 0
0 0 0 793 897700 -6988 0
0 0 0 808 898508 -6180 0
0 0 0 811 899319 -5369 0
0 0 0 781 900100 -4588 0
0 0 0 748 900848 -3840 0
0 0 0 736 901584 -3104 0
0 0 0 726 902310 -2378 0
43 1 S116 713 903023 -1665 0
43 1 S116 699 903722 -966 0
43 1 S116 699 904421 -267 0
43 2 S116 711 905132 444 0
43 2 S116 734 905866 1178 0
43 2 S116 763 906629 1941 0
43 2 S116 761 907390 2702 0
43 2 S116 770 908160 3472 0
43 2 S116 779 908939 4251 0
43 2 S116 788 909727 5039 0
43 2 S116 784 910511 5823 0
43 2 S116 735 911246 6558 0
0 0 0 721 911967 -7144 0
0 0 0 729 912696 -6415 0
0 0 0 726 913422 -5689 0
0 0 0 713 914135 -4976 0
0 0 0 693 914828 -4283 0
0 0 0 691 915519 -3592 0
0 0 0 695 916214 -2897 0
0 0 0 704 916918 -2193 0
44 1 S102 706 917624 -1487 0
44 1 S102 707 918331 -780 0
44 1 S102 716 919047 -64 0
44 2 S102 721 919768 657 0
44 2 S102 744 920512 1401 0
44 2 S102 731 921243 2132 0
44 2 S102 711 921954 2843 0
44 2 S102 712 922666 3555 0
44 2 S102 712 923378 4267 0
44 2 S102 723 924101 4990 0
44 2 S102 711 924812 5701 0
44 2 S102 700 925512 6401 0
0 0 0 719 926231 -8878 0
0 0 0 739 926970 -8139 0
0 0 0 760 927730 -7379 0
0 0 0 783 928513 -6596 0
0 0 0 741 929254 -5855 0
0 0 0 735 929989 -5120 0
0 0 0 720 930709 -4400 0
0 0 0 722 931431 -3678 0
0 0 0 724 932155 -2954 0
0 0 0 711 932866 -2243 0
45 1 S116 714 933580 -1529 0
45 1 S116 716 934296 -813 0
45 1 S116 725 935021 -88 0
45 2 S116 713 935734 625 0
45 2 S116 706 936440 1331 0
45 2 S116 713 937153 2044 0
45 2 S116 729 937882 2773 0
45 2 S116 739 938621 3512 0
45 2 S116 724 939345 4236 0
45 2 S116 733 940078 4969 0
45 2 S116 740 940818 5709 0
45 2 S116 748 941566 6457 0
0 0 0 733 942299 -12539 0
0 0 0 702 943001 -11837 0
0 0 0 689 943690 -11148 0
0 0 0 686 944376 -10462 0
0 0 0 690 945066 -9772 0
0 0 0 690 945756 -9082 0
0 0 0 693 946449 -8389 0
0 0 0 700 947149 -7689 0
0 0 0 702 947851 -6987 0
0 0 0 702 948553 -6285 0
0 0 0 683 949236 -5602 0
0 0 0 683 949919 -4919 0
0 0 0 693 950612 -4226 0
0 0 0 706 951318 -3520 0
0 0 0 699 952017 -2821 0
0 0 0 677 952694 -2144 0
46 1 S102 664 953358 -1480 0
46 1 S102 649 954007 -831 0
46 1 S102 635 954642 -196 0
46 2 S102 620 955262 424 0
46 2 S102 618 955880 1042 0
46 2 S102 636 956516 1678 0
46 2 S102 651 957167 2329 0
46 2 S102 666 957833 2995 0
46 2 S102 682 958515 3677 0
46 2 S102 711 959226 4388 0
46 2 S102 735 959961 5123 0
46 2 S102 734 960695 5857 0
46 2 S102 717 961412 6574 0
0 0 0 696 962108 -7965 0
0 0 0 686 962794 -7279 0
0 0 0 680 963474 -6599 0
0 0 0 669 964143 -5930 0
0 0 0 661 964804 -5269 0
0 0 0 666 965470 -4603 0
0 0 0 692 966162 -3911 0
0 0 0 744 966906 -3167 0
0 0 0 785 967691 -2382 0
47 1 S112 822 968513 -1560 0
47 1 S112 828 969341 -732 0
47 2 S112 864 970205 132 1
47 2 S112 858 971063 990 1
47 2 S112 841 971904 1831 1
47 2 S112 818 972722 2649 0
47 2 S112 766 973488 3415 0
47 2 S112 762 974250 4177 0
47 2 S112 781 975031 4958 0
47 2 S112 780 975811 5738 0
47 2 S112 780 976591 6518 0
0 0 0 744 977335 -12582 0
0 0 0 763 978098 -11819 0
0 0 0 770 978868 -11049 0
0 0 0 775 979643 -10274 0
0 0 0 771 980414 -9503 0
0 0 0 749 981163 -8754 0
0 0 0 737 981900 -8017 0
0 0 0 732 982632 -7285 0
0 0 0 721 983353 -6564 0
0 0 0 703 984056 -5861 0
0 0 0 700 984756 -5161 0
0 0 0 696 985452 -4465 0
0 0 0 702 986154 -3763 0
0 0 0 705 986859 -3058 0
0 0 0 700 987559 -2358 0
48 1 S116 693 988252 -1665 0
48 1 S116 698 988950 -967 0
48 1 S116 714 989664 -253 0
48 2 S116 729 990393 476 0
48 2 S116 717 991110 1193 0
48 2 S116 698 991808 1891 0
48 2 S116 687 992495 2578 0
48 2 S116 680 993175 3258 0
48 2 S116 681 993856 3939 0
48 2 S116 692 994548 4631 0
48 2 S116 691 995239 5322 0
48 2 S116 698 995937 6020 0
48 2 S116 727 996664 6747 0
0 0 0 759 997423 -8360 0
0 0 0 749 998172 -7611 0
0 0 0 749 998921 -6862 0
0 0 0 729 999650 -6133 0
0 0 0 730 1000380 -5403 0
0 0 0 742 1001122 -4661 0
0 0 0 738 1001860 -3923 0
0 0 0 710 1002570 -3213 0
0 0 0 688 1003258 -2525 0
49 1 S112 691 1003949 -1834 0
49 1 S112 683 1004632 -1151 0
49 1 S112 684 1005316 -467 0
49 2 S112 675 1005991 208 0
49 2 S112 670 1006661 878 0
49 2 S112 677 1007338 1555 0
49 2 S112 683 1008021 2238 0
49 2 S112 675 1008696 2913 0
49 2 S112 659 1009355 3572 0
49 2 S112 654 1010009 4226 0
49 2 S112 666 1010675 4892 0
49 2 S112 668 1011343 5560 0
49 2 S112 681 1012024 6241 0
49 2 S112 684 1012708 6925 0
0 0 0 678 1013386 -10666 0
0 0 0 701 1014087 -9965 0
0 0 0 704 1014791 -9261 0
0 0 0 717 1015508 -8544 0
0 0 0 708 1016216 -7836 0
0 0 0 704 1016920 -7132 0
0 0 0 715 1017635 -6417 0
0 0 0 742 1018377 -5675 0
0 0 0 758 1019135 -4917 0
0 0 0 745 1019880 -4172 0
0 0 0 743 1020623 -3429 0
0 0 0 763 1021386 -2666 0
50 1 S106 755 1022141 -1911 0
50 1 S106 749 1022890 -1162 0
50 1 S106 719 1023609 -443 0
50 2 S106 701 1024310 258 0
50 2 S106 710 1025020 968 0
50 2 S106 737 1025757 1705 0
50 2 S106 759 1026516 2464 0
50 2 S106 755 1027271 3219 0
50 2 S106 747 1028018 3966 0
50 2 S106 753 1028771 4719 0
50 2 S106 779 1029550 5498 0
50 2 S106 780 1030330 6278 0
0 0 0 758 1031088 -7023 0
0 0 0 735 1031823 -6288 0
0 0 0 730 1032553 -5558 0
0 0 0 722 1033275 -4836 0
0 0 0 698 1033973 -4138 0
0 0 0 690 1034663 -3448 0
0 0 0 696 1035359 -2752 0
0 0 0 719 1036078 -2033 0
51 1 S112 755 1036833 -1278 0
51 1 S112 777 1037610 -501 0
51 2 S112 773 1038383 272 0
51 2 S112 791 1039174 1063 0
51 2 S112 797 1039971 1860 0
51 2 S112 782 1040753 2642 0
51 2 S112 748 1041501 3390 0
51 2 S112 727 1042228 4117 0
51 2 S112 719 1042947 4836 0
51 2 S112 707 1043654 5543 0
51 2 S112 686 1044340 6229 0
51 2 S112 663 1045003 6892 0
0 0 0 661 1045664 -7251 0
0 0 0 663 1046327 -6588 0
0 0 0 668 1046995 -5920 0
0 0 0 687 1047682 -5233 0
0 0 0 710 1048392 -4523 0
0 0 0 708 1049100 -3815 0
0 0 0 698 1049798 -3117 0
0 0 0 684 1050482 -2433 0
52 1 S116 663 1051145 -1770 0
52 1 S116 662 1051807 -1108 0
52 1 S116 664 1052471 -444 0
52 2 S116 673 1053144 229 0
52 2 S116 688 1053832 917 0
52 2 S116 716 1054548 1633 0
52 2 S116 719 1055267 2352 0
52 2 S116 739 1056006 3091 0
52 2 S116 710 1056716 3801 0
52 2 S116 693 1057409 4494 0
52 2 S116 686 1058095 5180 0
52 2 S116 684 1058779 5864 0
52 2 S116 704 1059483 6568 0
0 0 0 732 1060215 -8914 0
0 0 0 763 1060978 -8151 0
0 0 0 746 1061724 -7405 0
0 0 0 733 1062457 -6672 0
0 0 0 743 1063200 -5929 0
0 0 0 741 1063941 -5188 0
0 0 0 723 1064664 -4465 0
0 0 0 696 1065360 -3769 0
0 0 0 698 1066058 -3071 0
0 0 0 697 1066755 -2374 0
53 1 S106 704 1067459 -1670 0
53 1 S106 726 1068185 -944 0
53 1 S106 724 1068909 -220 0
53 2 S106 733 1069642 513 0
53 2 S106 745 1070387 1258 0
53 2 S106 753 1071140 2011 0
53 2 S106 765 1071905 2776 0
53 2 S106 736 1072641 3512 0
53 2 S106 733 1073374 4245 0
53 2 S106 722 1074096 4967 0
53 2 S106 721 1074817 5688 0
53 2 S106 725 1075542 6413 0
0 0 0 714 1076256 -6103 0
0 0 0 714 1076970 -5389 0
0 0 0 711 1077681 -4678 0
0 0 0 694 1078375 -3984 0
0 0 0 706 1079081 -3278 0
0 0 0 702 1079783 -2576 0
54 1 S102 721 1080504 -1855 0
54 1 S102 749 1081253 -1106 0
54 1 S102 795 1082048 -311 0
54 2 S102 804 1082852 493 0
54 2 S102 755 1083607 1248 0
54 2 S102 734 1084341 1982 0
54 2 S102 723 1085064 2705 0
54 2 S102 718 1085782 3423 0
54 2 S102 717 1086499 4140 0
54 2 S102 709 1087208 4849 0
54 2 S102 696 1087904 5545 0
54 2 S102 712 1088616 6257 0
54 2 S102 723 1089339 6980 0
0 0 0 763 1090102 -9664 0
0 0 0 761 1090863 -8903 0
0 0 0 735 1091598 -8168 0
0 0 0 701 1092299 -7467 0
0 0 0 695 1092994 -6772 0
0 0 0 697 1093691 -6075 0
0 0 0 698 1094389 -5377 0
0 0 0 706 1095095 -4671 0
0 0 0 698 1095793 -3973 0
0 0 0 691 1096484 -3282 0
0 0 0 703 1097187 -2579 0
55 1 S106 716 1097903 -1863 0
55 1 S106 710 1098613 -1153 0
55 1 S106 692 1099305 -461 0
55 2 S106 682 1099987 221 0
55 2 S106 685 1100672 906 0
55 2 S106 679 1101351 1585 0
55 2 S106 678 1102029 2263 0
55 2 S106 668 1102697 2931 0
55 2 S106 661 1103358 3592 0
55 2 S106 681 1104039 4273 0
55 2 S106 701 1104740 4974 0
55 2 S106 724 1105464 5698 0
55 2 S106 740 1106204 6438 0
0 0 0 764 1106968 -5945 0
0 0 0 777 1107745 -5168 0
0 0 0 741 1108486 -4427 0
0 0 0 707 1109193 -3720 0
0 0 0 679 1109872 -3041 0
0 0 0 674 1110546 -2367 0
56 1 S116 675 1111221 -1692 0
56 1 S116 707 1111928 -985 0
56 1 S116 732 1112660 -253 0
56 2 S116 809 1113469 556 0
56 2 S116 805 1114274 1361 0
56 2 S116 822 1115096 2183 0
56 2 S116 835 1115931 3018 1
56 2 S116 829 1116760 3847 0
56 2 S116 808 1117568 4655 0
56 2 S116 777 1118345 5432 0
56 2 S116 777 1119122 6209 0
56 2 S116 750 1119872 6959 0
0 0 0 732 1120604 -7561 0
0 0 0 693 1121297 -6868 0
0 0 0 675 1121972 -6193 0
0 0 0 671 1122643 -5522 0
0 0 0 667 1123310 -4855 0
0 0 0 675 1123985 -4180 0
0 0 0 679 1124664 -3501 0
0 0 0 682 1125346 -2819 0
0 0 0 688 1126034 -2131 0
57 1 S106 688 1126722 -1443 0
57 1 S106 708 1127430 -735 0
57 1 S106 709 1128139 -26 0
57 2 S106 702 1128841 676 0
57 2 S106 706 1129547 1382 0
57 2 S106 707 1130254 2089 0
57 2 S106 704 1130958 2793 0
57 2 S106 693 1131651 3486 0
57 2 S106 674 1132325 4160 0
57 2 S106 666 1132991 4826 0
57 2 S106 660 1133651 5486 0
57 2 S106 662 1134313 6148 0
57 2 S106 664 1134977 6812 0
0 0 0 669 1135646 -7605 0
0 0 0 660 1136306 -6945 0
0 0 0 660 1136966 -6285 0
0 0 0 654 1137620 -5631 0
0 0 0 657 1138277 -4974 0
0 0 0 681 1138958 -4293 0
0 0 0 725 1139683 -3568 0
0 0 0 746 1140429 -2822 0
0 0 0 767 1141196 -2055 0
58 1 S102 763 1141959 -1292 0
58 1 S102 730 1142689 -562 0
58 2 S102 707 1143396 145 0
58 2 S102 696 1144092 841 0
58 2 S102 682 1144774 1523 0
58 2 S102 674 1145448 2197 0
58 2 S102 669 1146117 2866 0
58 2 S102 679 1146796 3545 0
58 2 S102 701 1147497 4246 0
58 2 S102 749 1148246 4995 0
58 2 S102 815 1149061 5810 0
58 2 S102 858 1149919 6668 1
0 0 0 858 1150777 -6085 1
0 0 0 832 1151609 -5253 1
0 0 0 789 1152398 -4464 0
0 0 0 751 1153149 -3713 0
0 0 0 719 1153868 -2994 0
0 0 0 695 1154563 -2299 0
59 1 S112 688 1155251 -1611 0
59 1 S112 688 1155939 -923 0
59 1 S112 685 1156624 -238 0
59 2 S112 702 1157326 464 0
59 2 S112 703 1158029 1167 0
59 2 S112 694 1158723 1861 0
59 2 S112 714 1159437 2575 0
59 2 S112 753 1160190 3328 0
59 2 S112 778 1160968 4106 0
59 2 S112 774 1161742 4880 0
59 2 S112 765 1162507 5645 0
59 2 S112 762 1163269 6407 0
0 0 0 754 1164023 -10511 0
0 0 0 741 1164764 -9770 0
0 0 0 728 1165492 -9042 0
0 0 0 700 1166192 -8342 0
0 0 0 698 1166890 -7644 0
0 0 0 705 1167595 -6939 0
0 0 0 720 1168315 -6219 0
0 0 0 714 1169029 -5505 0
0 0 0 702 1169731 -4803 0
0 0 0 699 1170430 -4104 0
0 0 0 707 1171137 -3397 0
0 0 0 731 1171868 -2666 0
60 1 S102 729 1172597 -1937 0
60 1 S102 697 1173294 -1240 0
60 1 S102 691 1173985 -549 0
60 2 S102 682 1174667 133 0
60 2 S102 664 1175331 797 0
60 2 S102 658 1175989 1455 0
60 2 S102 655 1176644 2110 0
60 2 S102 650 1177294 2760 0
60 2 S102 651 1177945 3411 0
60 2 S102 653 1178598 4064 0
60 2 S102 657 1179255 4721 0
60 2 S102 670 1179925 5391 0
60 2 S102 661 1180586 6052 0
60 2 S102 655 1181241 6707 0
0 0 0 665 1181906 -10401 0
0 0 0 676 1182582 -9725 0
0 0 0 707 1183289 -9018 0
0 0 0 711 1184000 -8307 0
0 0 0 698 1184698 -7609 0
0 0 0 690 1185388 -6919 0
0 0 0 702 1186090 -6217 0
0 0 0 715 1186805 -5502 0
0 0 0 734 1187539 -4768 0
0 0 0 713 1188252 -4055 0
0 0 0 702 1188954 -3353 0
0 0 0 706 1189660 -2647 0
61 1 S106 709 1190369 -1938 0
61 1 S106 726 1191095 -1212 0
61 1 S106 745 1191840 -467 0
61 2 S106 755 1192595 288 0
61 2 S106 779 1193374 1067 0
61 2 S106 796 1194170 1863 0
61 2 S106 815 1194985 2678 0
61 2 S106 825 1195810 3503 0
61 2 S106 774 1196584 4277 0
61 2 S106 740 1197324 5017 0
61 2 S106 730 1198054 5747 0
61 2 S106 738 1198792 6485 0
0 0 0 739 1199531 -8641 0
0 0 0 736 1200267 -7905 0
0 0 0 712 1200979 -7193 0
0 0 0 724 1201703 -6469 0
0 0 0 749 1202452 -5720 0
0 0 0 798 1203250 -4922 0
0 0 0 795 1204045 -4127 0
0 0 0 769 1204814 -3358 0
0 0 0 754 1205568 -2604 0
62 1 S112 768 1206336 -1836 0
62 1 S112 757 1207093 -1079 0
62 1 S112 733 1207826 -346 0
62 2 S112 718 1208544 372 0
62 2 S112 713 1209257 1085 0
62 2 S112 714 1209971 1799 0
62 2 S112 721 1210692 2520 0
62 2 S112 714 1211406 3234 0
62 2 S112 719 1212125 3953 0
62 2 S112 735 1212860 4688 0
62 2 S112 745 1213605 5433 0
62 2 S112 764 1214369 6197 0
62 2 S112 757 1215126 6954 0
0 0 0 762 1215888 -11233 0
0 0 0 777 1216665 -10456 0
0 0 0 783 1217448 -9673 0
0 0 0 758 1218206 -8915 0
0 0 0 721 1218927 -8194 0
0 0 0 693 1219620 -7501 0
0 0 0 675 1220295 -6826 0
0 0 0 670 1220965 -6156 0
0 0 0 667 1221632 -5489 0
0 0 0 694 1222326 -4795 0
0 0 0 706 1223032 -4089 0
0 0 0 708 1223740 -3381 0
0 0 0 702 1224442 -2679 0
63 1 S102 695 1225137 -1984 0
63 1 S102 692 1225829 -1292 0
63 1 S102 674 1226503 -618 0
63 2 S102 670 1227173 52 0
63 2 S102 662 1227835 714 0
63 2 S102 677 1228512 1391 0
63 2 S102 675 1229187 2066 0
63 2 S102 687 1229874 2753 0
63 2 S102 699 1230573 3452 0
63 2 S102 716 1231289 4168 0
63 2 S102 733 1232022 4901 0
63 2 S102 725 1232747 5626 0
63 2 S102 722 1233469 6348 0
0 0 0 708 1234177 -9605 0
0 0 0 713 1234890 -8892 0
0 0 0 698 1235588 -8194 0
0 0 0 690 1236278 -7504 0
0 0 0 676 1236954 -6828 0
0 0 0 670 1237624 -6158 0
0 0 0 673 1238297 -5485 0
0 0 0 692 1238989 -4793 0
0 0 0 706 1239695 -4087 0
0 0 0 706 1240401 -3381 0
0 0 0 699 1241100 -2682 0
64 1 S112 713 1241813 -1969 0
64 1 S112 716 1242529 -1253 0
64 1 S112 729 1243258 -524 0
64 2 S112 731 1243989 207 0
64 2 S112 712 1244701 919 0
64 2 S112 711 1245412 1630 0
64 2 S112 703 1246115 2333 0
64 2 S112 696 1246811 3029 0
64 2 S112 694 1247505 3723 0
64 2 S112 698 1248203 4421 0
64 2 S112 704 1248907 5125 0
64 2 S112 693 1249600 5818 0
64 2 S112 669 1250269 6487 0
0 0 0 671 1250940 -7481 0
0 0 0 678 1251618 -6803 0
0 0 0 698 1252316 -6105 0
0 0 0 749 1253065 -5356 0
0 0 0 784 1253849 -4572 0
0 0 0 761 1254610 -3811 0
0 0 0 774 1255384 -3037 0
0 0 0 811 1256195 -2226 0
65 1 S106 824 1257019 -1402 0
65 1 S106 820 1257839 -582 0
65 2 S106 813 1258652 231 0
65 2 S106 828 1259480 1059 0
65 2 S106 814 1260294 1873 0
65 2 S106 791 1261085 2664 0
65 2 S106 759 1261844 3423 0
65 2 S106 731 1262575 4154 0
65 2 S106 731 1263306 4885 0
65 2 S106 738 1264044 5623 0
65 2 S106 761 1264805 6384 0
0 0 0 765 1265570 -7888 0
0 0 0 734 1266304 -7154 0
0 0 0 730 1267034 -6424 0
0 0 0 738 1267772 -5686 0
0 0 0 748 1268520 -4938 0
0 0 0 739 1269259 -4199 0
0 0 0 728 1269987 -3471 0
0 0 0 735 1270722 -2736 0
66 1 S116 739 1271461 -1997 0
66 1 S116 752 1272213 -1245 0
66 1 S116 739 1272952 -506 0
66 2 S116 732 1273684 226 0
66 2 S116 735 1274419 961 0
66 2 S116 736 1275155 1697 0
66 2 S116 740 1275895 2437 0
66 2 S116 716 1276611 3153 0
66 2 S116 703 1277314 3856 0
66 2 S116 701 1278015 4557 0
66 2 S116 704 1278719 5261 0
66 2 S116 698 1279417 5959 0
66 2 S116 684 1280101 6643 0
0 0 0 666 1280767 -10695 0
0 0 0 666 1281433 -10029 0
0 0 0 670 1282103 -9359 0
0 0 0 669 1282772 -8690 0
0 0 0 660 1283432 -8030 0
0 0 0 646 1284078 -7384 0
0 0 0 638 1284716 -6746 0
0 0 0 638 1285354 -6108 0
0 0 0 624 1285978 -5484 0
0 0 0 622 1286600 -4862 0
0 0 0 627 1287227 -4235 0
0 0 0 641 1287868 -3594 0
0 0 0 649 1288517 -2945 0
0 0 0 658 1289175 -2287 0
67 1 S102 667 1289842 -1620 0
67 1 S102 673 1290515 -947 0
67 1 S102 687 1291202 -260 0
67 2 S102 688 1291890 428 0
67 2 S102 675 1292565 1103 0
67 2 S102 670 1293235 1773 0
67 2 S102 669 1293904 2442 0
67 2 S102 667 1294571 3109 0
67 2 S102 679 1295250 3788 0
67 2 S102 683 1295933 4471 0
67 2 S102 700 1296633 5171 0
67 2 S102 719 1297352 5890 0
67 2 S102 762 1298114 6652 0
0 0 0 797 1298911 -6825 0
0 0 0 804 1299715 -6021 0
0 0 0 803 1300518 -5218 0
0 0 0 787 1301305 -4431 0
0 0 0 762 1302067 -3669 0
0 0 0 758 1302825 -2911 0
0 0 0 717 1303542 -2194 0
68 1 S106 699 1304241 -1495 0
68 1 S106 696 1304937 -799 0
68 1 S106 698 1305635 -101 0
68 2 S106 705 1306340 604 0
68 2 S106 704 1307044 1308 0
68 2 S106 715 1307759 2023 0
68 2 S106 733 1308492 2756 0
68 2 S106 791 1309283 3547 0
68 2 S106 822 1310105 4369 0
68 2 S106 794 1310899 5163 0
68 2 S106 772 1311671 5935 0
68 2 S106 766 1312437 6701 0
0 0 0 754 1313191 -10665 0
0 0 0 739 1313930 -9926 0
0 0 0 716 1314646 -9210 0
0 0 0 701 1315347 -8509 0
0 0 0 700 1316047 -7809 0
0 0 0 690 1316737 -7119 0
0 0 0 701 1317438 -6418 0
0 0 0 693 1318131 -5725 0
0 0 0 699 1318830 -5026 0
0 0 0 712 1319542 -4314 0
0 0 0 735 1320277 -3579 0
0 0 0 767 1321044 -2812 0
0 0 0 763 1321807 -2049 0
69 1 S102 744 1322551 -1305 0
69 1 S102 738 1323289 -567 0
69 2 S102 742 1324031 175 0
69 2 S102 720 1324751 895 0
69 2 S102 702 1325453 1597 0
69 2 S102 711 1326164 2308 0
69 2 S102 717 1326881 3025 0
69 2 S102 726 1327607 3751 0
69 2 S102 727 1328334 4478 0
69 2 S102 727 1329061 5205 0
69 2 S102 763 1329824 5968 0
69 2 S102 782 1330606 6750 0
0 0 0 829 1331435 -8154 0
0 0 0 822 1332257 -7332 0
0 0 0 745 1333002 -6587 0
0 0 0 713 1333715 -5874 0
0 0 0 698 1334413 -5176 0
0 0 0 704 1335117 -4472 0
0 0 0 710 1335827 -3762 0
0 0 0 711 1336538 -3051 0
0 0 0 720 1337258 -2331 0
70 1 S112 760 1338018 -1571 0
70 1 S112 804 1338822 -767 0
70 2 S112 806 1339628 39 0
70 2 S112 782 1340410 821 0
70 2 S112 782 1341192 1603 0
70 2 S112 789 1341981 2392 0
70 2 S112 764 1342745 3156 0
70 2 S112 733 1343478 3889 0
70 2 S112 716 1344194 4605 0
70 2 S112 709 1344903 5314 0
70 2 S112 707 1345610 6021 0
70 2 S112 704 1346314 6725 0
0 0 0 677 1346991 -12277 0
0 0 0 675 1347666 -11602 0
0 0 0 690 1348356 -10912 0
0 0 0 705 1349061 -10207 0
0 0 0 722 1349783 -9485 0
0 0 0 721 1350504 -8764 0
0 0 0 714 1351218 -8050 0
0 0 0 721 1351939 -7329 0
0 0 0 736 1352675 -6593 0
0 0 0 719 1353394 -5874 0
0 0 0 712 1354106 -5162 0
0 0 0 710 1354816 -4452 0
0 0 0 714 1355530 -3738 0
0 0 0 721 1356251 -3017 0
0 0 0 710 1356961 -2307 0
71 1 S116 721 1357682 -1586 0
71 1 S116 739 1358421 -847 0
71 1 S116 760 1359181 -87 0
71 2 S116 786 1359967 699 0
71 2 S116 768 1360735 1467 0
71 2 S116 773 1361508 2240 0
71 2 S116 776 1362284 3016 0
71 2 S116 798 1363082 3814 0
71 2 S116 786 1363868 4600 0
71 2 S116 758 1364626 5358 0
71 2 S116 752 1365378 6110 0
71 2 S116 754 1366132 6864 0
0 0 0 749 1366881 -10523 0
0 0 0 725 1367606 -9798 0
0 0 0 703 1368309 -9095 0
0 0 0 703 1369012 -8392 0
0 0 0 698 1369710 -7694 0
0 0 0 714 1370424 -6980 0
0 0 0 712 1371136 -6268 0
0 0 0 723 1371859 -5545 0
0 0 0 755 1372614 -4790 0
0 0 0 773 1373387 -4017 0
0 0 0 794 1374181 -3223 0
0 0 0 783 1374964 -2440 0
72 1 S102 783 1375747 -1657 0
72 1 S102 770 1376517 -887 0
72 1 S102 765 1377282 -122 0
72 2 S102 726 1378008 604 0
72 2 S102 711 1378719 1315 0
72 2 S102 717 1379436 2032 0
72 2 S102 709 1380145 2741 0
72 2 S102 706 1380851 3447 0
72 2 S102 682 1381533 4129 0
72 2 S102 670 1382203 4799 0
72 2 S102 690 1382893 5489 0
72 2 S102 753 1383646 6242 0
0 0 0 818 1384464 -7065 0
0 0 0 882 1385346 -6183 1
0 0 0 891 1386237 -5292 1
0 0 0 863 1387100 -4429 1
0 0 0 794 1387894 -3635 0
0 0 0 747 1388641 -2888 0
0 0 0 737 1389378 -2151 0
73 1 S116 725 1390103 -1426 0
73 1 S116 720 1390823 -706 0
73 1 S116 693 1391516 -13 0
73 2 S116 688 1392204 675 0
73 2 S116 712 1392916 1387 0
73 2 S116 741 1393657 2128 0
73 2 S116 740 1394397 2868 0
73 2 S116 727 1395124 3595 0
73 2 S116 732 1395856 4327 0
73 2 S116 745 1396601 5072 0
73 2 S116 774 1397375 5846 0
73 2 S116 766 1398141 6612 0
0 0 0 744 1398885 -9770 0
0 0 0 759 1399644 -9011 0
0 0 0 724 1400368 -8287 0
0 0 0 707 1401075 -7580 0
0 0 0 685 1401760 -6895 0
0 0 0 676 1402436 -6219 0
0 0 0 678 1403114 -5541 0
0 0 0 690 1403804 -4851 0
0 0 0 704 1404508 -4147 0
0 0 0 710 1405218 -3437 0
0 0 0 716 1405934 -2721 0
74 1 S106 735 1406669 -1986 0
74 1 S106 769 1407438 -1217 0
74 1 S106 813 1408251 -404 0
74 2 S106 788 1409039 384 0
74 2 S106 772 1409811 1156 0
74 2 S106 755 1410566 1911 0
74 2 S106 731 1411297 2642 0
74 2 S106 720 1412017 3362 0
74 2 S106 702 1412719 4064 0
74 2 S106 689 1413408 4753 0
74 2 S106 694 1414102 5447 0
74 2 S106 717 1414819 6164 0
74 2 S106 759 1415578 6923 0
0 0 0 797 1416375 -7847 0
0 0 0 791 1417166 -7056 0
0 0 0 789 1417955 -6267 0
0 0 0 790 1418745 -5477 0
0 0 0 766 1419511 -4711 0
0 0 0 731 1420242 -3980 0
0 0 0 727 1420969 -3253 0
0 0 0 732 1421701 -2521 0
75 1 S112 739 1422440 -1782 0
75 1 S112 726 1423166 -1056 0
75 1 S112 720 1423886 -336 0
75 2 S112 720 1424606 384 0
75 2 S112 719 1425325 1103 0
75 2 S112 718 1426043 1821 0
75 2 S112 706 1426749 2527 0
75 2 S112 695 1427444 3222 0
75 2 S112 700 1428144 3922 0
75 2 S112 718 1428862 4640 0
75 2 S112 739 1429601 5379 0
75 2 S112 732 1430333 6111 0
75 2 S112 725 1431058 6836 0
0 0 0 736 1431794 -6834 0
0 0 0 736 1432530 -6098 0
0 0 0 712 1433242 -5386 0
0 0 0 688 1433930 -4698 0
0 0 0 670 1434600 -4028 0
0 0 0 657 1435257 -3371 0
0 0 0 649 1435906 -2722 0
0 0 0 636 1436542 -2086 0
76 1 S116 625 1437167 -1461 0
76 1 S116 642 1437809 -819 0
76 1 S116 696 1438505 -123 0
76 2 S116 718 1439223 595 0
76 2 S116 726 1439949 1321 0
76 2 S116 741 1440690 2062 0
76 2 S116 748 1441438 2810 0
76 2 S116 739 1442177 3549 0
76 2 S116 711 1442888 4260 0
76 2 S116 706 1443594 4966 0
76 2 S116 705 1444299 5671 0
76 2 S116 715 1445014 6386 0
0 0 0 729 1445743 -8784 0
0 0 0 738 1446481 -8046 0
0 0 0 755 1447236 -7291 0
0 0 0 755 1447991 -6536 0
0 0 0 763 1448754 -5773 0
0 0 0 760 1449514 -5013 0
0 0 0 723 1450237 -4290 0
0 0 0 726 1450963 -3564 0
0 0 0 726 1451689 -2838 0
0 0 0 726 1452415 -2112 0
77 1 S106 723 1453138 -1389 0
77 1 S106 701 1453839 -688 0
77 2 S106 694 1454533 6 0
77 2 S106 697 1455230 703 0
77 2 S106 712 1455942 1415 0
77 2 S106 721 1456663 2136 0
77 2 S106 730 1457393 2866 0
77 2 S106 704 1458097 3570 0
77 2 S106 706 1458803 4276 0
77 2 S106 719 1459522 4995 0
77 2 S106 734 1460256 5729 0
77 2 S106 748 1461004 6477 0
0 0 0 771 1461775 -10358 0
0 0 0 755 1462530 -9603 0
0 0 0 733 1463263 -8870 0
0 0 0 725 1463988 -8145 0
0 0 0 706 1464694 -7439 0
0 0 0 688 1465382 -6751 0
0 0 0 686 1466068 -6065 0
0 0 0 691 1466759 -5374 0
0 0 0 706 1467465 -4668 0
0 0 0 720 1468185 -3948 0
0 0 0 721 1468906 -3227 0
0 0 0 755 1469661 -2472 0
78 1 S112 756 1470417 -1716 0
78 1 S112 764 1471181 -952 0
78 1 S112 754 1471935 -198 0
78 2 S112 758 1472693 560 0
78 2 S112 793 1473486 1353 0
78 2 S112 767 1474253 2120 0
78 2 S112 749 1475002 2869 0
78 2 S112 709 1475711 3578 0
78 2 S112 689 1476400 4267 0
78 2 S112 694 1477094 4961 0
78 2 S112 703 1477797 5664 0
78 2 S112 733 1478530 6397 0
0 0 0 738 1479268 -13157 0
0 0 0 743 1480011 -12414 0
0 0 0 776 1480787 -11638 0
0 0 0 792 1481579 -10846 0
0 0 0 787 1482366 -10059 0
0 0 0 757 1483123 -9302 0
0 0 0 748 1483871 -8554 0
0 0 0 730 1484601 -7824 0
0 0 0 706 1485307 -7118 0
0 0 0 681 1485988 -6437 0
0 0 0 664 1486652 -5773 0
0 0 0 651 1487303 -5122 0
0 0 0 645 1487948 -4477 0
0 0 0 657 1488605 -3820 0
0 0 0 715 1489320 -3105 0
0 0 0 793 1490113 -2312 0
79 1 S102 813 1490926 -1499 0
79 1 S102 815 1491741 -684 0
79 2 S102 795 1492536 111 0
79 2 S102 764 1493300 875 0
79 2 S102 726 1494026 1601 0
79 2 S102 704 1494730 2305 0
79 2 S102 690 1495420 2995 0
79 2 S102 693 1496113 3688 0
79 2 S102 720 1496833 4408 0
79 2 S102 736 1497569 5144 0
79 2 S102 727 1498296 5871 0
79 2 S102 731 1499027 6602 0
0 0 0 742 1499769 -7908 0
0 0 0 743 1500512 -7165 0
0 0 0 732 1501244 -6433 0
0 0 0 700 1501944 -5733 0
0 0 0 703 1502647 -5030 0
0 0 0 715 1503362 -4315 0
0 0 0 741 1504103 -3574 0
0 0 0 767 1504870 -2807 0
0 0 0 766 1505636 -2041 0
80 1 S116 751 1506387 -1290 0
80 1 S116 732 1507119 -558 0
80 2 S116 740 1507859 182 0
80 2 S116 744 1508603 926 0
80 2 S116 721 1509324 1647 0
80 2 S116 722 1510046 2369 0
80 2 S116 730 1510776 3099 0
80 2 S116 731 1511507 3830 0
80 2 S116 749 1512256 4579 0
80 2 S116 771 1513027 5350 0
80 2 S116 781 1513808 6131 0
80 2 S116 792 1514600 6923 0
