T_0159
BeatCount Mean SD BeatCountNoOutliers MeanNoOutliers SDNoOutliers
2447 668,545565999183 130,870084490188 2427 659,909353110836 39,3882624751259

Trial TrialStatus Trialtype IBI AbsPosition RelPosition Outlier
0 0 0 630 865 -14800 0
0 0 0 622 1487 -14178 0
0 0 0 609 2096 -13569 0
0 0 0 596 2692 -12973 0
0 0 0 596 3288 -12377 0
0 0 0 602 3890 -11775 0
0 0 0 610 4500 -11165 0
0 0 0 620 5120 -10545 0
0 0 0 652 5772 -9893 0
0 0 0 655 6427 -9238 0
0 0 0 652 7079 -8586 0
0 0 0 646 7725 -7940 0
0 0 0 653 8378 -7287 0
0 0 0 630 9008 -6657 0
0 0 0 623 9631 -6034 0
0 0 0 624 10255 -5410 0
0 0 0 644 10899 -4766 0
0 0 0 659 11558 -4107 0
0 0 0 660 12218 -3447 0
0 0 0 652 12870 -2795 0
0 0 0 644 13514 -2151 0
1 1 S112 619 14133 -1532 0
1 1 S112 628 14761 -904 0
1 1 S112 634 15395 -270 0
1 2 S112 659 16054 389 0
1 2 S112 670 16724 1059 0
1 2 S112 668 17392 1727 0
1 2 S112 655 18047 2382 0
1 2 S112 651 18698 3033 0
1 2 S112 801 19499 3834 0
1 2 S112 500 19999 4334 0
1 2 S112 696 20695 5030 0
1 2 S112 682 21377 5712 0
1 2 S112 653 22030 6365 0
1 2 S112 649 22679 7014 0
0 0 0 677 23356 -11407 0
0 0 0 690 24046 -10717 0
0 0 0 680 24726 -10037 0
0 0 0 673 25399 -9364 0
0 0 0 661 26060 -8703 0
0 0 0 655 26715 -8048 0
0 0 0 662 27377 -7386 0
0 0 0 663 28040 -6723 0
0 0 0 653 28693 -6070 0
0 0 0 659 29352 -5411 0
0 0 0 679 30031 -4732 0
0 0 0 709 30740 -4023 0
0 0 0 730 31470 -3293 0
0 0 0 708 32178 -2585 0
2 1 S102 707 32885 -1878 0
2 1 S102 688 33573 -1190 0
2 1 S102 724 34297 -466 0
2 2 S102 716 35013 250 0
2 2 S102 694 35707 944 0
2 2 S102 662 36369 1606 0
2 2 S102 661 37030 2267 0
2 2 S102 656 37686 2923 0
2 2 S102 670 38356 3593 0
2 2 S102 678 39034 4271 0
2 2 S102 677 39711 4948 0
2 2 S102 680 40391 5628 0
2 2 S102 726 41117 6354 0
0 0 0 724 41841 -10611 0
0 0 0 731 42572 -9880 0
0 0 0 687 43259 -9193 0
0 0 0 683 43942 -8510 0
0 0 0 671 44613 -7839 0
0 0 0 685 45298 -7154 0
0 0 0 672 45970 -6482 0
0 0 0 665 46635 -5817 0
0 0 0 651 47286 -5166 0
0 0 0 647 47933 -4519 0
0 0 0 660 48593 -3859 0
0 0 0 669 49262 -3190 0
0 0 0 705 49967 -2485 0
3 1 S116 708 50675 -1777 0
3 1 S116 699 51374 -1078 0
3 1 S116 700 52074 -378 0
3 2 S116 704 52778 326 0
3 2 S116 715 53493 1041 0
3 2 S116 696 54189 1737 0
3 2 S116 669 54858 2406 0
3 2 S116 641 55499 3047 0
3 2 S116 654 56153 3701 0
3 2 S116 647 56800 4348 0
3 2 S116 656 57456 5004 0
3 2 S116 673 58129 5677 0
3 2 S116 663 58792 6340 0
3 2 S116 663 59455 7003 0
0 0 0 672 60127 -11788 0
0 0 0 675 60802 -11113 0
0 0 0 666 61468 -10447 0
0 0 0 634 62102 -9813 0
0 0 0 638 62740 -9175 0
0 0 0 645 63385 -8530 0
0 0 0 621 64006 -7909 0
0 0 0 613 64619 -7296 0
0 0 0 594 65213 -6702 0
0 0 0 581 65794 -6121 0
0 0 0 589 66383 -5532 0
0 0 0 619 67002 -4913 0
0 0 0 663 67665 -4250 0
0 0 0 707 68372 -3543 0
0 0 0 717 69089 -2826 0
0 0 0 689 69778 -2137 0
4 1 S106 696 70474 -1441 0
4 1 S106 701 71175 -740 0
4 1 S106 730 71905 -10 0
4 2 S106 726 72631 716 0
4 2 S106 720 73351 1436 0
4 2 S106 668 74019 2104 0
4 2 S106 658 74677 2762 0
4 2 S106 646 75323 3408 0
4 2 S106 654 75977 4062 0
4 2 S106 666 76643 4728 0
4 2 S106 655 77298 5383 0
4 2 S106 679 77977 6062 0
4 2 S106 683 78660 6745 0
0 0 0 709 79369 -6920 0
0 0 0 744 80113 -6176 0
0 0 0 698 80811 -5478 0
0 0 0 704 81515 -4774 0
0 0 0 686 82201 -4088 0
0 0 0 689 82890 -3399 0
0 0 0 675 83565 -2724 0
0 0 0 656 84221 -2068 0
5 1 S116 651 84872 -1417 0
5 1 S116 661 85533 -756 0
5 1 S116 691 86224 -65 0
5 2 S116 717 86941 652 0
5 2 S116 673 87614 1325 0
5 2 S116 671 88285 1996 0
5 2 S116 662 88947 2658 0
5 2 S116 654 89601 3312 0
5 2 S116 635 90236 3947 0
5 2 S116 625 90861 4572 0
5 2 S116 625 91486 5197 0
5 2 S116 609 92095 5806 0
5 2 S116 601 92696 6407 0
5 2 S116 579 93275 6986 0
0 0 0 575 93850 -9067 0
0 0 0 580 94430 -8487 0
0 0 0 583 95013 -7904 0
0 0 0 589 95602 -7315 0
0 0 0 588 96190 -6727 0
0 0 0 578 96768 -6149 0
0 0 0 585 97353 -5564 0
0 0 0 611 97964 -4953 0
0 0 0 631 98595 -4322 0
0 0 0 630 99225 -3692 0
0 0 0 612 99837 -3080 0
0 0 0 588 100425 -2492 0
6 1 S106 579 101004 -1913 0
6 1 S106 586 101590 -1327 0
6 1 S106 595 102185 -732 0
6 1 S106 628 102813 -104 0
6 2 S106 628 103441 524 0
6 2 S106 647 104088 1171 0
6 2 S106 693 104781 1864 0
6 2 S106 752 105533 2616 0
6 2 S106 786 106319 3402 0
6 2 S106 772 107091 4174 0
6 2 S106 717 107808 4891 0
6 2 S106 669 108477 5560 0
6 2 S106 663 109140 6223 0
6 2 S106 668 109808 6891 0
0 0 0 670 110478 -11222 0
0 0 0 674 111152 -10548 0
0 0 0 671 111823 -9877 0
0 0 0 677 112500 -9200 0
0 0 0 665 113165 -8535 0
0 0 0 647 113812 -7888 0
0 0 0 665 114477 -7223 0
0 0 0 676 115153 -6547 0
0 0 0 713 115866 -5834 0
0 0 0 739 116605 -5095 0
0 0 0 767 117372 -4328 0
0 0 0 715 118087 -3613 0
0 0 0 705 118792 -2908 0
0 0 0 715 119507 -2193 0
7 1 S102 716 120223 -1477 0
7 1 S102 721 120944 -756 0
7 1 S102 717 121661 -39 0
7 2 S102 698 122359 659 0
7 2 S102 668 123027 1327 0
7 2 S102 682 123709 2009 0
7 2 S102 684 124393 2693 0
7 2 S102 695 125088 3388 0
7 2 S102 693 125781 4081 0
7 2 S102 682 126463 4763 0
7 2 S102 671 127134 5434 0
7 2 S102 725 127859 6159 0
7 2 S102 722 128581 6881 0
0 0 0 734 129315 -10124 0
0 0 0 707 130022 -9417 0
0 0 0 670 130692 -8747 0
0 0 0 665 131357 -8082 0
0 0 0 672 132029 -7410 0
0 0 0 696 132725 -6714 0
0 0 0 679 133404 -6035 0
0 0 0 668 134072 -5367 0
0 0 0 640 134712 -4727 0
0 0 0 654 135366 -4073 0
0 0 0 695 136061 -3378 0
0 0 0 774 136835 -2604 0
8 1 S112 806 137641 -1798 0
8 1 S112 750 138391 -1048 0
8 1 S112 699 139090 -349 0
8 2 S112 699 139789 350 0
8 2 S112 710 140499 1060 0
8 2 S112 725 141224 1785 0
8 2 S112 706 141930 2491 0
8 2 S112 691 142621 3182 0
8 2 S112 660 143281 3842 0
8 2 S112 663 143944 4505 0
8 2 S112 663 144607 5168 0
8 2 S112 679 145286 5847 0
8 2 S112 698 145984 6545 0
0 0 0 674 146658 -8597 0
0 0 0 686 147344 -7911 0
0 0 0 681 148025 -7230 0
0 0 0 689 148714 -6541 0
0 0 0 666 149380 -5875 0
0 0 0 657 150037 -5218 0
0 0 0 652 150689 -4566 0
0 0 0 650 151339 -3916 0
0 0 0 644 151983 -3272 0
0 0 0 649 152632 -2623 0
9 1 S116 636 153268 -1987 0
9 1 S116 640 153908 -1347 0
9 1 S116 645 154553 -702 0
9 1 S116 654 155207 -48 0
9 2 S116 667 155874 619 0
9 2 S116 668 156542 1287 0
9 2 S116 676 157218 1963 0
9 2 S116 679 157897 2642 0
9 2 S116 702 158599 3344 0
9 2 S116 692 159291 4036 0
9 2 S116 704 159995 4740 0
9 2 S116 674 160669 5414 0
9 2 S116 649 161318 6063 0
9 2 S116 641 161959 6704 0
0 0 0 638 162597 -11607 0
0 0 0 648 163245 -10959 0
0 0 0 653 163898 -10306 0
0 0 0 675 164573 -9631 0
0 0 0 671 165244 -8960 0
0 0 0 641 165885 -8319 0
0 0 0 670 166555 -7649 0
0 0 0 692 167247 -6957 0
0 0 0 722 167969 -6235 0
0 0 0 762 168731 -5473 0
0 0 0 701 169432 -4772 0
0 0 0 678 170110 -4094 0
0 0 0 682 170792 -3412 0
0 0 0 705 171497 -2707 0
10 1 S102 722 172219 -1985 0
10 1 S102 710 172929 -1275 0
10 1 S102 678 173607 -597 0
10 2 S102 658 174265 61 0
10 2 S102 671 174936 732 0
10 2 S102 671 175607 1403 0
10 2 S102 677 176284 2080 0
10 2 S102 677 176961 2757 0
10 2 S102 668 177629 3425 0
10 2 S102 667 178296 4092 0
10 2 S102 682 178978 4774 0
10 2 S102 712 179690 5486 0
10 2 S102 757 180447 6243 0
10 2 S102 747 181194 6990 0
0 0 0 699 181893 -12421 0
0 0 0 657 182550 -11764 0
0 0 0 661 183211 -11103 0
0 0 0 656 183867 -10447 0
0 0 0 672 184539 -9775 0
0 0 0 680 185219 -9095 0
0 0 0 674 185893 -8421 0
0 0 0 658 186551 -7763 0
0 0 0 669 187220 -7094 0
0 0 0 693 187913 -6401 0
0 0 0 739 188652 -5662 0
0 0 0 750 189402 -4912 0
0 0 0 715 190117 -4197 0
0 0 0 698 190815 -3499 0
0 0 0 678 191493 -2821 0
0 0 0 674 192167 -2147 0
11 1 S112 674 192841 -1473 0
11 1 S112 657 193498 -816 0
11 1 S112 645 194143 -171 0
11 2 S112 652 194795 481 0
11 2 S112 673 195468 1154 0
11 2 S112 697 196165 1851 0
11 2 S112 703 196868 2554 0
11 2 S112 690 197558 3244 0
11 2 S112 675 198233 3919 0
11 2 S112 661 198894 4580 0
11 2 S112 683 199577 5263 0
11 2 S112 698 200275 5961 0
11 2 S112 728 201003 6689 0
0 0 0 717 201720 -8443 0
0 0 0 685 202405 -7758 0
0 0 0 675 203080 -7083 0
0 0 0 680 203760 -6403 0
0 0 0 690 204450 -5713 0
0 0 0 698 205148 -5015 0
0 0 0 674 205822 -4341 0
0 0 0 652 206474 -3689 0
0 0 0 652 207126 -3037 0
0 0 0 675 207801 -2362 0
12 1 S116 730 208531 -1632 0
12 1 S116 752 209283 -880 0
12 1 S116 709 209992 -171 0
12 2 S116 684 210676 513 0
12 2 S116 691 211367 1204 0
12 2 S116 701 212068 1905 0
12 2 S116 692 212760 2597 0
12 2 S116 656 213416 3253 0
12 2 S116 644 214060 3897 0
12 2 S116 654 214714 4551 0
12 2 S116 655 215369 5206 0
12 2 S116 639 216008 5845 0
12 2 S116 635 216643 6480 0
0 0 0 625 217268 -12275 0
0 0 0 618 217886 -11657 0
0 0 0 612 218498 -11045 0
0 0 0 599 219097 -10446 0
0 0 0 594 219691 -9852 0
0 0 0 594 220285 -9258 0
0 0 0 605 220890 -8653 0
0 0 0 604 221494 -8049 0
0 0 0 591 222085 -7458 0
0 0 0 579 222664 -6879 0
0 0 0 567 223231 -6312 0
0 0 0 561 223792 -5751 0
0 0 0 568 224360 -5183 0
0 0 0 595 224955 -4588 0
0 0 0 661 225616 -3927 0
0 0 0 712 226328 -3215 0
0 0 0 756 227084 -2459 0
13 1 S112 747 227831 -1712 0
13 1 S112 702 228533 -1010 0
13 1 S112 678 229211 -332 0
13 2 S112 691 229902 359 0
13 2 S112 693 230595 1052 0
13 2 S112 693 231288 1745 0
13 2 S112 682 231970 2427 0
13 2 S112 669 232639 3096 0
13 2 S112 649 233288 3745 0
13 2 S112 660 233948 4405 0
13 2 S112 691 234639 5096 0
13 2 S112 723 235362 5819 0
13 2 S112 736 236098 6555 0
0 0 0 727 236825 -12446 0
0 0 0 735 237560 -11711 0
0 0 0 691 238251 -11020 0
0 0 0 675 238926 -10345 0
0 0 0 681 239607 -9664 0
0 0 0 698 240305 -8966 0
0 0 0 676 240981 -8290 0
0 0 0 678 241659 -7612 0
0 0 0 665 242324 -6947 0
0 0 0 667 242991 -6280 0
0 0 0 685 243676 -5595 0
0 0 0 700 244376 -4895 0
0 0 0 760 245136 -4135 0
0 0 0 757 245893 -3378 0
0 0 0 740 246633 -2638 0
14 1 S106 676 247309 -1962 0
14 1 S106 668 247977 -1294 0
14 1 S106 679 248656 -615 0
14 2 S106 676 249332 61 0
14 2 S106 683 250015 744 0
14 2 S106 651 250666 1395 0
14 2 S106 655 251321 2050 0
14 2 S106 663 251984 2713 0
14 2 S106 678 252662 3391 0
14 2 S106 677 253339 4068 0
14 2 S106 661 254000 4729 0
14 2 S106 658 254658 5387 0
14 2 S106 659 255317 6046 0
14 2 S106 665 255982 6711 0
0 0 0 662 256644 -12007 0
0 0 0 650 257294 -11357 0
0 0 0 641 257935 -10716 0
0 0 0 660 258595 -10056 0
0 0 0 678 259273 -9378 0
0 0 0 680 259953 -8698 0
0 0 0 687 260640 -8011 0
0 0 0 664 261304 -7347 0
0 0 0 627 261931 -6720 0
0 0 0 607 262538 -6113 0
0 0 0 595 263133 -5518 0
0 0 0 619 263752 -4899 0
0 0 0 660 264412 -4239 0
0 0 0 666 265078 -3573 0
0 0 0 673 265751 -2900 0
0 0 0 666 266417 -2234 0
15 1 S116 677 267094 -1557 0
15 1 S116 659 267753 -898 0
15 1 S116 651 268404 -247 0
15 2 S116 645 269049 398 0
15 2 S116 649 269698 1047 0
15 2 S116 678 270376 1725 0
15 2 S116 716 271092 2441 0
15 2 S116 735 271827 3176 0
15 2 S116 748 272575 3924 0
15 2 S116 735 273310 4659 0
15 2 S116 750 274060 5409 0
15 2 S116 741 274801 6150 0
15 2 S116 734 275535 6884 0
0 0 0 697 276232 -10506 0
0 0 0 654 276886 -9852 0
0 0 0 619 277505 -9233 0
0 0 0 604 278109 -8629 0
0 0 0 619 278728 -8010 0
0 0 0 622 279350 -7388 0
0 0 0 645 279995 -6743 0
0 0 0 643 280638 -6100 0
0 0 0 651 281289 -5449 0
0 0 0 642 281931 -4807 0
0 0 0 650 282581 -4157 0
0 0 0 668 283249 -3489 0
0 0 0 703 283952 -2786 0
0 0 0 712 284664 -2074 0
16 1 S116 699 285363 -1375 0
16 1 S116 664 286027 -711 0
16 1 S116 647 286674 -64 0
16 2 S116 645 287319 581 0
16 2 S116 652 287971 1233 0
16 2 S116 657 288628 1890 0
16 2 S116 650 289278 2540 0
16 2 S116 635 289913 3175 0
16 2 S116 617 290530 3792 0
16 2 S116 607 291137 4399 0
16 2 S116 597 291734 4996 0
16 2 S116 597 292331 5593 0
16 2 S116 595 292926 6188 0
16 2 S116 593 293519 6781 0
0 0 0 594 294113 -10033 0
0 0 0 600 294713 -9433 0
0 0 0 595 295308 -8838 0
0 0 0 599 295907 -8239 0
0 0 0 600 296507 -7639 0
0 0 0 613 297120 -7026 0
0 0 0 604 297724 -6422 0
0 0 0 598 298322 -5824 0
0 0 0 609 298931 -5215 0
0 0 0 625 299556 -4590 0
0 0 0 628 300184 -3962 0
0 0 0 602 300786 -3360 0
0 0 0 578 301364 -2782 0
0 0 0 574 301938 -2208 0
17 1 S106 577 302515 -1631 0
17 1 S106 584 303099 -1047 0
17 1 S106 587 303686 -460 0
17 2 S106 604 304290 144 0
17 2 S106 617 304907 761 0
17 2 S106 656 305563 1417 0
17 2 S106 705 306268 2122 0
17 2 S106 715 306983 2837 0
17 2 S106 716 307699 3553 0
17 2 S106 692 308391 4245 0
17 2 S106 674 309065 4919 0
17 2 S106 687 309752 5606 0
17 2 S106 675 310427 6281 0
17 2 S106 675 311102 6956 0
0 0 0 653 311755 -11986 0
0 0 0 649 312404 -11337 0
0 0 0 640 313044 -10697 0
0 0 0 630 313674 -10067 0
0 0 0 643 314317 -9424 0
0 0 0 657 314974 -8767 0
0 0 0 643 315617 -8124 0
0 0 0 645 316262 -7479 0
0 0 0 644 316906 -6835 0
0 0 0 672 317578 -6163 0
0 0 0 718 318296 -5445 0
0 0 0 750 319046 -4695 0
0 0 0 708 319754 -3987 0
0 0 0 702 320456 -3285 0
0 0 0 702 321158 -2583 0
18 1 S102 713 321871 -1870 0
18 1 S102 696 322567 -1174 0
18 1 S102 667 323234 -507 0
18 2 S102 680 323914 173 0
18 2 S102 677 324591 850 0
18 2 S102 686 325277 1536 0
18 2 S102 683 325960 2219 0
18 2 S102 681 326641 2900 0
18 2 S102 664 327305 3564 0
18 2 S102 656 327961 4220 0
18 2 S102 661 328622 4881 0
18 2 S102 675 329297 5556 0
18 2 S102 682 329979 6238 0
18 2 S102 685 330664 6923 0
0 0 0 664 331328 -8776 0
0 0 0 667 331995 -8109 0
0 0 0 678 332673 -7431 0
0 0 0 684 333357 -6747 0
0 0 0 672 334029 -6075 0
0 0 0 692 334721 -5383 0
0 0 0 658 335379 -4725 0
0 0 0 641 336020 -4084 0
0 0 0 653 336673 -3431 0
0 0 0 655 337328 -2776 0
0 0 0 659 337987 -2117 0
19 1 S106 661 338648 -1456 0
19 1 S106 652 339300 -804 0
19 1 S106 642 339942 -162 0
19 2 S106 651 340593 489 0
19 2 S106 666 341259 1155 0
19 2 S106 679 341938 1834 0
19 2 S106 671 342609 2505 0
19 2 S106 660 343269 3165 0
19 2 S106 649 343918 3814 0
19 2 S106 656 344574 4470 0
19 2 S106 652 345226 5122 0
19 2 S106 652 345878 5774 0
19 2 S106 644 346522 6418 0
0 0 0 653 347175 -13089 0
0 0 0 659 347834 -12430 0
0 0 0 662 348496 -11768 0
0 0 0 675 349171 -11093 0
0 0 0 652 349823 -10441 0
0 0 0 643 350466 -9798 0
0 0 0 661 351127 -9137 0
0 0 0 649 351776 -8488 0
0 0 0 639 352415 -7849 0
0 0 0 626 353041 -7223 0
0 0 0 603 353644 -6620 0
0 0 0 599 354243 -6021 0
0 0 0 603 354846 -5418 0
0 0 0 635 355481 -4783 0
0 0 0 655 356136 -4128 0
0 0 0 612 356748 -3516 0
0 0 0 613 357361 -2903 0
0 0 0 637 357998 -2266 0
20 1 S112 638 358636 -1628 0
20 1 S112 638 359274 -990 0
20 1 S112 642 359916 -348 0
20 2 S112 654 360570 306 0
20 2 S112 662 361232 968 0
20 2 S112 653 361885 1621 0
20 2 S112 640 362525 2261 0
20 2 S112 645 363170 2906 0
20 2 S112 653 363823 3559 0
20 2 S112 663 364486 4222 0
20 2 S112 676 365162 4898 0
20 2 S112 684 365846 5582 0
20 2 S112 664 366510 6246 0
20 2 S112 666 367176 6912 0
0 0 0 671 367847 -11018 0
0 0 0 682 368529 -10336 0
0 0 0 688 369217 -9648 0
0 0 0 709 369926 -8939 0
0 0 0 675 370601 -8264 0
0 0 0 655 371256 -7609 0
0 0 0 632 371888 -6977 0
0 0 0 620 372508 -6357 0
0 0 0 624 373132 -5733 0
0 0 0 651 373783 -5082 0
0 0 0 688 374471 -4394 0
0 0 0 720 375191 -3674 0
0 0 0 731 375922 -2943 0
0 0 0 723 376645 -2220 0
21 1 S106 692 377337 -1528 0
21 1 S106 718 378055 -810 0
21 1 S106 706 378761 -104 0
21 2 S106 720 379481 616 0
21 2 S106 705 380186 1321 0
21 2 S106 686 380872 2007 0
21 2 S106 677 381549 2684 0
21 2 S106 674 382223 3358 0
21 2 S106 680 382903 4038 0
21 2 S106 700 383603 4738 0
21 2 S106 711 384314 5449 0
21 2 S106 715 385029 6164 0
21 2 S106 699 385728 6863 0
0 0 0 706 386434 -11048 0
0 0 0 717 387151 -10331 0
0 0 0 731 387882 -9600 0
0 0 0 729 388611 -8871 0
0 0 0 696 389307 -8175 0
0 0 0 681 389988 -7494 0
0 0 0 673 390661 -6821 0
0 0 0 680 391341 -6141 0
0 0 0 694 392035 -5447 0
0 0 0 723 392758 -4724 0
0 0 0 715 393473 -4009 0
0 0 0 712 394185 -3297 0
0 0 0 693 394878 -2604 0
22 1 S116 706 395584 -1898 0
22 1 S116 711 396295 -1187 0
22 1 S116 715 397010 -472 0
22 2 S116 714 397724 242 0
22 2 S116 679 398403 921 0
22 2 S116 682 399085 1603 0
22 2 S116 690 399775 2293 0
22 2 S116 703 400478 2996 0
22 2 S116 709 401187 3705 0
22 2 S116 671 401858 4376 0
22 2 S116 666 402524 5042 0
22 2 S116 690 403214 5732 0
22 2 S116 703 403917 6435 0
0 0 0 682 404599 -10324 0
0 0 0 653 405252 -9671 0
0 0 0 626 405878 -9045 0
0 0 0 616 406494 -8429 0
0 0 0 643 407137 -7786 0
0 0 0 659 407796 -7127 0
0 0 0 672 408468 -6455 0
0 0 0 664 409132 -5791 0
0 0 0 649 409781 -5142 0
0 0 0 643 410424 -4499 0
0 0 0 654 411078 -3845 0
0 0 0 669 411747 -3176 0
0 0 0 674 412421 -2502 0
23 1 S112 685 413106 -1817 0
23 1 S112 650 413756 -1167 0
23 1 S112 667 414423 -500 0
23 2 S112 668 415091 168 0
23 2 S112 685 415776 853 0
23 2 S112 693 416469 1546 0
23 2 S112 673 417142 2219 0
23 2 S112 650 417792 2869 0
23 2 S112 640 418432 3509 0
23 2 S112 653 419085 4162 0
23 2 S112 671 419756 4833 0
23 2 S112 698 420454 5531 0
23 2 S112 696 421150 6227 0
23 2 S112 677 421827 6904 0
0 0 0 708 422535 -10309 0
0 0 0 715 423250 -9594 0
0 0 0 694 423944 -8900 0
0 0 0 663 424607 -8237 0
0 0 0 668 425275 -7569 0
0 0 0 679 425954 -6890 0
0 0 0 664 426618 -6226 0
0 0 0 664 427282 -5562 0
0 0 0 645 427927 -4917 0
0 0 0 660 428587 -4257 0
0 0 0 658 429245 -3599 0
0 0 0 671 429916 -2928 0
0 0 0 666 430582 -2262 0
24 1 S106 687 431269 -1575 0
24 1 S106 661 431930 -914 0
24 1 S106 669 432599 -245 0
24 2 S106 686 433285 441 0
24 2 S106 688 433973 1129 0
24 2 S106 702 434675 1831 0
24 2 S106 678 435353 2509 0
24 2 S106 665 436018 3174 0
24 2 S106 666 436684 3840 0
24 2 S106 671 437355 4511 0
24 2 S106 691 438046 5202 0
24 2 S106 680 438726 5882 0
24 2 S106 696 439422 6578 0
0 0 0 702 440124 -9729 0
0 0 0 729 440853 -9000 0
0 0 0 711 441564 -8289 0
0 0 0 678 442242 -7611 0
0 0 0 648 442890 -6963 0
0 0 0 631 443521 -6332 0
0 0 0 609 444130 -5723 0
0 0 0 608 444738 -5115 0
0 0 0 638 445376 -4477 0
0 0 0 700 446076 -3777 0
0 0 0 749 446825 -3028 0
0 0 0 799 447624 -2229 0
25 1 S102 782 448406 -1447 0
25 1 S102 740 449146 -707 0
25 2 S102 717 449863 10 0
25 2 S102 707 450570 717 0
25 2 S102 697 451267 1414 0
25 2 S102 670 451937 2084 0
25 2 S102 659 452596 2743 0
25 2 S102 658 453254 3401 0
25 2 S102 677 453931 4078 0
25 2 S102 710 454641 4788 0
25 2 S102 736 455377 5524 0
25 2 S102 748 456125 6272 0
25 2 S102 739 456864 7011 0
0 0 0 705 457569 -8879 0
0 0 0 703 458272 -8176 0
0 0 0 694 458966 -7482 0
0 0 0 701 459667 -6781 0
0 0 0 670 460337 -6111 0
0 0 0 686 461023 -5425 0
0 0 0 652 461675 -4773 0
0 0 0 657 462332 -4116 0
0 0 0 654 462986 -3462 0
0 0 0 669 463655 -2793 0
0 0 0 673 464328 -2120 0
26 1 S116 686 465014 -1434 0
26 1 S116 703 465717 -731 0
26 1 S116 708 466425 -23 0
26 2 S116 714 467139 691 0
26 2 S116 692 467831 1383 0
26 2 S116 691 468522 2074 0
26 2 S116 678 469200 2752 0
26 2 S116 691 469891 3443 0
26 2 S116 683 470574 4126 0
26 2 S116 654 471228 4780 0
26 2 S116 646 471874 5426 0
26 2 S116 633 472507 6059 0
26 2 S116 637 473144 6696 0
0 0 0 626 473770 -8262 0
0 0 0 608 474378 -7654 0
0 0 0 604 474982 -7050 0
0 0 0 603 475585 -6447 0
0 0 0 614 476199 -5833 0
0 0 0 627 476826 -5206 0
0 0 0 622 477448 -4584 0
0 0 0 609 478057 -3975 0
0 0 0 608 478665 -3367 0
0 0 0 596 479261 -2771 0
0 0 0 578 479839 -2193 0
27 1 S106 578 480417 -1615 0
27 1 S106 584 481001 -1031 0
27 1 S106 600 481601 -431 0
27 2 S106 610 482211 179 0
27 2 S106 629 482840 808 0
27 2 S106 627 483467 1435 0
27 2 S106 619 484086 2054 0
27 2 S106 626 484712 2680 0
27 2 S106 632 485344 3312 0
27 2 S106 623 485967 3935 0
27 2 S106 617 486584 4552 0
27 2 S106 615 487199 5167 0
27 2 S106 622 487821 5789 0
27 2 S106 638 488459 6427 0
0 0 0 638 489097 -7972 0
0 0 0 637 489734 -7335 0
0 0 0 643 490377 -6692 0
0 0 0 647 491024 -6045 0
0 0 0 656 491680 -5389 0
0 0 0 660 492340 -4729 0
0 0 0 637 492977 -4092 0
0 0 0 637 493614 -3455 0
0 0 0 648 494262 -2807 0
0 0 0 689 494951 -2118 0
28 1 S102 722 495673 -1396 0
28 1 S102 692 496365 -704 0
28 1 S102 681 497046 -23 0
28 2 S102 677 497723 654 0
28 2 S102 686 498409 1340 0
28 2 S102 702 499111 2042 0
28 2 S102 662 499773 2704 0
28 2 S102 657 500430 3361 0
28 2 S102 655 501085 4016 0
28 2 S102 661 501746 4677 0
28 2 S102 664 502410 5341 0
28 2 S102 660 503070 6001 0
28 2 S102 653 503723 6654 0
0 0 0 665 504388 -11845 0
0 0 0 672 505060 -11173 0
0 0 0 673 505733 -10500 0
0 0 0 662 506395 -9838 0
0 0 0 650 507045 -9188 0
0 0 0 631 507676 -8557 0
0 0 0 625 508301 -7932 0
0 0 0 622 508923 -7310 0
0 0 0 634 509557 -6676 0
0 0 0 635 510192 -6041 0
0 0 0 649 510841 -5392 0
0 0 0 678 511519 -4714 0
0 0 0 702 512221 -4012 0
0 0 0 733 512954 -3279 0
0 0 0 694 513648 -2585 0
29 1 S112 685 514333 -1900 0
29 1 S112 683 515016 -1217 0
29 1 S112 713 515729 -504 0
29 2 S112 743 516472 239 0
29 2 S112 701 517173 940 0
29 2 S112 670 517843 1610 0
29 2 S112 666 518509 2276 0
29 2 S112 659 519168 2935 0
29 2 S112 662 519830 3597 0
29 2 S112 683 520513 4280 0
29 2 S112 652 521165 4932 0
29 2 S112 654 521819 5586 0
29 2 S112 654 522473 6240 0
29 2 S112 670 523143 6910 0
0 0 0 689 523832 -8018 0
0 0 0 673 524505 -7345 0
0 0 0 652 525157 -6693 0
0 0 0 639 525796 -6054 0
0 0 0 641 526437 -5413 0
0 0 0 650 527087 -4763 0
0 0 0 646 527733 -4117 0
0 0 0 663 528396 -3454 0
0 0 0 651 529047 -2803 0
0 0 0 655 529702 -2148 0
30 1 S112 666 530368 -1482 0
30 1 S112 664 531032 -818 0
30 1 S112 695 531727 -123 0
30 2 S112 698 532425 575 0
30 2 S112 665 533090 1240 0
30 2 S112 657 533747 1897 0
30 2 S112 663 534410 2560 0
30 2 S112 668 535078 3228 0
30 2 S112 664 535742 3892 0
30 2 S112 650 536392 4542 0
30 2 S112 633 537025 5175 0
30 2 S112 636 537661 5811 0
30 2 S112 647 538308 6458 0
0 0 0 660 538968 -11085 0
0 0 0 671 539639 -10414 0
0 0 0 686 540325 -9728 0
0 0 0 669 540994 -9059 0
0 0 0 670 541664 -8389 0
0 0 0 694 542358 -7695 0
0 0 0 698 543056 -6997 0
0 0 0 684 543740 -6313 0
0 0 0 662 544402 -5651 0
0 0 0 655 545057 -4996 0
0 0 0 663 545720 -4333 0
0 0 0 692 546412 -3641 0
0 0 0 711 547123 -2930 0
0 0 0 727 547850 -2203 0
31 1 S106 693 548543 -1510 0
31 1 S106 683 549226 -827 0
31 1 S106 688 549914 -139 0
31 2 S106 682 550596 543 0
31 2 S106 704 551300 1247 0
31 2 S106 703 552003 1950 0
31 2 S106 670 552673 2620 0
31 2 S106 660 553333 3280 0
31 2 S106 656 553989 3936 0
31 2 S106 661 554650 4597 0
31 2 S106 664 555314 5261 0
31 2 S106 653 555967 5914 0
31 2 S106 651 556618 6565 0
0 0 0 664 557282 -10079 0
0 0 0 681 557963 -9398 0
0 0 0 684 558647 -8714 0
0 0 0 670 559317 -8044 0
0 0 0 662 559979 -7382 0
0 0 0 667 560646 -6715 0
0 0 0 667 561313 -6048 0
0 0 0 668 561981 -5380 0
0 0 0 653 562634 -4727 0
0 0 0 654 563288 -4073 0
0 0 0 663 563951 -3410 0
0 0 0 672 564623 -2738 0
0 0 0 670 565293 -2068 0
32 1 S102 668 565961 -1400 0
32 1 S102 656 566617 -744 0
32 1 S102 653 567270 -91 0
32 2 S102 657 567927 566 0
32 2 S102 668 568595 1234 0
32 2 S102 673 569268 1907 0
32 2 S102 653 569921 2560 0
32 2 S102 644 570565 3204 0
32 2 S102 658 571223 3862 0
32 2 S102 664 571887 4526 0
32 2 S102 699 572586 5225 0
32 2 S102 696 573282 5921 0
32 2 S102 679 573961 6600 0
0 0 0 668 574629 -11963 0
0 0 0 681 575310 -11282 0
0 0 0 701 576011 -10581 0
0 0 0 687 576698 -9894 0
0 0 0 701 577399 -9193 0
0 0 0 663 578062 -8530 0
0 0 0 631 578693 -7899 0
0 0 0 626 579319 -7273 0
0 0 0 634 579953 -6639 0
0 0 0 651 580604 -5988 0
0 0 0 668 581272 -5320 0
0 0 0 657 581929 -4663 0
0 0 0 675 582604 -3988 0
0 0 0 700 583304 -3288 0
0 0 0 702 584006 -2586 0
33 1 S112 717 584723 -1869 0
33 1 S112 680 585403 -1189 0
33 1 S112 656 586059 -533 0
33 2 S112 647 586706 114 0
33 2 S112 661 587367 775 0
33 2 S112 662 588029 1437 0
33 2 S112 669 588698 2106 0
33 2 S112 657 589355 2763 0
33 2 S112 647 590002 3410 0
33 2 S112 630 590632 4040 0
33 2 S112 638 591270 4678 0
33 2 S112 655 591925 5333 0
33 2 S112 671 592596 6004 0
33 2 S112 671 593267 6675 0
0 0 0 659 593926 -12643 0
0 0 0 662 594588 -11981 0
0 0 0 652 595240 -11329 0
0 0 0 662 595902 -10667 0
0 0 0 657 596559 -10010 0
0 0 0 646 597205 -9364 0
0 0 0 646 597851 -8718 0
0 0 0 644 598495 -8074 0
0 0 0 649 599144 -7425 0
0 0 0 659 599803 -6766 0
0 0 0 663 600466 -6103 0
0 0 0 678 601144 -5425 0
0 0 0 692 601836 -4733 0
0 0 0 722 602558 -4011 0
0 0 0 732 603290 -3279 0
0 0 0 703 603993 -2576 0
34 1 S106 710 604703 -1866 0
34 1 S106 688 605391 -1178 0
34 1 S106 707 606098 -471 0
34 2 S106 706 606804 235 0
34 2 S106 667 607471 902 0
34 2 S106 665 608136 1567 0
34 2 S106 662 608798 2229 0
34 2 S106 666 609464 2895 0
34 2 S106 674 610138 3569 0
34 2 S106 659 610797 4228 0
34 2 S106 649 611446 4877 0
34 2 S106 656 612102 5533 0
34 2 S106 669 612771 6202 0
34 2 S106 675 613446 6877 0
0 0 0 667 614113 -9150 0
0 0 0 670 614783 -8480 0
0 0 0 651 615434 -7829 0
0 0 0 662 616096 -7167 0
0 0 0 651 616747 -6516 0
0 0 0 634 617381 -5882 0
0 0 0 633 618014 -5249 0
0 0 0 655 618669 -4594 0
0 0 0 703 619372 -3891 0
0 0 0 771 620143 -3120 0
0 0 0 791 620934 -2329 0
35 1 S102 797 621731 -1532 0
35 1 S102 769 622500 -763 0
35 1 S102 755 623255 -8 0
35 2 S102 739 623994 731 0
35 2 S102 709 624703 1440 0
35 2 S102 691 625394 2131 0
35 2 S102 690 626084 2821 0
35 2 S102 704 626788 3525 0
35 2 S102 674 627462 4199 0
35 2 S102 659 628121 4858 0
35 2 S102 656 628777 5514 0
35 2 S102 667 629444 6181 0
35 2 S102 675 630119 6856 0
0 0 0 683 630802 -8211 0
0 0 0 676 631478 -7535 0
0 0 0 666 632144 -6869 0
0 0 0 669 632813 -6200 0
0 0 0 683 633496 -5517 0
0 0 0 692 634188 -4825 0
0 0 0 679 634867 -4146 0
0 0 0 660 635527 -3486 0
0 0 0 673 636200 -2813 0
0 0 0 687 636887 -2126 0
36 1 S106 744 637631 -1382 0
36 1 S106 712 638343 -670 0
36 2 S106 672 639015 2 0
36 2 S106 659 639674 661 0
36 2 S106 672 640346 1333 0
36 2 S106 672 641018 2005 0
36 2 S106 669 641687 2674 0
36 2 S106 657 642344 3331 0
36 2 S106 654 642998 3985 0
36 2 S106 655 643653 4640 0
36 2 S106 654 644307 5294 0
36 2 S106 677 644984 5971 0
36 2 S106 644 645628 6615 0
0 0 0 630 646258 -10295 0
0 0 0 631 646889 -9664 0
0 0 0 638 647527 -9026 0
0 0 0 664 648191 -8362 0
0 0 0 660 648851 -7702 0
0 0 0 662 649513 -7040 0
0 0 0 635 650148 -6405 0
0 0 0 637 650785 -5768 0
0 0 0 652 651437 -5116 0
0 0 0 646 652083 -4470 0
0 0 0 657 652740 -3813 0
0 0 0 640 653380 -3173 0
0 0 0 654 654034 -2519 0
37 1 S116 674 654708 -1845 0
37 1 S116 696 655404 -1149 0
37 1 S116 727 656131 -422 0
37 2 S116 729 656860 307 0
37 2 S116 710 657570 1017 0
37 2 S116 697 658267 1714 0
37 2 S116 684 658951 2398 0
37 2 S116 654 659605 3052 0
37 2 S116 662 660267 3714 0
37 2 S116 663 660930 4377 0
37 2 S116 683 661613 5060 0
37 2 S116 661 662274 5721 0
37 2 S116 647 662921 6368 0
37 2 S116 643 663564 7011 0
0 0 0 654 664218 -11516 0
0 0 0 654 664872 -10862 0
0 0 0 662 665534 -10200 0
0 0 0 653 666187 -9547 0
0 0 0 645 666832 -8902 0
0 0 0 634 667466 -8268 0
0 0 0 654 668120 -7614 0
0 0 0 664 668784 -6950 0
0 0 0 703 669487 -6247 0
0 0 0 685 670172 -5562 0
0 0 0 675 670847 -4887 0
0 0 0 671 671518 -4216 0
0 0 0 679 672197 -3537 0
0 0 0 674 672871 -2863 0
0 0 0 664 673535 -2199 0
38 1 S102 649 674184 -1550 0
38 1 S102 649 674833 -901 0
38 1 S102 658 675491 -243 0
38 2 S102 657 676148 414 0
38 2 S102 654 676802 1068 0
38 2 S102 651 677453 1719 0
38 2 S102 656 678109 2375 0
38 2 S102 664 678773 3039 0
38 2 S102 667 679440 3706 0
38 2 S102 676 680116 4382 0
38 2 S102 658 680774 5040 0
38 2 S102 663 681437 5703 0
38 2 S102 668 682105 6371 0
0 0 0 689 682794 -10828 0
0 0 0 685 683479 -10143 0
0 0 0 666 684145 -9477 0
0 0 0 648 684793 -8829 0
0 0 0 645 685438 -8184 0
0 0 0 637 686075 -7547 0
0 0 0 652 686727 -6895 0
0 0 0 647 687374 -6248 0
0 0 0 631 688005 -5617 0
0 0 0 609 688614 -5008 0
0 0 0 597 689211 -4411 0
0 0 0 593 689804 -3818 0
0 0 0 613 690417 -3205 0
0 0 0 668 691085 -2537 0
39 1 S116 757 691842 -1780 0
39 1 S116 817 692659 -963 0
39 1 S116 750 693409 -213 0
39 2 S116 725 694134 512 0
39 2 S116 697 694831 1209 0
39 2 S116 674 695505 1883 0
39 2 S116 651 696156 2534 0
39 2 S116 637 696793 3171 0
39 2 S116 632 697425 3803 0
39 2 S116 632 698057 4435 0
39 2 S116 641 698698 5076 0
39 2 S116 639 699337 5715 0
39 2 S116 646 699983 6361 0
39 2 S116 662 700645 7023 0
0 0 0 676 701321 -7636 0
0 0 0 670 701991 -6966 0
0 0 0 674 702665 -6292 0
0 0 0 661 703326 -5631 0
0 0 0 648 703974 -4983 0
0 0 0 651 704625 -4332 0
0 0 0 640 705265 -3692 0
0 0 0 657 705922 -3035 0
0 0 0 648 706570 -2387 0
40 1 S112 642 707212 -1745 0
40 1 S112 638 707850 -1107 0
40 1 S112 647 708497 -460 0
40 2 S112 644 709141 184 0
40 2 S112 658 709799 842 0
40 2 S112 641 710440 1483 0
40 2 S112 642 711082 2125 0
40 2 S112 637 711719 2762 0
40 2 S112 647 712366 3409 0
40 2 S112 652 713018 4061 0
40 2 S112 659 713677 4720 0
40 2 S112 655 714332 5375 0
40 2 S112 650 714982 6025 0
40 2 S112 668 715650 6693 0
0 0 0 672 716322 -189238 0
0 0 0 661 716983 -188577 0
0 0 0 629 717612 -187948 0
0 0 0 612 718224 -187336 0
0 0 0 601 718825 -186735 0
0 0 0 602 719427 -186133 0
0 0 0 607 720034 -185526 0
0 0 0 618 720652 -184908 0
0 0 0 645 721297 -184263 0
0 0 0 630 721927 -183633 0
0 0 0 658 722585 -182975 0
0 0 0 680 723265 -182295 0
0 0 0 693 723958 -181602 0
0 0 0 698 724656 -180904 0
0 0 0 652 725308 -180252 0
0 0 0 631 725939 -179621 0
0 0 0 604 726543 -179017 0
0 0 0 594 727137 -178423 0
0 0 0 573 727710 -177850 0
0 0 0 567 728277 -177283 0
0 0 0 564 728841 -176719 0
0 0 0 553 729394 -176166 0
0 0 0 1098 730492 -175068 1
0 0 0 552 731044 -174516 0
0 0 0 571 731615 -173945 0
0 0 0 589 732204 -173356 0
0 0 0 1217 733421 -172139 1
0 0 0 602 734023 -171537 0
0 0 0 2862 736885 -168675 1
0 0 0 568 737453 -168107 0
0 0 0 1696 739149 -166411 1
0 0 0 571 739720 -165840 0
0 0 0 557 740277 -165283 0
0 0 0 1112 741389 -164171 1
0 0 0 561 741950 -163610 0
0 0 0 587 742537 -163023 0
0 0 0 625 743162 -162398 0
0 0 0 606 743768 -161792 0
0 0 0 606 744374 -161186 0
0 0 0 593 744967 -160593 0
0 0 0 592 745559 -160001 0
0 0 0 606 746165 -159395 0
0 0 0 614 746779 -158781 0
0 0 0 611 747390 -158170 0
0 0 0 2931 750321 -155239 1
0 0 0 552 750873 -154687 0
0 0 0 4444 755317 -150243 1
0 0 0 540 755857 -149703 0
0 0 0 535 756392 -149168 0
0 0 0 530 756922 -148638 0
0 0 0 1065 757987 -147573 1
0 0 0 1051 759038 -146522 1
0 0 0 544 759582 -145978 0
0 0 0 1146 760728 -144832 1
0 0 0 614 761342 -144218 0
0 0 0 1350 762692 -142868 1
0 0 0 3239 765931 -139629 1
0 0 0 647 766578 -138982 0
0 0 0 634 767212 -138348 0
0 0 0 612 767824 -137736 0
0 0 0 607 768431 -137129 0
0 0 0 609 769040 -136520 0
0 0 0 599 769639 -135921 0
0 0 0 597 770236 -135324 0
0 0 0 595 770831 -134729 0
0 0 0 616 771447 -134113 0
0 0 0 622 772069 -133491 0
0 0 0 640 772709 -132851 0
0 0 0 624 773333 -132227 0
0 0 0 630 773963 -131597 0
0 0 0 619 774582 -130978 0
0 0 0 603 775185 -130375 0
0 0 0 596 775781 -129779 0
0 0 0 578 776359 -129201 0
0 0 0 562 776921 -128639 0
0 0 0 561 777482 -128078 0
0 0 0 562 778044 -127516 0
0 0 0 609 778653 -126907 0
0 0 0 654 779307 -126253 0
0 0 0 714 780021 -125539 0
0 0 0 706 780727 -124833 0
0 0 0 672 781399 -124161 0
0 0 0 638 782037 -123523 0
0 0 0 617 782654 -122906 0
0 0 0 608 783262 -122298 0
0 0 0 587 783849 -121711 0
0 0 0 576 784425 -121135 0
0 0 0 557 784982 -120578 0
0 0 0 556 785538 -120022 0
0 0 0 553 786091 -119469 0
0 0 0 567 786658 -118902 0
0 0 0 582 787240 -118320 0
0 0 0 590 787830 -117730 0
0 0 0 1932 789762 -115798 1
0 0 0 1546 791308 -114252 1
0 0 0 1400 792708 -112852 1
0 0 0 655 793363 -112197 0
0 0 0 623 793986 -111574 0
0 0 0 622 794608 -110952 0
0 0 0 632 795240 -110320 0
0 0 0 637 795877 -109683 0
0 0 0 1248 797125 -108435 1
0 0 0 607 797732 -107828 0
0 0 0 1188 798920 -106640 1
0 0 0 578 799498 -106062 0
0 0 0 565 800063 -105497 0
0 0 0 560 800623 -104937 0
0 0 0 568 801191 -104369 0
0 0 0 572 801763 -103797 0
0 0 0 581 802344 -103216 0
0 0 0 595 802939 -102621 0
0 0 0 579 803518 -102042 0
0 0 0 590 804108 -101452 0
0 0 0 607 804715 -100845 0
0 0 0 622 805337 -100223 0
0 0 0 629 805966 -99594 0
0 0 0 613 806579 -98981 0
0 0 0 611 807190 -98370 0
0 0 0 622 807812 -97748 0
0 0 0 616 808428 -97132 0
0 0 0 1228 809656 -95904 1
0 0 0 611 810267 -95293 0
0 0 0 610 810877 -94683 0
0 0 0 623 811500 -94060 0
0 0 0 621 812121 -93439 0
0 0 0 637 812758 -92802 0
0 0 0 628 813386 -92174 0
0 0 0 633 814019 -91541 0
0 0 0 615 814634 -90926 0
0 0 0 622 815256 -90304 0
0 0 0 619 815875 -89685 0
0 0 0 612 816487 -89073 0
0 0 0 620 817107 -88453 0
0 0 0 640 817747 -87813 0
0 0 0 661 818408 -87152 0
0 0 0 644 819052 -86508 0
0 0 0 652 819704 -85856 0
0 0 0 638 820342 -85218 0
0 0 0 644 820986 -84574 0
0 0 0 631 821617 -83943 0
0 0 0 626 822243 -83317 0
0 0 0 624 822867 -82693 0
0 0 0 610 823477 -82083 0
0 0 0 615 824092 -81468 0
0 0 0 656 824748 -80812 0
0 0 0 660 825408 -80152 0
0 0 0 676 826084 -79476 0
0 0 0 667 826751 -78809 0
0 0 0 652 827403 -78157 0
0 0 0 651 828054 -77506 0
0 0 0 666 828720 -76840 0
0 0 0 683 829403 -76157 0
0 0 0 699 830102 -75458 0
0 0 0 675 830777 -74783 0
0 0 0 654 831431 -74129 0
0 0 0 644 832075 -73485 0
0 0 0 638 832713 -72847 0
0 0 0 655 833368 -72192 0
0 0 0 673 834041 -71519 0
0 0 0 674 834715 -70845 0
0 0 0 677 835392 -70168 0
0 0 0 677 836069 -69491 0
0 0 0 676 836745 -68815 0
0 0 0 665 837410 -68150 0
0 0 0 654 838064 -67496 0
0 0 0 652 838716 -66844 0
0 0 0 660 839376 -66184 0
0 0 0 664 840040 -65520 0
0 0 0 659 840699 -64861 0
0 0 0 657 841356 -64204 0
0 0 0 648 842004 -63556 0
0 0 0 658 842662 -62898 0
0 0 0 679 843341 -62219 0
0 0 0 682 844023 -61537 0
0 0 0 685 844708 -60852 0
0 0 0 669 845377 -60183 0
0 0 0 665 846042 -59518 0
0 0 0 662 846704 -58856 0
0 0 0 662 847366 -58194 0
0 0 0 671 848037 -57523 0
0 0 0 686 848723 -56837 0
0 0 0 694 849417 -56143 0
0 0 0 667 850084 -55476 0
0 0 0 655 850739 -54821 0
0 0 0 660 851399 -54161 0
0 0 0 658 852057 -53503 0
0 0 0 661 852718 -52842 0
0 0 0 652 853370 -52190 0
0 0 0 657 854027 -51533 0
0 0 0 693 854720 -50840 0
0 0 0 680 855400 -50160 0
0 0 0 731 856131 -49429 0
0 0 0 737 856868 -48692 0
0 0 0 709 857577 -47983 0
0 0 0 671 858248 -47312 0
0 0 0 685 858933 -46627 0
0 0 0 675 859608 -45952 0
0 0 0 664 860272 -45288 0
0 0 0 644 860916 -44644 0
0 0 0 638 861554 -44006 0
0 0 0 643 862197 -43363 0
0 0 0 643 862840 -42720 0
0 0 0 648 863488 -42072 0
0 0 0 633 864121 -41439 0
0 0 0 629 864750 -40810 0
0 0 0 635 865385 -40175 0
0 0 0 656 866041 -39519 0
0 0 0 703 866744 -38816 0
0 0 0 708 867452 -38108 0
0 0 0 687 868139 -37421 0
0 0 0 672 868811 -36749 0
0 0 0 669 869480 -36080 0
0 0 0 666 870146 -35414 0
0 0 0 677 870823 -34737 0
0 0 0 662 871485 -34075 0
0 0 0 647 872132 -33428 0
0 0 0 641 872773 -32787 0
0 0 0 647 873420 -32140 0
0 0 0 640 874060 -31500 0
0 0 0 662 874722 -30838 0
0 0 0 642 875364 -30196 0
0 0 0 656 876020 -29540 0
0 0 0 685 876705 -28855 0
0 0 0 711 877416 -28144 0
0 0 0 708 878124 -27436 0
0 0 0 701 878825 -26735 0
0 0 0 676 879501 -26059 0
0 0 0 690 880191 -25369 0
0 0 0 707 880898 -24662 0
0 0 0 732 881630 -23930 0
0 0 0 718 882348 -23212 0
0 0 0 681 883029 -22531 0
0 0 0 661 883690 -21870 0
0 0 0 661 884351 -21209 0
0 0 0 680 885031 -20529 0
0 0 0 688 885719 -19841 0
0 0 0 667 886386 -19174 0
0 0 0 653 887039 -18521 0
0 0 0 662 887701 -17859 0
0 0 0 675 888376 -17184 0
0 0 0 678 889054 -16506 0
0 0 0 677 889731 -15829 0
0 0 0 654 890385 -15175 0
0 0 0 671 891056 -14504 0
0 0 0 682 891738 -13822 0
0 0 0 700 892438 -13122 0
0 0 0 711 893149 -12411 0
0 0 0 697 893846 -11714 0
0 0 0 682 894528 -11032 0
0 0 0 703 895231 -10329 0
0 0 0 697 895928 -9632 0
0 0 0 685 896613 -8947 0
0 0 0 663 897276 -8284 0
0 0 0 656 897932 -7628 0
0 0 0 656 898588 -6972 0
0 0 0 668 899256 -6304 0
0 0 0 670 899926 -5634 0
0 0 0 662 900588 -4972 0
0 0 0 680 901268 -4292 0
0 0 0 652 901920 -3640 0
0 0 0 631 902551 -3009 0
0 0 0 597 903148 -2412 0
41 1 S102 583 903731 -1829 0
41 1 S102 569 904300 -1260 0
41 1 S102 567 904867 -693 0
41 1 S102 596 905463 -97 0
41 2 S102 641 906104 544 0
41 2 S102 668 906772 1212 0
41 2 S102 695 907467 1907 0
41 2 S102 657 908124 2564 0
41 2 S102 639 908763 3203 0
41 2 S102 648 909411 3851 0
41 2 S102 648 910059 4499 0
41 2 S102 639 910698 5138 0
41 2 S102 622 911320 5760 0
41 2 S102 616 911936 6376 0
41 2 S102 612 912548 6988 0
0 0 0 628 913176 -7603 0
0 0 0 625 913801 -6978 0
0 0 0 619 914420 -6359 0
0 0 0 609 915029 -5750 0
0 0 0 623 915652 -5127 0
0 0 0 631 916283 -4496 0
0 0 0 646 916929 -3850 0
0 0 0 663 917592 -3187 0
0 0 0 685 918277 -2502 0
42 1 S112 712 918989 -1790 0
42 1 S112 710 919699 -1080 0
42 1 S112 720 920419 -360 0
42 2 S112 671 921090 311 0
42 2 S112 656 921746 967 0
42 2 S112 661 922407 1628 0
42 2 S112 667 923074 2295 0
42 2 S112 687 923761 2982 0
42 2 S112 653 924414 3635 0
42 2 S112 662 925076 4297 0
42 2 S112 644 925720 4941 0
42 2 S112 644 926364 5585 0
42 2 S112 650 927014 6235 0
42 2 S112 660 927674 6895 0
0 0 0 653 928327 -10175 0
0 0 0 632 928959 -9543 0
0 0 0 630 929589 -8913 0
0 0 0 626 930215 -8287 0
0 0 0 640 930855 -7647 0
0 0 0 651 931506 -6996 0
0 0 0 629 932135 -6367 0
0 0 0 616 932751 -5751 0
0 0 0 614 933365 -5137 0
0 0 0 625 933990 -4512 0
0 0 0 636 934626 -3876 0
0 0 0 664 935290 -3212 0
0 0 0 666 935956 -2546 0
43 1 S116 653 936609 -1893 0
43 1 S116 666 937275 -1227 0
43 1 S116 680 937955 -547 0
43 2 S116 670 938625 123 0
43 2 S116 659 939284 782 0
43 2 S116 651 939935 1433 0
43 2 S116 644 940579 2077 0
43 2 S116 645 941224 2722 0
43 2 S116 655 941879 3377 0
43 2 S116 670 942549 4047 0
43 2 S116 653 943202 4700 0
43 2 S116 636 943838 5336 0
43 2 S116 628 944466 5964 0
43 2 S116 631 945097 6595 0
0 0 0 617 945714 -7907 0
0 0 0 607 946321 -7300 0
0 0 0 601 946922 -6699 0
0 0 0 598 947520 -6101 0
0 0 0 578 948098 -5523 0
0 0 0 577 948675 -4946 0
0 0 0 571 949246 -4375 0
0 0 0 572 949818 -3803 0
0 0 0 584 950402 -3219 0
0 0 0 612 951014 -2607 0
0 0 0 605 951619 -2002 0
44 1 S102 584 952203 -1418 0
44 1 S102 577 952780 -841 0
44 1 S102 581 953361 -260 0
44 2 S102 610 953971 350 0
44 2 S102 646 954617 996 0
44 2 S102 666 955283 1662 0
44 2 S102 652 955935 2314 0
44 2 S102 645 956580 2959 0
44 2 S102 629 957209 3588 0
44 2 S102 632 957841 4220 0
44 2 S102 623 958464 4843 0
44 2 S102 632 959096 5475 0
44 2 S102 636 959732 6111 0
44 2 S102 631 960363 6742 0
0 0 0 643 961006 -9973 0
0 0 0 657 961663 -9316 0
0 0 0 677 962340 -8639 0
0 0 0 690 963030 -7949 0
0 0 0 733 963763 -7216 0
0 0 0 694 964457 -6522 0
0 0 0 681 965138 -5841 0
0 0 0 703 965841 -5138 0
0 0 0 713 966554 -4425 0
0 0 0 747 967301 -3678 0
0 0 0 736 968037 -2942 0
0 0 0 680 968717 -2262 0
45 1 S116 667 969384 -1595 0
45 1 S116 680 970064 -915 0
45 1 S116 678 970742 -237 0
45 2 S116 702 971444 465 0
45 2 S116 666 972110 1131 0
45 2 S116 660 972770 1791 0
45 2 S116 642 973412 2433 0
45 2 S116 656 974068 3089 0
45 2 S116 663 974731 3752 0
45 2 S116 656 975387 4408 0
45 2 S116 659 976046 5067 0
45 2 S116 639 976685 5706 0
45 2 S116 639 977324 6345 0
45 2 S116 656 977980 7001 0
0 0 0 649 978629 -12774 0
0 0 0 646 979275 -12128 0
0 0 0 640 979915 -11488 0
0 0 0 651 980566 -10837 0
0 0 0 642 981208 -10195 0
0 0 0 650 981858 -9545 0
0 0 0 650 982508 -8895 0
0 0 0 646 983154 -8249 0
0 0 0 651 983805 -7598 0
0 0 0 643 984448 -6955 0
0 0 0 635 985083 -6320 0
0 0 0 625 985708 -5695 0
0 0 0 629 986337 -5066 0
0 0 0 654 986991 -4412 0
0 0 0 681 987672 -3731 0
0 0 0 677 988349 -3054 0
0 0 0 658 989007 -2396 0
46 1 S102 673 989680 -1723 0
46 1 S102 667 990347 -1056 0
46 1 S102 689 991036 -367 0
46 2 S102 700 991736 333 0
46 2 S102 700 992436 1033 0
46 2 S102 679 993115 1712 0
46 2 S102 665 993780 2377 0
46 2 S102 687 994467 3064 0
46 2 S102 702 995169 3766 0
46 2 S102 721 995890 4487 0
46 2 S102 712 996602 5199 0
46 2 S102 700 997302 5899 0
46 2 S102 672 997974 6571 0
0 0 0 669 998643 -10748 0
0 0 0 695 999338 -10053 0
0 0 0 685 1000023 -9368 0
0 0 0 698 1000721 -8670 0
0 0 0 683 1001404 -7987 0
0 0 0 676 1002080 -7311 0
0 0 0 674 1002754 -6637 0
0 0 0 677 1003431 -5960 0
0 0 0 685 1004116 -5275 0
0 0 0 695 1004811 -4580 0
0 0 0 683 1005494 -3897 0
0 0 0 673 1006167 -3224 0
0 0 0 685 1006852 -2539 0
47 1 S112 696 1007548 -1843 0
47 1 S112 699 1008247 -1144 0
47 1 S112 681 1008928 -463 0
47 2 S112 656 1009584 193 0
47 2 S112 644 1010228 837 0
47 2 S112 663 1010891 1500 0
47 2 S112 710 1011601 2210 0
47 2 S112 750 1012351 2960 0
47 2 S112 778 1013129 3738 0
47 2 S112 771 1013900 4509 0
47 2 S112 788 1014688 5297 0
47 2 S112 796 1015484 6093 0
47 2 S112 732 1016216 6825 0
0 0 0 698 1016914 -11824 0
0 0 0 672 1017586 -11152 0
0 0 0 656 1018242 -10496 0
0 0 0 657 1018899 -9839 0
0 0 0 660 1019559 -9179 0
0 0 0 658 1020217 -8521 0
0 0 0 623 1020840 -7898 0
0 0 0 623 1021463 -7275 0
0 0 0 618 1022081 -6657 0
0 0 0 675 1022756 -5982 0
0 0 0 701 1023457 -5281 0
0 0 0 743 1024200 -4538 0
0 0 0 720 1024920 -3818 0
0 0 0 706 1025626 -3112 0
0 0 0 718 1026344 -2394 0
48 1 S116 718 1027062 -1676 0
48 1 S116 712 1027774 -964 0
48 1 S116 681 1028455 -283 0
48 2 S116 660 1029115 377 0
48 2 S116 667 1029782 1044 0
48 2 S116 664 1030446 1708 0
48 2 S116 661 1031107 2369 0
48 2 S116 668 1031775 3037 0
48 2 S116 655 1032430 3692 0
48 2 S116 658 1033088 4350 0
48 2 S116 641 1033729 4991 0
48 2 S116 641 1034370 5632 0
48 2 S116 633 1035003 6265 0
48 2 S116 640 1035643 6905 0
0 0 0 670 1036313 -8506 0
0 0 0 674 1036987 -7832 0
0 0 0 645 1037632 -7187 0
0 0 0 621 1038253 -6566 0
0 0 0 606 1038859 -5960 0
0 0 0 603 1039462 -5357 0
0 0 0 631 1040093 -4726 0
0 0 0 642 1040735 -4084 0
0 0 0 668 1041403 -3416 0
0 0 0 672 1042075 -2744 0
0 0 0 678 1042753 -2066 0
49 1 S112 676 1043429 -1390 0
49 1 S112 683 1044112 -707 0
49 1 S112 657 1044769 -50 0
49 2 S112 659 1045428 609 0
49 2 S112 648 1046076 1257 0
49 2 S112 667 1046743 1924 0
49 2 S112 665 1047408 2589 0
49 2 S112 684 1048092 3273 0
49 2 S112 704 1048796 3977 0
49 2 S112 689 1049485 4666 0
49 2 S112 691 1050176 5357 0
49 2 S112 704 1050880 6061 0
49 2 S112 701 1051581 6762 0
0 0 0 685 1052266 -12480 0
0 0 0 685 1052951 -11795 0
0 0 0 652 1053603 -11143 0
0 0 0 652 1054255 -10491 0
0 0 0 645 1054900 -9846 0
0 0 0 665 1055565 -9181 0
0 0 0 658 1056223 -8523 0
0 0 0 659 1056882 -7864 0
0 0 0 647 1057529 -7217 0
0 0 0 672 1058201 -6545 0
0 0 0 683 1058884 -5862 0
0 0 0 695 1059579 -5167 0
0 0 0 697 1060276 -4470 0
0 0 0 700 1060976 -3770 0
0 0 0 677 1061653 -3093 0
0 0 0 655 1062308 -2438 0
50 1 S106 656 1062964 -1782 0
50 1 S106 663 1063627 -1119 0
50 1 S106 667 1064294 -452 0
50 2 S106 666 1064960 214 0
50 2 S106 652 1065612 866 0
50 2 S106 650 1066262 1516 0
50 2 S106 662 1066924 2178 0
50 2 S106 673 1067597 2851 0
50 2 S106 676 1068273 3527 0
50 2 S106 681 1068954 4208 0
50 2 S106 684 1069638 4892 0
50 2 S106 683 1070321 5575 0
50 2 S106 674 1070995 6249 0
50 2 S106 687 1071682 6936 0
0 0 0 693 1072375 -7607 0
0 0 0 664 1073039 -6943 0
0 0 0 653 1073692 -6290 0
0 0 0 648 1074340 -5642 0
0 0 0 662 1075002 -4980 0
0 0 0 660 1075662 -4320 0
0 0 0 653 1076315 -3667 0
0 0 0 651 1076966 -3016 0
0 0 0 654 1077620 -2362 0
51 1 S112 689 1078309 -1673 0
51 1 S112 696 1079005 -977 0
51 1 S112 700 1079705 -277 0
51 2 S112 675 1080380 398 0
51 2 S112 678 1081058 1076 0
51 2 S112 682 1081740 1758 0
51 2 S112 687 1082427 2445 0
51 2 S112 686 1083113 3131 0
51 2 S112 661 1083774 3792 0
51 2 S112 657 1084431 4449 0
51 2 S112 660 1085091 5109 0
51 2 S112 654 1085745 5763 0
51 2 S112 657 1086402 6420 0
0 0 0 637 1087039 -8245 0
0 0 0 643 1087682 -7602 0
0 0 0 641 1088323 -6961 0
0 0 0 630 1088953 -6331 0
0 0 0 621 1089574 -5710 0
0 0 0 625 1090199 -5085 0
0 0 0 633 1090832 -4452 0
0 0 0 656 1091488 -3796 0
0 0 0 671 1092159 -3125 0
0 0 0 671 1092830 -2454 0
52 1 S116 665 1093495 -1789 0
52 1 S116 681 1094176 -1108 0
52 1 S116 686 1094862 -422 0
52 2 S116 693 1095555 271 0
52 2 S116 676 1096231 947 0
52 2 S116 657 1096888 1604 0
52 2 S116 657 1097545 2261 0
52 2 S116 659 1098204 2920 0
52 2 S116 658 1098862 3578 0
52 2 S116 625 1099487 4203 0
52 2 S116 621 1100108 4824 0
52 2 S116 617 1100725 5441 0
52 2 S116 619 1101344 6060 0
52 2 S116 617 1101961 6677 0
0 0 0 622 1102583 -9660 0
0 0 0 645 1103228 -9015 0
0 0 0 636 1103864 -8379 0
0 0 0 634 1104498 -7745 0
0 0 0 644 1105142 -7101 0
0 0 0 636 1105778 -6465 0
0 0 0 649 1106427 -5816 0
0 0 0 633 1107060 -5183 0
0 0 0 626 1107686 -4557 0
0 0 0 628 1108314 -3929 0
0 0 0 630 1108944 -3299 0
0 0 0 639 1109583 -2660 0
0 0 0 629 1110212 -2031 0
53 1 S106 635 1110847 -1396 0
53 1 S106 631 1111478 -765 0
53 1 S106 649 1112127 -116 0
53 2 S106 656 1112783 540 0
53 2 S106 659 1113442 1199 0
53 2 S106 663 1114105 1862 0
53 2 S106 649 1114754 2511 0
53 2 S106 656 1115410 3167 0
53 2 S106 656 1116066 3823 0
53 2 S106 673 1116739 4496 0
53 2 S106 684 1117423 5180 0
53 2 S106 680 1118103 5860 0
53 2 S106 673 1118776 6533 0
0 0 0 663 1119439 -8786 0
0 0 0 660 1120099 -8126 0
0 0 0 659 1120758 -7467 0
0 0 0 654 1121412 -6813 0
0 0 0 650 1122062 -6163 0
0 0 0 644 1122706 -5519 0
0 0 0 643 1123349 -4876 0
0 0 0 641 1123990 -4235 0
0 0 0 652 1124642 -3583 0
0 0 0 669 1125311 -2914 0
0 0 0 678 1125989 -2236 0
54 1 S102 699 1126688 -1537 0
54 1 S102 716 1127404 -821 0
54 1 S102 723 1128127 -98 0
54 2 S102 699 1128826 601 0
54 2 S102 675 1129501 1276 0
54 2 S102 657 1130158 1933 0
54 2 S102 663 1130821 2596 0
54 2 S102 667 1131488 3263 0
54 2 S102 654 1132142 3917 0
54 2 S102 647 1132789 4564 0
54 2 S102 636 1133425 5200 0
54 2 S102 634 1134059 5834 0
54 2 S102 652 1134711 6486 0
0 0 0 663 1135374 -12496 0
0 0 0 672 1136046 -11824 0
0 0 0 660 1136706 -11164 0
0 0 0 649 1137355 -10515 0
0 0 0 653 1138008 -9862 0
0 0 0 663 1138671 -9199 0
0 0 0 656 1139327 -8543 0
0 0 0 665 1139992 -7878 0
0 0 0 669 1140661 -7209 0
0 0 0 683 1141344 -6526 0
0 0 0 689 1142033 -5837 0
0 0 0 700 1142733 -5137 0
0 0 0 696 1143429 -4441 0
0 0 0 654 1144083 -3787 0
0 0 0 648 1144731 -3139 0
0 0 0 649 1145380 -2490 0
55 1 S106 649 1146029 -1841 0
55 1 S106 650 1146679 -1191 0
55 1 S106 646 1147325 -545 0
55 2 S106 632 1147957 87 0
55 2 S106 641 1148598 728 0
55 2 S106 639 1149237 1367 0
55 2 S106 637 1149874 2004 0
55 2 S106 633 1150507 2637 0
55 2 S106 628 1151135 3265 0
55 2 S106 623 1151758 3888 0
55 2 S106 632 1152390 4520 0
55 2 S106 658 1153048 5178 0
55 2 S106 652 1153700 5830 0
55 2 S106 646 1154346 6476 0
0 0 0 642 1154988 -7223 0
0 0 0 648 1155636 -6575 0
0 0 0 658 1156294 -5917 0
0 0 0 670 1156964 -5247 0
0 0 0 657 1157621 -4590 0
0 0 0 635 1158256 -3955 0
0 0 0 633 1158889 -3322 0
0 0 0 637 1159526 -2685 0
0 0 0 637 1160163 -2048 0
56 1 S116 632 1160795 -1416 0
56 1 S116 623 1161418 -793 0
56 1 S116 628 1162046 -165 0
56 2 S116 643 1162689 478 0
56 2 S116 660 1163349 1138 0
56 2 S116 654 1164003 1792 0
56 2 S116 635 1164638 2427 0
56 2 S116 628 1165266 3055 0
56 2 S116 617 1165883 3672 0
56 2 S116 639 1166522 4311 0
56 2 S116 622 1167144 4933 0
56 2 S116 637 1167781 5570 0
56 2 S116 624 1168405 6194 0
56 2 S116 617 1169022 6811 0
0 0 0 600 1169622 -7675 0
0 0 0 596 1170218 -7079 0
0 0 0 586 1170804 -6493 0
0 0 0 600 1171404 -5893 0
0 0 0 614 1172018 -5279 0
0 0 0 616 1172634 -4663 0
0 0 0 621 1173255 -4042 0
0 0 0 629 1173884 -3413 0
0 0 0 690 1174574 -2723 0
0 0 0 678 1175252 -2045 0
57 1 S106 659 1175911 -1386 0
57 1 S106 650 1176561 -736 0
57 1 S106 651 1177212 -85 0
57 2 S106 653 1177865 568 0
57 2 S106 638 1178503 1206 0
57 2 S106 640 1179143 1846 0
57 2 S106 642 1179785 2488 0
57 2 S106 647 1180432 3135 0
57 2 S106 651 1181083 3786 0
57 2 S106 647 1181730 4433 0
57 2 S106 636 1182366 5069 0
57 2 S106 644 1183010 5713 0
57 2 S106 647 1183657 6360 0
57 2 S106 647 1184304 7007 0
0 0 0 670 1184974 -9183 0
0 0 0 650 1185624 -8533 0
0 0 0 645 1186269 -7888 0
0 0 0 635 1186904 -7253 0
0 0 0 641 1187545 -6612 0
0 0 0 637 1188182 -5975 0
0 0 0 649 1188831 -5326 0
0 0 0 665 1189496 -4661 0
0 0 0 699 1190195 -3962 0
0 0 0 742 1190937 -3220 0
0 0 0 776 1191713 -2444 0
58 1 S102 788 1192501 -1656 0
58 1 S102 731 1193232 -925 0
58 1 S102 736 1193968 -189 0
58 2 S102 713 1194681 524 0
58 2 S102 711 1195392 1235 0
58 2 S102 703 1196095 1938 0
58 2 S102 686 1196781 2624 0
58 2 S102 673 1197454 3297 0
58 2 S102 657 1198111 3954 0
58 2 S102 661 1198772 4615 0
58 2 S102 664 1199436 5279 0
58 2 S102 699 1200135 5978 0
58 2 S102 706 1200841 6684 0
0 0 0 695 1201536 -8056 0
0 0 0 691 1202227 -7365 0
0 0 0 691 1202918 -6674 0
0 0 0 680 1203598 -5994 0
0 0 0 694 1204292 -5300 0
0 0 0 674 1204966 -4626 0
0 0 0 657 1205623 -3969 0
0 0 0 655 1206278 -3314 0
0 0 0 670 1206948 -2644 0
59 1 S112 708 1207656 -1936 0
59 1 S112 726 1208382 -1210 0
59 1 S112 723 1209105 -487 0
59 2 S112 687 1209792 200 0
59 2 S112 669 1210461 869 0
59 2 S112 691 1211152 1560 0
59 2 S112 688 1211840 2248 0
59 2 S112 692 1212532 2940 0
59 2 S112 653 1213185 3593 0
59 2 S112 642 1213827 4235 0
59 2 S112 645 1214472 4880 0
59 2 S112 650 1215122 5530 0
59 2 S112 669 1215791 6199 0
59 2 S112 650 1216441 6849 0
0 0 0 653 1217094 -9374 0
0 0 0 654 1217748 -8720 0
0 0 0 667 1218415 -8053 0
0 0 0 668 1219083 -7385 0
0 0 0 659 1219742 -6726 0
0 0 0 650 1220392 -6076 0
0 0 0 652 1221044 -5424 0
0 0 0 662 1221706 -4762 0
0 0 0 670 1222376 -4092 0
0 0 0 660 1223036 -3432 0
0 0 0 639 1223675 -2793 0
0 0 0 642 1224317 -2151 0
60 1 S102 655 1224972 -1496 0
60 1 S102 687 1225659 -809 0
60 1 S102 663 1226322 -146 0
60 2 S102 662 1226984 516 0
60 2 S102 661 1227645 1177 0
60 2 S102 677 1228322 1854 0
60 2 S102 686 1229008 2540 0
60 2 S102 660 1229668 3200 0
60 2 S102 651 1230319 3851 0
60 2 S102 653 1230972 4504 0
60 2 S102 657 1231629 5161 0
60 2 S102 674 1232303 5835 0
60 2 S102 665 1232968 6500 0
0 0 0 659 1233627 -12454 0
0 0 0 652 1234279 -11802 0
0 0 0 644 1234923 -11158 0
0 0 0 640 1235563 -10518 0
0 0 0 608 1236171 -9910 0
0 0 0 592 1236763 -9318 0
0 0 0 585 1237348 -8733 0
0 0 0 589 1237937 -8144 0
0 0 0 636 1238573 -7508 0
0 0 0 683 1239256 -6825 0
0 0 0 754 1240010 -6071 0
0 0 0 793 1240803 -5278 0
0 0 0 750 1241553 -4528 0
0 0 0 722 1242275 -3806 0
0 0 0 695 1242970 -3111 0
0 0 0 691 1243661 -2420 0
61 1 S106 697 1244358 -1723 0
61 1 S106 700 1245058 -1023 0
61 1 S106 720 1245778 -303 0
61 2 S106 707 1246485 404 0
61 2 S106 685 1247170 1089 0
61 2 S106 687 1247857 1776 0
61 2 S106 704 1248561 2480 0
61 2 S106 732 1249293 3212 0
61 2 S106 720 1250013 3932 0
61 2 S106 704 1250717 4636 0
61 2 S106 698 1251415 5334 0
61 2 S106 701 1252116 6035 0
61 2 S106 702 1252818 6737 0
0 0 0 698 1253516 -6888 0
0 0 0 701 1254217 -6187 0
0 0 0 668 1254885 -5519 0
0 0 0 675 1255560 -4844 0
0 0 0 662 1256222 -4182 0
0 0 0 671 1256893 -3511 0
0 0 0 742 1257635 -2769 0
0 0 0 758 1258393 -2011 0
62 1 S112 748 1259141 -1263 0
62 1 S112 729 1259870 -534 0
62 2 S112 715 1260585 181 0
62 2 S112 686 1261271 867 0
62 2 S112 685 1261956 1552 0
62 2 S112 682 1262638 2234 0
62 2 S112 677 1263315 2911 0
62 2 S112 668 1263983 3579 0
62 2 S112 654 1264637 4233 0
62 2 S112 649 1265286 4882 0
62 2 S112 671 1265957 5553 0
62 2 S112 676 1266633 6229 0
62 2 S112 679 1267312 6908 0
0 0 0 659 1267971 -11896 0
0 0 0 644 1268615 -11252 0
0 0 0 637 1269252 -10615 0
0 0 0 628 1269880 -9987 0
0 0 0 637 1270517 -9350 0
0 0 0 640 1271157 -8710 0
0 0 0 618 1271775 -8092 0
0 0 0 625 1272400 -7467 0
0 0 0 637 1273037 -6830 0
0 0 0 674 1273711 -6156 0
0 0 0 689 1274400 -5467 0
0 0 0 692 1275092 -4775 0
0 0 0 667 1275759 -4108 0
0 0 0 657 1276416 -3451 0
0 0 0 676 1277092 -2775 0
0 0 0 692 1277784 -2083 0
63 1 S102 683 1278467 -1400 0
63 1 S102 653 1279120 -747 0
63 1 S102 661 1279781 -86 0
63 2 S102 670 1280451 584 0
63 2 S102 668 1281119 1252 0
63 2 S102 684 1281803 1936 0
63 2 S102 661 1282464 2597 0
63 2 S102 645 1283109 3242 0
63 2 S102 653 1283762 3895 0
63 2 S102 658 1284420 4553 0
63 2 S102 658 1285078 5211 0
63 2 S102 652 1285730 5863 0
63 2 S102 646 1286376 6509 0
0 0 0 653 1287029 -10544 0
0 0 0 670 1287699 -9874 0
0 0 0 669 1288368 -9205 0
0 0 0 660 1289028 -8545 0
0 0 0 656 1289684 -7889 0
0 0 0 665 1290349 -7224 0
0 0 0 670 1291019 -6554 0
0 0 0 664 1291683 -5890 0
0 0 0 655 1292338 -5235 0
0 0 0 659 1292997 -4576 0
0 0 0 683 1293680 -3893 0
0 0 0 682 1294362 -3211 0
0 0 0 679 1295041 -2532 0
64 1 S112 668 1295709 -1864 0
64 1 S112 649 1296358 -1215 0
64 1 S112 640 1296998 -575 0
64 2 S112 645 1297643 70 0
64 2 S112 665 1298308 735 0
64 2 S112 682 1298990 1417 0
64 2 S112 667 1299657 2084 0
64 2 S112 656 1300313 2740 0
64 2 S112 659 1300972 3399 0
64 2 S112 661 1301633 4060 0
64 2 S112 682 1302315 4742 0
64 2 S112 683 1302998 5425 0
64 2 S112 680 1303678 6105 0
64 2 S112 663 1304341 6768 0
0 0 0 664 1305005 -8649 0
0 0 0 667 1305672 -7982 0
0 0 0 664 1306336 -7318 0
0 0 0 641 1306977 -6677 0
0 0 0 635 1307612 -6042 0
0 0 0 641 1308253 -5401 0
0 0 0 655 1308908 -4746 0
0 0 0 649 1309557 -4097 0
0 0 0 654 1310211 -3443 0
0 0 0 656 1310867 -2787 0
0 0 0 684 1311551 -2103 0
65 1 S106 702 1312253 -1401 0
65 1 S106 712 1312965 -689 0
65 2 S106 693 1313658 4 0
65 2 S106 679 1314337 683 0
65 2 S106 678 1315015 1361 0
65 2 S106 671 1315686 2032 0
65 2 S106 667 1316353 2699 0
65 2 S106 655 1317008 3354 0
65 2 S106 645 1317653 3999 0
65 2 S106 651 1318304 4650 0
65 2 S106 650 1318954 5300 0
65 2 S106 661 1319615 5961 0
65 2 S106 651 1320266 6612 0
0 0 0 652 1320918 -8104 0
0 0 0 654 1321572 -7450 0
0 0 0 673 1322245 -6777 0
0 0 0 675 1322920 -6102 0
0 0 0 674 1323594 -5428 0
0 0 0 663 1324257 -4765 0
0 0 0 645 1324902 -4120 0
0 0 0 640 1325542 -3480 0
0 0 0 672 1326214 -2808 0
0 0 0 700 1326914 -2108 0
66 1 S116 703 1327617 -1405 0
66 1 S116 698 1328315 -707 0
66 1 S116 686 1329001 -21 0
66 2 S116 686 1329687 665 0
66 2 S116 681 1330368 1346 0
66 2 S116 675 1331043 2021 0
66 2 S116 656 1331699 2677 0
66 2 S116 650 1332349 3327 0
66 2 S116 659 1333008 3986 0
66 2 S116 650 1333658 4636 0
66 2 S116 642 1334300 5278 0
66 2 S116 636 1334936 5914 0
66 2 S116 635 1335571 6549 0
0 0 0 626 1336197 -12189 0
0 0 0 618 1336815 -11571 0
0 0 0 607 1337422 -10964 0
0 0 0 602 1338024 -10362 0
0 0 0 596 1338620 -9766 0
0 0 0 608 1339228 -9158 0
0 0 0 597 1339825 -8561 0
0 0 0 596 1340421 -7965 0
0 0 0 599 1341020 -7366 0
0 0 0 592 1341612 -6774 0
0 0 0 577 1342189 -6197 0
0 0 0 571 1342760 -5626 0
0 0 0 579 1343339 -5047 0
0 0 0 591 1343930 -4456 0
0 0 0 589 1344519 -3867 0
0 0 0 576 1345095 -3291 0
0 0 0 565 1345660 -2726 0
0 0 0 569 1346229 -2157 0
67 1 S102 584 1346813 -1573 0
67 1 S102 594 1347407 -979 0
67 1 S102 617 1348024 -362 0
67 2 S102 611 1348635 249 0
67 2 S102 624 1349259 873 0
67 2 S102 639 1349898 1512 0
67 2 S102 672 1350570 2184 0
67 2 S102 670 1351240 2854 0
67 2 S102 664 1351904 3518 0
67 2 S102 652 1352556 4170 0
67 2 S102 667 1353223 4837 0
67 2 S102 687 1353910 5524 0
67 2 S102 683 1354593 6207 0
67 2 S102 668 1355261 6875 0
0 0 0 660 1355921 -7618 0
0 0 0 654 1356575 -6964 0
0 0 0 653 1357228 -6311 0
0 0 0 672 1357900 -5639 0
0 0 0 680 1358580 -4959 0
0 0 0 653 1359233 -4306 0
0 0 0 658 1359891 -3648 0
0 0 0 687 1360578 -2961 0
0 0 0 700 1361278 -2261 0
68 1 S106 719 1361997 -1542 0
68 1 S106 685 1362682 -857 0
68 1 S106 683 1363365 -174 0
68 2 S106 688 1364053 514 0
68 2 S106 692 1364745 1206 0
68 2 S106 686 1365431 1892 0
68 2 S106 672 1366103 2564 0
68 2 S106 652 1366755 3216 0
68 2 S106 658 1367413 3874 0
68 2 S106 660 1368073 4534 0
68 2 S106 690 1368763 5224 0
68 2 S106 676 1369439 5900 0
68 2 S106 673 1370112 6573 0
0 0 0 696 1370808 -12061 0
0 0 0 699 1371507 -11362 0
0 0 0 687 1372194 -10675 0
0 0 0 659 1372853 -10016 0
0 0 0 649 1373502 -9367 0
0 0 0 655 1374157 -8712 0
0 0 0 645 1374802 -8067 0
0 0 0 651 1375453 -7416 0
0 0 0 652 1376105 -6764 0
0 0 0 671 1376776 -6093 0
0 0 0 700 1377476 -5393 0
0 0 0 734 1378210 -4659 0
0 0 0 736 1378946 -3923 0
0 0 0 687 1379633 -3236 0
0 0 0 675 1380308 -2561 0
69 1 S102 669 1380977 -1892 0
69 1 S102 676 1381653 -1216 0
69 1 S102 672 1382325 -544 0
69 2 S102 669 1382994 125 0
69 2 S102 671 1383665 796 0
69 2 S102 670 1384335 1466 0
69 2 S102 669 1385004 2135 0
69 2 S102 669 1385673 2804 0
69 2 S102 665 1386338 3469 0
69 2 S102 675 1387013 4144 0
69 2 S102 696 1387709 4840 0
69 2 S102 697 1388406 5537 0
69 2 S102 682 1389088 6219 0
69 2 S102 675 1389763 6894 0
0 0 0 693 1390456 -9787 0
0 0 0 680 1391136 -9107 0
0 0 0 683 1391819 -8424 0
0 0 0 663 1392482 -7761 0
0 0 0 668 1393150 -7093 0
0 0 0 659 1393809 -6434 0
0 0 0 682 1394491 -5752 0
0 0 0 696 1395187 -5056 0
0 0 0 687 1395874 -4369 0
0 0 0 727 1396601 -3642 0
0 0 0 735 1397336 -2907 0
0 0 0 754 1398090 -2153 0
70 1 S112 744 1398834 -1409 0
70 1 S112 702 1399536 -707 0
70 1 S112 692 1400228 -15 0
70 2 S112 696 1400924 681 0
70 2 S112 693 1401617 1374 0
70 2 S112 674 1402291 2048 0
70 2 S112 656 1402947 2704 0
70 2 S112 643 1403590 3347 0
70 2 S112 649 1404239 3996 0
70 2 S112 652 1404891 4648 0
70 2 S112 673 1405564 5321 0
70 2 S112 699 1406263 6020 0
70 2 S112 670 1406933 6690 0
0 0 0 666 1407599 -11892 0
0 0 0 657 1408256 -11235 0
0 0 0 669 1408925 -10566 0
0 0 0 665 1409590 -9901 0
0 0 0 657 1410247 -9244 0
0 0 0 652 1410899 -8592 0
0 0 0 659 1411558 -7933 0
0 0 0 677 1412235 -7256 0
0 0 0 670 1412905 -6586 0
0 0 0 668 1413573 -5918 0
0 0 0 650 1414223 -5268 0
0 0 0 673 1414896 -4595 0
0 0 0 678 1415574 -3917 0
0 0 0 671 1416245 -3246 0
0 0 0 653 1416898 -2593 0
71 1 S116 642 1417540 -1951 0
71 1 S116 638 1418178 -1313 0
71 1 S116 647 1418825 -666 0
71 1 S116 662 1419487 -4 0
71 2 S116 659 1420146 655 0
71 2 S116 662 1420808 1317 0
71 2 S116 662 1421470 1979 0
71 2 S116 663 1422133 2642 0
71 2 S116 661 1422794 3303 0
71 2 S116 636 1423430 3939 0
71 2 S116 632 1424062 4571 0
71 2 S116 621 1424683 5192 0
71 2 S116 614 1425297 5806 0
71 2 S116 625 1425922 6431 0
0 0 0 619 1426541 -10141 0
0 0 0 608 1427149 -9533 0
0 0 0 596 1427745 -8937 0
0 0 0 591 1428336 -8346 0
0 0 0 587 1428923 -7759 0
0 0 0 603 1429526 -7156 0
0 0 0 604 1430130 -6552 0
0 0 0 588 1430718 -5964 0
0 0 0 581 1431299 -5383 0
0 0 0 571 1431870 -4812 0
0 0 0 572 1432442 -4240 0
0 0 0 609 1433051 -3631 0
0 0 0 636 1433687 -2995 0
0 0 0 641 1434328 -2354 0
72 1 S102 651 1434979 -1703 0
72 1 S102 645 1435624 -1058 0
72 1 S102 633 1436257 -425 0
72 2 S102 623 1436880 198 0
72 2 S102 621 1437501 819 0
72 2 S102 625 1438126 1444 0
72 2 S102 637 1438763 2081 0
72 2 S102 632 1439395 2713 0
72 2 S102 621 1440016 3334 0
72 2 S102 626 1440642 3960 0
72 2 S102 648 1441290 4608 0
72 2 S102 649 1441939 5257 0
72 2 S102 675 1442614 5932 0
72 2 S102 680 1443294 6612 0
0 0 0 683 1443977 -8074 0
0 0 0 685 1444662 -7389 0
0 0 0 678 1445340 -6711 0
0 0 0 684 1446024 -6027 0
0 0 0 694 1446718 -5333 0
0 0 0 667 1447385 -4666 0
0 0 0 650 1448035 -4016 0
0 0 0 651 1448686 -3365 0
0 0 0 661 1449347 -2704 0
0 0 0 649 1449996 -2055 0
73 1 S116 647 1450643 -1408 0
73 1 S116 651 1451294 -757 0
73 1 S116 663 1451957 -94 0
73 2 S116 662 1452619 568 0
73 2 S116 656 1453275 1224 0
73 2 S116 675 1453950 1899 0
73 2 S116 672 1454622 2571 0
73 2 S116 682 1455304 3253 0
73 2 S116 676 1455980 3929 0
73 2 S116 682 1456662 4611 0
73 2 S116 687 1457349 5298 0
73 2 S116 649 1457998 5947 0
73 2 S116 638 1458636 6585 0
0 0 0 628 1459264 -9862 0
0 0 0 629 1459893 -9233 0
0 0 0 621 1460514 -8612 0
0 0 0 612 1461126 -8000 0
0 0 0 612 1461738 -7388 0
0 0 0 618 1462356 -6770 0
0 0 0 632 1462988 -6138 0
0 0 0 642 1463630 -5496 0
0 0 0 637 1464267 -4859 0
0 0 0 617 1464884 -4242 0
0 0 0 621 1465505 -3621 0
0 0 0 623 1466128 -2998 0
0 0 0 635 1466763 -2363 0
74 1 S106 647 1467410 -1716 0
74 1 S106 654 1468064 -1062 0
74 1 S106 641 1468705 -421 0
74 2 S106 648 1469353 227 0
74 2 S106 666 1470019 893 0
74 2 S106 665 1470684 1558 0
74 2 S106 652 1471336 2210 0
74 2 S106 632 1471968 2842 0
74 2 S106 626 1472594 3468 0
74 2 S106 627 1473221 4095 0
74 2 S106 626 1473847 4721 0
74 2 S106 635 1474482 5356 0
74 2 S106 624 1475106 5980 0
74 2 S106 645 1475751 6625 0
0 0 0 664 1476415 -7416 0
0 0 0 701 1477116 -6715 0
0 0 0 689 1477805 -6026 0
0 0 0 698 1478503 -5328 0
0 0 0 673 1479176 -4655 0
0 0 0 650 1479826 -4005 0
0 0 0 640 1480466 -3365 0
0 0 0 650 1481116 -2715 0
0 0 0 663 1481779 -2052 0
75 1 S112 677 1482456 -1375 0
75 1 S112 673 1483129 -702 0
75 1 S112 681 1483810 -21 0
75 2 S112 663 1484473 642 0
75 2 S112 672 1485145 1314 0
75 2 S112 680 1485825 1994 0
75 2 S112 671 1486496 2665 0
75 2 S112 654 1487150 3319 0
75 2 S112 652 1487802 3971 0
75 2 S112 649 1488451 4620 0
75 2 S112 673 1489124 5293 0
75 2 S112 675 1489799 5968 0
75 2 S112 676 1490475 6644 0
0 0 0 653 1491128 -7989 0
0 0 0 646 1491774 -7343 0
0 0 0 624 1492398 -6719 0
0 0 0 602 1493000 -6117 0
0 0 0 594 1493594 -5523 0
0 0 0 595 1494189 -4928 0
0 0 0 600 1494789 -4328 0
0 0 0 642 1495431 -3686 0
0 0 0 711 1496142 -2975 0
0 0 0 771 1496913 -2204 0
76 1 S116 747 1497660 -1457 0
76 1 S116 752 1498412 -705 0
76 2 S116 722 1499134 17 0
76 2 S116 697 1499831 714 0
76 2 S116 683 1500514 1397 0
76 2 S116 671 1501185 2068 0
76 2 S116 652 1501837 2720 0
76 2 S116 647 1502484 3367 0
76 2 S116 637 1503121 4004 0
76 2 S116 635 1503756 4639 0
76 2 S116 646 1504402 5285 0
76 2 S116 651 1505053 5936 0
76 2 S116 640 1505693 6576 0
0 0 0 651 1506344 -8157 0
0 0 0 665 1507009 -7492 0
0 0 0 675 1507684 -6817 0
0 0 0 654 1508338 -6163 0
0 0 0 673 1509011 -5490 0
0 0 0 665 1509676 -4825 0
0 0 0 661 1510337 -4164 0
0 0 0 645 1510982 -3519 0
0 0 0 639 1511621 -2880 0
0 0 0 643 1512264 -2237 0
77 1 S106 647 1512911 -1590 0
77 1 S106 646 1513557 -944 0
77 1 S106 645 1514202 -299 0
77 2 S106 631 1514833 332 0
77 2 S106 618 1515451 950 0
77 2 S106 632 1516083 1582 0
77 2 S106 655 1516738 2237 0
77 2 S106 655 1517393 2892 0
77 2 S106 675 1518068 3567 0
77 2 S106 663 1518731 4230 0
77 2 S106 662 1519393 4892 0
77 2 S106 679 1520072 5571 0
77 2 S106 685 1520757 6256 0
77 2 S106 688 1521445 6944 0
0 0 0 672 1522117 -7869 0
0 0 0 669 1522786 -7200 0
0 0 0 653 1523439 -6547 0
0 0 0 657 1524096 -5890 0
0 0 0 662 1524758 -5228 0
0 0 0 663 1525421 -4565 0
0 0 0 660 1526081 -3905 0
0 0 0 660 1526741 -3245 0
0 0 0 674 1527415 -2571 0
78 1 S112 689 1528104 -1882 0
78 1 S112 694 1528798 -1188 0
78 1 S112 700 1529498 -488 0
78 2 S112 680 1530178 192 0
78 2 S112 667 1530845 859 0
78 2 S112 673 1531518 1532 0
78 2 S112 662 1532180 2194 0
78 2 S112 669 1532849 2863 0
78 2 S112 666 1533515 3529 0
78 2 S112 645 1534160 4174 0
78 2 S112 639 1534799 4813 0
78 2 S112 653 1535452 5466 0
78 2 S112 653 1536105 6119 0
78 2 S112 660 1536765 6779 0
0 0 0 649 1537414 -11206 0
0 0 0 655 1538069 -10551 0
0 0 0 663 1538732 -9888 0
0 0 0 684 1539416 -9204 0
0 0 0 675 1540091 -8529 0
0 0 0 666 1540757 -7863 0
0 0 0 656 1541413 -7207 0
0 0 0 654 1542067 -6553 0
0 0 0 653 1542720 -5900 0
0 0 0 667 1543387 -5233 0
0 0 0 653 1544040 -4580 0
0 0 0 650 1544690 -3930 0
0 0 0 643 1545333 -3287 0
0 0 0 654 1545987 -2633 0
79 1 S102 661 1546648 -1972 0
79 1 S102 660 1547308 -1312 0
79 1 S102 665 1547973 -647 0
79 2 S102 652 1548625 5 0
79 2 S102 660 1549285 665 0
79 2 S102 675 1549960 1340 0
79 2 S102 683 1550643 2023 0
79 2 S102 692 1551335 2715 0
79 2 S102 684 1552019 3399 0
79 2 S102 676 1552695 4075 0
79 2 S102 686 1553381 4761 0
79 2 S102 691 1554072 5452 0
79 2 S102 707 1554779 6159 0
79 2 S102 676 1555455 6835 0
0 0 0 659 1556114 -10046 0
0 0 0 643 1556757 -9403 0
0 0 0 648 1557405 -8755 0
0 0 0 660 1558065 -8095 0
0 0 0 686 1558751 -7409 0
0 0 0 690 1559441 -6719 0
0 0 0 634 1560075 -6085 0
0 0 0 612 1560687 -5473 0
0 0 0 598 1561285 -4875 0
0 0 0 596 1561881 -4279 0
0 0 0 644 1562525 -3635 0
0 0 0 770 1563295 -2865 0
0 0 0 842 1564137 -2023 0
80 1 S116 815 1564952 -1208 0
80 1 S116 762 1565714 -446 0
80 2 S116 725 1566439 279 0
80 2 S116 694 1567133 973 0
80 2 S116 675 1567808 1648 0
80 2 S116 646 1568454 2294 0
80 2 S116 635 1569089 2929 0
80 2 S116 626 1569715 3555 0
80 2 S116 637 1570352 4192 0
80 2 S116 629 1570981 4821 0
80 2 S116 615 1571596 5436 0
80 2 S116 615 1572211 6051 0
80 2 S116 618 1572829 6669 0
