T_0172
BeatCount Mean SD BeatCountNoOutliers MeanNoOutliers SDNoOutliers
2026 774,449160908193 94,3979369506037 2021 772,258782780802 76,262969752889

Trial TrialStatus Trialtype IBI AbsPosition RelPosition Outlier
0 0 0 814 975 -15026 0
0 0 0 734 1709 -14292 0
0 0 0 700 2409 -13592 0
0 0 0 683 3092 -12909 0
0 0 0 667 3759 -12242 0
0 0 0 656 4415 -11586 0
0 0 0 648 5063 -10938 0
0 0 0 637 5700 -10301 0
0 0 0 680 6380 -9621 0
0 0 0 799 7179 -8822 0
0 0 0 828 8007 -7994 0
0 0 0 798 8805 -7196 0
0 0 0 756 9561 -6440 0
0 0 0 743 10304 -5697 0
0 0 0 724 11028 -4973 0
0 0 0 707 11735 -4266 0
0 0 0 713 12448 -3553 0
0 0 0 698 13146 -2855 0
0 0 0 683 13829 -2172 0
1 1 S112 661 14490 -1511 0
1 1 S112 642 15132 -869 0
1 1 S112 635 15767 -234 0
1 2 S112 646 16413 412 0
1 2 S112 753 17166 1165 0
1 2 S112 1177 18343 2342 1
1 2 S112 1070 19413 3412 1
1 2 S112 974 20387 4386 0
1 2 S112 943 21330 5329 0
1 2 S112 945 22275 6274 0
0 0 0 916 23191 -11328 0
0 0 0 898 24089 -10430 0
0 0 0 832 24921 -9598 0
0 0 0 833 25754 -8765 0
0 0 0 813 26567 -7952 0
0 0 0 791 27358 -7161 0
0 0 0 837 28195 -6324 0
0 0 0 706 28901 -5618 0
0 0 0 711 29612 -4907 0
0 0 0 706 30318 -4201 0
0 0 0 719 31037 -3482 0
0 0 0 828 31865 -2654 0
2 1 S102 831 32696 -1823 0
2 1 S102 742 33438 -1081 0
2 1 S102 744 34182 -337 0
2 2 S102 819 35001 482 0
2 2 S102 875 35876 1357 0
2 2 S102 910 36786 2267 0
2 2 S102 870 37656 3137 0
2 2 S102 856 38512 3993 0
2 2 S102 791 39303 4784 0
2 2 S102 769 40072 5553 0
2 2 S102 754 40826 6307 0
0 0 0 727 41553 -10589 0
0 0 0 705 42258 -9884 0
0 0 0 739 42997 -9145 0
0 0 0 838 43835 -8307 0
0 0 0 912 44747 -7395 0
0 0 0 945 45692 -6450 0
0 0 0 898 46590 -5552 0
0 0 0 851 47441 -4701 0
0 0 0 753 48194 -3948 0
0 0 0 721 48915 -3227 0
0 0 0 719 49634 -2508 0
3 1 S116 768 50402 -1740 0
3 1 S116 792 51194 -948 0
3 1 S116 885 52079 -63 0
3 2 S116 909 52988 846 0
3 2 S116 887 53875 1733 0
3 2 S116 865 54740 2598 0
3 2 S116 863 55603 3461 0
3 2 S116 858 56461 4319 0
3 2 S116 826 57287 5145 0
3 2 S116 771 58058 5916 0
3 2 S116 734 58792 6650 0
0 0 0 738 59530 -11362 0
0 0 0 799 60329 -10563 0
0 0 0 820 61149 -9743 0
0 0 0 886 62035 -8857 0
0 0 0 834 62869 -8023 0
0 0 0 752 63621 -7271 0
0 0 0 743 64364 -6528 0
0 0 0 724 65088 -5804 0
0 0 0 730 65818 -5074 0
0 0 0 773 66591 -4301 0
0 0 0 700 67291 -3601 0
0 0 0 789 68080 -2812 0
0 0 0 778 68858 -2034 0
4 1 S106 805 69663 -1229 0
4 1 S106 843 70506 -386 0
4 2 S106 832 71338 446 0
4 2 S106 769 72107 1215 0
4 2 S106 809 72916 2024 0
4 2 S106 781 73697 2805 0
4 2 S106 786 74483 3591 0
4 2 S106 792 75275 4383 0
4 2 S106 722 75997 5105 0
4 2 S106 782 76779 5887 0
4 2 S106 771 77550 6658 0
0 0 0 800 78350 -9104 0
0 0 0 827 79177 -8277 0
0 0 0 810 79987 -7467 0
0 0 0 745 80732 -6722 0
0 0 0 813 81545 -5909 0
0 0 0 825 82370 -5084 0
0 0 0 859 83229 -4225 0
0 0 0 853 84082 -3372 0
0 0 0 809 84891 -2563 0
5 1 S116 726 85617 -1837 0
5 1 S116 732 86349 -1105 0
5 1 S116 706 87055 -399 0
5 2 S116 721 87776 322 0
5 2 S116 737 88513 1059 0
5 2 S116 727 89240 1786 0
5 2 S116 785 90025 2571 0
5 2 S116 761 90786 3332 0
5 2 S116 829 91615 4161 0
5 2 S116 862 92477 5023 0
5 2 S116 863 93340 5886 0
5 2 S116 849 94189 6735 0
0 0 0 847 95036 -9262 0
0 0 0 831 95867 -8431 0
0 0 0 813 96680 -7618 0
0 0 0 754 97434 -6864 0
0 0 0 729 98163 -6135 0
0 0 0 719 98882 -5416 0
0 0 0 708 99590 -4708 0
0 0 0 720 100310 -3988 0
0 0 0 787 101097 -3201 0
0 0 0 757 101854 -2444 0
6 1 S106 752 102606 -1692 0
6 1 S106 794 103400 -898 0
6 1 S106 815 104215 -83 0
6 2 S106 840 105055 757 0
6 2 S106 850 105905 1607 0
6 2 S106 778 106683 2385 0
6 2 S106 720 107403 3105 0
6 2 S106 678 108081 3783 0
6 2 S106 656 108737 4439 0
6 2 S106 645 109382 5084 0
6 2 S106 660 110042 5744 0
6 2 S106 749 110791 6493 0
0 0 0 802 111593 -12334 0
0 0 0 847 112440 -11487 0
0 0 0 829 113269 -10658 0
0 0 0 878 114147 -9780 0
0 0 0 933 115080 -8847 0
0 0 0 926 116006 -7921 0
0 0 0 900 116906 -7021 0
0 0 0 846 117752 -6175 0
0 0 0 823 118575 -5352 0
0 0 0 774 119349 -4578 0
0 0 0 766 120115 -3812 0
0 0 0 750 120865 -3062 0
0 0 0 714 121579 -2348 0
7 1 S102 729 122308 -1619 0
7 1 S102 716 123024 -903 0
7 1 S102 736 123760 -167 0
7 2 S102 738 124498 571 0
7 2 S102 780 125278 1351 0
7 2 S102 701 125979 2052 0
7 2 S102 773 126752 2825 0
7 2 S102 759 127511 3584 0
7 2 S102 770 128281 4354 0
7 2 S102 780 129061 5134 0
7 2 S102 718 129779 5852 0
7 2 S102 718 130497 6570 0
0 0 0 719 131216 -10300 0
0 0 0 768 131984 -9532 0
0 0 0 761 132745 -8771 0
0 0 0 792 133537 -7979 0
0 0 0 780 134317 -7199 0
0 0 0 804 135121 -6395 0
0 0 0 774 135895 -5621 0
0 0 0 768 136663 -4853 0
0 0 0 696 137359 -4157 0
0 0 0 700 138059 -3457 0
0 0 0 697 138756 -2760 0
0 0 0 712 139468 -2048 0
8 1 S112 778 140246 -1270 0
8 1 S112 800 141046 -470 0
8 2 S112 803 141849 333 0
8 2 S112 798 142647 1131 0
8 2 S112 830 143477 1961 0
8 2 S112 844 144321 2805 0
8 2 S112 851 145172 3656 0
8 2 S112 809 145981 4465 0
8 2 S112 749 146730 5214 0
8 2 S112 789 147519 6003 0
8 2 S112 731 148250 6734 0
0 0 0 799 149049 -8018 0
0 0 0 763 149812 -7255 0
0 0 0 709 150521 -6546 0
0 0 0 795 151316 -5751 0
0 0 0 780 152096 -4971 0
0 0 0 793 152889 -4178 0
0 0 0 727 153616 -3451 0
0 0 0 705 154321 -2746 0
0 0 0 709 155030 -2037 0
9 1 S116 759 155789 -1278 0
9 1 S116 782 156571 -496 0
9 2 S116 848 157419 352 0
9 2 S116 840 158259 1192 0
9 2 S116 823 159082 2015 0
9 2 S116 831 159913 2846 0
9 2 S116 808 160721 3654 0
9 2 S116 786 161507 4440 0
9 2 S116 731 162238 5171 0
9 2 S116 732 162970 5903 0
9 2 S116 793 163763 6696 0
0 0 0 796 164559 -11971 0
0 0 0 838 165397 -11133 0
0 0 0 825 166222 -10308 0
0 0 0 785 167007 -9523 0
0 0 0 800 167807 -8723 0
0 0 0 741 168548 -7982 0
0 0 0 743 169291 -7239 0
0 0 0 778 170069 -6461 0
0 0 0 683 170752 -5778 0
0 0 0 695 171447 -5083 0
0 0 0 696 172143 -4387 0
0 0 0 719 172862 -3668 0
0 0 0 811 173673 -2857 0
0 0 0 823 174496 -2034 0
10 1 S102 795 175291 -1239 0
10 1 S102 814 176105 -425 0
10 2 S102 804 176909 379 0
10 2 S102 811 177720 1190 0
10 2 S102 794 178514 1984 0
10 2 S102 719 179233 2703 0
10 2 S102 709 179942 3412 0
10 2 S102 666 180608 4078 0
10 2 S102 636 181244 4714 0
10 2 S102 616 181860 5330 0
10 2 S102 616 182476 5946 0
10 2 S102 627 183103 6573 0
0 0 0 635 183738 -11841 0
0 0 0 673 184411 -11168 0
0 0 0 736 185147 -10432 0
0 0 0 740 185887 -9692 0
0 0 0 772 186659 -8920 0
0 0 0 701 187360 -8219 0
0 0 0 675 188035 -7544 0
0 0 0 645 188680 -6899 0
0 0 0 622 189302 -6277 0
0 0 0 608 189910 -5669 0
0 0 0 603 190513 -5066 0
0 0 0 605 191118 -4461 0
0 0 0 595 191713 -3866 0
0 0 0 591 192304 -3275 0
0 0 0 585 192889 -2690 0
0 0 0 586 193475 -2104 0
11 1 S112 586 194061 -1518 0
11 1 S112 590 194651 -928 0
11 1 S112 596 195247 -332 0
11 2 S112 592 195839 260 0
11 2 S112 591 196430 851 0
11 2 S112 611 197041 1462 0
11 2 S112 650 197691 2112 0
11 2 S112 756 198447 2868 0
11 2 S112 791 199238 3659 0
11 2 S112 819 200057 4478 0
11 2 S112 805 200862 5283 0
11 2 S112 787 201649 6070 0
11 2 S112 721 202370 6791 0
0 0 0 715 203085 -6967 0
0 0 0 674 203759 -6293 0
0 0 0 694 204453 -5599 0
0 0 0 769 205222 -4830 0
0 0 0 852 206074 -3978 0
0 0 0 908 206982 -3070 0
0 0 0 917 207899 -2153 0
12 1 S116 899 208798 -1254 0
12 1 S116 825 209623 -429 0
12 2 S116 823 210446 394 0
12 2 S116 804 211250 1198 0
12 2 S116 797 212047 1995 0
12 2 S116 814 212861 2809 0
12 2 S116 747 213608 3556 0
12 2 S116 742 214350 4298 0
12 2 S116 733 215083 5031 0
12 2 S116 731 215814 5762 0
12 2 S116 776 216590 6538 0
0 0 0 765 217355 -11894 0
0 0 0 719 218074 -11175 0
0 0 0 748 218822 -10427 0
0 0 0 739 219561 -9688 0
0 0 0 807 220368 -8881 0
0 0 0 793 221161 -8088 0
0 0 0 698 221859 -7390 0
0 0 0 686 222545 -6704 0
0 0 0 685 223230 -6019 0
0 0 0 705 223935 -5314 0
0 0 0 762 224697 -4552 0
0 0 0 788 225485 -3764 0
0 0 0 794 226279 -2970 0
0 0 0 777 227056 -2193 0
13 1 S112 774 227830 -1419 0
13 1 S112 738 228568 -681 0
13 2 S112 712 229280 31 0
13 2 S112 688 229968 719 0
13 2 S112 670 230638 1389 0
13 2 S112 690 231328 2079 0
13 2 S112 707 232035 2786 0
13 2 S112 842 232877 3628 0
13 2 S112 890 233767 4518 0
13 2 S112 879 234646 5397 0
13 2 S112 841 235487 6238 0
0 0 0 828 236315 -12431 0
0 0 0 818 237133 -11613 0
0 0 0 762 237895 -10851 0
0 0 0 743 238638 -10108 0
0 0 0 705 239343 -9403 0
0 0 0 716 240059 -8687 0
0 0 0 704 240763 -7983 0
0 0 0 747 241510 -7236 0
0 0 0 709 242219 -6527 0
0 0 0 759 242978 -5768 0
0 0 0 754 243732 -5014 0
0 0 0 751 244483 -4263 0
0 0 0 764 245247 -3499 0
0 0 0 713 245960 -2786 0
0 0 0 700 246660 -2086 0
14 1 S106 728 247388 -1358 0
14 1 S106 778 248166 -580 0
14 2 S106 830 248996 250 0
14 2 S106 852 249848 1102 0
14 2 S106 782 250630 1884 0
14 2 S106 756 251386 2640 0
14 2 S106 735 252121 3375 0
14 2 S106 756 252877 4131 0
14 2 S106 748 253625 4879 0
14 2 S106 708 254333 5587 0
14 2 S106 720 255053 6307 0
0 0 0 768 255821 -11890 0
0 0 0 753 256574 -11137 0
0 0 0 769 257343 -10368 0
0 0 0 789 258132 -9579 0
0 0 0 729 258861 -8850 0
0 0 0 719 259580 -8131 0
0 0 0 703 260283 -7428 0
0 0 0 700 260983 -6728 0
0 0 0 757 261740 -5971 0
0 0 0 759 262499 -5212 0
0 0 0 763 263262 -4449 0
0 0 0 812 264074 -3637 0
0 0 0 811 264885 -2826 0
15 1 S116 827 265712 -1999 0
15 1 S116 800 266512 -1199 0
15 1 S116 742 267254 -457 0
15 2 S116 795 268049 338 0
15 2 S116 796 268845 1134 0
15 2 S116 848 269693 1982 0
15 2 S116 868 270561 2850 0
15 2 S116 818 271379 3668 0
15 2 S116 749 272128 4417 0
15 2 S116 738 272866 5155 0
15 2 S116 728 273594 5883 0
15 2 S116 737 274331 6620 0
0 0 0 731 275062 -10687 0
0 0 0 707 275769 -9980 0
0 0 0 703 276472 -9277 0
0 0 0 702 277174 -8575 0
0 0 0 779 277953 -7796 0
0 0 0 849 278802 -6947 0
0 0 0 850 279652 -6097 0
0 0 0 798 280450 -5299 0
0 0 0 821 281271 -4478 0
0 0 0 833 282104 -3645 0
0 0 0 841 282945 -2804 0
0 0 0 786 283731 -2018 0
16 1 S116 716 284447 -1302 0
16 1 S116 711 285158 -591 0
16 2 S116 698 285856 107 0
16 2 S116 721 286577 828 0
16 2 S116 815 287392 1643 0
16 2 S116 795 288187 2438 0
16 2 S116 781 288968 3219 0
16 2 S116 808 289776 4027 0
16 2 S116 814 290590 4841 0
16 2 S116 824 291414 5665 0
16 2 S116 802 292216 6467 0
0 0 0 739 292955 -10168 0
0 0 0 734 293689 -9434 0
0 0 0 715 294404 -8719 0
0 0 0 731 295135 -7988 0
0 0 0 799 295934 -7189 0
0 0 0 783 296717 -6406 0
0 0 0 704 297421 -5702 0
0 0 0 707 298128 -4995 0
0 0 0 684 298812 -4311 0
0 0 0 678 299490 -3633 0
0 0 0 678 300168 -2955 0
0 0 0 676 300844 -2279 0
17 1 S106 711 301555 -1568 0
17 1 S106 829 302384 -739 0
17 2 S106 906 303290 167 0
17 2 S106 940 304230 1107 0
17 2 S106 910 305140 2017 0
17 2 S106 898 306038 2915 0
17 2 S106 878 306916 3793 0
17 2 S106 836 307752 4629 0
17 2 S106 770 308522 5399 0
17 2 S106 706 309228 6105 0
17 2 S106 697 309925 6802 0
0 0 0 695 310620 -11916 0
0 0 0 704 311324 -11212 0
0 0 0 761 312085 -10451 0
0 0 0 710 312795 -9741 0
0 0 0 779 313574 -8962 0
0 0 0 772 314346 -8190 0
0 0 0 765 315111 -7425 0
0 0 0 777 315888 -6648 0
0 0 0 716 316604 -5932 0
0 0 0 739 317343 -5193 0
0 0 0 735 318078 -4458 0
0 0 0 775 318853 -3683 0
0 0 0 771 319624 -2912 0
0 0 0 724 320348 -2188 0
18 1 S102 786 321134 -1402 0
18 1 S102 806 321940 -596 0
18 2 S102 838 322778 242 0
18 2 S102 882 323660 1124 0
18 2 S102 877 324537 2001 0
18 2 S102 825 325362 2826 0
18 2 S102 816 326178 3642 0
18 2 S102 765 326943 4407 0
18 2 S102 752 327695 5159 0
18 2 S102 734 328429 5893 0
18 2 S102 694 329123 6587 0
0 0 0 680 329803 -8051 0
0 0 0 687 330490 -7364 0
0 0 0 701 331191 -6663 0
0 0 0 799 331990 -5864 0
0 0 0 871 332861 -4993 0
0 0 0 850 333711 -4143 0
0 0 0 798 334509 -3345 0
0 0 0 799 335308 -2546 0
19 1 S106 781 336089 -1765 0
19 1 S106 781 336870 -984 0
19 1 S106 784 337654 -200 0
19 2 S106 711 338365 511 0
19 2 S106 733 339098 1244 0
19 2 S106 776 339874 2020 0
19 2 S106 716 340590 2736 0
19 2 S106 734 341324 3470 0
19 2 S106 712 342036 4182 0
19 2 S106 691 342727 4873 0
19 2 S106 698 343425 5571 0
19 2 S106 711 344136 6282 0
0 0 0 777 344913 -12388 0
0 0 0 812 345725 -11576 0
0 0 0 828 346553 -10748 0
0 0 0 753 347306 -9995 0
0 0 0 731 348037 -9264 0
0 0 0 702 348739 -8562 0
0 0 0 688 349427 -7874 0
0 0 0 681 350108 -7193 0
0 0 0 652 350760 -6541 0
0 0 0 650 351410 -5891 0
0 0 0 664 352074 -5227 0
0 0 0 740 352814 -4487 0
0 0 0 827 353641 -3660 0
0 0 0 891 354532 -2769 0
20 1 S112 939 355471 -1830 0
20 1 S112 927 356398 -903 0
20 1 S112 853 357251 -50 0
20 2 S112 834 358085 784 0
20 2 S112 790 358875 1574 0
20 2 S112 758 359633 2332 0
20 2 S112 732 360365 3064 0
20 2 S112 696 361061 3760 0
20 2 S112 670 361731 4430 0
20 2 S112 663 362394 5093 0
20 2 S112 641 363035 5734 0
20 2 S112 634 363669 6368 0
20 2 S112 633 364302 7001 0
0 0 0 646 364948 -8832 0
0 0 0 648 365596 -8184 0
0 0 0 677 366273 -7507 0
0 0 0 755 367028 -6752 0
0 0 0 775 367803 -5977 0
0 0 0 812 368615 -5165 0
0 0 0 770 369385 -4395 0
0 0 0 698 370083 -3697 0
0 0 0 712 370795 -2985 0
0 0 0 699 371494 -2286 0
21 1 S106 713 372207 -1573 0
21 1 S106 774 372981 -799 0
21 1 S106 760 373741 -39 0
21 2 S106 717 374458 678 0
21 2 S106 806 375264 1484 0
21 2 S106 734 375998 2218 0
21 2 S106 785 376783 3003 0
21 2 S106 724 377507 3727 0
21 2 S106 735 378242 4462 0
21 2 S106 696 378938 5158 0
21 2 S106 709 379647 5867 0
21 2 S106 713 380360 6580 0
0 0 0 778 381138 -12188 0
0 0 0 788 381926 -11400 0
0 0 0 758 382684 -10642 0
0 0 0 693 383377 -9949 0
0 0 0 752 384129 -9197 0
0 0 0 761 384890 -8436 0
0 0 0 838 385728 -7598 0
0 0 0 884 386612 -6714 0
0 0 0 826 387438 -5888 0
0 0 0 824 388262 -5064 0
0 0 0 789 389051 -4275 0
0 0 0 734 389785 -3541 0
0 0 0 702 390487 -2839 0
0 0 0 694 391181 -2145 0
22 1 S116 715 391896 -1430 0
22 1 S116 805 392701 -625 0
22 2 S116 851 393552 226 0
22 2 S116 851 394403 1077 0
22 2 S116 862 395265 1939 0
22 2 S116 888 396153 2827 0
22 2 S116 870 397023 3697 0
22 2 S116 808 397831 4505 0
22 2 S116 722 398553 5227 0
22 2 S116 704 399257 5931 0
22 2 S116 690 399947 6621 0
0 0 0 712 400659 -8963 0
0 0 0 733 401392 -8230 0
0 0 0 728 402120 -7502 0
0 0 0 824 402944 -6678 0
0 0 0 785 403729 -5893 0
0 0 0 778 404507 -5115 0
0 0 0 705 405212 -4410 0
0 0 0 699 405911 -3711 0
0 0 0 694 406605 -3017 0
0 0 0 702 407307 -2315 0
23 1 S112 721 408028 -1594 0
23 1 S112 790 408818 -804 0
23 1 S112 714 409532 -90 0
23 2 S112 731 410263 641 0
23 2 S112 778 411041 1419 0
23 2 S112 779 411820 2198 0
23 2 S112 845 412665 3043 0
23 2 S112 832 413497 3875 0
23 2 S112 799 414296 4674 0
23 2 S112 803 415099 5477 0
23 2 S112 788 415887 6265 0
23 2 S112 705 416592 6970 0
0 0 0 765 417357 -9009 0
0 0 0 718 418075 -8291 0
0 0 0 728 418803 -7563 0
0 0 0 807 419610 -6756 0
0 0 0 811 420421 -5945 0
0 0 0 831 421252 -5114 0
0 0 0 826 422078 -4288 0
0 0 0 739 422817 -3549 0
0 0 0 701 423518 -2848 0
0 0 0 686 424204 -2162 0
24 1 S106 703 424907 -1459 0
24 1 S106 777 425684 -682 0
24 2 S106 828 426512 146 0
24 2 S106 865 427377 1011 0
24 2 S106 863 428240 1874 0
24 2 S106 833 429073 2707 0
24 2 S106 756 429829 3463 0
24 2 S106 698 430527 4161 0
24 2 S106 686 431213 4847 0
24 2 S106 689 431902 5536 0
24 2 S106 760 432662 6296 0
0 0 0 826 433488 -9971 0
0 0 0 894 434382 -9077 0
0 0 0 840 435222 -8237 0
0 0 0 849 436071 -7388 0
0 0 0 851 436922 -6537 0
0 0 0 827 437749 -5710 0
0 0 0 820 438569 -4890 0
0 0 0 746 439315 -4144 0
0 0 0 718 440033 -3426 0
0 0 0 731 440764 -2695 0
25 1 S102 776 441540 -1919 0
25 1 S102 795 442335 -1124 0
25 1 S102 804 443139 -320 0
25 2 S102 771 443910 451 0
25 2 S102 800 444710 1251 0
25 2 S102 801 445511 2052 0
25 2 S102 824 446335 2876 0
25 2 S102 798 447133 3674 0
25 2 S102 733 447866 4407 0
25 2 S102 791 448657 5198 0
25 2 S102 729 449386 5927 0
25 2 S102 818 450204 6745 0
0 0 0 811 451015 -7961 0
0 0 0 782 451797 -7179 0
0 0 0 733 452530 -6446 0
0 0 0 785 453315 -5661 0
0 0 0 791 454106 -4870 0
0 0 0 855 454961 -4015 0
0 0 0 811 455772 -3204 0
0 0 0 792 456564 -2412 0
26 1 S116 783 457347 -1629 0
26 1 S116 792 458139 -837 0
26 1 S116 813 458952 -24 0
26 2 S116 795 459747 771 0
26 2 S116 777 460524 1548 0
26 2 S116 792 461316 2340 0
26 2 S116 806 462122 3146 0
26 2 S116 841 462963 3987 0
26 2 S116 814 463777 4801 0
26 2 S116 755 464532 5556 0
26 2 S116 749 465281 6305 0
26 2 S116 724 466005 7029 0
0 0 0 770 466775 -8431 0
0 0 0 711 467486 -7720 0
0 0 0 773 468259 -6947 0
0 0 0 794 469053 -6153 0
0 0 0 845 469898 -5308 0
0 0 0 891 470789 -4417 0
0 0 0 839 471628 -3578 0
0 0 0 762 472390 -2816 0
0 0 0 718 473108 -2098 0
27 1 S106 682 473790 -1416 0
27 1 S106 652 474442 -764 0
27 1 S106 636 475078 -128 0
27 2 S106 651 475729 523 0
27 2 S106 788 476517 1311 0
27 2 S106 843 477360 2154 0
27 2 S106 800 478160 2954 0
27 2 S106 834 478994 3788 0
27 2 S106 836 479830 4624 0
27 2 S106 823 480653 5447 0
27 2 S106 751 481404 6198 0
27 2 S106 718 482122 6916 0
0 0 0 724 482846 -8607 0
0 0 0 771 483617 -7836 0
0 0 0 798 484415 -7038 0
0 0 0 776 485191 -6262 0
0 0 0 718 485909 -5544 0
0 0 0 691 486600 -4853 0
0 0 0 683 487283 -4170 0
0 0 0 661 487944 -3509 0
0 0 0 641 488585 -2868 0
0 0 0 637 489222 -2231 0
28 1 S102 652 489874 -1579 0
28 1 S102 655 490529 -924 0
28 1 S102 646 491175 -278 0
28 2 S102 632 491807 354 0
28 2 S102 633 492440 987 0
28 2 S102 650 493090 1637 0
28 2 S102 660 493750 2297 0
28 2 S102 678 494428 2975 0
28 2 S102 682 495110 3657 0
28 2 S102 690 495800 4347 0
28 2 S102 688 496488 5035 0
28 2 S102 690 497178 5725 0
28 2 S102 731 497909 6456 0
0 0 0 658 498567 -12283 0
0 0 0 674 499241 -11609 0
0 0 0 674 499915 -10935 0
0 0 0 725 500640 -10210 0
0 0 0 872 501512 -9338 0
0 0 0 988 502500 -8350 0
0 0 0 973 503473 -7377 0
0 0 0 895 504368 -6482 0
0 0 0 912 505280 -5570 0
0 0 0 913 506193 -4657 0
0 0 0 882 507075 -3775 0
0 0 0 835 507910 -2940 0
0 0 0 791 508701 -2149 0
29 1 S112 807 509508 -1342 0
29 1 S112 820 510328 -522 0
29 2 S112 828 511156 306 0
29 2 S112 833 511989 1139 0
29 2 S112 836 512825 1975 0
29 2 S112 804 513629 2779 0
29 2 S112 742 514371 3521 0
29 2 S112 753 515124 4274 0
29 2 S112 785 515909 5059 0
29 2 S112 825 516734 5884 0
29 2 S112 865 517599 6749 0
0 0 0 820 518419 -7401 0
0 0 0 818 519237 -6583 0
0 0 0 791 520028 -5792 0
0 0 0 810 520838 -4982 0
0 0 0 795 521633 -4187 0
0 0 0 733 522366 -3454 0
0 0 0 718 523084 -2736 0
30 1 S112 776 523860 -1960 0
30 1 S112 784 524644 -1176 0
30 1 S112 821 525465 -355 0
30 2 S112 829 526294 474 0
30 2 S112 784 527078 1258 0
30 2 S112 807 527885 2065 0
30 2 S112 825 528710 2890 0
30 2 S112 832 529542 3722 0
30 2 S112 840 530382 4562 0
30 2 S112 798 531180 5360 0
30 2 S112 736 531916 6096 0
30 2 S112 740 532656 6836 0
0 0 0 763 533419 -9245 0
0 0 0 769 534188 -8476 0
0 0 0 823 535011 -7653 0
0 0 0 827 535838 -6826 0
0 0 0 803 536641 -6023 0
0 0 0 824 537465 -5199 0
0 0 0 830 538295 -4369 0
0 0 0 842 539137 -3527 0
0 0 0 833 539970 -2694 0
31 1 S106 814 540784 -1880 0
31 1 S106 833 541617 -1047 0
31 1 S106 831 542448 -216 0
31 2 S106 846 543294 630 0
31 2 S106 858 544152 1488 0
31 2 S106 815 544967 2303 0
31 2 S106 792 545759 3095 0
31 2 S106 792 546551 3887 0
31 2 S106 796 547347 4683 0
31 2 S106 830 548177 5513 0
31 2 S106 805 548982 6318 0
0 0 0 747 549729 -9812 0
0 0 0 795 550524 -9017 0
0 0 0 780 551304 -8237 0
0 0 0 791 552095 -7446 0
0 0 0 809 552904 -6637 0
0 0 0 778 553682 -5859 0
0 0 0 717 554399 -5142 0
0 0 0 709 555108 -4433 0
0 0 0 688 555796 -3745 0
0 0 0 683 556479 -3062 0
0 0 0 748 557227 -2314 0
32 1 S102 751 557978 -1563 0
32 1 S102 813 558791 -750 0
32 2 S102 864 559655 114 0
32 2 S102 910 560565 1024 0
32 2 S102 915 561480 1939 0
32 2 S102 855 562335 2794 0
32 2 S102 847 563182 3641 0
32 2 S102 820 564002 4461 0
32 2 S102 793 564795 5254 0
32 2 S102 735 565530 5989 0
32 2 S102 723 566253 6712 0
0 0 0 718 566971 -11436 0
0 0 0 735 567706 -10701 0
0 0 0 751 568457 -9950 0
0 0 0 782 569239 -9168 0
0 0 0 715 569954 -8453 0
0 0 0 699 570653 -7754 0
0 0 0 673 571326 -7081 0
0 0 0 665 571991 -6416 0
0 0 0 654 572645 -5762 0
0 0 0 664 573309 -5098 0
0 0 0 674 573983 -4424 0
0 0 0 725 574708 -3699 0
0 0 0 751 575459 -2948 0
0 0 0 808 576267 -2140 0
33 1 S112 833 577100 -1307 0
33 1 S112 814 577914 -493 0
33 2 S112 767 578681 274 0
33 2 S112 770 579451 1044 0
33 2 S112 773 580224 1817 0
33 2 S112 790 581014 2607 0
33 2 S112 797 581811 3404 0
33 2 S112 738 582549 4142 0
33 2 S112 734 583283 4876 0
33 2 S112 730 584013 5606 0
33 2 S112 785 584798 6391 0
0 0 0 750 585548 -12024 0
0 0 0 759 586307 -11265 0
0 0 0 796 587103 -10469 0
0 0 0 837 587940 -9632 0
0 0 0 870 588810 -8762 0
0 0 0 789 589599 -7973 0
0 0 0 728 590327 -7245 0
0 0 0 717 591044 -6528 0
0 0 0 707 591751 -5821 0
0 0 0 718 592469 -5103 0
0 0 0 717 593186 -4386 0
0 0 0 767 593953 -3619 0
0 0 0 789 594742 -2830 0
34 1 S106 858 595600 -1972 0
34 1 S106 879 596479 -1093 0
34 1 S106 838 597317 -255 0
34 2 S106 837 598154 582 0
34 2 S106 806 598960 1388 0
34 2 S106 744 599704 2132 0
34 2 S106 710 600414 2842 0
34 2 S106 696 601110 3538 0
34 2 S106 716 601826 4254 0
34 2 S106 802 602628 5056 0
34 2 S106 835 603463 5891 0
34 2 S106 858 604321 6749 0
0 0 0 828 605149 -10311 0
0 0 0 837 605986 -9474 0
0 0 0 819 606805 -8655 0
0 0 0 808 607613 -7847 0
0 0 0 775 608388 -7072 0
0 0 0 705 609093 -6367 0
0 0 0 702 609795 -5665 0
0 0 0 706 610501 -4959 0
0 0 0 788 611289 -4171 0
0 0 0 801 612090 -3370 0
0 0 0 772 612862 -2598 0
35 1 S102 803 613665 -1795 0
35 1 S102 850 614515 -945 0
35 1 S102 901 615416 -44 0
35 2 S102 885 616301 841 0
35 2 S102 834 617135 1675 0
35 2 S102 831 617966 2506 0
35 2 S102 833 618799 3339 0
35 2 S102 834 619633 4173 0
35 2 S102 779 620412 4952 0
35 2 S102 760 621172 5712 0
35 2 S102 794 621966 6506 0
0 0 0 835 622801 -8491 0
0 0 0 883 623684 -7608 0
0 0 0 855 624539 -6753 0
0 0 0 848 625387 -5905 0
0 0 0 865 626252 -5040 0
0 0 0 860 627112 -4180 0
0 0 0 874 627986 -3306 0
0 0 0 812 628798 -2494 0
36 1 S106 752 629550 -1742 0
36 1 S106 746 630296 -996 0
36 1 S106 796 631092 -200 0
36 2 S106 849 631941 649 0
36 2 S106 867 632808 1516 0
36 2 S106 888 633696 2404 0
36 2 S106 829 634525 3233 0
36 2 S106 778 635303 4011 0
36 2 S106 750 636053 4761 0
36 2 S106 768 636821 5529 0
36 2 S106 732 637553 6261 0
36 2 S106 703 638256 6964 0
0 0 0 701 638957 -9461 0
0 0 0 710 639667 -8751 0
0 0 0 762 640429 -7989 0
0 0 0 773 641202 -7216 0
0 0 0 793 641995 -6423 0
0 0 0 709 642704 -5714 0
0 0 0 699 643403 -5015 0
0 0 0 699 644102 -4316 0
0 0 0 747 644849 -3569 0
0 0 0 767 645616 -2802 0
37 1 S116 809 646425 -1993 0
37 1 S116 805 647230 -1188 0
37 1 S116 767 647997 -421 0
37 2 S116 773 648770 352 0
37 2 S116 759 649529 1111 0
37 2 S116 774 650303 1885 0
37 2 S116 780 651083 2665 0
37 2 S116 704 651787 3369 0
37 2 S116 718 652505 4087 0
37 2 S116 715 653220 4802 0
37 2 S116 758 653978 5560 0
37 2 S116 786 654764 6346 0
0 0 0 882 655646 -12201 0
0 0 0 866 656512 -11335 0
0 0 0 864 657376 -10471 0
0 0 0 890 658266 -9581 0
0 0 0 904 659170 -8677 0
0 0 0 897 660067 -7780 0
0 0 0 833 660900 -6947 0
0 0 0 762 661662 -6185 0
0 0 0 757 662419 -5428 0
0 0 0 795 663214 -4633 0
0 0 0 805 664019 -3828 0
0 0 0 849 664868 -2979 0
0 0 0 804 665672 -2175 0
38 1 S102 820 666492 -1355 0
38 1 S102 824 667316 -531 0
38 2 S102 847 668163 316 0
38 2 S102 865 669028 1181 0
38 2 S102 802 669830 1983 0
38 2 S102 761 670591 2744 0
38 2 S102 788 671379 3532 0
38 2 S102 780 672159 4312 0
38 2 S102 797 672956 5109 0
38 2 S102 801 673757 5910 0
38 2 S102 773 674530 6683 0
0 0 0 804 675334 -9639 0
0 0 0 839 676173 -8800 0
0 0 0 855 677028 -7945 0
0 0 0 831 677859 -7114 0
0 0 0 814 678673 -6300 0
0 0 0 836 679509 -5464 0
0 0 0 843 680352 -4621 0
0 0 0 822 681174 -3799 0
0 0 0 769 681943 -3030 0
0 0 0 776 682719 -2254 0
39 1 S116 796 683515 -1458 0
39 1 S116 822 684337 -636 0
39 2 S116 852 685189 216 0
39 2 S116 834 686023 1050 0
39 2 S116 812 686835 1862 0
39 2 S116 831 687666 2693 0
39 2 S116 833 688499 3526 0
39 2 S116 837 689336 4363 0
39 2 S116 818 690154 5181 0
39 2 S116 801 690955 5982 0
39 2 S116 838 691793 6820 0
0 0 0 857 692650 -7260 0
0 0 0 889 693539 -6371 0
0 0 0 916 694455 -5455 0
0 0 0 883 695338 -4572 0
0 0 0 875 696213 -3697 0
0 0 0 852 697065 -2845 0
0 0 0 825 697890 -2020 0
40 1 S112 799 698689 -1221 0
40 1 S112 770 699459 -451 0
40 2 S112 846 700305 395 0
40 2 S112 946 701251 1341 0
40 2 S112 962 702213 2303 0
40 2 S112 930 703143 3233 0
40 2 S112 912 704055 4145 0
40 2 S112 878 704933 5023 0
40 2 S112 855 705788 5878 0
40 2 S112 816 706604 6694 0
0 0 0 749 707353 -187187 0
0 0 0 733 708086 -186454 0
0 0 0 794 708880 -185660 0
0 0 0 814 709694 -184846 0
0 0 0 832 710526 -184014 0
0 0 0 830 711356 -183184 0
0 0 0 791 712147 -182393 0
0 0 0 783 712930 -181610 0
0 0 0 804 713734 -180806 0
0 0 0 794 714528 -180012 0
0 0 0 806 715334 -179206 0
0 0 0 758 716092 -178448 0
0 0 0 743 716835 -177705 0
0 0 0 780 717615 -176925 0
0 0 0 796 718411 -176129 0
0 0 0 2515 720926 -173614 1
0 0 0 2490 723416 -171124 1
0 0 0 709 724125 -170415 0
0 0 0 672 724797 -169743 0
0 0 0 661 725458 -169082 0
0 0 0 656 726114 -168426 0
0 0 0 630 726744 -167796 0
0 0 0 617 727361 -167179 0
0 0 0 603 727964 -166576 0
0 0 0 594 728558 -165982 0
0 0 0 597 729155 -165385 0
0 0 0 598 729753 -164787 0
0 0 0 593 730346 -164194 0
0 0 0 591 730937 -163603 0
0 0 0 596 731533 -163007 0
0 0 0 612 732145 -162395 0
0 0 0 676 732821 -161719 0
0 0 0 667 733488 -161052 0
0 0 0 645 734133 -160407 0
0 0 0 635 734768 -159772 0
0 0 0 631 735399 -159141 0
0 0 0 646 736045 -158495 0
0 0 0 650 736695 -157845 0
0 0 0 654 737349 -157191 0
0 0 0 651 738000 -156540 0
0 0 0 635 738635 -155905 0
0 0 0 620 739255 -155285 0
0 0 0 605 739860 -154680 0
0 0 0 584 740444 -154096 0
0 0 0 576 741020 -153520 0
0 0 0 568 741588 -152952 0
0 0 0 561 742149 -152391 0
0 0 0 554 742703 -151837 0
0 0 0 552 743255 -151285 0
0 0 0 553 743808 -150732 0
0 0 0 554 744362 -150178 0
0 0 0 556 744918 -149622 0
0 0 0 573 745491 -149049 0
0 0 0 596 746087 -148453 0
0 0 0 626 746713 -147827 0
0 0 0 650 747363 -147177 0
0 0 0 732 748095 -146445 0
0 0 0 739 748834 -145706 0
0 0 0 798 749632 -144908 0
0 0 0 865 750497 -144043 0
0 0 0 823 751320 -143220 0
0 0 0 745 752065 -142475 0
0 0 0 713 752778 -141762 0
0 0 0 701 753479 -141061 0
0 0 0 692 754171 -140369 0
0 0 0 690 754861 -139679 0
0 0 0 675 755536 -139004 0
0 0 0 651 756187 -138353 0
0 0 0 640 756827 -137713 0
0 0 0 675 757502 -137038 0
0 0 0 794 758296 -136244 0
0 0 0 761 759057 -135483 0
0 0 0 746 759803 -134737 0
0 0 0 797 760600 -133940 0
0 0 0 787 761387 -133153 0
0 0 0 796 762183 -132357 0
0 0 0 859 763042 -131498 0
0 0 0 748 763790 -130750 0
0 0 0 715 764505 -130035 0
0 0 0 683 765188 -129352 0
0 0 0 680 765868 -128672 0
0 0 0 680 766548 -127992 0
0 0 0 714 767262 -127278 0
0 0 0 895 768157 -126383 0
0 0 0 940 769097 -125443 0
0 0 0 942 770039 -124501 0
0 0 0 869 770908 -123632 0
0 0 0 859 771767 -122773 0
0 0 0 849 772616 -121924 0
0 0 0 871 773487 -121053 0
0 0 0 843 774330 -120210 0
0 0 0 803 775133 -119407 0
0 0 0 823 775956 -118584 0
0 0 0 838 776794 -117746 0
0 0 0 899 777693 -116847 0
0 0 0 865 778558 -115982 0
0 0 0 902 779460 -115080 0
0 0 0 981 780441 -114099 0
0 0 0 1047 781488 -113052 1
0 0 0 963 782451 -112089 0
0 0 0 936 783387 -111153 0
0 0 0 940 784327 -110213 0
0 0 0 928 785255 -109285 0
0 0 0 893 786148 -108392 0
0 0 0 841 786989 -107551 0
0 0 0 876 787865 -106675 0
0 0 0 908 788773 -105767 0
0 0 0 953 789726 -104814 0
0 0 0 882 790608 -103932 0
0 0 0 890 791498 -103042 0
0 0 0 887 792385 -102155 0
0 0 0 867 793252 -101288 0
0 0 0 788 794040 -100500 0
0 0 0 780 794820 -99720 0
0 0 0 810 795630 -98910 0
0 0 0 875 796505 -98035 0
0 0 0 938 797443 -97097 0
0 0 0 866 798309 -96231 0
0 0 0 867 799176 -95364 0
0 0 0 862 800038 -94502 0
0 0 0 859 800897 -93643 0
0 0 0 821 801718 -92822 0
0 0 0 789 802507 -92033 0
0 0 0 820 803327 -91213 0
0 0 0 811 804138 -90402 0
0 0 0 833 804971 -89569 0
0 0 0 860 805831 -88709 0
0 0 0 831 806662 -87878 0
0 0 0 868 807530 -87010 0
0 0 0 865 808395 -86145 0
0 0 0 860 809255 -85285 0
0 0 0 807 810062 -84478 0
0 0 0 763 810825 -83715 0
0 0 0 815 811640 -82900 0
0 0 0 862 812502 -82038 0
0 0 0 911 813413 -81127 0
0 0 0 878 814291 -80249 0
0 0 0 881 815172 -79368 0
0 0 0 897 816069 -78471 0
0 0 0 899 816968 -77572 0
0 0 0 868 817836 -76704 0
0 0 0 836 818672 -75868 0
0 0 0 854 819526 -75014 0
0 0 0 881 820407 -74133 0
0 0 0 890 821297 -73243 0
0 0 0 822 822119 -72421 0
0 0 0 778 822897 -71643 0
0 0 0 753 823650 -70890 0
0 0 0 797 824447 -70093 0
0 0 0 721 825168 -69372 0
0 0 0 716 825884 -68656 0
0 0 0 728 826612 -67928 0
0 0 0 786 827398 -67142 0
0 0 0 875 828273 -66267 0
0 0 0 888 829161 -65379 0
0 0 0 798 829959 -64581 0
0 0 0 783 830742 -63798 0
0 0 0 743 831485 -63055 0
0 0 0 686 832171 -62369 0
0 0 0 653 832824 -61716 0
0 0 0 637 833461 -61079 0
0 0 0 639 834100 -60440 0
0 0 0 637 834737 -59803 0
0 0 0 634 835371 -59169 0
0 0 0 644 836015 -58525 0
0 0 0 649 836664 -57876 0
0 0 0 670 837334 -57206 0
0 0 0 745 838079 -56461 0
0 0 0 746 838825 -55715 0
0 0 0 751 839576 -54964 0
0 0 0 792 840368 -54172 0
0 0 0 801 841169 -53371 0
0 0 0 830 841999 -52541 0
0 0 0 798 842797 -51743 0
0 0 0 712 843509 -51031 0
0 0 0 701 844210 -50330 0
0 0 0 687 844897 -49643 0
0 0 0 719 845616 -48924 0
0 0 0 863 846479 -48061 0
0 0 0 859 847338 -47202 0
0 0 0 807 848145 -46395 0
0 0 0 818 848963 -45577 0
0 0 0 786 849749 -44791 0
0 0 0 797 850546 -43994 0
0 0 0 798 851344 -43196 0
0 0 0 726 852070 -42470 0
0 0 0 751 852821 -41719 0
0 0 0 796 853617 -40923 0
0 0 0 818 854435 -40105 0
0 0 0 880 855315 -39225 0
0 0 0 827 856142 -38398 0
0 0 0 810 856952 -37588 0
0 0 0 789 857741 -36799 0
0 0 0 781 858522 -36018 0
0 0 0 798 859320 -35220 0
0 0 0 781 860101 -34439 0
0 0 0 779 860880 -33660 0
0 0 0 808 861688 -32852 0
0 0 0 843 862531 -32009 0
0 0 0 903 863434 -31106 0
0 0 0 880 864314 -30226 0
0 0 0 843 865157 -29383 0
0 0 0 834 865991 -28549 0
0 0 0 837 866828 -27712 0
0 0 0 830 867658 -26882 0
0 0 0 773 868431 -26109 0
0 0 0 769 869200 -25340 0
0 0 0 813 870013 -24527 0
0 0 0 829 870842 -23698 0
0 0 0 903 871745 -22795 0
0 0 0 873 872618 -21922 0
0 0 0 890 873508 -21032 0
0 0 0 903 874411 -20129 0
0 0 0 914 875325 -19215 0
0 0 0 886 876211 -18329 0
0 0 0 835 877046 -17494 0
0 0 0 818 877864 -16676 0
0 0 0 812 878676 -15864 0
0 0 0 819 879495 -15045 0
0 0 0 803 880298 -14242 0
0 0 0 787 881085 -13455 0
0 0 0 789 881874 -12666 0
0 0 0 802 882676 -11864 0
0 0 0 847 883523 -11017 0
0 0 0 799 884322 -10218 0
0 0 0 746 885068 -9472 0
0 0 0 769 885837 -8703 0
0 0 0 805 886642 -7898 0
0 0 0 808 887450 -7090 0
0 0 0 738 888188 -6352 0
0 0 0 751 888939 -5601 0
0 0 0 808 889747 -4793 0
0 0 0 860 890607 -3933 0
0 0 0 939 891546 -2994 0
0 0 0 915 892461 -2079 0
41 1 S102 854 893315 -1225 0
41 1 S102 856 894171 -369 0
41 2 S102 850 895021 481 0
41 2 S102 877 895898 1358 0
41 2 S102 857 896755 2215 0
41 2 S102 796 897551 3011 0
41 2 S102 823 898374 3834 0
41 2 S102 768 899142 4602 0
41 2 S102 762 899904 5364 0
41 2 S102 699 900603 6063 0
41 2 S102 675 901278 6738 0
0 0 0 676 901954 -7938 0
0 0 0 749 902703 -7189 0
0 0 0 901 903604 -6288 0
0 0 0 986 904590 -5302 0
0 0 0 965 905555 -4337 0
0 0 0 932 906487 -3405 0
0 0 0 884 907371 -2521 0
42 1 S112 796 908167 -1725 0
42 1 S112 713 908880 -1012 0
42 1 S112 687 909567 -325 0
42 2 S112 666 910233 341 0
42 2 S112 674 910907 1015 0
42 2 S112 696 911603 1711 0
42 2 S112 722 912325 2433 0
42 2 S112 815 913140 3248 0
42 2 S112 837 913977 4085 0
42 2 S112 878 914855 4963 0
42 2 S112 885 915740 5848 0
42 2 S112 821 916561 6669 0
0 0 0 785 917346 -10219 0
0 0 0 811 918157 -9408 0
0 0 0 805 918962 -8603 0
0 0 0 827 919789 -7776 0
0 0 0 831 920620 -6945 0
0 0 0 768 921388 -6177 0
0 0 0 828 922216 -5349 0
0 0 0 812 923028 -4537 0
0 0 0 836 923864 -3701 0
0 0 0 786 924650 -2915 0
0 0 0 719 925369 -2196 0
43 1 S116 745 926114 -1451 0
43 1 S116 790 926904 -661 0
43 2 S116 808 927712 147 0
43 2 S116 882 928594 1029 0
43 2 S116 855 929449 1884 0
43 2 S116 838 930287 2722 0
43 2 S116 841 931128 3563 0
43 2 S116 860 931988 4423 0
43 2 S116 863 932851 5286 0
43 2 S116 833 933684 6119 0
43 2 S116 854 934538 6973 0
0 0 0 878 935416 -7848 0
0 0 0 872 936288 -6976 0
0 0 0 837 937125 -6139 0
0 0 0 808 937933 -5331 0
0 0 0 826 938759 -4505 0
0 0 0 769 939528 -3736 0
0 0 0 807 940335 -2929 0
0 0 0 714 941049 -2215 0
44 1 S102 795 941844 -1420 0
44 1 S102 807 942651 -613 0
44 2 S102 909 943560 296 0
44 2 S102 954 944514 1250 0
44 2 S102 883 945397 2133 0
44 2 S102 804 946201 2937 0
44 2 S102 768 946969 3705 0
44 2 S102 715 947684 4420 0
44 2 S102 711 948395 5131 0
44 2 S102 723 949118 5854 0
44 2 S102 704 949822 6558 0
0 0 0 731 950553 -10019 0
0 0 0 823 951376 -9196 0
0 0 0 874 952250 -8322 0
0 0 0 922 953172 -7400 0
0 0 0 922 954094 -6478 0
0 0 0 878 954972 -5600 0
0 0 0 782 955754 -4818 0
0 0 0 733 956487 -4085 0
0 0 0 703 957190 -3382 0
0 0 0 699 957889 -2683 0
45 1 S116 716 958605 -1967 0
45 1 S116 776 959381 -1191 0
45 1 S116 708 960089 -483 0
45 2 S116 794 960883 311 0
45 2 S116 768 961651 1079 0
45 2 S116 780 962431 1859 0
45 2 S116 797 963228 2656 0
45 2 S116 780 964008 3436 0
45 2 S116 711 964719 4147 0
45 2 S116 790 965509 4937 0
45 2 S116 772 966281 5709 0
45 2 S116 807 967088 6516 0
0 0 0 848 967936 -11254 0
0 0 0 794 968730 -10460 0
0 0 0 734 969464 -9726 0
0 0 0 742 970206 -8984 0
0 0 0 733 970939 -8251 0
0 0 0 729 971668 -7522 0
0 0 0 716 972384 -6806 0
0 0 0 772 973156 -6034 0
0 0 0 816 973972 -5218 0
0 0 0 869 974841 -4349 0
0 0 0 917 975758 -3432 0
0 0 0 914 976672 -2518 0
46 1 S102 853 977525 -1665 0
46 1 S102 822 978347 -843 0
46 1 S102 806 979153 -37 0
46 2 S102 814 979967 777 0
46 2 S102 821 980788 1598 0
46 2 S102 827 981615 2425 0
46 2 S102 751 982366 3176 0
46 2 S102 822 983188 3998 0
46 2 S102 817 984005 4815 0
46 2 S102 822 984827 5637 0
46 2 S102 813 985640 6450 0
0 0 0 786 986426 -9939 0
0 0 0 790 987216 -9149 0
0 0 0 796 988012 -8353 0
0 0 0 802 988814 -7551 0
0 0 0 819 989633 -6732 0
0 0 0 744 990377 -5988 0
0 0 0 741 991118 -5247 0
0 0 0 755 991873 -4492 0
0 0 0 804 992677 -3688 0
0 0 0 790 993467 -2898 0
0 0 0 854 994321 -2044 0
47 1 S112 854 995175 -1190 0
47 1 S112 827 996002 -363 0
47 2 S112 812 996814 449 0
47 2 S112 753 997567 1202 0
47 2 S112 810 998377 2012 0
47 2 S112 714 999091 2726 0
47 2 S112 790 999881 3516 0
47 2 S112 795 1000676 4311 0
47 2 S112 880 1001556 5191 0
47 2 S112 901 1002457 6092 0
47 2 S112 877 1003334 6969 0
0 0 0 906 1004240 -11256 0
0 0 0 897 1005137 -10359 0
0 0 0 871 1006008 -9488 0
0 0 0 783 1006791 -8705 0
0 0 0 710 1007501 -7995 0
0 0 0 684 1008185 -7311 0
0 0 0 675 1008860 -6636 0
0 0 0 688 1009548 -5948 0
0 0 0 710 1010258 -5238 0
0 0 0 709 1010967 -4529 0
0 0 0 712 1011679 -3817 0
0 0 0 724 1012403 -3093 0
0 0 0 736 1013139 -2357 0
48 1 S116 800 1013939 -1557 0
48 1 S116 783 1014722 -774 0
48 2 S116 785 1015507 11 0
48 2 S116 806 1016313 817 0
48 2 S116 810 1017123 1627 0
48 2 S116 838 1017961 2465 0
48 2 S116 824 1018785 3289 0
48 2 S116 813 1019598 4102 0
48 2 S116 844 1020442 4946 0
48 2 S116 858 1021300 5804 0
48 2 S116 855 1022155 6659 0
0 0 0 822 1022977 -8186 0
0 0 0 729 1023706 -7457 0
0 0 0 707 1024413 -6750 0
0 0 0 695 1025108 -6055 0
0 0 0 721 1025829 -5334 0
0 0 0 857 1026686 -4477 0
0 0 0 841 1027527 -3636 0
0 0 0 841 1028368 -2795 0
49 1 S112 883 1029251 -1912 0
49 1 S112 923 1030174 -989 0
49 1 S112 922 1031096 -67 0
49 2 S112 867 1031963 800 0
49 2 S112 769 1032732 1569 0
49 2 S112 716 1033448 2285 0
49 2 S112 681 1034129 2966 0
49 2 S112 662 1034791 3628 0
49 2 S112 660 1035451 4288 0
49 2 S112 658 1036109 4946 0
49 2 S112 686 1036795 5632 0
49 2 S112 822 1037617 6454 0
0 0 0 894 1038511 -12612 0
0 0 0 969 1039480 -11643 0
0 0 0 919 1040399 -10724 0
0 0 0 918 1041317 -9806 0
0 0 0 899 1042216 -8907 0
0 0 0 861 1043077 -8046 0
0 0 0 739 1043816 -7307 0
0 0 0 669 1044485 -6638 0
0 0 0 655 1045140 -5983 0
0 0 0 645 1045785 -5338 0
0 0 0 664 1046449 -4674 0
0 0 0 771 1047220 -3903 0
0 0 0 767 1047987 -3136 0
0 0 0 747 1048734 -2389 0
50 1 S106 718 1049452 -1671 0
50 1 S106 711 1050163 -960 0
50 1 S106 759 1050922 -201 0
50 2 S106 702 1051624 501 0
50 2 S106 659 1052283 1160 0
50 2 S106 631 1052914 1791 0
50 2 S106 616 1053530 2407 0
50 2 S106 604 1054134 3011 0
50 2 S106 595 1054729 3606 0
50 2 S106 592 1055321 4198 0
50 2 S106 600 1055921 4798 0
50 2 S106 618 1056539 5416 0
50 2 S106 638 1057177 6054 0
50 2 S106 667 1057844 6721 0
0 0 0 688 1058532 -8706 0
0 0 0 693 1059225 -8013 0
0 0 0 687 1059912 -7326 0
0 0 0 687 1060599 -6639 0
0 0 0 692 1061291 -5947 0
0 0 0 678 1061969 -5269 0
0 0 0 675 1062644 -4594 0
0 0 0 679 1063323 -3915 0
0 0 0 671 1063994 -3244 0
0 0 0 674 1064668 -2570 0
51 1 S112 687 1065355 -1883 0
51 1 S112 684 1066039 -1199 0
51 1 S112 693 1066732 -506 0
51 2 S112 700 1067432 194 0
51 2 S112 753 1068185 947 0
51 2 S112 803 1068988 1750 0
51 2 S112 862 1069850 2612 0
51 2 S112 855 1070705 3467 0
51 2 S112 826 1071531 4293 0
51 2 S112 784 1072315 5077 0
51 2 S112 748 1073063 5825 0
51 2 S112 734 1073797 6559 0
0 0 0 740 1074537 -8616 0
0 0 0 744 1075281 -7872 0
0 0 0 727 1076008 -7145 0
0 0 0 699 1076707 -6446 0
0 0 0 711 1077418 -5735 0
0 0 0 702 1078120 -5033 0
0 0 0 709 1078829 -4324 0
0 0 0 700 1079529 -3624 0
0 0 0 678 1080207 -2946 0
0 0 0 677 1080884 -2269 0
52 1 S116 684 1081568 -1585 0
52 1 S116 703 1082271 -882 0
52 1 S116 775 1083046 -107 0
52 2 S116 780 1083826 673 0
52 2 S116 762 1084588 1435 0
52 2 S116 726 1085314 2161 0
52 2 S116 744 1086058 2905 0
52 2 S116 750 1086808 3655 0
52 2 S116 733 1087541 4388 0
52 2 S116 726 1088267 5114 0
52 2 S116 691 1088958 5805 0
52 2 S116 674 1089632 6479 0
0 0 0 660 1090292 -10981 0
0 0 0 655 1090947 -10326 0
0 0 0 662 1091609 -9664 0
0 0 0 700 1092309 -8964 0
0 0 0 750 1093059 -8214 0
0 0 0 733 1093792 -7481 0
0 0 0 784 1094576 -6697 0
0 0 0 812 1095388 -5885 0
0 0 0 816 1096204 -5069 0
0 0 0 837 1097041 -4232 0
0 0 0 817 1097858 -3415 0
0 0 0 779 1098637 -2636 0
53 1 S106 738 1099375 -1898 0
53 1 S106 726 1100101 -1172 0
53 1 S106 725 1100826 -447 0
53 2 S106 725 1101551 278 0
53 2 S106 770 1102321 1048 0
53 2 S106 693 1103014 1741 0
53 2 S106 708 1103722 2449 0
53 2 S106 701 1104423 3150 0
53 2 S106 716 1105139 3866 0
53 2 S106 784 1105923 4650 0
53 2 S106 793 1106716 5443 0
53 2 S106 763 1107479 6206 0
53 2 S106 713 1108192 6919 0
0 0 0 714 1108906 -7072 0
0 0 0 719 1109625 -6353 0
0 0 0 754 1110379 -5599 0
0 0 0 758 1111137 -4841 0
0 0 0 699 1111836 -4142 0
0 0 0 698 1112534 -3444 0
0 0 0 683 1113217 -2761 0
0 0 0 665 1113882 -2096 0
54 1 S102 654 1114536 -1442 0
54 1 S102 668 1115204 -774 0
54 1 S102 685 1115889 -89 0
54 2 S102 739 1116628 650 0
54 2 S102 779 1117407 1429 0
54 2 S102 827 1118234 2256 0
54 2 S102 877 1119111 3133 0
54 2 S102 903 1120014 4036 0
54 2 S102 855 1120869 4891 0
54 2 S102 821 1121690 5712 0
54 2 S102 783 1122473 6495 0
0 0 0 761 1123234 -12157 0
0 0 0 766 1124000 -11391 0
0 0 0 691 1124691 -10700 0
0 0 0 700 1125391 -10000 0
0 0 0 720 1126111 -9280 0
0 0 0 791 1126902 -8489 0
0 0 0 810 1127712 -7679 0
0 0 0 753 1128465 -6926 0
0 0 0 691 1129156 -6235 0
0 0 0 672 1129828 -5563 0
0 0 0 648 1130476 -4915 0
0 0 0 647 1131123 -4268 0
0 0 0 643 1131766 -3625 0
0 0 0 644 1132410 -2981 0
0 0 0 647 1133057 -2334 0
55 1 S106 664 1133721 -1670 0
55 1 S106 685 1134406 -985 0
55 1 S106 755 1135161 -230 0
55 2 S106 750 1135911 520 0
55 2 S106 719 1136630 1239 0
55 2 S106 700 1137330 1939 0
55 2 S106 689 1138019 2628 0
55 2 S106 674 1138693 3302 0
55 2 S106 664 1139357 3966 0
55 2 S106 663 1140020 4629 0
55 2 S106 669 1140689 5298 0
55 2 S106 663 1141352 5961 0
55 2 S106 671 1142023 6632 0
0 0 0 666 1142689 -8518 0
0 0 0 683 1143372 -7835 0
0 0 0 741 1144113 -7094 0
0 0 0 758 1144871 -6336 0
0 0 0 740 1145611 -5596 0
0 0 0 763 1146374 -4833 0
0 0 0 720 1147094 -4113 0
0 0 0 696 1147790 -3417 0
0 0 0 662 1148452 -2755 0
0 0 0 635 1149087 -2120 0
56 1 S116 628 1149715 -1492 0
56 1 S116 628 1150343 -864 0
56 1 S116 635 1150978 -229 0
56 2 S116 659 1151637 430 0
56 2 S116 728 1152365 1158 0
56 2 S116 864 1153229 2022 0
56 2 S116 907 1154136 2929 0
56 2 S116 867 1155003 3796 0
56 2 S116 835 1155838 4631 0
56 2 S116 803 1156641 5434 0
56 2 S116 792 1157433 6226 0
56 2 S116 771 1158204 6997 0
0 0 0 721 1158925 -7683 0
0 0 0 719 1159644 -6964 0
0 0 0 714 1160358 -6250 0
0 0 0 725 1161083 -5525 0
0 0 0 784 1161867 -4741 0
0 0 0 755 1162622 -3986 0
0 0 0 725 1163347 -3261 0
0 0 0 804 1164151 -2457 0
57 1 S106 805 1164956 -1652 0
57 1 S106 823 1165779 -829 0
57 1 S106 809 1166588 -20 0
57 2 S106 785 1167373 765 0
57 2 S106 818 1168191 1583 0
57 2 S106 849 1169040 2432 0
57 2 S106 870 1169910 3302 0
57 2 S106 846 1170756 4148 0
57 2 S106 805 1171561 4953 0
57 2 S106 821 1172382 5774 0
57 2 S106 835 1173217 6609 0
0 0 0 848 1174065 -10481 0
0 0 0 869 1174934 -9612 0
0 0 0 811 1175745 -8801 0
0 0 0 751 1176496 -8050 0
0 0 0 801 1177297 -7249 0
0 0 0 804 1178101 -6445 0
0 0 0 803 1178904 -5642 0
0 0 0 755 1179659 -4887 0
0 0 0 749 1180408 -4138 0
0 0 0 766 1181174 -3372 0
0 0 0 757 1181931 -2615 0
58 1 S102 814 1182745 -1801 0
58 1 S102 826 1183571 -975 0
58 1 S102 795 1184366 -180 0
58 2 S102 819 1185185 639 0
58 2 S102 841 1186026 1480 0
58 2 S102 858 1186884 2338 0
58 2 S102 859 1187743 3197 0
58 2 S102 819 1188562 4016 0
58 2 S102 751 1189313 4767 0
58 2 S102 738 1190051 5505 0
58 2 S102 727 1190778 6232 0
58 2 S102 777 1191555 7009 0
0 0 0 765 1192320 -7893 0
0 0 0 708 1193028 -7185 0
0 0 0 723 1193751 -6462 0
0 0 0 801 1194552 -5661 0
0 0 0 803 1195355 -4858 0
0 0 0 857 1196212 -4001 0
0 0 0 827 1197039 -3174 0
0 0 0 824 1197863 -2350 0
59 1 S112 842 1198705 -1508 0
59 1 S112 873 1199578 -635 0
59 2 S112 866 1200444 231 0
59 2 S112 812 1201256 1043 0
59 2 S112 790 1202046 1833 0
59 2 S112 764 1202810 2597 0
59 2 S112 795 1203605 3392 0
59 2 S112 778 1204383 4170 0
59 2 S112 796 1205179 4966 0
59 2 S112 790 1205969 5756 0
59 2 S112 728 1206697 6484 0
0 0 0 733 1207430 -11384 0
0 0 0 724 1208154 -10660 0
0 0 0 728 1208882 -9932 0
0 0 0 805 1209687 -9127 0
0 0 0 780 1210467 -8347 0
0 0 0 817 1211284 -7530 0
0 0 0 946 1212230 -6584 0
0 0 0 1008 1213238 -5576 0
0 0 0 954 1214192 -4622 0
0 0 0 848 1215040 -3774 0
0 0 0 797 1215837 -2977 0
0 0 0 751 1216588 -2226 0
60 1 S102 724 1217312 -1502 0
60 1 S102 695 1218007 -807 0
60 1 S102 692 1218699 -115 0
60 2 S102 733 1219432 618 0
60 2 S102 822 1220254 1440 0
60 2 S102 855 1221109 2295 0
60 2 S102 862 1221971 3157 0
60 2 S102 843 1222814 4000 0
60 2 S102 863 1223677 4863 0
60 2 S102 865 1224542 5728 0
60 2 S102 864 1225406 6592 0
0 0 0 808 1226214 -11682 0
0 0 0 748 1226962 -10934 0
0 0 0 808 1227770 -10126 0
0 0 0 803 1228573 -9323 0
0 0 0 834 1229407 -8489 0
0 0 0 794 1230201 -7695 0
0 0 0 715 1230916 -6980 0
0 0 0 722 1231638 -6258 0
0 0 0 703 1232341 -5555 0
0 0 0 723 1233064 -4832 0
0 0 0 809 1233873 -4023 0
0 0 0 781 1234654 -3242 0
0 0 0 836 1235490 -2406 0
61 1 S106 918 1236408 -1488 0
61 1 S106 952 1237360 -536 0
61 2 S106 973 1238333 437 0
61 2 S106 907 1239240 1344 0
61 2 S106 812 1240052 2156 0
61 2 S106 761 1240813 2917 0
61 2 S106 728 1241541 3645 0
61 2 S106 780 1242321 4425 0
61 2 S106 786 1243107 5211 0
61 2 S106 783 1243890 5994 0
61 2 S106 776 1244666 6770 0
0 0 0 823 1245489 -6697 0
0 0 0 869 1246358 -5828 0
0 0 0 880 1247238 -4948 0
0 0 0 853 1248091 -4095 0
0 0 0 741 1248832 -3354 0
0 0 0 705 1249537 -2649 0
62 1 S112 683 1250220 -1966 0
62 1 S112 670 1250890 -1296 0
62 1 S112 699 1251589 -597 0
62 2 S112 715 1252304 118 0
62 2 S112 752 1253056 870 0
62 2 S112 909 1253965 1779 0
62 2 S112 924 1254889 2703 0
62 2 S112 939 1255828 3642 0
62 2 S112 870 1256698 4512 0
62 2 S112 815 1257513 5327 0
62 2 S112 779 1258292 6106 0
62 2 S112 746 1259038 6852 0
0 0 0 738 1259776 -11558 0
0 0 0 706 1260482 -10852 0
0 0 0 692 1261174 -10160 0
0 0 0 715 1261889 -9445 0
0 0 0 782 1262671 -8663 0
0 0 0 726 1263397 -7937 0
0 0 0 736 1264133 -7201 0
0 0 0 707 1264840 -6494 0
0 0 0 701 1265541 -5793 0
0 0 0 720 1266261 -5073 0
0 0 0 877 1267138 -4196 0
0 0 0 919 1268057 -3277 0
0 0 0 877 1268934 -2400 0
63 1 S102 849 1269783 -1551 0
63 1 S102 855 1270638 -696 0
63 2 S102 859 1271497 163 0
63 2 S102 855 1272352 1018 0
63 2 S102 780 1273132 1798 0
63 2 S102 733 1273865 2531 0
63 2 S102 733 1274598 3264 0
63 2 S102 739 1275337 4003 0
63 2 S102 805 1276142 4808 0
63 2 S102 819 1276961 5627 0
63 2 S102 821 1277782 6448 0
0 0 0 809 1278591 -9736 0
0 0 0 823 1279414 -8913 0
0 0 0 823 1280237 -8090 0
0 0 0 765 1281002 -7325 0
0 0 0 774 1281776 -6551 0
0 0 0 746 1282522 -5805 0
0 0 0 742 1283264 -5063 0
0 0 0 740 1284004 -4323 0
0 0 0 712 1284716 -3611 0
0 0 0 697 1285413 -2914 0
0 0 0 708 1286121 -2206 0
64 1 S112 733 1286854 -1473 0
64 1 S112 817 1287671 -656 0
64 2 S112 849 1288520 193 0
64 2 S112 755 1289275 948 0
64 2 S112 747 1290022 1695 0
64 2 S112 710 1290732 2405 0
64 2 S112 703 1291435 3108 0
64 2 S112 693 1292128 3801 0
64 2 S112 682 1292810 4483 0
64 2 S112 668 1293478 5151 0
64 2 S112 676 1294154 5827 0
64 2 S112 676 1294830 6503 0
0 0 0 687 1295517 -7797 0
0 0 0 686 1296203 -7111 0
0 0 0 671 1296874 -6440 0
0 0 0 674 1297548 -5766 0
0 0 0 691 1298239 -5075 0
0 0 0 703 1298942 -4372 0
0 0 0 701 1299643 -3671 0
0 0 0 682 1300325 -2989 0
0 0 0 672 1300997 -2317 0
65 1 S106 664 1301661 -1653 0
65 1 S106 673 1302334 -980 0
65 1 S106 694 1303028 -286 0
65 2 S106 754 1303782 468 0
65 2 S106 688 1304470 1156 0
65 2 S106 716 1305186 1872 0
65 2 S106 718 1305904 2590 0
65 2 S106 764 1306668 3354 0
65 2 S106 756 1307424 4110 0
65 2 S106 765 1308189 4875 0
65 2 S106 727 1308916 5602 0
65 2 S106 791 1309707 6393 0
0 0 0 775 1310482 -8283 0
0 0 0 809 1311291 -7474 0
0 0 0 779 1312070 -6695 0
0 0 0 728 1312798 -5967 0
0 0 0 802 1313600 -5165 0
0 0 0 790 1314390 -4375 0
0 0 0 790 1315180 -3585 0
0 0 0 715 1315895 -2870 0
0 0 0 712 1316607 -2158 0
66 1 S116 726 1317333 -1432 0
66 1 S116 805 1318138 -627 0
66 2 S116 845 1318983 218 0
66 2 S116 868 1319851 1086 0
66 2 S116 822 1320673 1908 0
66 2 S116 825 1321498 2733 0
66 2 S116 815 1322313 3548 0
66 2 S116 808 1323121 4356 0
66 2 S116 744 1323865 5100 0
66 2 S116 732 1324597 5832 0
66 2 S116 754 1325351 6586 0
0 0 0 798 1326149 -11117 0
0 0 0 807 1326956 -10310 0
0 0 0 755 1327711 -9555 0
0 0 0 813 1328524 -8742 0
0 0 0 757 1329281 -7985 0
0 0 0 828 1330109 -7157 0
0 0 0 825 1330934 -6332 0
0 0 0 789 1331723 -5543 0
0 0 0 725 1332448 -4818 0
0 0 0 736 1333184 -4082 0
0 0 0 786 1333970 -3296 0
0 0 0 779 1334749 -2517 0
67 1 S102 783 1335532 -1734 0
67 1 S102 716 1336248 -1018 0
67 1 S102 735 1336983 -283 0
67 2 S102 779 1337762 496 0
67 2 S102 769 1338531 1265 0
67 2 S102 788 1339319 2053 0
67 2 S102 729 1340048 2782 0
67 2 S102 785 1340833 3567 0
67 2 S102 773 1341606 4340 0
67 2 S102 779 1342385 5119 0
67 2 S102 772 1343157 5891 0
67 2 S102 711 1343868 6602 0
0 0 0 745 1344613 -7143 0
0 0 0 812 1345425 -6331 0
0 0 0 793 1346218 -5538 0
0 0 0 836 1347054 -4702 0
0 0 0 788 1347842 -3914 0
0 0 0 746 1348588 -3168 0
0 0 0 788 1349376 -2380 0
68 1 S106 771 1350147 -1609 0
68 1 S106 768 1350915 -841 0
68 1 S106 709 1351624 -132 0
68 2 S106 754 1352378 622 0
68 2 S106 856 1353234 1478 0
68 2 S106 880 1354114 2358 0
68 2 S106 877 1354991 3235 0
68 2 S106 807 1355798 4042 0
68 2 S106 807 1356605 4849 0
68 2 S106 797 1357402 5646 0
68 2 S106 803 1358205 6449 0
0 0 0 803 1359008 -11200 0
0 0 0 735 1359743 -10465 0
0 0 0 728 1360471 -9737 0
0 0 0 788 1361259 -8949 0
0 0 0 753 1362012 -8196 0
0 0 0 754 1362766 -7442 0
0 0 0 700 1363466 -6742 0
0 0 0 711 1364177 -6031 0
0 0 0 727 1364904 -5304 0
0 0 0 770 1365674 -4534 0
0 0 0 699 1366373 -3835 0
0 0 0 701 1367074 -3134 0
0 0 0 673 1367747 -2461 0
69 1 S102 672 1368419 -1789 0
69 1 S102 673 1369092 -1116 0
69 1 S102 697 1369789 -419 0
69 2 S102 699 1370488 280 0
69 2 S102 717 1371205 997 0
69 2 S102 805 1372010 1802 0
69 2 S102 778 1372788 2580 0
69 2 S102 788 1373576 3368 0
69 2 S102 728 1374304 4096 0
69 2 S102 723 1375027 4819 0
69 2 S102 721 1375748 5540 0
69 2 S102 731 1376479 6271 0
69 2 S102 735 1377214 7006 0
0 0 0 719 1377933 -9782 0
0 0 0 682 1378615 -9100 0
0 0 0 662 1379277 -8438 0
0 0 0 668 1379945 -7770 0
0 0 0 699 1380644 -7071 0
0 0 0 795 1381439 -6276 0
0 0 0 828 1382267 -5448 0
0 0 0 716 1382983 -4732 0
0 0 0 700 1383683 -4032 0
0 0 0 683 1384366 -3349 0
0 0 0 657 1385023 -2692 0
0 0 0 635 1385658 -2057 0
70 1 S112 619 1386277 -1438 0
70 1 S112 607 1386884 -831 0
70 1 S112 613 1387497 -218 0
70 2 S112 663 1388160 445 0
70 2 S112 844 1389004 1289 0
70 2 S112 814 1389818 2103 0
70 2 S112 830 1390648 2933 0
70 2 S112 848 1391496 3781 0
70 2 S112 861 1392357 4642 0
70 2 S112 868 1393225 5510 0
70 2 S112 813 1394038 6323 0
0 0 0 738 1394776 -11689 0
0 0 0 726 1395502 -10963 0
0 0 0 723 1396225 -10240 0
0 0 0 795 1397020 -9445 0
0 0 0 853 1397873 -8592 0
0 0 0 818 1398691 -7774 0
0 0 0 806 1399497 -6968 0
0 0 0 832 1400329 -6136 0
0 0 0 859 1401188 -5277 0
0 0 0 875 1402063 -4402 0
0 0 0 838 1402901 -3564 0
0 0 0 781 1403682 -2783 0
71 1 S116 783 1404465 -2000 0
71 1 S116 767 1405232 -1233 0
71 1 S116 810 1406042 -423 0
71 2 S116 725 1406767 302 0
71 2 S116 755 1407522 1057 0
71 2 S116 850 1408372 1907 0
71 2 S116 863 1409235 2770 0
71 2 S116 886 1410121 3656 0
71 2 S116 792 1410913 4448 0
71 2 S116 787 1411700 5235 0
71 2 S116 807 1412507 6042 0
71 2 S116 819 1413326 6861 0
0 0 0 814 1414140 -8223 0
0 0 0 747 1414887 -7476 0
0 0 0 744 1415631 -6732 0
0 0 0 749 1416380 -5983 0
0 0 0 787 1417167 -5196 0
0 0 0 738 1417905 -4458 0
0 0 0 754 1418659 -3704 0
0 0 0 747 1419406 -2957 0
0 0 0 756 1420162 -2201 0
72 1 S102 793 1420955 -1408 0
72 1 S102 741 1421696 -667 0
72 2 S102 732 1422428 65 0
72 2 S102 735 1423163 800 0
72 2 S102 790 1423953 1590 0
72 2 S102 770 1424723 2360 0
72 2 S102 773 1425496 3133 0
72 2 S102 724 1426220 3857 0
72 2 S102 728 1426948 4585 0
72 2 S102 748 1427696 5333 0
72 2 S102 810 1428506 6143 0
72 2 S102 822 1429328 6965 0
0 0 0 849 1430177 -7074 0
0 0 0 766 1430943 -6308 0
0 0 0 745 1431688 -5563 0
0 0 0 747 1432435 -4816 0
0 0 0 743 1433178 -4073 0
0 0 0 721 1433899 -3352 0
0 0 0 705 1434604 -2647 0
73 1 S116 687 1435291 -1960 0
73 1 S116 693 1435984 -1267 0
73 1 S116 711 1436695 -556 0
73 2 S116 851 1437546 295 0
73 2 S116 906 1438452 1201 0
73 2 S116 902 1439354 2103 0
73 2 S116 912 1440266 3015 0
73 2 S116 923 1441189 3938 0
73 2 S116 915 1442104 4853 0
73 2 S116 833 1442937 5686 0
73 2 S116 765 1443702 6451 0
0 0 0 746 1444448 -10094 0
0 0 0 725 1445173 -9369 0
0 0 0 725 1445898 -8644 0
0 0 0 719 1446617 -7925 0
0 0 0 730 1447347 -7195 0
0 0 0 831 1448178 -6364 0
0 0 0 805 1448983 -5559 0
0 0 0 830 1449813 -4729 0
0 0 0 767 1450580 -3962 0
0 0 0 762 1451342 -3200 0
0 0 0 798 1452140 -2402 0
74 1 S106 800 1452940 -1602 0
74 1 S106 832 1453772 -770 0
74 2 S106 817 1454589 47 0
74 2 S106 820 1455409 867 0
74 2 S106 855 1456264 1722 0
74 2 S106 847 1457111 2569 0
74 2 S106 850 1457961 3419 0
74 2 S106 795 1458756 4214 0
74 2 S106 755 1459511 4969 0
74 2 S106 804 1460315 5773 0
74 2 S106 804 1461119 6577 0
0 0 0 804 1461923 -7871 0
0 0 0 796 1462719 -7075 0
0 0 0 799 1463518 -6276 0
0 0 0 837 1464355 -5439 0
0 0 0 895 1465250 -4544 0
0 0 0 785 1466035 -3759 0
0 0 0 734 1466769 -3025 0
0 0 0 721 1467490 -2304 0
75 1 S112 715 1468205 -1589 0
75 1 S112 774 1468979 -815 0
75 1 S112 729 1469708 -86 0
75 2 S112 817 1470525 731 0
75 2 S112 822 1471347 1553 0
75 2 S112 839 1472186 2392 0
75 2 S112 822 1473008 3214 0
75 2 S112 720 1473728 3934 0
75 2 S112 696 1474424 4630 0
75 2 S112 686 1475110 5316 0
75 2 S112 691 1475801 6007 0
75 2 S112 778 1476579 6785 0
0 0 0 804 1477383 -6934 0
0 0 0 844 1478227 -6090 0
0 0 0 911 1479138 -5179 0
0 0 0 936 1480074 -4243 0
0 0 0 886 1480960 -3357 0
0 0 0 801 1481761 -2556 0
76 1 S116 767 1482528 -1789 0
76 1 S116 752 1483280 -1037 0
76 1 S116 755 1484035 -282 0
76 2 S116 756 1484791 474 0
76 2 S116 732 1485523 1206 0
76 2 S116 734 1486257 1940 0
76 2 S116 793 1487050 2733 0
76 2 S116 780 1487830 3513 0
76 2 S116 832 1488662 4345 0
76 2 S116 820 1489482 5165 0
76 2 S116 808 1490290 5973 0
76 2 S116 848 1491138 6821 0
0 0 0 875 1492013 -6478 0
0 0 0 879 1492892 -5599 0
0 0 0 892 1493784 -4707 0
0 0 0 802 1494586 -3905 0
0 0 0 716 1495302 -3189 0
0 0 0 678 1495980 -2511 0
77 1 S106 678 1496658 -1833 0
77 1 S106 769 1497427 -1064 0
77 1 S106 888 1498315 -176 0
77 2 S106 922 1499237 746 0
77 2 S106 943 1500180 1689 0
77 2 S106 963 1501143 2652 0
77 2 S106 958 1502101 3610 0
77 2 S106 933 1503034 4543 0
77 2 S106 914 1503948 5457 0
77 2 S106 895 1504843 6352 0
0 0 0 863 1505706 -9695 0
0 0 0 853 1506559 -8842 0
0 0 0 812 1507371 -8030 0
0 0 0 776 1508147 -7254 0
0 0 0 732 1508879 -6522 0
0 0 0 700 1509579 -5822 0
0 0 0 708 1510287 -5114 0
0 0 0 701 1510988 -4413 0
0 0 0 782 1511770 -3631 0
0 0 0 864 1512634 -2767 0
78 1 S112 855 1513489 -1912 0
78 1 S112 882 1514371 -1030 0
78 1 S112 893 1515264 -137 0
78 2 S112 865 1516129 728 0
78 2 S112 858 1516987 1586 0
78 2 S112 779 1517766 2365 0
78 2 S112 753 1518519 3118 0
78 2 S112 756 1519275 3874 0
78 2 S112 805 1520080 4679 0
78 2 S112 813 1520893 5492 0
78 2 S112 843 1521736 6335 0
0 0 0 815 1522551 -11584 0
0 0 0 833 1523384 -10751 0
0 0 0 814 1524198 -9937 0
0 0 0 757 1524955 -9180 0
0 0 0 746 1525701 -8434 0
0 0 0 694 1526395 -7740 0
0 0 0 690 1527085 -7050 0
0 0 0 695 1527780 -6355 0
0 0 0 714 1528494 -5641 0
0 0 0 800 1529294 -4841 0
0 0 0 794 1530088 -4047 0
0 0 0 803 1530891 -3244 0
0 0 0 828 1531719 -2416 0
79 1 S102 832 1532551 -1584 0
79 1 S102 844 1533395 -740 0
79 2 S102 860 1534255 120 0
79 2 S102 868 1535123 988 0
79 2 S102 845 1535968 1833 0
79 2 S102 769 1536737 2602 0
79 2 S102 729 1537466 3331 0
79 2 S102 712 1538178 4043 0
79 2 S102 704 1538882 4747 0
79 2 S102 776 1539658 5523 0
79 2 S102 705 1540363 6228 0
79 2 S102 737 1541100 6965 0
0 0 0 820 1541920 -9324 0
0 0 0 825 1542745 -8499 0
0 0 0 880 1543625 -7619 0
0 0 0 849 1544474 -6770 0
0 0 0 797 1545271 -5973 0
0 0 0 801 1546072 -5172 0
0 0 0 754 1546826 -4418 0
0 0 0 719 1547545 -3699 0
0 0 0 675 1548220 -3024 0
0 0 0 657 1548877 -2367 0
80 1 S116 656 1549533 -1711 0
80 1 S116 636 1550169 -1075 0
80 1 S116 635 1550804 -440 0
80 2 S116 628 1551432 188 0
80 2 S116 619 1552051 807 0
80 2 S116 624 1552675 1431 0
80 2 S116 635 1553310 2066 0
80 2 S116 643 1553953 2709 0
80 2 S116 666 1554619 3375 0
80 2 S116 664 1555283 4039 0
80 2 S116 671 1555954 4710 0
80 2 S116 696 1556650 5406 0
80 2 S116 710 1557360 6116 0
80 2 S116 722 1558082 6838 0
