T_0169
BeatCount Mean SD BeatCountNoOutliers MeanNoOutliers SDNoOutliers
1955 793,046547314578 64,7644846102737 1921 790,180635085893 57,0935834592123

Trial TrialStatus Trialtype IBI AbsPosition RelPosition Outlier
0 0 0 742 1486 -14262 0
0 0 0 699 2185 -13563 0
0 0 0 671 2856 -12892 0
0 0 0 643 3499 -12249 0
0 0 0 1334 4833 -10915 1
0 0 0 1068 5901 -9847 1
0 0 0 964 6865 -8883 1
0 0 0 852 7717 -8031 0
0 0 0 756 8473 -7275 0
0 0 0 737 9210 -6538 0
0 0 0 751 9961 -5787 0
0 0 0 821 10782 -4966 0
0 0 0 839 11621 -4127 0
0 0 0 877 12498 -3250 0
0 0 0 842 13340 -2408 0
1 1 S112 764 14104 -1644 0
1 1 S112 715 14819 -929 0
1 1 S112 724 15543 -205 0
1 2 S112 736 16279 531 0
1 2 S112 785 17064 1316 0
1 2 S112 900 17964 2216 0
1 2 S112 868 18832 3084 0
1 2 S112 889 19721 3973 0
1 2 S112 875 20596 4848 0
1 2 S112 859 21455 5707 0
1 2 S112 814 22269 6521 0
0 0 0 795 23064 -11600 0
0 0 0 733 23797 -10867 0
0 0 0 713 24510 -10154 0
0 0 0 693 25203 -9461 0
0 0 0 671 25874 -8790 0
0 0 0 689 26563 -8101 0
0 0 0 680 27243 -7421 0
0 0 0 793 28036 -6628 0
0 0 0 1064 29100 -5564 1
0 0 0 923 30023 -4641 0
0 0 0 766 30789 -3875 0
0 0 0 708 31497 -3167 0
0 0 0 699 32196 -2468 0
2 1 S102 727 32923 -1741 0
2 1 S102 749 33672 -992 0
2 1 S102 830 34502 -162 0
2 2 S102 764 35266 602 0
2 2 S102 748 36014 1350 0
2 2 S102 781 36795 2131 0
2 2 S102 882 37677 3013 0
2 2 S102 863 38540 3876 0
2 2 S102 767 39307 4643 0
2 2 S102 729 40036 5372 0
2 2 S102 738 40774 6110 0
2 2 S102 805 41579 6915 0
0 0 0 950 42529 -10587 0
0 0 0 728 43257 -9859 0
0 0 0 686 43943 -9173 0
0 0 0 677 44620 -8496 0
0 0 0 719 45339 -7777 0
0 0 0 848 46187 -6929 0
0 0 0 835 47022 -6094 0
0 0 0 771 47793 -5323 0
0 0 0 772 48565 -4551 0
0 0 0 837 49402 -3714 0
0 0 0 854 50256 -2860 0
0 0 0 814 51070 -2046 0
3 1 S116 757 51827 -1289 0
3 1 S116 728 52555 -561 0
3 2 S116 729 53284 168 0
3 2 S116 755 54039 923 0
3 2 S116 838 54877 1761 0
3 2 S116 831 55708 2592 0
3 2 S116 773 56481 3365 0
3 2 S116 825 57306 4190 0
3 2 S116 807 58113 4997 0
3 2 S116 859 58972 5856 0
3 2 S116 832 59804 6688 0
0 0 0 776 60580 -12215 0
0 0 0 811 61391 -11404 0
0 0 0 785 62176 -10619 0
0 0 0 720 62896 -9899 0
0 0 0 760 63656 -9139 0
0 0 0 755 64411 -8384 0
0 0 0 706 65117 -7678 0
0 0 0 712 65829 -6966 0
0 0 0 767 66596 -6199 0
0 0 0 817 67413 -5382 0
0 0 0 858 68271 -4524 0
0 0 0 795 69066 -3729 0
0 0 0 756 69822 -2973 0
0 0 0 789 70611 -2184 0
4 1 S106 803 71414 -1381 0
4 1 S106 801 72215 -580 0
4 2 S106 794 73009 214 0
4 2 S106 756 73765 970 0
4 2 S106 794 74559 1764 0
4 2 S106 787 75346 2551 0
4 2 S106 787 76133 3338 0
4 2 S106 841 76974 4179 0
4 2 S106 883 77857 5062 0
4 2 S106 852 78709 5914 0
4 2 S106 775 79484 6689 0
0 0 0 817 80301 -7215 0
0 0 0 786 81087 -6429 0
0 0 0 718 81805 -5711 0
0 0 0 683 82488 -5028 0
0 0 0 706 83194 -4322 0
0 0 0 983 84177 -3339 1
0 0 0 895 85072 -2444 0
5 1 S116 832 85904 -1612 0
5 1 S116 750 86654 -862 0
5 1 S116 713 87367 -149 0
5 2 S116 730 88097 581 0
5 2 S116 714 88811 1295 0
5 2 S116 725 89536 2020 0
5 2 S116 761 90297 2781 0
5 2 S116 775 91072 3556 0
5 2 S116 776 91848 4332 0
5 2 S116 722 92570 5054 0
5 2 S116 790 93360 5844 0
5 2 S116 891 94251 6735 0
0 0 0 924 95175 -9981 0
0 0 0 880 96055 -9101 0
0 0 0 775 96830 -8326 0
0 0 0 772 97602 -7554 0
0 0 0 789 98391 -6765 0
0 0 0 762 99153 -6003 0
0 0 0 726 99879 -5277 0
0 0 0 735 100614 -4542 0
0 0 0 796 101410 -3746 0
0 0 0 881 102291 -2865 0
6 1 S106 894 103185 -1971 0
6 1 S106 895 104080 -1076 0
6 1 S106 830 104910 -246 0
6 2 S106 778 105688 532 0
6 2 S106 792 106480 1324 0
6 2 S106 818 107298 2142 0
6 2 S106 856 108154 2998 0
6 2 S106 865 109019 3863 0
6 2 S106 812 109831 4675 0
6 2 S106 805 110636 5480 0
6 2 S106 831 111467 6311 0
0 0 0 837 112304 -12265 0
0 0 0 780 113084 -11485 0
0 0 0 725 113809 -10760 0
0 0 0 721 114530 -10039 0
0 0 0 774 115304 -9265 0
0 0 0 805 116109 -8460 0
0 0 0 711 116820 -7749 0
0 0 0 687 117507 -7062 0
0 0 0 693 118200 -6369 0
0 0 0 764 118964 -5605 0
0 0 0 831 119795 -4774 0
0 0 0 845 120640 -3929 0
0 0 0 760 121400 -3169 0
0 0 0 754 122154 -2415 0
7 1 S102 758 122912 -1657 0
7 1 S102 773 123685 -884 0
7 1 S102 733 124418 -151 0
7 2 S102 733 125151 582 0
7 2 S102 751 125902 1333 0
7 2 S102 819 126721 2152 0
7 2 S102 841 127562 2993 0
7 2 S102 839 128401 3832 0
7 2 S102 811 129212 4643 0
7 2 S102 778 129990 5421 0
7 2 S102 803 130793 6224 0
0 0 0 817 131610 -8526 0
0 0 0 841 132451 -7685 0
0 0 0 777 133228 -6908 0
0 0 0 772 134000 -6136 0
0 0 0 773 134773 -5363 0
0 0 0 761 135534 -4602 0
0 0 0 743 136277 -3859 0
0 0 0 787 137064 -3072 0
0 0 0 820 137884 -2252 0
8 1 S112 820 138704 -1432 0
8 1 S112 760 139464 -672 0
8 2 S112 739 140203 67 0
8 2 S112 749 140952 816 0
8 2 S112 816 141768 1632 0
8 2 S112 826 142594 2458 0
8 2 S112 837 143431 3295 0
8 2 S112 857 144288 4152 0
8 2 S112 869 145157 5021 0
8 2 S112 886 146043 5907 0
8 2 S112 877 146920 6784 0
0 0 0 871 147791 -7863 0
0 0 0 762 148553 -7101 0
0 0 0 727 149280 -6374 0
0 0 0 769 150049 -5605 0
0 0 0 806 150855 -4799 0
0 0 0 759 151614 -4040 0
0 0 0 814 152428 -3226 0
0 0 0 718 153146 -2508 0
9 1 S116 711 153857 -1797 0
9 1 S116 1250 155107 -547 1
9 2 S116 1039 156146 492 1
9 2 S116 996 157142 1488 1
9 2 S116 948 158090 2436 0
9 2 S116 866 158956 3302 0
9 2 S116 822 159778 4124 0
9 2 S116 808 160586 4932 0
9 2 S116 783 161369 5715 0
9 2 S116 783 162152 6498 0
0 0 0 790 162942 -11462 0
0 0 0 784 163726 -10678 0
0 0 0 738 164464 -9940 0
0 0 0 703 165167 -9237 0
0 0 0 707 165874 -8530 0
0 0 0 719 166593 -7811 0
0 0 0 751 167344 -7060 0
0 0 0 779 168123 -6281 0
0 0 0 817 168940 -5464 0
0 0 0 841 169781 -4623 0
0 0 0 859 170640 -3764 0
0 0 0 827 171467 -2937 0
0 0 0 804 172271 -2133 0
10 1 S102 773 173044 -1360 0
10 1 S102 792 173836 -568 0
10 2 S102 770 174606 202 0
10 2 S102 784 175390 986 0
10 2 S102 767 176157 1753 0
10 2 S102 768 176925 2521 0
10 2 S102 857 177782 3378 0
10 2 S102 880 178662 4258 0
10 2 S102 837 179499 5095 0
10 2 S102 781 180280 5876 0
10 2 S102 794 181074 6670 0
0 0 0 848 181922 -12525 0
0 0 0 788 182710 -11737 0
0 0 0 710 183420 -11027 0
0 0 0 708 184128 -10319 0
0 0 0 767 184895 -9552 0
0 0 0 905 185800 -8647 0
0 0 0 790 186590 -7857 0
0 0 0 889 187479 -6968 0
0 0 0 878 188357 -6090 0
0 0 0 785 189142 -5305 0
0 0 0 746 189888 -4559 0
0 0 0 814 190702 -3745 0
0 0 0 868 191570 -2877 0
0 0 0 867 192437 -2010 0
11 1 S112 853 193290 -1157 0
11 1 S112 783 194073 -374 0
11 2 S112 777 194850 403 0
11 2 S112 794 195644 1197 0
11 2 S112 834 196478 2031 0
11 2 S112 894 197372 2925 0
11 2 S112 893 198265 3818 0
11 2 S112 847 199112 4665 0
11 2 S112 795 199907 5460 0
11 2 S112 819 200726 6279 0
0 0 0 879 201605 -7630 0
0 0 0 955 202560 -6675 0
0 0 0 820 203380 -5855 0
0 0 0 853 204233 -5002 0
0 0 0 854 205087 -4148 0
0 0 0 936 206023 -3212 0
0 0 0 976 206999 -2236 1
12 1 S116 887 207886 -1349 0
12 1 S116 930 208816 -419 0
12 2 S116 965 209781 546 1
12 2 S116 950 210731 1496 0
12 2 S116 873 211604 2369 0
12 2 S116 804 212408 3173 0
12 2 S116 790 213198 3963 0
12 2 S116 793 213991 4756 0
12 2 S116 859 214850 5615 0
12 2 S116 862 215712 6477 0
0 0 0 807 216519 -11831 0
0 0 0 850 217369 -10981 0
0 0 0 874 218243 -10107 0
0 0 0 850 219093 -9257 0
0 0 0 752 219845 -8505 0
0 0 0 737 220582 -7768 0
0 0 0 736 221318 -7032 0
0 0 0 699 222017 -6333 0
0 0 0 683 222700 -5650 0
0 0 0 719 223419 -4931 0
0 0 0 741 224160 -4190 0
0 0 0 728 224888 -3462 0
0 0 0 769 225657 -2693 0
13 1 S112 789 226446 -1904 0
13 1 S112 809 227255 -1095 0
13 1 S112 799 228054 -296 0
13 2 S112 739 228793 443 0
13 2 S112 752 229545 1195 0
13 2 S112 762 230307 1957 0
13 2 S112 802 231109 2759 0
13 2 S112 806 231915 3565 0
13 2 S112 759 232674 4324 0
13 2 S112 767 233441 5091 0
13 2 S112 779 234220 5870 0
13 2 S112 793 235013 6663 0
0 0 0 808 235821 -12489 0
0 0 0 740 236561 -11749 0
0 0 0 688 237249 -11061 0
0 0 0 730 237979 -10331 0
0 0 0 867 238846 -9464 0
0 0 0 935 239781 -8529 0
0 0 0 842 240623 -7687 0
0 0 0 752 241375 -6935 0
0 0 0 764 242139 -6171 0
0 0 0 787 242926 -5384 0
0 0 0 811 243737 -4573 0
0 0 0 866 244603 -3707 0
0 0 0 773 245376 -2934 0
0 0 0 748 246124 -2186 0
14 1 S106 751 246875 -1435 0
14 1 S106 775 247650 -660 0
14 2 S106 801 248451 141 0
14 2 S106 813 249264 954 0
14 2 S106 782 250046 1736 0
14 2 S106 766 250812 2502 0
14 2 S106 799 251611 3301 0
14 2 S106 815 252426 4116 0
14 2 S106 815 253241 4931 0
14 2 S106 785 254026 5716 0
14 2 S106 808 254834 6524 0
0 0 0 838 255672 -12068 0
0 0 0 846 256518 -11222 0
0 0 0 784 257302 -10438 0
0 0 0 786 258088 -9652 0
0 0 0 817 258905 -8835 0
0 0 0 761 259666 -8074 0
0 0 0 728 260394 -7346 0
0 0 0 732 261126 -6614 0
0 0 0 731 261857 -5883 0
0 0 0 686 262543 -5197 0
0 0 0 695 263238 -4502 0
0 0 0 764 264002 -3738 0
0 0 0 724 264726 -3014 0
0 0 0 722 265448 -2292 0
15 1 S116 763 266211 -1529 0
15 1 S116 754 266965 -775 0
15 2 S116 777 267742 2 0
15 2 S116 793 268535 795 0
15 2 S116 764 269299 1559 0
15 2 S116 812 270111 2371 0
15 2 S116 845 270956 3216 0
15 2 S116 809 271765 4025 0
15 2 S116 783 272548 4808 0
15 2 S116 799 273347 5607 0
15 2 S116 774 274121 6381 0
0 0 0 859 274980 -10599 0
0 0 0 779 275759 -9820 0
0 0 0 721 276480 -9099 0
0 0 0 686 277166 -8413 0
0 0 0 740 277906 -7673 0
0 0 0 951 278857 -6722 0
0 0 0 890 279747 -5832 0
0 0 0 841 280588 -4991 0
0 0 0 787 281375 -4204 0
0 0 0 714 282089 -3490 0
0 0 0 689 282778 -2801 0
0 0 0 689 283467 -2112 0
16 1 S116 705 284172 -1407 0
16 1 S116 744 284916 -663 0
16 2 S116 809 285725 146 0
16 2 S116 854 286579 1000 0
16 2 S116 862 287441 1862 0
16 2 S116 857 288298 2719 0
16 2 S116 855 289153 3574 0
16 2 S116 869 290022 4443 0
16 2 S116 837 290859 5280 0
16 2 S116 830 291689 6110 0
16 2 S116 798 292487 6908 0
0 0 0 786 293273 -9879 0
0 0 0 740 294013 -9139 0
0 0 0 765 294778 -8374 0
0 0 0 830 295608 -7544 0
0 0 0 845 296453 -6699 0
0 0 0 800 297253 -5899 0
0 0 0 728 297981 -5171 0
0 0 0 756 298737 -4415 0
0 0 0 808 299545 -3607 0
0 0 0 848 300393 -2759 0
17 1 S106 824 301217 -1935 0
17 1 S106 802 302019 -1133 0
17 1 S106 745 302764 -388 0
17 2 S106 788 303552 400 0
17 2 S106 787 304339 1187 0
17 2 S106 860 305199 2047 0
17 2 S106 888 306087 2935 0
17 2 S106 833 306920 3768 0
17 2 S106 821 307741 4589 0
17 2 S106 880 308621 5469 0
17 2 S106 930 309551 6399 0
0 0 0 858 310409 -11128 0
0 0 0 847 311256 -10281 0
0 0 0 888 312144 -9393 0
0 0 0 886 313030 -8507 0
0 0 0 777 313807 -7730 0
0 0 0 750 314557 -6980 0
0 0 0 801 315358 -6179 0
0 0 0 872 316230 -5307 0
0 0 0 870 317100 -4437 0
0 0 0 833 317933 -3604 0
0 0 0 832 318765 -2772 0
18 1 S102 878 319643 -1894 0
18 1 S102 834 320477 -1060 0
18 1 S102 775 321252 -285 0
18 2 S102 768 322020 483 0
18 2 S102 780 322800 1263 0
18 2 S102 823 323623 2086 0
18 2 S102 828 324451 2914 0
18 2 S102 855 325306 3769 0
18 2 S102 870 326176 4639 0
18 2 S102 876 327052 5515 0
18 2 S102 875 327927 6390 0
0 0 0 821 328748 -7047 0
0 0 0 853 329601 -6194 0
0 0 0 832 330433 -5362 0
0 0 0 821 331254 -4541 0
0 0 0 746 332000 -3795 0
0 0 0 738 332738 -3057 0
0 0 0 745 333483 -2312 0
19 1 S106 753 334236 -1559 0
19 1 S106 721 334957 -838 0
19 1 S106 694 335651 -144 0
19 2 S106 735 336386 591 0
19 2 S106 795 337181 1386 0
19 2 S106 742 337923 2128 0
19 2 S106 755 338678 2883 0
19 2 S106 795 339473 3678 0
19 2 S106 809 340282 4487 0
19 2 S106 820 341102 5307 0
19 2 S106 759 341861 6066 0
19 2 S106 804 342665 6870 0
0 0 0 850 343515 -11709 0
0 0 0 823 344338 -10886 0
0 0 0 792 345130 -10094 0
0 0 0 794 345924 -9300 0
0 0 0 833 346757 -8467 0
0 0 0 790 347547 -7677 0
0 0 0 720 348267 -6957 0
0 0 0 718 348985 -6239 0
0 0 0 781 349766 -5458 0
0 0 0 840 350606 -4618 0
0 0 0 864 351470 -3754 0
0 0 0 901 352371 -2853 0
20 1 S112 870 353241 -1983 0
20 1 S112 806 354047 -1177 0
20 1 S112 830 354877 -347 0
20 2 S112 843 355720 496 0
20 2 S112 818 356538 1314 0
20 2 S112 788 357326 2102 0
20 2 S112 791 358117 2893 0
20 2 S112 856 358973 3749 0
20 2 S112 899 359872 4648 0
20 2 S112 891 360763 5539 0
20 2 S112 830 361593 6369 0
0 0 0 773 362366 -10747 0
0 0 0 794 363160 -9953 0
0 0 0 780 363940 -9173 0
0 0 0 816 364756 -8357 0
0 0 0 756 365512 -7601 0
0 0 0 710 366222 -6891 0
0 0 0 744 366966 -6147 0
0 0 0 734 367700 -5413 0
0 0 0 698 368398 -4715 0
0 0 0 745 369143 -3970 0
0 0 0 842 369985 -3128 0
0 0 0 827 370812 -2301 0
21 1 S106 778 371590 -1523 0
21 1 S106 758 372348 -765 0
21 2 S106 768 373116 3 0
21 2 S106 811 373927 814 0
21 2 S106 824 374751 1638 0
21 2 S106 790 375541 2428 0
21 2 S106 769 376310 3197 0
21 2 S106 780 377090 3977 0
21 2 S106 824 377914 4801 0
21 2 S106 857 378771 5658 0
21 2 S106 862 379633 6520 0
0 0 0 808 380441 -12035 0
0 0 0 782 381223 -11253 0
0 0 0 753 381976 -10500 0
0 0 0 793 382769 -9707 0
0 0 0 827 383596 -8880 0
0 0 0 760 384356 -8120 0
0 0 0 740 385096 -7380 0
0 0 0 768 385864 -6612 0
0 0 0 816 386680 -5796 0
0 0 0 846 387526 -4950 0
0 0 0 804 388330 -4146 0
0 0 0 740 389070 -3406 0
0 0 0 752 389822 -2654 0
22 1 S116 785 390607 -1869 0
22 1 S116 830 391437 -1039 0
22 1 S116 853 392290 -186 0
22 2 S116 790 393080 604 0
22 2 S116 769 393849 1373 0
22 2 S116 800 394649 2173 0
22 2 S116 836 395485 3009 0
22 2 S116 905 396390 3914 0
22 2 S116 770 397160 4684 0
22 2 S116 760 397920 5444 0
22 2 S116 788 398708 6232 0
0 0 0 821 399529 -10006 0
0 0 0 794 400323 -9212 0
0 0 0 704 401027 -8508 0
0 0 0 683 401710 -7825 0
0 0 0 681 402391 -7144 0
0 0 0 768 403159 -6376 0
0 0 0 868 404027 -5508 0
0 0 0 837 404864 -4671 0
0 0 0 786 405650 -3885 0
0 0 0 741 406391 -3144 0
0 0 0 732 407123 -2412 0
23 1 S112 738 407861 -1674 0
23 1 S112 746 408607 -928 0
23 1 S112 753 409360 -175 0
23 2 S112 746 410106 571 0
23 2 S112 776 410882 1347 0
23 2 S112 815 411697 2162 0
23 2 S112 825 412522 2987 0
23 2 S112 844 413366 3831 0
23 2 S112 870 414236 4701 0
23 2 S112 850 415086 5551 0
23 2 S112 773 415859 6324 0
0 0 0 802 416661 -9701 0
0 0 0 797 417458 -8904 0
0 0 0 761 418219 -8143 0
0 0 0 717 418936 -7426 0
0 0 0 735 419671 -6691 0
0 0 0 767 420438 -5924 0
0 0 0 755 421193 -5169 0
0 0 0 790 421983 -4379 0
0 0 0 785 422768 -3594 0
0 0 0 742 423510 -2852 0
0 0 0 720 424230 -2132 0
24 1 S106 726 424956 -1406 0
24 1 S106 761 425717 -645 0
24 2 S106 779 426496 134 0
24 2 S106 775 427271 909 0
24 2 S106 741 428012 1650 0
24 2 S106 753 428765 2403 0
24 2 S106 786 429551 3189 0
24 2 S106 805 430356 3994 0
24 2 S106 819 431175 4813 0
24 2 S106 755 431930 5568 0
24 2 S106 783 432713 6351 0
0 0 0 792 433505 -9121 0
0 0 0 828 434333 -8293 0
0 0 0 782 435115 -7511 0
0 0 0 764 435879 -6747 0
0 0 0 761 436640 -5986 0
0 0 0 751 437391 -5235 0
0 0 0 713 438104 -4522 0
0 0 0 709 438813 -3813 0
0 0 0 734 439547 -3079 0
0 0 0 742 440289 -2337 0
25 1 S102 794 441083 -1543 0
25 1 S102 772 441855 -771 0
25 1 S102 763 442618 -8 0
25 2 S102 743 443361 735 0
25 2 S102 757 444118 1492 0
25 2 S102 784 444902 2276 0
25 2 S102 802 445704 3078 0
25 2 S102 831 446535 3909 0
25 2 S102 860 447395 4769 0
25 2 S102 868 448263 5637 0
25 2 S102 816 449079 6453 0
0 0 0 767 449846 -7733 0
0 0 0 793 450639 -6940 0
0 0 0 793 451432 -6147 0
0 0 0 828 452260 -5319 0
0 0 0 841 453101 -4478 0
0 0 0 754 453855 -3724 0
0 0 0 799 454654 -2925 0
0 0 0 829 455483 -2096 0
26 1 S116 834 456317 -1262 0
26 1 S116 774 457091 -488 0
26 2 S116 777 457868 289 0
26 2 S116 779 458647 1068 0
26 2 S116 781 459428 1849 0
26 2 S116 760 460188 2609 0
26 2 S116 738 460926 3347 0
26 2 S116 743 461669 4090 0
26 2 S116 814 462483 4904 0
26 2 S116 817 463300 5721 0
26 2 S116 798 464098 6519 0
0 0 0 827 464925 -8122 0
0 0 0 804 465729 -7318 0
0 0 0 768 466497 -6550 0
0 0 0 738 467235 -5812 0
0 0 0 743 467978 -5069 0
0 0 0 720 468698 -4349 0
0 0 0 688 469386 -3661 0
0 0 0 699 470085 -2962 0
0 0 0 715 470800 -2247 0
27 1 S106 742 471542 -1505 0
27 1 S106 807 472349 -698 0
27 2 S106 743 473092 45 0
27 2 S106 759 473851 804 0
27 2 S106 763 474614 1567 0
27 2 S106 797 475411 2364 0
27 2 S106 792 476203 3156 0
27 2 S106 734 476937 3890 0
27 2 S106 764 477701 4654 0
27 2 S106 763 478464 5417 0
27 2 S106 783 479247 6200 0
27 2 S106 817 480064 7017 0
0 0 0 789 480853 -6385 0
0 0 0 715 481568 -5670 0
0 0 0 697 482265 -4973 0
0 0 0 675 482940 -4298 0
0 0 0 711 483651 -3587 0
0 0 0 766 484417 -2821 0
0 0 0 801 485218 -2020 0
28 1 S102 750 485968 -1270 0
28 1 S102 733 486701 -537 0
28 2 S102 761 487462 224 0
28 2 S102 782 488244 1006 0
28 2 S102 794 489038 1800 0
28 2 S102 817 489855 2617 0
28 2 S102 777 490632 3394 0
28 2 S102 739 491371 4133 0
28 2 S102 765 492136 4898 0
28 2 S102 770 492906 5668 0
28 2 S102 793 493699 6461 0
0 0 0 812 494511 -11544 0
0 0 0 771 495282 -10773 0
0 0 0 733 496015 -10040 0
0 0 0 788 496803 -9252 0
0 0 0 827 497630 -8425 0
0 0 0 776 498406 -7649 0
0 0 0 729 499135 -6920 0
0 0 0 735 499870 -6185 0
0 0 0 756 500626 -5429 0
0 0 0 804 501430 -4625 0
0 0 0 766 502196 -3859 0
0 0 0 780 502976 -3079 0
0 0 0 815 503791 -2264 0
29 1 S112 813 504604 -1451 0
29 1 S112 814 505418 -637 0
29 2 S112 742 506160 105 0
29 2 S112 739 506899 844 0
29 2 S112 781 507680 1625 0
29 2 S112 840 508520 2465 0
29 2 S112 852 509372 3317 0
29 2 S112 865 510237 4182 0
29 2 S112 812 511049 4994 0
29 2 S112 790 511839 5784 0
29 2 S112 786 512625 6570 0
0 0 0 792 513417 -7807 0
0 0 0 793 514210 -7014 0
0 0 0 743 514953 -6271 0
0 0 0 770 515723 -5501 0
0 0 0 825 516548 -4676 0
0 0 0 794 517342 -3882 0
0 0 0 771 518113 -3111 0
0 0 0 723 518836 -2388 0
30 1 S112 692 519528 -1696 0
30 1 S112 686 520214 -1010 0
30 1 S112 677 520891 -333 0
30 2 S112 734 521625 401 0
30 2 S112 794 522419 1195 0
30 2 S112 846 523265 2041 0
30 2 S112 848 524113 2889 0
30 2 S112 842 524955 3731 0
30 2 S112 776 525731 4507 0
30 2 S112 812 526543 5319 0
30 2 S112 794 527337 6113 0
30 2 S112 813 528150 6926 0
0 0 0 807 528957 -8497 0
0 0 0 756 529713 -7741 0
0 0 0 761 530474 -6980 0
0 0 0 812 531286 -6168 0
0 0 0 819 532105 -5349 0
0 0 0 755 532860 -4594 0
0 0 0 723 533583 -3871 0
0 0 0 717 534300 -3154 0
0 0 0 742 535042 -2412 0
31 1 S106 746 535788 -1666 0
31 1 S106 745 536533 -921 0
31 1 S106 766 537299 -155 0
31 2 S106 735 538034 580 0
31 2 S106 711 538745 1291 0
31 2 S106 709 539454 2000 0
31 2 S106 721 540175 2721 0
31 2 S106 723 540898 3444 0
31 2 S106 721 541619 4165 0
31 2 S106 713 542332 4878 0
31 2 S106 752 543084 5630 0
31 2 S106 732 543816 6362 0
0 0 0 733 544549 -9666 0
0 0 0 755 545304 -8911 0
0 0 0 761 546065 -8150 0
0 0 0 791 546856 -7359 0
0 0 0 757 547613 -6602 0
0 0 0 735 548348 -5867 0
0 0 0 739 549087 -5128 0
0 0 0 737 549824 -4391 0
0 0 0 710 550534 -3681 0
0 0 0 704 551238 -2977 0
0 0 0 747 551985 -2230 0
32 1 S102 788 552773 -1442 0
32 1 S102 796 553569 -646 0
32 2 S102 783 554352 137 0
32 2 S102 742 555094 879 0
32 2 S102 746 555840 1625 0
32 2 S102 811 556651 2436 0
32 2 S102 829 557480 3265 0
32 2 S102 810 558290 4075 0
32 2 S102 846 559136 4921 0
32 2 S102 883 560019 5804 0
32 2 S102 834 560853 6638 0
0 0 0 775 561628 -11205 0
0 0 0 798 562426 -10407 0
0 0 0 782 563208 -9625 0
0 0 0 844 564052 -8781 0
0 0 0 750 564802 -8031 0
0 0 0 740 565542 -7291 0
0 0 0 737 566279 -6554 0
0 0 0 712 566991 -5842 0
0 0 0 699 567690 -5143 0
0 0 0 759 568449 -4384 0
0 0 0 750 569199 -3634 0
0 0 0 739 569938 -2895 0
0 0 0 770 570708 -2125 0
33 1 S112 839 571547 -1286 0
33 1 S112 802 572349 -484 0
33 2 S112 766 573115 282 0
33 2 S112 759 573874 1041 0
33 2 S112 791 574665 1832 0
33 2 S112 830 575495 2662 0
33 2 S112 901 576396 3563 0
33 2 S112 899 577295 4462 0
33 2 S112 855 578150 5317 0
33 2 S112 873 579023 6190 0
0 0 0 899 579922 -13020 0
0 0 0 923 580845 -12097 0
0 0 0 781 581626 -11316 0
0 0 0 733 582359 -10583 0
0 0 0 795 583154 -9788 0
0 0 0 961 584115 -8827 1
0 0 0 933 585048 -7894 0
0 0 0 877 585925 -7017 0
0 0 0 759 586684 -6258 0
0 0 0 707 587391 -5551 0
0 0 0 701 588092 -4850 0
0 0 0 720 588812 -4130 0
0 0 0 720 589532 -3410 0
0 0 0 721 590253 -2689 0
34 1 S106 732 590985 -1957 0
34 1 S106 765 591750 -1192 0
34 1 S106 795 592545 -397 0
34 2 S106 834 593379 437 0
34 2 S106 819 594198 1256 0
34 2 S106 776 594974 2032 0
34 2 S106 799 595773 2831 0
34 2 S106 823 596596 3654 0
34 2 S106 786 597382 4440 0
34 2 S106 749 598131 5189 0
34 2 S106 796 598927 5985 0
34 2 S106 849 599776 6834 0
0 0 0 907 600683 -9401 0
0 0 0 807 601490 -8594 0
0 0 0 767 602257 -7827 0
0 0 0 809 603066 -7018 0
0 0 0 823 603889 -6195 0
0 0 0 807 604696 -5388 0
0 0 0 797 605493 -4591 0
0 0 0 828 606321 -3763 0
0 0 0 866 607187 -2897 0
0 0 0 863 608050 -2034 0
35 1 S102 784 608834 -1250 0
35 1 S102 743 609577 -507 0
35 2 S102 755 610332 248 0
35 2 S102 766 611098 1014 0
35 2 S102 806 611904 1820 0
35 2 S102 804 612708 2624 0
35 2 S102 777 613485 3401 0
35 2 S102 852 614337 4253 0
35 2 S102 875 615212 5128 0
35 2 S102 888 616100 6016 0
35 2 S102 848 616948 6864 0
0 0 0 784 617732 -8334 0
0 0 0 785 618517 -7549 0
0 0 0 795 619312 -6754 0
0 0 0 802 620114 -5952 0
0 0 0 841 620955 -5111 0
0 0 0 831 621786 -4280 0
0 0 0 843 622629 -3437 0
0 0 0 742 623371 -2695 0
36 1 S106 779 624150 -1916 0
36 1 S106 772 624922 -1144 0
36 1 S106 765 625687 -379 0
36 2 S106 708 626395 329 0
36 2 S106 679 627074 1008 0
36 2 S106 701 627775 1709 0
36 2 S106 737 628512 2446 0
36 2 S106 764 629276 3210 0
36 2 S106 799 630075 4009 0
36 2 S106 821 630896 4830 0
36 2 S106 847 631743 5677 0
36 2 S106 823 632566 6500 0
0 0 0 787 633353 -9159 0
0 0 0 816 634169 -8343 0
0 0 0 839 635008 -7504 0
0 0 0 884 635892 -6620 0
0 0 0 804 636696 -5816 0
0 0 0 777 637473 -5039 0
0 0 0 775 638248 -4264 0
0 0 0 788 639036 -3476 0
0 0 0 793 639829 -2683 0
37 1 S116 762 640591 -1921 0
37 1 S116 754 641345 -1167 0
37 1 S116 783 642128 -384 0
37 2 S116 820 642948 436 0
37 2 S116 850 643798 1286 0
37 2 S116 807 644605 2093 0
37 2 S116 822 645427 2915 0
37 2 S116 852 646279 3767 0
37 2 S116 903 647182 4670 0
37 2 S116 859 648041 5529 0
37 2 S116 817 648858 6346 0
0 0 0 878 649736 -11542 0
0 0 0 856 650592 -10686 0
0 0 0 782 651374 -9904 0
0 0 0 775 652149 -9129 0
0 0 0 798 652947 -8331 0
0 0 0 809 653756 -7522 0
0 0 0 800 654556 -6722 0
0 0 0 788 655344 -5934 0
0 0 0 840 656184 -5094 0
0 0 0 864 657048 -4230 0
0 0 0 855 657903 -3375 0
0 0 0 775 658678 -2600 0
38 1 S102 813 659491 -1787 0
38 1 S102 833 660324 -954 0
38 1 S102 843 661167 -111 0
38 2 S102 808 661975 697 0
38 2 S102 799 662774 1496 0
38 2 S102 816 663590 2312 0
38 2 S102 828 664418 3140 0
38 2 S102 819 665237 3959 0
38 2 S102 833 666070 4792 0
38 2 S102 802 666872 5594 0
38 2 S102 778 667650 6372 0
0 0 0 807 668457 -10312 0
0 0 0 837 669294 -9475 0
0 0 0 779 670073 -8696 0
0 0 0 780 670853 -7916 0
0 0 0 844 671697 -7072 0
0 0 0 878 672575 -6194 0
0 0 0 857 673432 -5337 0
0 0 0 807 674239 -4530 0
0 0 0 826 675065 -3704 0
0 0 0 847 675912 -2857 0
0 0 0 847 676759 -2010 0
39 1 S116 804 677563 -1206 0
39 1 S116 795 678358 -411 0
39 2 S116 798 679156 387 0
39 2 S116 802 679958 1189 0
39 2 S116 819 680777 2008 0
39 2 S116 807 681584 2815 0
39 2 S116 776 682360 3591 0
39 2 S116 788 683148 4379 0
39 2 S116 789 683937 5168 0
39 2 S116 797 684734 5965 0
39 2 S116 777 685511 6742 0
0 0 0 773 686284 -6642 0
0 0 0 797 687081 -5845 0
0 0 0 834 687915 -5011 0
0 0 0 737 688652 -4274 0
0 0 0 709 689361 -3565 0
0 0 0 731 690092 -2834 0
0 0 0 708 690800 -2126 0
40 1 S112 680 691480 -1446 0
40 1 S112 704 692184 -742 0
40 2 S112 751 692935 9 0
40 2 S112 733 693668 742 0
40 2 S112 726 694394 1468 0
40 2 S112 751 695145 2219 0
40 2 S112 761 695906 2980 0
40 2 S112 759 696665 3739 0
40 2 S112 709 697374 4448 0
40 2 S112 718 698092 5166 0
40 2 S112 733 698825 5899 0
40 2 S112 754 699579 6653 0
0 0 0 777 700356 -187416 0
0 0 0 739 701095 -186677 0
0 0 0 694 701789 -185983 0
0 0 0 712 702501 -185271 0
0 0 0 783 703284 -184488 0
0 0 0 842 704126 -183646 0
0 0 0 883 705009 -182763 0
0 0 0 867 705876 -181896 0
0 0 0 768 706644 -181128 0
0 0 0 710 707354 -180418 0
0 0 0 701 708055 -179717 0
0 0 0 903 708958 -178814 0
0 0 0 1134 710092 -177680 1
0 0 0 1021 711113 -176659 1
0 0 0 969 712082 -175690 1
0 0 0 923 713005 -174767 0
0 0 0 882 713887 -173885 0
0 0 0 846 714733 -173039 0
0 0 0 841 715574 -172198 0
0 0 0 834 716408 -171364 0
0 0 0 833 717241 -170531 0
0 0 0 796 718037 -169735 0
0 0 0 791 718828 -168944 0
0 0 0 844 719672 -168100 0
0 0 0 910 720582 -167190 0
0 0 0 929 721511 -166261 0
0 0 0 975 722486 -165286 1
0 0 0 934 723420 -164352 0
0 0 0 926 724346 -163426 0
0 0 0 933 725279 -162493 0
0 0 0 940 726219 -161553 0
0 0 0 928 727147 -160625 0
0 0 0 898 728045 -159727 0
0 0 0 881 728926 -158846 0
0 0 0 825 729751 -158021 0
0 0 0 731 730482 -157290 0
0 0 0 721 731203 -156569 0
0 0 0 813 732016 -155756 0
0 0 0 1096 733112 -154660 1
0 0 0 998 734110 -153662 1
0 0 0 852 734962 -152810 0
0 0 0 830 735792 -151980 0
0 0 0 843 736635 -151137 0
0 0 0 820 737455 -150317 0
0 0 0 806 738261 -149511 0
0 0 0 747 739008 -148764 0
0 0 0 713 739721 -148051 0
0 0 0 746 740467 -147305 0
0 0 0 795 741262 -146510 0
0 0 0 793 742055 -145717 0
0 0 0 738 742793 -144979 0
0 0 0 706 743499 -144273 0
0 0 0 696 744195 -143577 0
0 0 0 727 744922 -142850 0
0 0 0 714 745636 -142136 0
0 0 0 702 746338 -141434 0
0 0 0 691 747029 -140743 0
0 0 0 659 747688 -140084 0
0 0 0 638 748326 -139446 0
0 0 0 625 748951 -138821 1
0 0 0 617 749568 -138204 1
0 0 0 610 750178 -137594 1
0 0 0 608 750786 -136986 1
0 0 0 626 751412 -136360 0
0 0 0 660 752072 -135700 0
0 0 0 698 752770 -135002 0
0 0 0 717 753487 -134285 0
0 0 0 737 754224 -133548 0
0 0 0 672 754896 -132876 0
0 0 0 708 755604 -132168 0
0 0 0 681 756285 -131487 0
0 0 0 697 756982 -130790 0
0 0 0 752 757734 -130038 0
0 0 0 861 758595 -129177 0
0 0 0 886 759481 -128291 0
0 0 0 952 760433 -127339 0
0 0 0 942 761375 -126397 0
0 0 0 899 762274 -125498 0
0 0 0 948 763222 -124550 0
0 0 0 952 764174 -123598 0
0 0 0 811 764985 -122787 0
0 0 0 814 765799 -121973 0
0 0 0 851 766650 -121122 0
0 0 0 900 767550 -120222 0
0 0 0 784 768334 -119438 0
0 0 0 758 769092 -118680 0
0 0 0 845 769937 -117835 0
0 0 0 1102 771039 -116733 1
0 0 0 972 772011 -115761 1
0 0 0 818 772829 -114943 0
0 0 0 836 773665 -114107 0
0 0 0 896 774561 -113211 0
0 0 0 826 775387 -112385 0
0 0 0 739 776126 -111646 0
0 0 0 753 776879 -110893 0
0 0 0 763 777642 -110130 0
0 0 0 788 778430 -109342 0
0 0 0 787 779217 -108555 0
0 0 0 816 780033 -107739 0
0 0 0 874 780907 -106865 0
0 0 0 860 781767 -106005 0
0 0 0 828 782595 -105177 0
0 0 0 735 783330 -104442 0
0 0 0 720 784050 -103722 0
0 0 0 683 784733 -103039 0
0 0 0 690 785423 -102349 0
0 0 0 790 786213 -101559 0
0 0 0 862 787075 -100697 0
0 0 0 808 787883 -99889 0
0 0 0 772 788655 -99117 0
0 0 0 807 789462 -98310 0
0 0 0 845 790307 -97465 0
0 0 0 863 791170 -96602 0
0 0 0 854 792024 -95748 0
0 0 0 839 792863 -94909 0
0 0 0 790 793653 -94119 0
0 0 0 743 794396 -93376 0
0 0 0 766 795162 -92610 0
0 0 0 870 796032 -91740 0
0 0 0 926 796958 -90814 0
0 0 0 869 797827 -89945 0
0 0 0 806 798633 -89139 0
0 0 0 853 799486 -88286 0
0 0 0 889 800375 -87397 0
0 0 0 877 801252 -86520 0
0 0 0 811 802063 -85709 0
0 0 0 817 802880 -84892 0
0 0 0 865 803745 -84027 0
0 0 0 885 804630 -83142 0
0 0 0 837 805467 -82305 0
0 0 0 791 806258 -81514 0
0 0 0 796 807054 -80718 0
0 0 0 788 807842 -79930 0
0 0 0 801 808643 -79129 0
0 0 0 758 809401 -78371 0
0 0 0 830 810231 -77541 0
0 0 0 902 811133 -76639 0
0 0 0 917 812050 -75722 0
0 0 0 839 812889 -74883 0
0 0 0 856 813745 -74027 0
0 0 0 879 814624 -73148 0
0 0 0 892 815516 -72256 0
0 0 0 822 816338 -71434 0
0 0 0 809 817147 -70625 0
0 0 0 867 818014 -69758 0
0 0 0 881 818895 -68877 0
0 0 0 897 819792 -67980 0
0 0 0 838 820630 -67142 0
0 0 0 805 821435 -66337 0
0 0 0 834 822269 -65503 0
0 0 0 863 823132 -64640 0
0 0 0 867 823999 -63773 0
0 0 0 805 824804 -62968 0
0 0 0 857 825661 -62111 0
0 0 0 911 826572 -61200 0
0 0 0 900 827472 -60300 0
0 0 0 851 828323 -59449 0
0 0 0 816 829139 -58633 0
0 0 0 871 830010 -57762 0
0 0 0 998 831008 -56764 1
0 0 0 951 831959 -55813 0
0 0 0 782 832741 -55031 0
0 0 0 780 833521 -54251 0
0 0 0 802 834323 -53449 0
0 0 0 744 835067 -52705 0
0 0 0 713 835780 -51992 0
0 0 0 756 836536 -51236 0
0 0 0 819 837355 -50417 0
0 0 0 814 838169 -49603 0
0 0 0 903 839072 -48700 0
0 0 0 925 839997 -47775 0
0 0 0 912 840909 -46863 0
0 0 0 874 841783 -45989 0
0 0 0 797 842580 -45192 0
0 0 0 790 843370 -44402 0
0 0 0 825 844195 -43577 0
0 0 0 843 845038 -42734 0
0 0 0 803 845841 -41931 0
0 0 0 778 846619 -41153 0
0 0 0 790 847409 -40363 0
0 0 0 832 848241 -39531 0
0 0 0 859 849100 -38672 0
0 0 0 825 849925 -37847 0
0 0 0 745 850670 -37102 0
0 0 0 758 851428 -36344 0
0 0 0 742 852170 -35602 0
0 0 0 777 852947 -34825 0
0 0 0 853 853800 -33972 0
0 0 0 783 854583 -33189 0
0 0 0 808 855391 -32381 0
0 0 0 826 856217 -31555 0
0 0 0 880 857097 -30675 0
0 0 0 877 857974 -29798 0
0 0 0 806 858780 -28992 0
0 0 0 826 859606 -28166 0
0 0 0 842 860448 -27324 0
0 0 0 855 861303 -26469 0
0 0 0 764 862067 -25705 0
0 0 0 713 862780 -24992 0
0 0 0 721 863501 -24271 0
0 0 0 728 864229 -23543 0
0 0 0 789 865018 -22754 0
0 0 0 768 865786 -21986 0
0 0 0 720 866506 -21266 0
0 0 0 781 867287 -20485 0
0 0 0 825 868112 -19660 0
0 0 0 828 868940 -18832 0
0 0 0 843 869783 -17989 0
0 0 0 725 870508 -17264 0
0 0 0 710 871218 -16554 0
0 0 0 725 871943 -15829 0
0 0 0 721 872664 -15108 0
0 0 0 697 873361 -14411 0
0 0 0 704 874065 -13707 0
0 0 0 700 874765 -13007 0
0 0 0 669 875434 -12338 0
0 0 0 648 876082 -11690 0
0 0 0 634 876716 -11056 0
0 0 0 625 877341 -10431 1
0 0 0 622 877963 -9809 1
0 0 0 658 878621 -9151 0
0 0 0 676 879297 -8475 0
0 0 0 699 879996 -7776 0
0 0 0 697 880693 -7079 0
0 0 0 671 881364 -6408 0
0 0 0 663 882027 -5745 0
0 0 0 688 882715 -5057 0
0 0 0 792 883507 -4265 0
0 0 0 856 884363 -3409 0
0 0 0 893 885256 -2516 0
41 1 S102 841 886097 -1675 0
41 1 S102 805 886902 -870 0
41 1 S102 833 887735 -37 0
41 2 S102 961 888696 924 1
41 2 S102 968 889664 1892 1
41 2 S102 818 890482 2710 0
41 2 S102 779 891261 3489 0
41 2 S102 885 892146 4374 0
41 2 S102 945 893091 5319 0
41 2 S102 814 893905 6133 0
41 2 S102 876 894781 7009 0
0 0 0 969 895750 -7589 1
0 0 0 793 896543 -6796 0
0 0 0 759 897302 -6037 0
0 0 0 812 898114 -5225 0
0 0 0 854 898968 -4371 0
0 0 0 760 899728 -3611 0
0 0 0 714 900442 -2897 0
0 0 0 764 901206 -2133 0
42 1 S112 851 902057 -1282 0
42 1 S112 876 902933 -406 0
42 2 S112 827 903760 421 0
42 2 S112 747 904507 1168 0
42 2 S112 766 905273 1934 0
42 2 S112 786 906059 2720 0
42 2 S112 815 906874 3535 0
42 2 S112 870 907744 4405 0
42 2 S112 852 908596 5257 0
42 2 S112 802 909398 6059 0
42 2 S112 883 910281 6942 0
0 0 0 921 911202 -9429 0
0 0 0 917 912119 -8512 0
0 0 0 864 912983 -7648 0
0 0 0 841 913824 -6807 0
0 0 0 800 914624 -6007 0
0 0 0 730 915354 -5277 0
0 0 0 713 916067 -4564 0
0 0 0 739 916806 -3825 0
0 0 0 776 917582 -3049 0
0 0 0 769 918351 -2280 0
43 1 S116 748 919099 -1532 0
43 1 S116 768 919867 -764 0
43 2 S116 837 920704 73 0
43 2 S116 883 921587 956 0
43 2 S116 850 922437 1806 0
43 2 S116 795 923232 2601 0
43 2 S116 807 924039 3408 0
43 2 S116 856 924895 4264 0
43 2 S116 860 925755 5124 0
43 2 S116 843 926598 5967 0
43 2 S116 798 927396 6765 0
0 0 0 831 928227 -7755 0
0 0 0 859 929086 -6896 0
0 0 0 864 929950 -6032 0
0 0 0 839 930789 -5193 0
0 0 0 795 931584 -4398 0
0 0 0 774 932358 -3624 0
0 0 0 765 933123 -2859 0
0 0 0 745 933868 -2114 0
44 1 S102 741 934609 -1373 0
44 1 S102 809 935418 -564 0
44 2 S102 884 936302 320 0
44 2 S102 887 937189 1207 0
44 2 S102 865 938054 2072 0
44 2 S102 853 938907 2925 0
44 2 S102 870 939777 3795 0
44 2 S102 874 940651 4669 0
44 2 S102 875 941526 5544 0
44 2 S102 851 942377 6395 0
0 0 0 805 943182 -10473 0
0 0 0 803 943985 -9670 0
0 0 0 805 944790 -8865 0
0 0 0 886 945676 -7979 0
0 0 0 875 946551 -7104 0
0 0 0 806 947357 -6298 0
0 0 0 785 948142 -5513 0
0 0 0 772 948914 -4741 0
0 0 0 725 949639 -4016 0
0 0 0 741 950380 -3275 0
0 0 0 700 951080 -2575 0
45 1 S116 696 951776 -1879 0
45 1 S116 729 952505 -1150 0
45 1 S116 762 953267 -388 0
45 2 S116 787 954054 399 0
45 2 S116 772 954826 1171 0
45 2 S116 741 955567 1912 0
45 2 S116 722 956289 2634 0
45 2 S116 750 957039 3384 0
45 2 S116 782 957821 4166 0
45 2 S116 802 958623 4968 0
45 2 S116 775 959398 5743 0
45 2 S116 813 960211 6556 0
0 0 0 849 961060 -11445 0
0 0 0 837 961897 -10608 0
0 0 0 778 962675 -9830 0
0 0 0 820 963495 -9010 0
0 0 0 804 964299 -8206 0
0 0 0 787 965086 -7419 0
0 0 0 731 965817 -6688 0
0 0 0 700 966517 -5988 0
0 0 0 753 967270 -5235 0
0 0 0 960 968230 -4275 0
0 0 0 960 969190 -3315 0
0 0 0 916 970106 -2399 0
46 1 S102 904 971010 -1495 0
46 1 S102 875 971885 -620 0
46 2 S102 841 972726 221 0
46 2 S102 829 973555 1050 0
46 2 S102 834 974389 1884 0
46 2 S102 868 975257 2752 0
46 2 S102 879 976136 3631 0
46 2 S102 870 977006 4501 0
46 2 S102 872 977878 5373 0
46 2 S102 860 978738 6233 0
0 0 0 882 979620 -9496 0
0 0 0 892 980512 -8604 0
0 0 0 838 981350 -7766 0
0 0 0 812 982162 -6954 0
0 0 0 833 982995 -6121 0
0 0 0 835 983830 -5286 0
0 0 0 806 984636 -4480 0
0 0 0 755 985391 -3725 0
0 0 0 754 986145 -2971 0
0 0 0 816 986961 -2155 0
47 1 S112 980 987941 -1175 1
47 1 S112 1058 988999 -117 1
47 2 S112 993 989992 876 1
47 2 S112 863 990855 1739 0
47 2 S112 828 991683 2567 0
47 2 S112 843 992526 3410 0
47 2 S112 863 993389 4273 0
47 2 S112 886 994275 5159 0
47 2 S112 847 995122 6006 0
47 2 S112 801 995923 6807 0
0 0 0 858 996781 -11317 0
0 0 0 860 997641 -10457 0
0 0 0 797 998438 -9660 0
0 0 0 741 999179 -8919 0
0 0 0 741 999920 -8178 0
0 0 0 713 1000633 -7465 0
0 0 0 751 1001384 -6714 0
0 0 0 765 1002149 -5949 0
0 0 0 785 1002934 -5164 0
0 0 0 739 1003673 -4425 0
0 0 0 739 1004412 -3686 0
0 0 0 766 1005178 -2920 0
0 0 0 825 1006003 -2095 0
48 1 S116 802 1006805 -1293 0
48 1 S116 758 1007563 -535 0
48 2 S116 728 1008291 193 0
48 2 S116 737 1009028 930 0
48 2 S116 784 1009812 1714 0
48 2 S116 865 1010677 2579 0
48 2 S116 888 1011565 3467 0
48 2 S116 809 1012374 4276 0
48 2 S116 846 1013220 5122 0
48 2 S116 895 1014115 6017 0
48 2 S116 870 1014985 6887 0
0 0 0 873 1015858 -7493 0
0 0 0 865 1016723 -6628 0
0 0 0 817 1017540 -5811 0
0 0 0 762 1018302 -5049 0
0 0 0 777 1019079 -4272 0
0 0 0 797 1019876 -3475 0
0 0 0 836 1020712 -2639 0
49 1 S112 817 1021529 -1822 0
49 1 S112 727 1022256 -1095 0
49 1 S112 706 1022962 -389 0
49 2 S112 718 1023680 329 0
49 2 S112 793 1024473 1122 0
49 2 S112 825 1025298 1947 0
49 2 S112 827 1026125 2774 0
49 2 S112 832 1026957 3606 0
49 2 S112 782 1027739 4388 0
49 2 S112 793 1028532 5181 0
49 2 S112 790 1029322 5971 0
49 2 S112 808 1030130 6779 0
0 0 0 840 1030970 -11595 0
0 0 0 828 1031798 -10767 0
0 0 0 763 1032561 -10004 0
0 0 0 804 1033365 -9200 0
0 0 0 846 1034211 -8354 0
0 0 0 838 1035049 -7516 0
0 0 0 833 1035882 -6683 0
0 0 0 799 1036681 -5884 0
0 0 0 741 1037422 -5143 0
0 0 0 721 1038143 -4422 0
0 0 0 749 1038892 -3673 0
0 0 0 768 1039660 -2905 0
0 0 0 818 1040478 -2087 0
50 1 S106 819 1041297 -1268 0
50 1 S106 822 1042119 -446 0
50 2 S106 829 1042948 383 0
50 2 S106 824 1043772 1207 0
50 2 S106 792 1044564 1999 0
50 2 S106 759 1045323 2758 0
50 2 S106 778 1046101 3536 0
50 2 S106 817 1046918 4353 0
50 2 S106 875 1047793 5228 0
50 2 S106 906 1048699 6134 0
50 2 S106 869 1049568 7003 0
0 0 0 825 1050393 -7424 0
0 0 0 770 1051163 -6654 0
0 0 0 801 1051964 -5853 0
0 0 0 858 1052822 -4995 0
0 0 0 805 1053627 -4190 0
0 0 0 778 1054405 -3412 0
0 0 0 735 1055140 -2677 0
51 1 S112 686 1055826 -1991 0
51 1 S112 673 1056499 -1318 0
51 1 S112 690 1057189 -628 0
51 2 S112 739 1057928 111 0
51 2 S112 847 1058775 958 0
51 2 S112 884 1059659 1842 0
51 2 S112 857 1060516 2699 0
51 2 S112 787 1061303 3486 0
51 2 S112 793 1062096 4279 0
51 2 S112 802 1062898 5081 0
51 2 S112 794 1063692 5875 0
51 2 S112 806 1064498 6681 0
0 0 0 755 1065253 -6689 0
0 0 0 744 1065997 -5945 0
0 0 0 778 1066775 -5167 0
0 0 0 798 1067573 -4369 0
0 0 0 764 1068337 -3605 0
0 0 0 735 1069072 -2870 0
0 0 0 764 1069836 -2106 0
52 1 S116 838 1070674 -1268 0
52 1 S116 867 1071541 -401 0
52 2 S116 873 1072414 472 0
52 2 S116 865 1073279 1337 0
52 2 S116 784 1074063 2121 0
52 2 S116 765 1074828 2886 0
52 2 S116 799 1075627 3685 0
52 2 S116 802 1076429 4487 0
52 2 S116 817 1077246 5304 0
52 2 S116 788 1078034 6092 0
52 2 S116 809 1078843 6901 0
0 0 0 861 1079704 -9496 0
0 0 0 868 1080572 -8628 0
0 0 0 771 1081343 -7857 0
0 0 0 741 1082084 -7116 0
0 0 0 844 1082928 -6272 0
0 0 0 882 1083810 -5390 0
0 0 0 793 1084603 -4597 0
0 0 0 727 1085330 -3870 0
0 0 0 693 1086023 -3177 0
0 0 0 681 1086704 -2496 0
53 1 S106 684 1087388 -1812 0
53 1 S106 686 1088074 -1126 0
53 1 S106 703 1088777 -423 0
53 2 S106 719 1089496 296 0
53 2 S106 733 1090229 1029 0
53 2 S106 745 1090974 1774 0
53 2 S106 752 1091726 2526 0
53 2 S106 736 1092462 3262 0
53 2 S106 729 1093191 3991 0
53 2 S106 765 1093956 4756 0
53 2 S106 796 1094752 5552 0
53 2 S106 839 1095591 6391 0
0 0 0 821 1096412 -7493 0
0 0 0 778 1097190 -6715 0
0 0 0 747 1097937 -5968 0
0 0 0 794 1098731 -5174 0
0 0 0 806 1099537 -4368 0
0 0 0 775 1100312 -3593 0
0 0 0 731 1101043 -2862 0
0 0 0 732 1101775 -2130 0
54 1 S102 787 1102562 -1343 0
54 1 S102 795 1103357 -548 0
54 2 S102 834 1104191 286 0
54 2 S102 794 1104985 1080 0
54 2 S102 778 1105763 1858 0
54 2 S102 809 1106572 2667 0
54 2 S102 832 1107404 3499 0
54 2 S102 844 1108248 4343 0
54 2 S102 843 1109091 5186 0
54 2 S102 780 1109871 5966 0
54 2 S102 780 1110651 6746 0
0 0 0 734 1111385 -10690 0
0 0 0 721 1112106 -9969 0
0 0 0 708 1112814 -9261 0
0 0 0 901 1113715 -8360 0
0 0 0 885 1114600 -7475 0
0 0 0 882 1115482 -6593 0
0 0 0 860 1116342 -5733 0
0 0 0 816 1117158 -4917 0
0 0 0 794 1117952 -4123 0
0 0 0 775 1118727 -3348 0
0 0 0 748 1119475 -2600 0
55 1 S106 737 1120212 -1863 0
55 1 S106 755 1120967 -1108 0
55 1 S106 799 1121766 -309 0
55 2 S106 880 1122646 571 0
55 2 S106 857 1123503 1428 0
55 2 S106 804 1124307 2232 0
55 2 S106 823 1125130 3055 0
55 2 S106 821 1125951 3876 0
55 2 S106 835 1126786 4711 0
55 2 S106 767 1127553 5478 0
55 2 S106 748 1128301 6226 0
55 2 S106 767 1129068 6993 0
0 0 0 796 1129864 -6734 0
0 0 0 780 1130644 -5954 0
0 0 0 771 1131415 -5183 0
0 0 0 778 1132193 -4405 0
0 0 0 746 1132939 -3659 0
0 0 0 749 1133688 -2910 0
0 0 0 807 1134495 -2103 0
56 1 S116 872 1135367 -1231 0
56 1 S116 851 1136218 -380 0
56 2 S116 853 1137071 473 0
56 2 S116 845 1137916 1318 0
56 2 S116 825 1138741 2143 0
56 2 S116 812 1139553 2955 0
56 2 S116 736 1140289 3691 0
56 2 S116 710 1140999 4401 0
56 2 S116 720 1141719 5121 0
56 2 S116 797 1142516 5918 0
56 2 S116 841 1143357 6759 0
0 0 0 901 1144258 -7260 0
0 0 0 854 1145112 -6406 0
0 0 0 784 1145896 -5622 0
0 0 0 806 1146702 -4816 0
0 0 0 794 1147496 -4022 0
0 0 0 804 1148300 -3218 0
0 0 0 845 1149145 -2373 0
57 1 S106 912 1150057 -1461 0
57 1 S106 854 1150911 -607 0
57 2 S106 799 1151710 192 0
57 2 S106 804 1152514 996 0
57 2 S106 814 1153328 1810 0
57 2 S106 832 1154160 2642 0
57 2 S106 815 1154975 3457 0
57 2 S106 762 1155737 4219 0
57 2 S106 763 1156500 4982 0
57 2 S106 774 1157274 5756 0
57 2 S106 806 1158080 6562 0
0 0 0 784 1158864 -9017 0
0 0 0 759 1159623 -8258 0
0 0 0 761 1160384 -7497 0
0 0 0 811 1161195 -6686 0
0 0 0 797 1161992 -5889 0
0 0 0 753 1162745 -5136 0
0 0 0 761 1163506 -4375 0
0 0 0 803 1164309 -3572 0
0 0 0 827 1165136 -2745 0
58 1 S102 806 1165942 -1939 0
58 1 S102 755 1166697 -1184 0
58 1 S102 749 1167446 -435 0
58 2 S102 742 1168188 307 0
58 2 S102 743 1168931 1050 0
58 2 S102 747 1169678 1797 0
58 2 S102 707 1170385 2504 0
58 2 S102 704 1171089 3208 0
58 2 S102 712 1171801 3920 0
58 2 S102 686 1172487 4606 0
58 2 S102 713 1173200 5319 0
58 2 S102 821 1174021 6140 0
0 0 0 891 1174912 -6895 0
0 0 0 877 1175789 -6018 0
0 0 0 806 1176595 -5212 0
0 0 0 790 1177385 -4422 0
0 0 0 799 1178184 -3623 0
0 0 0 767 1178951 -2856 0
0 0 0 731 1179682 -2125 0
59 1 S112 703 1180385 -1422 0
59 1 S112 705 1181090 -717 0
59 2 S112 741 1181831 24 0
59 2 S112 808 1182639 832 0
59 2 S112 798 1183437 1630 0
59 2 S112 778 1184215 2408 0
59 2 S112 771 1184986 3179 0
59 2 S112 798 1185784 3977 0
59 2 S112 805 1186589 4782 0
59 2 S112 799 1187388 5581 0
59 2 S112 731 1188119 6312 0
0 0 0 747 1188866 -10133 0
0 0 0 775 1189641 -9358 0
0 0 0 779 1190420 -8579 0
0 0 0 771 1191191 -7808 0
0 0 0 834 1192025 -6974 0
0 0 0 814 1192839 -6160 0
0 0 0 799 1193638 -5361 0
0 0 0 803 1194441 -4558 0
0 0 0 796 1195237 -3762 0
0 0 0 805 1196042 -2957 0
0 0 0 764 1196806 -2193 0
60 1 S102 751 1197557 -1442 0
60 1 S102 755 1198312 -687 0
60 2 S102 769 1199081 82 0
60 2 S102 753 1199834 835 0
60 2 S102 727 1200561 1562 0
60 2 S102 723 1201284 2285 0
60 2 S102 740 1202024 3025 0
60 2 S102 773 1202797 3798 0
60 2 S102 766 1203563 4564 0
60 2 S102 777 1204340 5341 0
60 2 S102 766 1205106 6107 0
60 2 S102 810 1205916 6917 0
0 0 0 860 1206776 -10840 0
0 0 0 824 1207600 -10016 0
0 0 0 845 1208445 -9171 0
0 0 0 781 1209226 -8390 0
0 0 0 771 1209997 -7619 0
0 0 0 757 1210754 -6862 0
0 0 0 734 1211488 -6128 0
0 0 0 732 1212220 -5396 0
0 0 0 730 1212950 -4666 0
0 0 0 742 1213692 -3924 0
0 0 0 787 1214479 -3137 0
0 0 0 831 1215310 -2306 0
61 1 S106 762 1216072 -1544 0
61 1 S106 744 1216816 -800 0
61 1 S106 776 1217592 -24 0
61 2 S106 791 1218383 767 0
61 2 S106 788 1219171 1555 0
61 2 S106 770 1219941 2325 0
61 2 S106 749 1220690 3074 0
61 2 S106 782 1221472 3856 0
61 2 S106 799 1222271 4655 0
61 2 S106 819 1223090 5474 0
61 2 S106 781 1223871 6255 0
61 2 S106 762 1224633 7017 0
0 0 0 781 1225414 -6708 0
0 0 0 793 1226207 -5915 0
0 0 0 834 1227041 -5081 0
0 0 0 773 1227814 -4308 0
0 0 0 767 1228581 -3541 0
0 0 0 765 1229346 -2776 0
0 0 0 770 1230116 -2006 0
62 1 S112 754 1230870 -1252 0
62 1 S112 729 1231599 -523 0
62 2 S112 738 1232337 215 0
62 2 S112 738 1233075 953 0
62 2 S112 761 1233836 1714 0
62 2 S112 770 1234606 2484 0
62 2 S112 758 1235364 3242 0
62 2 S112 770 1236134 4012 0
62 2 S112 792 1236926 4804 0
62 2 S112 806 1237732 5610 0
62 2 S112 783 1238515 6393 0
0 0 0 752 1239267 -11937 0
0 0 0 745 1240012 -11192 0
0 0 0 740 1240752 -10452 0
0 0 0 786 1241538 -9666 0
0 0 0 799 1242337 -8867 0
0 0 0 767 1243104 -8100 0
0 0 0 754 1243858 -7346 0
0 0 0 721 1244579 -6625 0
0 0 0 694 1245273 -5931 0
0 0 0 755 1246028 -5176 0
0 0 0 741 1246769 -4435 0
0 0 0 729 1247498 -3706 0
0 0 0 767 1248265 -2939 0
0 0 0 774 1249039 -2165 0
63 1 S102 763 1249802 -1402 0
63 1 S102 753 1250555 -649 0
63 2 S102 732 1251287 83 0
63 2 S102 750 1252037 833 0
63 2 S102 765 1252802 1598 0
63 2 S102 794 1253596 2392 0
63 2 S102 752 1254348 3144 0
63 2 S102 749 1255097 3893 0
63 2 S102 764 1255861 4657 0
63 2 S102 773 1256634 5430 0
63 2 S102 787 1257421 6217 0
63 2 S102 752 1258173 6969 0
0 0 0 749 1258922 -9623 0
0 0 0 782 1259704 -8841 0
0 0 0 814 1260518 -8027 0
0 0 0 839 1261357 -7188 0
0 0 0 741 1262098 -6447 0
0 0 0 709 1262807 -5738 0
0 0 0 718 1263525 -5020 0
0 0 0 725 1264250 -4295 0
0 0 0 733 1264983 -3562 0
0 0 0 686 1265669 -2876 0
0 0 0 679 1266348 -2197 0
64 1 S112 679 1267027 -1518 0
64 1 S112 681 1267708 -837 0
64 1 S112 704 1268412 -133 0
64 2 S112 707 1269119 574 0
64 2 S112 720 1269839 1294 0
64 2 S112 740 1270579 2034 0
64 2 S112 790 1271369 2824 0
64 2 S112 813 1272182 3637 0
64 2 S112 789 1272971 4426 0
64 2 S112 803 1273774 5229 0
64 2 S112 804 1274578 6033 0
64 2 S112 785 1275363 6818 0
0 0 0 797 1276160 -7936 0
0 0 0 790 1276950 -7146 0
0 0 0 809 1277759 -6337 0
0 0 0 850 1278609 -5487 0
0 0 0 859 1279468 -4628 0
0 0 0 810 1280278 -3818 0
0 0 0 769 1281047 -3049 0
0 0 0 766 1281813 -2283 0
65 1 S106 771 1282584 -1512 0
65 1 S106 788 1283372 -724 0
65 2 S106 787 1284159 63 0
65 2 S106 763 1284922 826 0
65 2 S106 762 1285684 1588 0
65 2 S106 786 1286470 2374 0
65 2 S106 831 1287301 3205 0
65 2 S106 793 1288094 3998 0
65 2 S106 771 1288865 4769 0
65 2 S106 759 1289624 5528 0
65 2 S106 774 1290398 6302 0
0 0 0 764 1291162 -6793 0
0 0 0 737 1291899 -6056 0
0 0 0 754 1292653 -5302 0
0 0 0 810 1293463 -4492 0
0 0 0 772 1294235 -3720 0
0 0 0 741 1294976 -2979 0
0 0 0 762 1295738 -2217 0
66 1 S116 744 1296482 -1473 0
66 1 S116 739 1297221 -734 0
66 1 S116 728 1297949 -6 0
66 2 S116 724 1298673 718 0
66 2 S116 740 1299413 1458 0
66 2 S116 779 1300192 2237 0
66 2 S116 760 1300952 2997 0
66 2 S116 754 1301706 3751 0
66 2 S116 800 1302506 4551 0
66 2 S116 835 1303341 5386 0
66 2 S116 878 1304219 6264 0
0 0 0 847 1305066 -11805 0
0 0 0 814 1305880 -10991 0
0 0 0 797 1306677 -10194 0
0 0 0 809 1307486 -9385 0
0 0 0 818 1308304 -8567 0
0 0 0 739 1309043 -7828 0
0 0 0 702 1309745 -7126 0
0 0 0 693 1310438 -6433 0
0 0 0 746 1311184 -5687 0
0 0 0 778 1311962 -4909 0
0 0 0 827 1312789 -4082 0
0 0 0 863 1313652 -3219 0
0 0 0 866 1314518 -2353 0
67 1 S102 876 1315394 -1477 0
67 1 S102 884 1316278 -593 0
67 2 S102 843 1317121 250 0
67 2 S102 820 1317941 1070 0
67 2 S102 807 1318748 1877 0
67 2 S102 799 1319547 2676 0
67 2 S102 807 1320354 3483 0
67 2 S102 820 1321174 4303 0
67 2 S102 829 1322003 5132 0
67 2 S102 887 1322890 6019 0
67 2 S102 964 1323854 6983 1
0 0 0 951 1324805 -7302 0
0 0 0 848 1325653 -6454 0
0 0 0 768 1326421 -5686 0
0 0 0 802 1327223 -4884 0
0 0 0 759 1327982 -4125 0
0 0 0 734 1328716 -3391 0
0 0 0 704 1329420 -2687 0
68 1 S106 717 1330137 -1970 0
68 1 S106 714 1330851 -1256 0
68 1 S106 758 1331609 -498 0
68 2 S106 822 1332431 324 0
68 2 S106 845 1333276 1169 0
68 2 S106 800 1334076 1969 0
68 2 S106 762 1334838 2731 0
68 2 S106 762 1335600 3493 0
68 2 S106 760 1336360 4253 0
68 2 S106 779 1337139 5032 0
68 2 S106 761 1337900 5793 0
68 2 S106 798 1338698 6591 0
0 0 0 795 1339493 -11878 0
0 0 0 863 1340356 -11015 0
0 0 0 772 1341128 -10243 0
0 0 0 748 1341876 -9495 0
0 0 0 797 1342673 -8698 0
0 0 0 763 1343436 -7935 0
0 0 0 758 1344194 -7177 0
0 0 0 729 1344923 -6448 0
0 0 0 700 1345623 -5748 0
0 0 0 713 1346336 -5035 0
0 0 0 703 1347039 -4332 0
0 0 0 713 1347752 -3619 0
0 0 0 724 1348476 -2895 0
0 0 0 746 1349222 -2149 0
69 1 S102 785 1350007 -1364 0
69 1 S102 792 1350799 -572 0
69 2 S102 768 1351567 196 0
69 2 S102 753 1352320 949 0
69 2 S102 761 1353081 1710 0
69 2 S102 758 1353839 2468 0
69 2 S102 750 1354589 3218 0
69 2 S102 781 1355370 3999 0
69 2 S102 760 1356130 4759 0
69 2 S102 769 1356899 5528 0
69 2 S102 798 1357697 6326 0
0 0 0 853 1358550 -10195 0
0 0 0 854 1359404 -9341 0
0 0 0 776 1360180 -8565 0
0 0 0 766 1360946 -7799 0
0 0 0 806 1361752 -6993 0
0 0 0 798 1362550 -6195 0
0 0 0 737 1363287 -5458 0
0 0 0 727 1364014 -4731 0
0 0 0 729 1364743 -4002 0
0 0 0 752 1365495 -3250 0
0 0 0 793 1366288 -2457 0
70 1 S112 745 1367033 -1712 0
70 1 S112 772 1367805 -940 0
70 1 S112 795 1368600 -145 0
70 2 S112 817 1369417 672 0
70 2 S112 780 1370197 1452 0
70 2 S112 747 1370944 2199 0
70 2 S112 739 1371683 2938 0
70 2 S112 746 1372429 3684 0
70 2 S112 781 1373210 4465 0
70 2 S112 812 1374022 5277 0
70 2 S112 812 1374834 6089 0
70 2 S112 792 1375626 6881 0
0 0 0 821 1376447 -11197 0
0 0 0 818 1377265 -10379 0
0 0 0 797 1378062 -9582 0
0 0 0 735 1378797 -8847 0
0 0 0 700 1379497 -8147 0
0 0 0 712 1380209 -7435 0
0 0 0 727 1380936 -6708 0
0 0 0 777 1381713 -5931 0
0 0 0 880 1382593 -5051 0
0 0 0 856 1383449 -4195 0
0 0 0 916 1384365 -3279 0
0 0 0 890 1385255 -2389 0
71 1 S116 887 1386142 -1502 0
71 1 S116 912 1387054 -590 0
71 2 S116 900 1387954 310 0
71 2 S116 859 1388813 1169 0
71 2 S116 816 1389629 1985 0
71 2 S116 780 1390409 2765 0
71 2 S116 785 1391194 3550 0
71 2 S116 861 1392055 4411 0
71 2 S116 859 1392914 5270 0
71 2 S116 854 1393768 6124 0
71 2 S116 842 1394610 6966 0
0 0 0 883 1395493 -8713 0
0 0 0 835 1396328 -7878 0
0 0 0 808 1397136 -7070 0
0 0 0 823 1397959 -6247 0
0 0 0 802 1398761 -5445 0
0 0 0 733 1399494 -4712 0
0 0 0 712 1400206 -4000 0
0 0 0 714 1400920 -3286 0
0 0 0 685 1401605 -2601 0
72 1 S102 667 1402272 -1934 0
72 1 S102 663 1402935 -1271 0
72 1 S102 669 1403604 -602 0
72 2 S102 677 1404281 75 0
72 2 S102 697 1404978 772 0
72 2 S102 694 1405672 1466 0
72 2 S102 692 1406364 2158 0
72 2 S102 675 1407039 2833 0
72 2 S102 655 1407694 3488 0
72 2 S102 656 1408350 4144 0
72 2 S102 655 1409005 4799 0
72 2 S102 662 1409667 5461 0
72 2 S102 676 1410343 6137 0
72 2 S102 682 1411025 6819 0
0 0 0 690 1411715 -7395 0
0 0 0 706 1412421 -6689 0
0 0 0 725 1413146 -5964 0
0 0 0 763 1413909 -5201 0
0 0 0 740 1414649 -4461 0
0 0 0 709 1415358 -3752 0
0 0 0 728 1416086 -3024 0
0 0 0 782 1416868 -2242 0
73 1 S116 796 1417664 -1446 0
73 1 S116 793 1418457 -653 0
73 2 S116 746 1419203 93 0
73 2 S116 770 1419973 863 0
73 2 S116 800 1420773 1663 0
73 2 S116 853 1421626 2516 0
73 2 S116 794 1422420 3310 0
73 2 S116 787 1423207 4097 0
73 2 S116 819 1424026 4916 0
73 2 S116 849 1424875 5765 0
73 2 S116 839 1425714 6604 0
0 0 0 856 1426570 -10362 0
0 0 0 889 1427459 -9473 0
0 0 0 831 1428290 -8642 0
0 0 0 763 1429053 -7879 0
0 0 0 763 1429816 -7116 0
0 0 0 829 1430645 -6287 0
0 0 0 811 1431456 -5476 0
0 0 0 858 1432314 -4618 0
0 0 0 820 1433134 -3798 0
0 0 0 768 1433902 -3030 0
0 0 0 781 1434683 -2249 0
74 1 S106 789 1435472 -1460 0
74 1 S106 811 1436283 -649 0
74 2 S106 832 1437115 183 0
74 2 S106 798 1437913 981 0
74 2 S106 782 1438695 1763 0
74 2 S106 800 1439495 2563 0
74 2 S106 819 1440314 3382 0
74 2 S106 760 1441074 4142 0
74 2 S106 746 1441820 4888 0
74 2 S106 756 1442576 5644 0
74 2 S106 782 1443358 6426 0
0 0 0 822 1444180 -7672 0
0 0 0 810 1444990 -6862 0
0 0 0 760 1445750 -6102 0
0 0 0 804 1446554 -5298 0
0 0 0 796 1447350 -4502 0
0 0 0 732 1448082 -3770 0
0 0 0 695 1448777 -3075 0
0 0 0 685 1449462 -2390 0
75 1 S112 693 1450155 -1697 0
75 1 S112 701 1450856 -996 0
75 1 S112 716 1451572 -280 0
75 2 S112 773 1452345 493 0
75 2 S112 809 1453154 1302 0
75 2 S112 807 1453961 2109 0
75 2 S112 784 1454745 2893 0
75 2 S112 791 1455536 3684 0
75 2 S112 780 1456316 4464 0
75 2 S112 785 1457101 5249 0
75 2 S112 769 1457870 6018 0
75 2 S112 806 1458676 6824 0
0 0 0 861 1459537 -7783 0
0 0 0 807 1460344 -6976 0
0 0 0 740 1461084 -6236 0
0 0 0 713 1461797 -5523 0
0 0 0 767 1462564 -4756 0
0 0 0 865 1463429 -3891 0
0 0 0 827 1464256 -3064 0
0 0 0 803 1465059 -2261 0
76 1 S116 734 1465793 -1527 0
76 1 S116 716 1466509 -811 0
76 1 S116 718 1467227 -93 0
76 2 S116 738 1467965 645 0
76 2 S116 770 1468735 1415 0
76 2 S116 797 1469532 2212 0
76 2 S116 764 1470296 2976 0
76 2 S116 756 1471052 3732 0
76 2 S116 738 1471790 4470 0
76 2 S116 724 1472514 5194 0
76 2 S116 702 1473216 5896 0
76 2 S116 718 1473934 6614 0
0 0 0 784 1474718 -6876 0
0 0 0 864 1475582 -6012 0
0 0 0 882 1476464 -5130 0
0 0 0 863 1477327 -4267 0
0 0 0 782 1478109 -3485 0
0 0 0 734 1478843 -2751 0
0 0 0 744 1479587 -2007 0
77 1 S106 766 1480353 -1241 0
77 1 S106 789 1481142 -452 0
77 2 S106 788 1481930 336 0
77 2 S106 822 1482752 1158 0
77 2 S106 831 1483583 1989 0
77 2 S106 840 1484423 2829 0
77 2 S106 842 1485265 3671 0
77 2 S106 823 1486088 4494 0
77 2 S106 826 1486914 5320 0
77 2 S106 756 1487670 6076 0
77 2 S106 712 1488382 6788 0
0 0 0 698 1489080 -9358 0
0 0 0 700 1489780 -8658 0
0 0 0 758 1490538 -7900 0
0 0 0 1004 1491542 -6896 1
0 0 0 807 1492349 -6089 0
0 0 0 786 1493135 -5303 0
0 0 0 794 1493929 -4509 0
0 0 0 788 1494717 -3721 0
0 0 0 761 1495478 -2960 0
0 0 0 713 1496191 -2247 0
78 1 S112 718 1496909 -1529 0
78 1 S112 731 1497640 -798 0
78 1 S112 773 1498413 -25 0
78 2 S112 804 1499217 779 0
78 2 S112 866 1500083 1645 0
78 2 S112 901 1500984 2546 0
78 2 S112 911 1501895 3457 0
78 2 S112 849 1502744 4306 0
78 2 S112 797 1503541 5103 0
78 2 S112 830 1504371 5933 0
78 2 S112 821 1505192 6754 0
0 0 0 811 1506003 -11715 0
0 0 0 754 1506757 -10961 0
0 0 0 709 1507466 -10252 0
0 0 0 751 1508217 -9501 0
0 0 0 870 1509087 -8631 0
0 0 0 869 1509956 -7762 0
0 0 0 784 1510740 -6978 0
0 0 0 733 1511473 -6245 0
0 0 0 737 1512210 -5508 0
0 0 0 751 1512961 -4757 0
0 0 0 705 1513666 -4052 0
0 0 0 714 1514380 -3338 0
0 0 0 747 1515127 -2591 0
79 1 S102 793 1515920 -1798 0
79 1 S102 854 1516774 -944 0
79 1 S102 888 1517662 -56 0
79 2 S102 865 1518527 809 0
79 2 S102 813 1519340 1622 0
79 2 S102 764 1520104 2386 0
79 2 S102 760 1520864 3146 0
79 2 S102 782 1521646 3928 0
79 2 S102 824 1522470 4752 0
79 2 S102 819 1523289 5571 0
79 2 S102 799 1524088 6370 0
0 0 0 830 1524918 -10456 0
0 0 0 818 1525736 -9638 0
0 0 0 774 1526510 -8864 0
0 0 0 748 1527258 -8116 0
0 0 0 780 1528038 -7336 0
0 0 0 805 1528843 -6531 0
0 0 0 814 1529657 -5717 0
0 0 0 790 1530447 -4927 0
0 0 0 750 1531197 -4177 0
0 0 0 746 1531943 -3431 0
0 0 0 717 1532660 -2714 0
0 0 0 701 1533361 -2013 0
80 1 S116 751 1534112 -1262 0
80 1 S116 785 1534897 -477 0
80 2 S116 811 1535708 334 0
80 2 S116 793 1536501 1127 0
80 2 S116 749 1537250 1876 0
80 2 S116 749 1537999 2625 0
80 2 S116 771 1538770 3396 0
80 2 S116 806 1539576 4202 0
80 2 S116 794 1540370 4996 0
80 2 S116 743 1541113 5739 0
80 2 S116 778 1541891 6517 0
