T_0125
BeatCount Mean SD BeatCountNoOutliers MeanNoOutliers SDNoOutliers
2235 686,218344519016 53,4631770627681 2224 686,247751798561 46,1011445084362

Trial TrialStatus Trialtype IBI AbsPosition RelPosition Outlier
0 0 0 699 726 -15190 0
0 0 0 673 1399 -14517 0
0 0 0 646 2045 -13871 0
0 0 0 624 2669 -13247 0
0 0 0 607 3276 -12640 0
0 0 0 595 3871 -12045 0
0 0 0 594 4465 -11451 0
0 0 0 601 5066 -10850 0
0 0 0 636 5702 -10214 0
0 0 0 685 6387 -9529 0
0 0 0 709 7096 -8820 0
0 0 0 730 7826 -8090 0
0 0 0 745 8571 -7345 0
0 0 0 740 9311 -6605 0
0 0 0 729 10040 -5876 0
0 0 0 713 10753 -5163 0
0 0 0 672 11425 -4491 0
0 0 0 648 12073 -3843 0
0 0 0 627 12700 -3216 0
0 0 0 623 13323 -2593 0
1 1 S112 632 13955 -1961 0
1 1 S112 693 14648 -1268 0
1 1 S112 760 15408 -508 0
1 2 S112 780 16188 272 0
1 2 S112 788 16976 1060 0
1 2 S112 777 17753 1837 0
1 2 S112 735 18488 2572 0
1 2 S112 681 19169 3253 0
1 2 S112 662 19831 3915 0
1 2 S112 653 20484 4568 0
1 2 S112 662 21146 5230 0
1 2 S112 682 21828 5912 0
1 2 S112 706 22534 6618 0
0 0 0 718 23252 -12342 0
0 0 0 726 23978 -11616 0
0 0 0 682 24660 -10934 0
0 0 0 665 25325 -10269 0
0 0 0 666 25991 -9603 0
0 0 0 670 26661 -8933 0
0 0 0 666 27327 -8267 0
0 0 0 651 27978 -7616 0
0 0 0 619 28597 -6997 0
0 0 0 607 29204 -6390 0
0 0 0 568 29772 -5822 0
0 0 0 575 30347 -5247 0
0 0 0 601 30948 -4646 0
0 0 0 653 31601 -3993 0
0 0 0 724 32325 -3269 0
0 0 0 742 33067 -2527 0
2 1 S102 739 33806 -1788 0
2 1 S102 689 34495 -1099 0
2 1 S102 657 35152 -442 0
2 2 S102 641 35793 199 0
2 2 S102 628 36421 827 0
2 2 S102 628 37049 1455 0
2 2 S102 631 37680 2086 0
2 2 S102 633 38313 2719 0
2 2 S102 642 38955 3361 0
2 2 S102 691 39646 4052 0
2 2 S102 737 40383 4789 0
2 2 S102 778 41161 5567 0
2 2 S102 802 41963 6369 0
0 0 0 790 42753 -9320 0
0 0 0 717 43470 -8603 0
0 0 0 691 44161 -7912 0
0 0 0 682 44843 -7230 0
0 0 0 676 45519 -6554 0
0 0 0 672 46191 -5882 0
0 0 0 660 46851 -5222 0
0 0 0 653 47504 -4569 0
0 0 0 689 48193 -3880 0
0 0 0 726 48919 -3154 0
0 0 0 763 49682 -2391 0
3 1 S116 751 50433 -1640 0
3 1 S116 698 51131 -942 0
3 1 S116 714 51845 -228 0
3 2 S116 691 52536 463 0
3 2 S116 685 53221 1148 0
3 2 S116 671 53892 1819 0
3 2 S116 639 54531 2458 0
3 2 S116 622 55153 3080 0
3 2 S116 625 55778 3705 0
3 2 S116 647 56425 4352 0
3 2 S116 693 57118 5045 0
3 2 S116 754 57872 5799 0
3 2 S116 777 58649 6576 0
0 0 0 749 59398 -11906 0
0 0 0 701 60099 -11205 0
0 0 0 684 60783 -10521 0
0 0 0 668 61451 -9853 0
0 0 0 654 62105 -9199 0
0 0 0 613 62718 -8586 0
0 0 0 603 63321 -7983 0
0 0 0 613 63934 -7370 0
0 0 0 650 64584 -6720 0
0 0 0 726 65310 -5994 0
0 0 0 752 66062 -5242 0
0 0 0 710 66772 -4532 0
0 0 0 727 67499 -3805 0
0 0 0 710 68209 -3095 0
0 0 0 684 68893 -2411 0
4 1 S106 651 69544 -1760 0
4 1 S106 615 70159 -1145 0
4 1 S106 609 70768 -536 0
4 2 S106 612 71380 76 0
4 2 S106 636 72016 712 0
4 2 S106 683 72699 1395 0
4 2 S106 725 73424 2120 0
4 2 S106 685 74109 2805 0
4 2 S106 664 74773 3469 0
4 2 S106 660 75433 4129 0
4 2 S106 670 76103 4799 0
4 2 S106 678 76781 5477 0
4 2 S106 684 77465 6161 0
4 2 S106 642 78107 6803 0
0 0 0 616 78723 -7452 0
0 0 0 618 79341 -6834 0
0 0 0 623 79964 -6211 0
0 0 0 648 80612 -5563 0
0 0 0 678 81290 -4885 0
0 0 0 668 81958 -4217 0
0 0 0 681 82639 -3536 0
0 0 0 711 83350 -2825 0
0 0 0 737 84087 -2088 0
5 1 S116 729 84816 -1359 0
5 1 S116 694 85510 -665 0
5 2 S116 680 86190 15 0
5 2 S116 678 86868 693 0
5 2 S116 675 87543 1368 0
5 2 S116 678 88221 2046 0
5 2 S116 670 88891 2716 0
5 2 S116 641 89532 3357 0
5 2 S116 671 90203 4028 0
5 2 S116 716 90919 4744 0
5 2 S116 750 91669 5494 0
5 2 S116 765 92434 6259 0
5 2 S116 729 93163 6988 0
0 0 0 697 93860 -8197 0
0 0 0 699 94559 -7498 0
0 0 0 695 95254 -6803 0
0 0 0 686 95940 -6117 0
0 0 0 662 96602 -5455 0
0 0 0 643 97245 -4812 0
0 0 0 662 97907 -4150 0
0 0 0 693 98600 -3457 0
0 0 0 726 99326 -2731 0
0 0 0 719 100045 -2012 0
6 1 S106 662 100707 -1350 0
6 1 S106 673 101380 -677 0
6 2 S106 681 102061 4 0
6 2 S106 704 102765 708 0
6 2 S106 715 103480 1423 0
6 2 S106 699 104179 2122 0
6 2 S106 672 104851 2794 0
6 2 S106 681 105532 3475 0
6 2 S106 679 106211 4154 0
6 2 S106 681 106892 4835 0
6 2 S106 695 107587 5530 0
6 2 S106 685 108272 6215 0
6 2 S106 664 108936 6879 0
0 0 0 668 109604 -11551 0
0 0 0 685 110289 -10866 0
0 0 0 697 110986 -10169 0
0 0 0 699 111685 -9470 0
0 0 0 668 112353 -8802 0
0 0 0 677 113030 -8125 0
0 0 0 673 113703 -7452 0
0 0 0 674 114377 -6778 0
0 0 0 659 115036 -6119 0
0 0 0 638 115674 -5481 0
0 0 0 656 116330 -4825 0
0 0 0 670 117000 -4155 0
0 0 0 690 117690 -3465 0
0 0 0 698 118388 -2767 0
0 0 0 656 119044 -2111 0
7 1 S102 643 119687 -1468 0
7 1 S102 653 120340 -815 0
7 1 S102 681 121021 -134 0
7 2 S102 690 121711 556 0
7 2 S102 696 122407 1252 0
7 2 S102 675 123082 1927 0
7 2 S102 640 123722 2567 0
7 2 S102 638 124360 3205 0
7 2 S102 643 125003 3848 0
7 2 S102 649 125652 4497 0
7 2 S102 678 126330 5175 0
7 2 S102 703 127033 5878 0
7 2 S102 700 127733 6578 0
0 0 0 673 128406 -8134 0
0 0 0 696 129102 -7438 0
0 0 0 718 129820 -6720 0
0 0 0 727 130547 -5993 0
0 0 0 723 131270 -5270 0
0 0 0 679 131949 -4591 0
0 0 0 679 132628 -3912 0
0 0 0 668 133296 -3244 0
0 0 0 666 133962 -2578 0
8 1 S112 656 134618 -1922 0
8 1 S112 638 135256 -1284 0
8 1 S112 622 135878 -662 0
8 1 S112 624 136502 -38 0
8 2 S112 659 137161 621 0
8 2 S112 711 137872 1332 0
8 2 S112 781 138653 2113 0
8 2 S112 771 139424 2884 0
8 2 S112 778 140202 3662 0
8 2 S112 801 141003 4463 0
8 2 S112 811 141814 5274 0
8 2 S112 811 142625 6085 0
8 2 S112 787 143412 6872 0
0 0 0 764 144176 -8959 0
0 0 0 713 144889 -8246 0
0 0 0 681 145570 -7565 0
0 0 0 677 146247 -6888 0
0 0 0 675 146922 -6213 0
0 0 0 694 147616 -5519 0
0 0 0 711 148327 -4808 0
0 0 0 714 149041 -4094 0
0 0 0 721 149762 -3373 0
0 0 0 690 150452 -2683 0
0 0 0 614 151066 -2069 0
9 1 S116 615 151681 -1454 0
9 1 S116 649 152330 -805 0
9 1 S116 691 153021 -114 0
9 2 S116 718 153739 604 0
9 2 S116 707 154446 1311 0
9 2 S116 666 155112 1977 0
9 2 S116 654 155766 2631 0
9 2 S116 665 156431 3296 0
9 2 S116 667 157098 3963 0
9 2 S116 665 157763 4628 0
9 2 S116 660 158423 5288 0
9 2 S116 654 159077 5942 0
9 2 S116 644 159721 6586 0
0 0 0 669 160390 -12772 0
0 0 0 699 161089 -12073 0
0 0 0 737 161826 -11336 0
0 0 0 766 162592 -10570 0
0 0 0 743 163335 -9827 0
0 0 0 699 164034 -9128 0
0 0 0 701 164735 -8427 0
0 0 0 676 165411 -7751 0
0 0 0 679 166090 -7072 0
0 0 0 654 166744 -6418 0
0 0 0 626 167370 -5792 0
0 0 0 627 167997 -5165 0
0 0 0 645 168642 -4520 0
0 0 0 689 169331 -3831 0
0 0 0 723 170054 -3108 0
0 0 0 689 170743 -2419 0
10 1 S102 671 171414 -1748 0
10 1 S102 686 172100 -1062 0
10 1 S102 690 172790 -372 0
10 2 S102 695 173485 323 0
10 2 S102 675 174160 998 0
10 2 S102 679 174839 1677 0
10 2 S102 673 175512 2350 0
10 2 S102 680 176192 3030 0
10 2 S102 681 176873 3711 0
10 2 S102 644 177517 4355 0
10 2 S102 623 178140 4978 0
10 2 S102 631 178771 5609 0
10 2 S102 646 179417 6255 0
10 2 S102 691 180108 6946 0
0 0 0 773 180881 -10169 0
0 0 0 780 181661 -9389 0
0 0 0 721 182382 -8668 0
0 0 0 707 183089 -7961 0
0 0 0 685 183774 -7276 0
0 0 0 641 184415 -6635 0
0 0 0 614 185029 -6021 0
0 0 0 583 185612 -5438 0
0 0 0 566 186178 -4872 0
0 0 0 582 186760 -4290 0
0 0 0 636 187396 -3654 0
0 0 0 733 188129 -2921 0
0 0 0 806 188935 -2115 0
11 1 S112 792 189727 -1323 0
11 1 S112 742 190469 -581 0
11 2 S112 715 191184 134 0
11 2 S112 696 191880 830 0
11 2 S112 687 192567 1517 0
11 2 S112 697 193264 2214 0
11 2 S112 715 193979 2929 0
11 2 S112 688 194667 3617 0
11 2 S112 677 195344 4294 0
11 2 S112 677 196021 4971 0
11 2 S112 677 196698 5648 0
11 2 S112 696 197394 6344 0
0 0 0 722 198116 -8418 0
0 0 0 694 198810 -7724 0
0 0 0 685 199495 -7039 0
0 0 0 715 200210 -6324 0
0 0 0 712 200922 -5612 0
0 0 0 720 201642 -4892 0
0 0 0 675 202317 -4217 0
0 0 0 643 202960 -3574 0
0 0 0 652 203612 -2922 0
0 0 0 657 204269 -2265 0
12 1 S116 674 204943 -1591 0
12 1 S116 678 205621 -913 0
12 1 S116 647 206268 -266 0
12 2 S116 651 206919 385 0
12 2 S116 625 207544 1010 0
12 2 S116 605 208149 1615 0
12 2 S116 576 208725 2191 0
12 2 S116 564 209289 2755 0
12 2 S116 588 209877 3343 0
12 2 S116 633 210510 3976 0
12 2 S116 688 211198 4664 0
12 2 S116 705 211903 5369 0
12 2 S116 711 212614 6080 0
12 2 S116 694 213308 6774 0
0 0 0 657 213965 -10424 0
0 0 0 631 214596 -9793 0
0 0 0 624 215220 -9169 0
0 0 0 613 215833 -8556 0
0 0 0 606 216439 -7950 0
0 0 0 601 217040 -7349 0
0 0 0 610 217650 -6739 0
0 0 0 653 218303 -6086 0
0 0 0 723 219026 -5363 0
0 0 0 789 219815 -4574 0
0 0 0 803 220618 -3771 0
0 0 0 750 221368 -3021 0
0 0 0 720 222088 -2301 0
13 1 S112 716 222804 -1585 0
13 1 S112 716 223520 -869 0
13 1 S112 703 224223 -166 0
13 2 S112 684 224907 518 0
13 2 S112 645 225552 1163 0
13 2 S112 651 226203 1814 0
13 2 S112 665 226868 2479 0
13 2 S112 676 227544 3155 0
13 2 S112 710 228254 3865 0
13 2 S112 707 228961 4572 0
13 2 S112 673 229634 5245 0
13 2 S112 671 230305 5916 0
13 2 S112 692 230997 6608 0
0 0 0 725 231722 -10323 0
0 0 0 752 232474 -9571 0
0 0 0 723 233197 -8848 0
0 0 0 666 233863 -8182 0
0 0 0 635 234498 -7547 0
0 0 0 635 235133 -6912 0
0 0 0 656 235789 -6256 0
0 0 0 691 236480 -5565 0
0 0 0 728 237208 -4837 0
0 0 0 704 237912 -4133 0
0 0 0 711 238623 -3422 0
0 0 0 732 239355 -2690 0
14 1 S106 745 240100 -1945 0
14 1 S106 755 240855 -1190 0
14 1 S106 735 241590 -455 0
14 2 S106 690 242280 235 0
14 2 S106 693 242973 928 0
14 2 S106 703 243676 1631 0
14 2 S106 739 244415 2370 0
14 2 S106 773 245188 3143 0
14 2 S106 741 245929 3884 0
14 2 S106 656 246585 4540 0
14 2 S106 644 247229 5184 0
14 2 S106 632 247861 5816 0
14 2 S106 646 248507 6462 0
0 0 0 681 249188 -10563 0
0 0 0 705 249893 -9858 0
0 0 0 689 250582 -9169 0
0 0 0 657 251239 -8512 0
0 0 0 614 251853 -7898 0
0 0 0 620 252473 -7278 0
0 0 0 626 253099 -6652 0
0 0 0 683 253782 -5969 0
0 0 0 762 254544 -5207 0
0 0 0 746 255290 -4461 0
0 0 0 701 255991 -3760 0
0 0 0 719 256710 -3041 0
0 0 0 740 257450 -2301 0
15 1 S116 746 258196 -1555 0
15 1 S116 729 258925 -826 0
15 1 S116 680 259605 -146 0
15 2 S116 646 260251 500 0
15 2 S116 641 260892 1141 0
15 2 S116 643 261535 1784 0
15 2 S116 652 262187 2436 0
15 2 S116 683 262870 3119 0
15 2 S116 672 263542 3791 0
15 2 S116 667 264209 4458 0
15 2 S116 691 264900 5149 0
15 2 S116 716 265616 5865 0
15 2 S116 724 266340 6589 0
0 0 0 740 267080 -9034 0
0 0 0 694 267774 -8340 0
0 0 0 647 268421 -7693 0
0 0 0 659 269080 -7034 0
0 0 0 649 269729 -6385 0
0 0 0 657 270386 -5728 0
0 0 0 676 271062 -5052 0
0 0 0 648 271710 -4404 0
0 0 0 665 272375 -3739 0
0 0 0 681 273056 -3058 0
0 0 0 694 273750 -2364 0
16 1 S116 695 274445 -1669 0
16 1 S116 656 275101 -1013 0
16 1 S116 630 275731 -383 0
16 2 S116 629 276360 246 0
16 2 S116 630 276990 876 0
16 2 S116 639 277629 1515 0
16 2 S116 652 278281 2167 0
16 2 S116 667 278948 2834 0
16 2 S116 651 279599 3485 0
16 2 S116 637 280236 4122 0
16 2 S116 647 280883 4769 0
16 2 S116 657 281540 5426 0
16 2 S116 678 282218 6104 0
16 2 S116 708 282926 6812 0
0 0 0 696 283622 -9053 0
0 0 0 650 284272 -8403 0
0 0 0 667 284939 -7736 0
0 0 0 669 285608 -7067 0
0 0 0 666 286274 -6401 0
0 0 0 687 286961 -5714 0
0 0 0 647 287608 -5067 0
0 0 0 612 288220 -4455 0
0 0 0 589 288809 -3866 0
0 0 0 582 289391 -3284 0
0 0 0 590 289981 -2694 0
0 0 0 609 290590 -2085 0
17 1 S106 681 291271 -1404 0
17 1 S106 746 292017 -658 0
17 2 S106 765 292782 107 0
17 2 S106 735 293517 842 0
17 2 S106 709 294226 1551 0
17 2 S106 665 294891 2216 0
17 2 S106 633 295524 2849 0
17 2 S106 612 296136 3461 0
17 2 S106 583 296719 4044 0
17 2 S106 571 297290 4615 0
17 2 S106 573 297863 5188 0
17 2 S106 591 298454 5779 0
17 2 S106 663 299117 6442 0
0 0 0 784 299901 -11641 0
0 0 0 806 300707 -10835 0
0 0 0 773 301480 -10062 0
0 0 0 731 302211 -9331 0
0 0 0 730 302941 -8601 0
0 0 0 686 303627 -7915 0
0 0 0 670 304297 -7245 0
0 0 0 639 304936 -6606 0
0 0 0 625 305561 -5981 0
0 0 0 642 306203 -5339 0
0 0 0 646 306849 -4693 0
0 0 0 624 307473 -4069 0
0 0 0 623 308096 -3446 0
0 0 0 591 308687 -2855 0
0 0 0 584 309271 -2271 0
18 1 S102 586 309857 -1685 0
18 1 S102 581 310438 -1104 0
18 1 S102 599 311037 -505 0
18 2 S102 606 311643 101 0
18 2 S102 614 312257 715 0
18 2 S102 650 312907 1365 0
18 2 S102 675 313582 2040 0
18 2 S102 698 314280 2738 0
18 2 S102 676 314956 3414 0
18 2 S102 689 315645 4103 0
18 2 S102 704 316349 4807 0
18 2 S102 712 317061 5519 0
18 2 S102 716 317777 6235 0
18 2 S102 704 318481 6939 0
0 0 0 670 319151 -8986 0
0 0 0 642 319793 -8344 0
0 0 0 636 320429 -7708 0
0 0 0 641 321070 -7067 0
0 0 0 653 321723 -6414 0
0 0 0 684 322407 -5730 0
0 0 0 681 323088 -5049 0
0 0 0 701 323789 -4348 0
0 0 0 698 324487 -3650 0
0 0 0 709 325196 -2941 0
0 0 0 670 325866 -2271 0
19 1 S106 651 326517 -1620 0
19 1 S106 658 327175 -962 0
19 1 S106 634 327809 -328 0
19 2 S106 603 328412 275 0
19 2 S106 594 329006 869 0
19 2 S106 622 329628 1491 0
19 2 S106 642 330270 2133 0
19 2 S106 636 330906 2769 0
19 2 S106 647 331553 3416 0
19 2 S106 658 332211 4074 0
19 2 S106 669 332880 4743 0
19 2 S106 685 333565 5428 0
19 2 S106 683 334248 6111 0
19 2 S106 650 334898 6761 0
0 0 0 628 335526 -9902 0
0 0 0 644 336170 -9258 0
0 0 0 658 336828 -8600 0
0 0 0 696 337524 -7904 0
0 0 0 740 338264 -7164 0
0 0 0 704 338968 -6460 0
0 0 0 697 339665 -5763 0
0 0 0 695 340360 -5068 0
0 0 0 707 341067 -4361 0
0 0 0 705 341772 -3656 0
0 0 0 675 342447 -2981 0
0 0 0 632 343079 -2349 0
20 1 S112 625 343704 -1724 0
20 1 S112 631 344335 -1093 0
20 1 S112 641 344976 -452 0
20 2 S112 690 345666 238 0
20 2 S112 700 346366 938 0
20 2 S112 673 347039 1611 0
20 2 S112 682 347721 2293 0
20 2 S112 689 348410 2982 0
20 2 S112 722 349132 3704 0
20 2 S112 722 349854 4426 0
20 2 S112 692 350546 5118 0
20 2 S112 650 351196 5768 0
20 2 S112 634 351830 6402 0
0 0 0 629 352459 -10094 0
0 0 0 642 353101 -9452 0
0 0 0 689 353790 -8763 0
0 0 0 746 354536 -8017 0
0 0 0 727 355263 -7290 0
0 0 0 723 355986 -6567 0
0 0 0 707 356693 -5860 0
0 0 0 667 357360 -5193 0
0 0 0 606 357966 -4587 0
0 0 0 599 358565 -3988 0
0 0 0 589 359154 -3399 0
0 0 0 599 359753 -2800 0
0 0 0 632 360385 -2168 0
21 1 S106 683 361068 -1485 0
21 1 S106 707 361775 -778 0
21 1 S106 687 362462 -91 0
21 2 S106 676 363138 585 0
21 2 S106 670 363808 1255 0
21 2 S106 656 364464 1911 0
21 2 S106 643 365107 2554 0
21 2 S106 629 365736 3183 0
21 2 S106 603 366339 3786 0
21 2 S106 590 366929 4376 0
21 2 S106 591 367520 4967 0
21 2 S106 595 368115 5562 0
21 2 S106 637 368752 6199 0
21 2 S106 720 369472 6919 0
0 0 0 752 370224 -11676 0
0 0 0 721 370945 -10955 0
0 0 0 725 371670 -10230 0
0 0 0 723 372393 -9507 0
0 0 0 705 373098 -8802 0
0 0 0 665 373763 -8137 0
0 0 0 624 374387 -7513 0
0 0 0 609 374996 -6904 0
0 0 0 606 375602 -6298 0
0 0 0 622 376224 -5676 0
0 0 0 670 376894 -5006 0
0 0 0 718 377612 -4288 0
0 0 0 722 378334 -3566 0
0 0 0 683 379017 -2883 0
0 0 0 697 379714 -2186 0
22 1 S116 700 380414 -1486 0
22 1 S116 709 381123 -777 0
22 1 S116 726 381849 -51 0
22 2 S116 723 382572 672 0
22 2 S116 677 383249 1349 0
22 2 S116 654 383903 2003 0
22 2 S116 655 384558 2658 0
22 2 S116 664 385222 3322 0
22 2 S116 691 385913 4013 0
22 2 S116 747 386660 4760 0
22 2 S116 782 387442 5542 0
22 2 S116 782 388224 6324 0
0 0 0 747 388971 -11149 0
0 0 0 755 389726 -10394 0
0 0 0 743 390469 -9651 0
0 0 0 753 391222 -8898 0
0 0 0 704 391926 -8194 0
0 0 0 685 392611 -7509 0
0 0 0 703 393314 -6806 0
0 0 0 676 393990 -6130 0
0 0 0 694 394684 -5436 0
0 0 0 679 395363 -4757 0
0 0 0 678 396041 -4079 0
0 0 0 695 396736 -3384 0
0 0 0 736 397472 -2648 0
23 1 S112 759 398231 -1889 0
23 1 S112 754 398985 -1135 0
23 1 S112 690 399675 -445 0
23 2 S112 660 400335 215 0
23 2 S112 663 400998 878 0
23 2 S112 660 401658 1538 0
23 2 S112 658 402316 2196 0
23 2 S112 666 402982 2862 0
23 2 S112 670 403652 3532 0
23 2 S112 661 404313 4193 0
23 2 S112 705 405018 4898 0
23 2 S112 716 405734 5614 0
23 2 S112 731 406465 6345 0
0 0 0 751 407216 -11008 0
0 0 0 739 407955 -10269 0
0 0 0 670 408625 -9599 0
0 0 0 650 409275 -8949 0
0 0 0 648 409923 -8301 0
0 0 0 649 410572 -7652 0
0 0 0 670 411242 -6982 0
0 0 0 658 411900 -6324 0
0 0 0 635 412535 -5689 0
0 0 0 651 413186 -5038 0
0 0 0 652 413838 -4386 0
0 0 0 667 414505 -3719 0
0 0 0 625 415130 -3094 0
0 0 0 580 415710 -2514 0
24 1 S106 582 416292 -1932 0
24 1 S106 592 416884 -1340 0
24 1 S106 613 417497 -727 0
24 1 S106 653 418150 -74 0
24 2 S106 683 418833 609 0
24 2 S106 685 419518 1294 0
24 2 S106 675 420193 1969 0
24 2 S106 626 420819 2595 0
24 2 S106 609 421428 3204 0
24 2 S106 605 422033 3809 0
24 2 S106 611 422644 4420 0
24 2 S106 658 423302 5078 0
24 2 S106 741 424043 5819 0
24 2 S106 769 424812 6588 0
0 0 0 741 425553 -10526 0
0 0 0 770 426323 -9756 0
0 0 0 765 427088 -8991 0
0 0 0 758 427846 -8233 0
0 0 0 736 428582 -7497 0
0 0 0 694 429276 -6803 0
0 0 0 689 429965 -6114 0
0 0 0 672 430637 -5442 0
0 0 0 667 431304 -4775 0
0 0 0 650 431954 -4125 0
0 0 0 660 432614 -3465 0
0 0 0 670 433284 -2795 0
0 0 0 699 433983 -2096 0
25 1 S102 750 434733 -1346 0
25 1 S102 782 435515 -564 0
25 2 S102 708 436223 144 0
25 2 S102 691 436914 835 0
25 2 S102 690 437604 1525 0
25 2 S102 703 438307 2228 0
25 2 S102 724 439031 2952 0
25 2 S102 744 439775 3696 0
25 2 S102 721 440496 4417 0
25 2 S102 678 441174 5095 0
25 2 S102 672 441846 5767 0
25 2 S102 673 442519 6440 0
0 0 0 681 443200 -7816 0
0 0 0 700 443900 -7116 0
0 0 0 702 444602 -6414 0
0 0 0 666 445268 -5748 0
0 0 0 705 445973 -5043 0
0 0 0 718 446691 -4325 0
0 0 0 734 447425 -3591 0
0 0 0 716 448141 -2875 0
0 0 0 665 448806 -2210 0
26 1 S116 647 449453 -1563 0
26 1 S116 639 450092 -924 0
26 1 S116 635 450727 -289 0
26 2 S116 647 451374 358 0
26 2 S116 657 452031 1015 0
26 2 S116 680 452711 1695 0
26 2 S116 658 453369 2353 0
26 2 S116 662 454031 3015 0
26 2 S116 681 454712 3696 0
26 2 S116 725 455437 4421 0
26 2 S116 762 456199 5183 0
26 2 S116 737 456936 5920 0
26 2 S116 679 457615 6599 0
0 0 0 654 458269 -8264 0
0 0 0 641 458910 -7623 0
0 0 0 646 459556 -6977 0
0 0 0 644 460200 -6333 0
0 0 0 644 460844 -5689 0
0 0 0 640 461484 -5049 0
0 0 0 670 462154 -4379 0
0 0 0 692 462846 -3687 0
0 0 0 728 463574 -2959 0
0 0 0 703 464277 -2256 0
27 1 S106 703 464980 -1553 0
27 1 S106 710 465690 -843 0
27 1 S106 717 466407 -126 0
27 2 S106 717 467124 591 0
27 2 S106 676 467800 1267 0
27 2 S106 639 468439 1906 0
27 2 S106 635 469074 2541 0
27 2 S106 627 469701 3168 0
27 2 S106 653 470354 3821 0
27 2 S106 684 471038 4505 0
27 2 S106 712 471750 5217 0
27 2 S106 699 472449 5916 0
27 2 S106 740 473189 6656 0
0 0 0 764 473953 -5660 0
0 0 0 784 474737 -4876 0
0 0 0 764 475501 -4112 0
0 0 0 694 476195 -3418 0
0 0 0 630 476825 -2788 0
0 0 0 605 477430 -2183 0
28 1 S102 584 478014 -1599 0
28 1 S102 588 478602 -1011 0
28 1 S102 605 479207 -406 0
28 2 S102 670 479877 264 0
28 2 S102 756 480633 1020 0
28 2 S102 771 481404 1791 0
28 2 S102 779 482183 2570 0
28 2 S102 763 482946 3333 0
28 2 S102 737 483683 4070 0
28 2 S102 699 484382 4769 0
28 2 S102 670 485052 5439 0
28 2 S102 657 485709 6096 0
28 2 S102 649 486358 6745 0
0 0 0 626 486984 -11910 0
0 0 0 644 487628 -11266 0
0 0 0 656 488284 -10610 0
0 0 0 682 488966 -9928 0
0 0 0 726 489692 -9202 0
0 0 0 735 490427 -8467 0
0 0 0 694 491121 -7773 0
0 0 0 700 491821 -7073 0
0 0 0 692 492513 -6381 0
0 0 0 675 493188 -5706 0
0 0 0 664 493852 -5042 0
0 0 0 644 494496 -4398 0
0 0 0 650 495146 -3748 0
0 0 0 669 495815 -3079 0
0 0 0 683 496498 -2396 0
29 1 S112 719 497217 -1677 0
29 1 S112 710 497927 -967 0
29 1 S112 692 498619 -275 0
29 2 S112 692 499311 417 0
29 2 S112 688 499999 1105 0
29 2 S112 711 500710 1816 0
29 2 S112 701 501411 2517 0
29 2 S112 674 502085 3191 0
29 2 S112 651 502736 3842 0
29 2 S112 659 503395 4501 0
29 2 S112 673 504068 5174 0
29 2 S112 690 504758 5864 0
29 2 S112 723 505481 6587 0
0 0 0 726 506207 -7972 0
0 0 0 693 506900 -7279 0
0 0 0 650 507550 -6629 0
0 0 0 652 508202 -5977 0
0 0 0 649 508851 -5328 0
0 0 0 644 509495 -4684 0
0 0 0 656 510151 -4028 0
0 0 0 645 510796 -3383 0
0 0 0 658 511454 -2725 0
0 0 0 682 512136 -2043 0
30 1 S112 717 512853 -1326 0
30 1 S112 753 513606 -573 0
30 2 S112 751 514357 178 0
30 2 S112 695 515052 873 0
30 2 S112 669 515721 1542 0
30 2 S112 651 516372 2193 0
30 2 S112 648 517020 2841 0
30 2 S112 655 517675 3496 0
30 2 S112 662 518337 4158 0
30 2 S112 653 518990 4811 0
30 2 S112 653 519643 5464 0
30 2 S112 672 520315 6136 0
30 2 S112 706 521021 6842 0
0 0 0 753 521774 -10227 0
0 0 0 759 522533 -9468 0
0 0 0 682 523215 -8786 0
0 0 0 673 523888 -8113 0
0 0 0 667 524555 -7446 0
0 0 0 657 525212 -6789 0
0 0 0 649 525861 -6140 0
0 0 0 623 526484 -5517 0
0 0 0 621 527105 -4896 0
0 0 0 649 527754 -4247 0
0 0 0 686 528440 -3561 0
0 0 0 665 529105 -2896 0
0 0 0 612 529717 -2284 0
31 1 S106 644 530361 -1640 0
31 1 S106 690 531051 -950 0
31 1 S106 735 531786 -215 0
31 2 S106 758 532544 543 0
31 2 S106 714 533258 1257 0
31 2 S106 672 533930 1929 0
31 2 S106 669 534599 2598 0
31 2 S106 667 535266 3265 0
31 2 S106 652 535918 3917 0
31 2 S106 654 536572 4571 0
31 2 S106 639 537211 5210 0
31 2 S106 648 537859 5858 0
31 2 S106 678 538537 6536 0
0 0 0 738 539275 -9537 0
0 0 0 788 540063 -8749 0
0 0 0 771 540834 -7978 0
0 0 0 720 541554 -7258 0
0 0 0 728 542282 -6530 0
0 0 0 691 542973 -5839 0
0 0 0 660 543633 -5179 0
0 0 0 624 544257 -4555 0
0 0 0 602 544859 -3953 0
0 0 0 603 545462 -3350 0
0 0 0 622 546084 -2728 0
0 0 0 668 546752 -2060 0
32 1 S102 723 547475 -1337 0
32 1 S102 714 548189 -623 0
32 2 S102 696 548885 73 0
32 2 S102 696 549581 769 0
32 2 S102 691 550272 1460 0
32 2 S102 683 550955 2143 0
32 2 S102 655 551610 2798 0
32 2 S102 628 552238 3426 0
32 2 S102 632 552870 4058 0
32 2 S102 640 553510 4698 0
32 2 S102 668 554178 5366 0
32 2 S102 725 554903 6091 0
32 2 S102 745 555648 6836 0
0 0 0 698 556346 -9575 0
0 0 0 718 557064 -8857 0
0 0 0 693 557757 -8164 0
0 0 0 676 558433 -7488 0
0 0 0 656 559089 -6832 0
0 0 0 625 559714 -6207 0
0 0 0 615 560329 -5592 0
0 0 0 620 560949 -4972 0
0 0 0 660 561609 -4312 0
0 0 0 750 562359 -3562 0
0 0 0 778 563137 -2784 0
0 0 0 739 563876 -2045 0
33 1 S112 744 564620 -1301 0
33 1 S112 734 565354 -567 0
33 2 S112 724 566078 157 0
33 2 S112 704 566782 861 0
33 2 S112 662 567444 1523 0
33 2 S112 654 568098 2177 0
33 2 S112 663 568761 2840 0
33 2 S112 680 569441 3520 0
33 2 S112 711 570152 4231 0
33 2 S112 743 570895 4974 0
33 2 S112 716 571611 5690 0
33 2 S112 704 572315 6394 0
0 0 0 702 573017 -12599 0
0 0 0 707 573724 -11892 0
0 0 0 691 574415 -11201 0
0 0 0 663 575078 -10538 0
0 0 0 639 575717 -9899 0
0 0 0 659 576376 -9240 0
0 0 0 662 577038 -8578 0
0 0 0 698 577736 -7880 0
0 0 0 723 578459 -7157 0
0 0 0 685 579144 -6472 0
0 0 0 712 579856 -5760 0
0 0 0 727 580583 -5033 0
0 0 0 731 581314 -4302 0
0 0 0 718 582032 -3584 0
0 0 0 671 582703 -2913 0
0 0 0 650 583353 -2263 0
34 1 S106 658 584011 -1605 0
34 1 S106 663 584674 -942 0
34 1 S106 680 585354 -262 0
34 2 S106 701 586055 439 0
34 2 S106 671 586726 1110 0
34 2 S106 682 587408 1792 0
34 2 S106 719 588127 2511 0
34 2 S106 752 588879 3263 0
34 2 S106 763 589642 4026 0
34 2 S106 728 590370 4754 0
34 2 S106 674 591044 5428 0
34 2 S106 666 591710 6094 0
34 2 S106 661 592371 6755 0
0 0 0 666 593037 -10682 0
0 0 0 675 593712 -10007 0
0 0 0 658 594370 -9349 0
0 0 0 651 595021 -8698 0
0 0 0 693 595714 -8005 0
0 0 0 705 596419 -7300 0
0 0 0 725 597144 -6575 0
0 0 0 689 597833 -5886 0
0 0 0 623 598456 -5263 0
0 0 0 598 599054 -4665 0
0 0 0 582 599636 -4083 0
0 0 0 581 600217 -3502 0
0 0 0 584 600801 -2918 0
0 0 0 597 601398 -2321 0
35 1 S102 615 602013 -1706 0
35 1 S102 642 602655 -1064 0
35 1 S102 649 603304 -415 0
35 2 S102 644 603948 229 0
35 2 S102 623 604571 852 0
35 2 S102 610 605181 1462 0
35 2 S102 590 605771 2052 0
35 2 S102 581 606352 2633 0
35 2 S102 583 606935 3216 0
35 2 S102 598 607533 3814 0
35 2 S102 634 608167 4448 0
35 2 S102 681 608848 5129 0
35 2 S102 707 609555 5836 0
35 2 S102 730 610285 6566 0
0 0 0 696 610981 -5819 0
0 0 0 704 611685 -5115 0
0 0 0 688 612373 -4427 0
0 0 0 673 613046 -3754 0
0 0 0 663 613709 -3091 0
0 0 0 645 614354 -2446 0
36 1 S106 624 614978 -1822 0
36 1 S106 635 615613 -1187 0
36 1 S106 641 616254 -546 0
36 2 S106 673 616927 127 0
36 2 S106 703 617630 830 0
36 2 S106 729 618359 1559 0
36 2 S106 712 619071 2271 0
36 2 S106 693 619764 2964 0
36 2 S106 679 620443 3643 0
36 2 S106 665 621108 4308 0
36 2 S106 654 621762 4962 0
36 2 S106 646 622408 5608 0
36 2 S106 631 623039 6239 0
36 2 S106 664 623703 6903 0
0 0 0 690 624393 -9283 0
0 0 0 713 625106 -8570 0
0 0 0 727 625833 -7843 0
0 0 0 709 626542 -7134 0
0 0 0 726 627268 -6408 0
0 0 0 709 627977 -5699 0
0 0 0 701 628678 -4998 0
0 0 0 650 629328 -4348 0
0 0 0 644 629972 -3704 0
0 0 0 637 630609 -3067 0
0 0 0 642 631251 -2425 0
37 1 S116 657 631908 -1768 0
37 1 S116 685 632593 -1083 0
37 1 S116 688 633281 -395 0
37 2 S116 719 634000 324 0
37 2 S116 751 634751 1075 0
37 2 S116 759 635510 1834 0
37 2 S116 743 636253 2577 0
37 2 S116 692 636945 3269 0
37 2 S116 672 637617 3941 0
37 2 S116 669 638286 4610 0
37 2 S116 652 638938 5262 0
37 2 S116 666 639604 5928 0
37 2 S116 684 640288 6612 0
0 0 0 644 640932 -11196 0
0 0 0 639 641571 -10557 0
0 0 0 651 642222 -9906 0
0 0 0 665 642887 -9241 0
0 0 0 696 643583 -8545 0
0 0 0 689 644272 -7856 0
0 0 0 669 644941 -7187 0
0 0 0 674 645615 -6513 0
0 0 0 655 646270 -5858 0
0 0 0 629 646899 -5229 0
0 0 0 587 647486 -4642 0
0 0 0 583 648069 -4059 0
0 0 0 593 648662 -3466 0
0 0 0 620 649282 -2846 0
0 0 0 670 649952 -2176 0
38 1 S102 703 650655 -1473 0
38 1 S102 659 651314 -814 0
38 1 S102 648 651962 -166 0
38 2 S102 662 652624 496 0
38 2 S102 660 653284 1156 0
38 2 S102 667 653951 1823 0
38 2 S102 673 654624 2496 0
38 2 S102 647 655271 3143 0
38 2 S102 641 655912 3784 0
38 2 S102 668 656580 4452 0
38 2 S102 686 657266 5138 0
38 2 S102 730 657996 5868 0
38 2 S102 723 658719 6591 0
0 0 0 673 659392 -10575 0
0 0 0 662 660054 -9913 0
0 0 0 658 660712 -9255 0
0 0 0 661 661373 -8594 0
0 0 0 651 662024 -7943 0
0 0 0 628 662652 -7315 0
0 0 0 645 663297 -6670 0
0 0 0 660 663957 -6010 0
0 0 0 688 664645 -5322 0
0 0 0 670 665315 -4652 0
0 0 0 672 665987 -3980 0
0 0 0 690 666677 -3290 0
0 0 0 706 667383 -2584 0
39 1 S116 722 668105 -1862 0
39 1 S116 674 668779 -1188 0
39 1 S116 645 669424 -543 0
39 2 S116 649 670073 106 0
39 2 S116 641 670714 747 0
39 2 S116 643 671357 1390 0
39 2 S116 647 672004 2037 0
39 2 S116 633 672637 2670 0
39 2 S116 626 673263 3296 0
39 2 S116 655 673918 3951 0
39 2 S116 705 674623 4656 0
39 2 S116 770 675393 5426 0
39 2 S116 753 676146 6179 0
39 2 S116 710 676856 6889 0
0 0 0 689 677545 -8138 0
0 0 0 695 678240 -7443 0
0 0 0 677 678917 -6766 0
0 0 0 655 679572 -6111 0
0 0 0 633 680205 -5478 0
0 0 0 651 680856 -4827 0
0 0 0 652 681508 -4175 0
0 0 0 671 682179 -3504 0
0 0 0 673 682852 -2831 0
0 0 0 694 683546 -2137 0
40 1 S112 717 684263 -1420 0
40 1 S112 737 685000 -683 0
40 2 S112 732 685732 49 0
40 2 S112 717 686449 766 0
40 2 S112 666 687115 1432 0
40 2 S112 652 687767 2084 0
40 2 S112 644 688411 2728 0
40 2 S112 631 689042 3359 0
40 2 S112 641 689683 4000 0
40 2 S112 649 690332 4649 0
40 2 S112 640 690972 5289 0
40 2 S112 649 691621 5938 0
40 2 S112 677 692298 6615 0
0 0 0 700 692998 -187133 0
0 0 0 744 693742 -186389 0
0 0 0 731 694473 -185658 0
0 0 0 656 695129 -185002 0
0 0 0 639 695768 -184363 0
0 0 0 626 696394 -183737 0
0 0 0 616 697010 -183121 0
0 0 0 630 697640 -182491 0
0 0 0 598 698238 -181893 0
0 0 0 595 698833 -181298 0
0 0 0 572 699405 -180726 0
0 0 0 561 699966 -180165 0
0 0 0 577 700543 -179588 0
0 0 0 583 701126 -179005 0
0 0 0 1830 702956 -177175 1
0 0 0 613 703569 -176562 0
0 0 0 616 704185 -175946 0
0 0 0 622 704807 -175324 0
0 0 0 610 705417 -174714 0
0 0 0 585 706002 -174129 0
0 0 0 592 706594 -173537 0
0 0 0 582 707176 -172955 0
0 0 0 568 707744 -172387 0
0 0 0 554 708298 -171833 0
0 0 0 546 708844 -171287 1
0 0 0 538 709382 -170749 1
0 0 0 528 709910 -170221 1
0 0 0 519 710429 -169702 1
0 0 0 509 710938 -169193 1
0 0 0 500 711438 -168693 1
0 0 0 501 711939 -168192 1
0 0 0 502 712441 -167690 1
0 0 0 994 713435 -166696 1
0 0 0 516 713951 -166180 1
0 0 0 551 714502 -165629 0
0 0 0 597 715099 -165032 0
0 0 0 624 715723 -164408 0
0 0 0 631 716354 -163777 0
0 0 0 643 716997 -163134 0
0 0 0 634 717631 -162500 0
0 0 0 628 718259 -161872 0
0 0 0 623 718882 -161249 0
0 0 0 619 719501 -160630 0
0 0 0 631 720132 -159999 0
0 0 0 631 720763 -159368 0
0 0 0 640 721403 -158728 0
0 0 0 684 722087 -158044 0
0 0 0 722 722809 -157322 0
0 0 0 735 723544 -156587 0
0 0 0 727 724271 -155860 0
0 0 0 706 724977 -155154 0
0 0 0 697 725674 -154457 0
0 0 0 687 726361 -153770 0
0 0 0 672 727033 -153098 0
0 0 0 678 727711 -152420 0
0 0 0 693 728404 -151727 0
0 0 0 705 729109 -151022 0
0 0 0 698 729807 -150324 0
0 0 0 729 730536 -149595 0
0 0 0 742 731278 -148853 0
0 0 0 732 732010 -148121 0
0 0 0 724 732734 -147397 0
0 0 0 717 733451 -146680 0
0 0 0 726 734177 -145954 0
0 0 0 734 734911 -145220 0
0 0 0 718 735629 -144502 0
0 0 0 678 736307 -143824 0
0 0 0 669 736976 -143155 0
0 0 0 680 737656 -142475 0
0 0 0 712 738368 -141763 0
0 0 0 768 739136 -140995 0
0 0 0 794 739930 -140201 0
0 0 0 765 740695 -139436 0
0 0 0 724 741419 -138712 0
0 0 0 719 742138 -137993 0
0 0 0 710 742848 -137283 0
0 0 0 702 743550 -136581 0
0 0 0 701 744251 -135880 0
0 0 0 658 744909 -135222 0
0 0 0 626 745535 -134596 0
0 0 0 637 746172 -133959 0
0 0 0 638 746810 -133321 0
0 0 0 629 747439 -132692 0
0 0 0 677 748116 -132015 0
0 0 0 746 748862 -131269 0
0 0 0 747 749609 -130522 0
0 0 0 729 750338 -129793 0
0 0 0 677 751015 -129116 0
0 0 0 634 751649 -128482 0
0 0 0 623 752272 -127859 0
0 0 0 612 752884 -127247 0
0 0 0 608 753492 -126639 0
0 0 0 604 754096 -126035 0
0 0 0 615 754711 -125420 0
0 0 0 582 755293 -124838 0
0 0 0 582 755875 -124256 0
0 0 0 616 756491 -123640 0
0 0 0 658 757149 -122982 0
0 0 0 698 757847 -122284 0
0 0 0 732 758579 -121552 0
0 0 0 708 759287 -120844 0
0 0 0 667 759954 -120177 0
0 0 0 663 760617 -119514 0
0 0 0 672 761289 -118842 0
0 0 0 657 761946 -118185 0
0 0 0 656 762602 -117529 0
0 0 0 653 763255 -116876 0
0 0 0 626 763881 -116250 0
0 0 0 636 764517 -115614 0
0 0 0 658 765175 -114956 0
0 0 0 702 765877 -114254 0
0 0 0 746 766623 -113508 0
0 0 0 747 767370 -112761 0
0 0 0 704 768074 -112057 0
0 0 0 721 768795 -111336 0
0 0 0 697 769492 -110639 0
0 0 0 669 770161 -109970 0
0 0 0 633 770794 -109337 0
0 0 0 630 771424 -108707 0
0 0 0 633 772057 -108074 0
0 0 0 649 772706 -107425 0
0 0 0 661 773367 -106764 0
0 0 0 640 774007 -106124 0
0 0 0 621 774628 -105503 0
0 0 0 656 775284 -104847 0
0 0 0 673 775957 -104174 0
0 0 0 670 776627 -103504 0
0 0 0 673 777300 -102831 0
0 0 0 694 777994 -102137 0
0 0 0 697 778691 -101440 0
0 0 0 676 779367 -100764 0
0 0 0 641 780008 -100123 0
0 0 0 605 780613 -99518 0
0 0 0 601 781214 -98917 0
0 0 0 585 781799 -98332 0
0 0 0 577 782376 -97755 0
0 0 0 580 782956 -97175 0
0 0 0 583 783539 -96592 0
0 0 0 557 784096 -96035 0
0 0 0 562 784658 -95473 0
0 0 0 599 785257 -94874 0
0 0 0 646 785903 -94228 0
0 0 0 723 786626 -93505 0
0 0 0 767 787393 -92738 0
0 0 0 711 788104 -92027 0
0 0 0 667 788771 -91360 0
0 0 0 668 789439 -90692 0
0 0 0 662 790101 -90030 0
0 0 0 670 790771 -89360 0
0 0 0 684 791455 -88676 0
0 0 0 702 792157 -87974 0
0 0 0 697 792854 -87277 0
0 0 0 642 793496 -86635 0
0 0 0 631 794127 -86004 0
0 0 0 620 794747 -85384 0
0 0 0 635 795382 -84749 0
0 0 0 693 796075 -84056 0
0 0 0 691 796766 -83365 0
0 0 0 676 797442 -82689 0
0 0 0 661 798103 -82028 0
0 0 0 642 798745 -81386 0
0 0 0 618 799363 -80768 0
0 0 0 617 799980 -80151 0
0 0 0 622 800602 -79529 0
0 0 0 648 801250 -78881 0
0 0 0 691 801941 -78190 0
0 0 0 738 802679 -77452 0
0 0 0 749 803428 -76703 0
0 0 0 736 804164 -75967 0
0 0 0 686 804850 -75281 0
0 0 0 664 805514 -74617 0
0 0 0 663 806177 -73954 0
0 0 0 662 806839 -73292 0
0 0 0 673 807512 -72619 0
0 0 0 683 808195 -71936 0
0 0 0 695 808890 -71241 0
0 0 0 667 809557 -70574 0
0 0 0 639 810196 -69935 0
0 0 0 641 810837 -69294 0
0 0 0 655 811492 -68639 0
0 0 0 699 812191 -67940 0
0 0 0 771 812962 -67169 0
0 0 0 785 813747 -66384 0
0 0 0 745 814492 -65639 0
0 0 0 729 815221 -64910 0
0 0 0 735 815956 -64175 0
0 0 0 730 816686 -63445 0
0 0 0 723 817409 -62722 0
0 0 0 701 818110 -62021 0
0 0 0 689 818799 -61332 0
0 0 0 688 819487 -60644 0
0 0 0 677 820164 -59967 0
0 0 0 668 820832 -59299 0
0 0 0 686 821518 -58613 0
0 0 0 708 822226 -57905 0
0 0 0 731 822957 -57174 0
0 0 0 760 823717 -56414 0
0 0 0 753 824470 -55661 0
0 0 0 694 825164 -54967 0
0 0 0 678 825842 -54289 0
0 0 0 666 826508 -53623 0
0 0 0 649 827157 -52974 0
0 0 0 612 827769 -52362 0
0 0 0 609 828378 -51753 0
0 0 0 657 829035 -51096 0
0 0 0 714 829749 -50382 0
0 0 0 707 830456 -49675 0
0 0 0 719 831175 -48956 0
0 0 0 726 831901 -48230 0
0 0 0 712 832613 -47518 0
0 0 0 724 833337 -46794 0
0 0 0 705 834042 -46089 0
0 0 0 662 834704 -45427 0
0 0 0 645 835349 -44782 0
0 0 0 651 836000 -44131 0
0 0 0 657 836657 -43474 0
0 0 0 692 837349 -42782 0
0 0 0 733 838082 -42049 0
0 0 0 713 838795 -41336 0
0 0 0 692 839487 -40644 0
0 0 0 726 840213 -39918 0
0 0 0 736 840949 -39182 0
0 0 0 730 841679 -38452 0
0 0 0 706 842385 -37746 0
0 0 0 664 843049 -37082 0
0 0 0 651 843700 -36431 0
0 0 0 649 844349 -35782 0
0 0 0 663 845012 -35119 0
0 0 0 673 845685 -34446 0
0 0 0 676 846361 -33770 0
0 0 0 659 847020 -33111 0
0 0 0 699 847719 -32412 0
0 0 0 727 848446 -31685 0
0 0 0 748 849194 -30937 0
0 0 0 771 849965 -30166 0
0 0 0 729 850694 -29437 0
0 0 0 687 851381 -28750 0
0 0 0 685 852066 -28065 0
0 0 0 670 852736 -27395 0
0 0 0 671 853407 -26724 0
0 0 0 665 854072 -26059 0
0 0 0 646 854718 -25413 0
0 0 0 661 855379 -24752 0
0 0 0 692 856071 -24060 0
0 0 0 728 856799 -23332 0
0 0 0 749 857548 -22583 0
0 0 0 735 858283 -21848 0
0 0 0 697 858980 -21151 0
0 0 0 701 859681 -20450 0
0 0 0 698 860379 -19752 0
0 0 0 689 861068 -19063 0
0 0 0 672 861740 -18391 0
0 0 0 641 862381 -17750 0
0 0 0 627 863008 -17123 0
0 0 0 643 863651 -16480 0
0 0 0 672 864323 -15808 0
0 0 0 734 865057 -15074 0
0 0 0 766 865823 -14308 0
0 0 0 743 866566 -13565 0
0 0 0 723 867289 -12842 0
0 0 0 741 868030 -12101 0
0 0 0 754 868784 -11347 0
0 0 0 741 869525 -10606 0
0 0 0 708 870233 -9898 0
0 0 0 662 870895 -9236 0
0 0 0 663 871558 -8573 0
0 0 0 664 872222 -7909 0
0 0 0 678 872900 -7231 0
0 0 0 710 873610 -6521 0
0 0 0 749 874359 -5772 0
0 0 0 718 875077 -5054 0
0 0 0 729 875806 -4325 0
0 0 0 718 876524 -3607 0
0 0 0 701 877225 -2906 0
0 0 0 679 877904 -2227 0
41 1 S102 647 878551 -1580 0
41 1 S102 643 879194 -937 0
41 1 S102 658 879852 -279 0
41 2 S102 704 880556 425 0
41 2 S102 734 881290 1159 0
41 2 S102 756 882046 1915 0
41 2 S102 730 882776 2645 0
41 2 S102 693 883469 3338 0
41 2 S102 687 884156 4025 0
41 2 S102 680 884836 4705 0
41 2 S102 672 885508 5377 0
41 2 S102 672 886180 6049 0
41 2 S102 666 886846 6715 0
0 0 0 645 887491 -7577 0
0 0 0 638 888129 -6939 0
0 0 0 661 888790 -6278 0
0 0 0 685 889475 -5593 0
0 0 0 742 890217 -4851 0
0 0 0 759 890976 -4092 0
0 0 0 722 891698 -3370 0
0 0 0 694 892392 -2676 0
42 1 S112 711 893103 -1965 0
42 1 S112 702 893805 -1263 0
42 1 S112 707 894512 -556 0
42 2 S112 699 895211 143 0
42 2 S112 663 895874 806 0
42 2 S112 653 896527 1459 0
42 2 S112 662 897189 2121 0
42 2 S112 666 897855 2787 0
42 2 S112 699 898554 3486 0
42 2 S112 710 899264 4196 0
42 2 S112 668 899932 4864 0
42 2 S112 657 900589 5521 0
42 2 S112 666 901255 6187 0
42 2 S112 677 901932 6864 0
0 0 0 703 902635 -9078 0
0 0 0 741 903376 -8337 0
0 0 0 709 904085 -7628 0
0 0 0 690 904775 -6938 0
0 0 0 701 905476 -6237 0
0 0 0 689 906165 -5548 0
0 0 0 684 906849 -4864 0
0 0 0 653 907502 -4211 0
0 0 0 652 908154 -3559 0
0 0 0 669 908823 -2890 0
0 0 0 691 909514 -2199 0
43 1 S116 714 910228 -1485 0
43 1 S116 705 910933 -780 0
43 1 S116 667 911600 -113 0
43 2 S116 652 912252 539 0
43 2 S116 653 912905 1192 0
43 2 S116 671 913576 1863 0
43 2 S116 701 914277 2564 0
43 2 S116 716 914993 3280 0
43 2 S116 668 915661 3948 0
43 2 S116 676 916337 4624 0
43 2 S116 693 917030 5317 0
43 2 S116 714 917744 6031 0
43 2 S116 731 918475 6762 0
0 0 0 749 919224 -7426 0
0 0 0 706 919930 -6720 0
0 0 0 694 920624 -6026 0
0 0 0 682 921306 -5344 0
0 0 0 662 921968 -4682 0
0 0 0 653 922621 -4029 0
0 0 0 637 923258 -3392 0
0 0 0 644 923902 -2748 0
0 0 0 701 924603 -2047 0
44 1 S102 751 925354 -1296 0
44 1 S102 802 926156 -494 0
44 2 S102 771 926927 277 0
44 2 S102 741 927668 1018 0
44 2 S102 746 928414 1764 0
44 2 S102 714 929128 2478 0
44 2 S102 699 929827 3177 0
44 2 S102 682 930509 3859 0
44 2 S102 642 931151 4501 0
44 2 S102 629 931780 5130 0
44 2 S102 636 932416 5766 0
44 2 S102 670 933086 6436 0
0 0 0 750 933836 -8248 0
0 0 0 805 934641 -7443 0
0 0 0 758 935399 -6685 0
0 0 0 755 936154 -5930 0
0 0 0 748 936902 -5182 0
0 0 0 735 937637 -4447 0
0 0 0 708 938345 -3739 0
0 0 0 665 939010 -3074 0
0 0 0 637 939647 -2437 0
45 1 S116 649 940296 -1788 0
45 1 S116 669 940965 -1119 0
45 1 S116 717 941682 -402 0
45 2 S116 794 942476 392 0
45 2 S116 786 943262 1178 0
45 2 S116 767 944029 1945 0
45 2 S116 790 944819 2735 0
45 2 S116 778 945597 3513 0
45 2 S116 773 946370 4286 0
45 2 S116 715 947085 5001 0
45 2 S116 683 947768 5684 0
45 2 S116 683 948451 6367 0
0 0 0 690 949141 -12174 0
0 0 0 703 949844 -11471 0
0 0 0 693 950537 -10778 0
0 0 0 657 951194 -10121 0
0 0 0 685 951879 -9436 0
0 0 0 686 952565 -8750 0
0 0 0 692 953257 -8058 0
0 0 0 680 953937 -7378 0
0 0 0 663 954600 -6715 0
0 0 0 689 955289 -6026 0
0 0 0 701 955990 -5325 0
0 0 0 708 956698 -4617 0
0 0 0 689 957387 -3928 0
0 0 0 650 958037 -3278 0
0 0 0 656 958693 -2622 0
46 1 S102 657 959350 -1965 0
46 1 S102 671 960021 -1294 0
46 1 S102 698 960719 -596 0
46 2 S102 701 961420 105 0
46 2 S102 717 962137 822 0
46 2 S102 749 962886 1571 0
46 2 S102 760 963646 2331 0
46 2 S102 761 964407 3092 0
46 2 S102 714 965121 3806 0
46 2 S102 664 965785 4470 0
46 2 S102 653 966438 5123 0
46 2 S102 645 967083 5768 0
46 2 S102 656 967739 6424 0
0 0 0 690 968429 -10559 0
0 0 0 714 969143 -9845 0
0 0 0 694 969837 -9151 0
0 0 0 739 970576 -8412 0
0 0 0 748 971324 -7664 0
0 0 0 769 972093 -6895 0
0 0 0 707 972800 -6188 0
0 0 0 663 973463 -5525 0
0 0 0 645 974108 -4880 0
0 0 0 624 974732 -4256 0
0 0 0 589 975321 -3667 0
0 0 0 576 975897 -3091 0
0 0 0 595 976492 -2496 0
47 1 S112 633 977125 -1863 0
47 1 S112 693 977818 -1170 0
47 1 S112 737 978555 -433 0
47 2 S112 720 979275 287 0
47 2 S112 669 979944 956 0
47 2 S112 680 980624 1636 0
47 2 S112 723 981347 2359 0
47 2 S112 748 982095 3107 0
47 2 S112 756 982851 3863 0
47 2 S112 745 983596 4608 0
47 2 S112 691 984287 5299 0
47 2 S112 693 984980 5992 0
47 2 S112 682 985662 6674 0
0 0 0 691 986353 -13209 0
0 0 0 729 987082 -12480 0
0 0 0 733 987815 -11747 0
0 0 0 699 988514 -11048 0
0 0 0 730 989244 -10318 0
0 0 0 757 990001 -9561 0
0 0 0 783 990784 -8778 0
0 0 0 730 991514 -8048 0
0 0 0 677 992191 -7371 0
0 0 0 690 992881 -6681 0
0 0 0 687 993568 -5994 0
0 0 0 692 994260 -5302 0
0 0 0 688 994948 -4614 0
0 0 0 647 995595 -3967 0
0 0 0 663 996258 -3304 0
0 0 0 691 996949 -2613 0
48 1 S116 770 997719 -1843 0
48 1 S116 812 998531 -1031 0
48 1 S116 772 999303 -259 0
48 2 S116 745 1000048 486 0
48 2 S116 728 1000776 1214 0
48 2 S116 730 1001506 1944 0
48 2 S116 706 1002212 2650 0
48 2 S116 683 1002895 3333 0
48 2 S116 668 1003563 4001 0
48 2 S116 699 1004262 4700 0
48 2 S116 733 1004995 5433 0
48 2 S116 749 1005744 6182 0
48 2 S116 762 1006506 6944 0
0 0 0 727 1007233 -8095 0
0 0 0 684 1007917 -7411 0
0 0 0 689 1008606 -6722 0
0 0 0 666 1009272 -6056 0
0 0 0 674 1009946 -5382 0
0 0 0 670 1010616 -4712 0
0 0 0 637 1011253 -4075 0
0 0 0 657 1011910 -3418 0
0 0 0 694 1012604 -2724 0
49 1 S112 751 1013355 -1973 0
49 1 S112 792 1014147 -1181 0
49 1 S112 775 1014922 -406 0
49 2 S112 732 1015654 326 0
49 2 S112 730 1016384 1056 0
49 2 S112 722 1017106 1778 0
49 2 S112 702 1017808 2480 0
49 2 S112 688 1018496 3168 0
49 2 S112 682 1019178 3850 0
49 2 S112 664 1019842 4514 0
49 2 S112 683 1020525 5197 0
49 2 S112 693 1021218 5890 0
49 2 S112 710 1021928 6600 0
0 0 0 747 1022675 -11967 0
0 0 0 754 1023429 -11213 0
0 0 0 719 1024148 -10494 0
0 0 0 683 1024831 -9811 0
0 0 0 705 1025536 -9106 0
0 0 0 686 1026222 -8420 0
0 0 0 693 1026915 -7727 0
0 0 0 707 1027622 -7020 0
0 0 0 659 1028281 -6361 0
0 0 0 657 1028938 -5704 0
0 0 0 673 1029611 -5031 0
0 0 0 712 1030323 -4319 0
0 0 0 764 1031087 -3555 0
0 0 0 766 1031853 -2789 0
0 0 0 717 1032570 -2072 0
50 1 S106 719 1033289 -1353 0
50 1 S106 702 1033991 -651 0
50 2 S106 682 1034673 31 0
50 2 S106 667 1035340 698 0
50 2 S106 646 1035986 1344 0
50 2 S106 627 1036613 1971 0
50 2 S106 642 1037255 2613 0
50 2 S106 679 1037934 3292 0
50 2 S106 744 1038678 4036 0
50 2 S106 781 1039459 4817 0
50 2 S106 759 1040218 5576 0
50 2 S106 741 1040959 6317 0
0 0 0 746 1041705 -8968 0
0 0 0 731 1042436 -8237 0
0 0 0 714 1043150 -7523 0
0 0 0 698 1043848 -6825 0
0 0 0 652 1044500 -6173 0
0 0 0 674 1045174 -5499 0
0 0 0 675 1045849 -4824 0
0 0 0 701 1046550 -4123 0
0 0 0 746 1047296 -3377 0
0 0 0 731 1048027 -2646 0
51 1 S112 767 1048794 -1879 0
51 1 S112 765 1049559 -1114 0
51 1 S112 770 1050329 -344 0
51 2 S112 755 1051084 411 0
51 2 S112 711 1051795 1122 0
51 2 S112 643 1052438 1765 0
51 2 S112 626 1053064 2391 0
51 2 S112 621 1053685 3012 0
51 2 S112 653 1054338 3665 0
51 2 S112 747 1055085 4412 0
51 2 S112 820 1055905 5232 0
51 2 S112 808 1056713 6040 0
51 2 S112 778 1057491 6818 0
0 0 0 732 1058223 -6359 0
0 0 0 715 1058938 -5644 0
0 0 0 696 1059634 -4948 0
0 0 0 672 1060306 -4276 0
0 0 0 652 1060958 -3624 0
0 0 0 636 1061594 -2988 0
0 0 0 647 1062241 -2341 0
52 1 S116 684 1062925 -1657 0
52 1 S116 758 1063683 -899 0
52 1 S116 807 1064490 -92 0
52 2 S116 804 1065294 712 0
52 2 S116 768 1066062 1480 0
52 2 S116 775 1066837 2255 0
52 2 S116 747 1067584 3002 0
52 2 S116 741 1068325 3743 0
52 2 S116 719 1069044 4462 0
52 2 S116 666 1069710 5128 0
52 2 S116 658 1070368 5786 0
52 2 S116 671 1071039 6457 0
0 0 0 714 1071753 -9872 0
0 0 0 759 1072512 -9113 0
0 0 0 786 1073298 -8327 0
0 0 0 763 1074061 -7564 0
0 0 0 763 1074824 -6801 0
0 0 0 744 1075568 -6057 0
0 0 0 734 1076302 -5323 0
0 0 0 710 1077012 -4613 0
0 0 0 672 1077684 -3941 0
0 0 0 679 1078363 -3262 0
0 0 0 671 1079034 -2591 0
53 1 S106 686 1079720 -1905 0
53 1 S106 703 1080423 -1202 0
53 1 S106 675 1081098 -527 0
53 2 S106 657 1081755 130 0
53 2 S106 697 1082452 827 0
53 2 S106 739 1083191 1566 0
53 2 S106 787 1083978 2353 0
53 2 S106 793 1084771 3146 0
53 2 S106 749 1085520 3895 0
53 2 S106 698 1086218 4593 0
53 2 S106 692 1086910 5285 0
53 2 S106 675 1087585 5960 0
53 2 S106 667 1088252 6627 0
0 0 0 667 1088919 -7742 0
0 0 0 651 1089570 -7091 0
0 0 0 636 1090206 -6455 0
0 0 0 677 1090883 -5778 0
0 0 0 676 1091559 -5102 0
0 0 0 713 1092272 -4389 0
0 0 0 723 1092995 -3666 0
0 0 0 715 1093710 -2951 0
0 0 0 727 1094437 -2224 0
54 1 S102 723 1095160 -1501 0
54 1 S102 704 1095864 -797 0
54 1 S102 670 1096534 -127 0
54 2 S102 630 1097164 503 0
54 2 S102 628 1097792 1131 0
54 2 S102 601 1098393 1732 0
54 2 S102 579 1098972 2311 0
54 2 S102 582 1099554 2893 0
54 2 S102 637 1100191 3530 0
54 2 S102 677 1100868 4207 0
54 2 S102 733 1101601 4940 0
54 2 S102 761 1102362 5701 0
54 2 S102 794 1103156 6495 0
0 0 0 799 1103955 -9683 0
0 0 0 770 1104725 -8913 0
0 0 0 692 1105417 -8221 0
0 0 0 664 1106081 -7557 0
0 0 0 656 1106737 -6901 0
0 0 0 658 1107395 -6243 0
0 0 0 673 1108068 -5570 0
0 0 0 689 1108757 -4881 0
0 0 0 670 1109427 -4211 0
0 0 0 697 1110124 -3514 0
0 0 0 733 1110857 -2781 0
0 0 0 779 1111636 -2002 0
55 1 S106 785 1112421 -1217 0
55 1 S106 752 1113173 -465 0
55 2 S106 690 1113863 225 0
55 2 S106 675 1114538 900 0
55 2 S106 675 1115213 1575 0
55 2 S106 697 1115910 2272 0
55 2 S106 724 1116634 2996 0
55 2 S106 757 1117391 3753 0
55 2 S106 717 1118108 4470 0
55 2 S106 693 1118801 5163 0
55 2 S106 701 1119502 5864 0
55 2 S106 710 1120212 6574 0
0 0 0 721 1120933 -7161 0
0 0 0 728 1121661 -6433 0
0 0 0 687 1122348 -5746 0
0 0 0 702 1123050 -5044 0
0 0 0 688 1123738 -4356 0
0 0 0 702 1124440 -3654 0
0 0 0 709 1125149 -2945 0
0 0 0 674 1125823 -2271 0
56 1 S116 689 1126512 -1582 0
56 1 S116 693 1127205 -889 0
56 1 S116 703 1127908 -186 0
56 2 S116 708 1128616 522 0
56 2 S116 690 1129306 1212 0
56 2 S116 645 1129951 1857 0
56 2 S116 656 1130607 2513 0
56 2 S116 670 1131277 3183 0
56 2 S116 717 1131994 3900 0
56 2 S116 749 1132743 4649 0
56 2 S116 723 1133466 5372 0
56 2 S116 680 1134146 6052 0
56 2 S116 708 1134854 6760 0
0 0 0 692 1135546 -6325 0
0 0 0 704 1136250 -5621 0
0 0 0 687 1136937 -4934 0
0 0 0 647 1137584 -4287 0
0 0 0 633 1138217 -3654 0
0 0 0 643 1138860 -3011 0
0 0 0 677 1139537 -2334 0
57 1 S106 735 1140272 -1599 0
57 1 S106 758 1141030 -841 0
57 1 S106 699 1141729 -142 0
57 2 S106 703 1142432 561 0
57 2 S106 724 1143156 1285 0
57 2 S106 722 1143878 2007 0
57 2 S106 720 1144598 2727 0
57 2 S106 688 1145286 3415 0
57 2 S106 655 1145941 4070 0
57 2 S106 659 1146600 4729 0
57 2 S106 648 1147248 5377 0
57 2 S106 654 1147902 6031 0
57 2 S106 659 1148561 6690 0
0 0 0 639 1149200 -8287 0
0 0 0 651 1149851 -7636 0
0 0 0 682 1150533 -6954 0
0 0 0 703 1151236 -6251 0
0 0 0 731 1151967 -5520 0
0 0 0 702 1152669 -4818 0
0 0 0 691 1153360 -4127 0
0 0 0 693 1154053 -3434 0
0 0 0 687 1154740 -2747 0
0 0 0 682 1155422 -2065 0
58 1 S102 652 1156074 -1413 0
58 1 S102 642 1156716 -771 0
58 1 S102 647 1157363 -124 0
58 2 S102 661 1158024 537 0
58 2 S102 680 1158704 1217 0
58 2 S102 719 1159423 1936 0
58 2 S102 739 1160162 2675 0
58 2 S102 694 1160856 3369 0
58 2 S102 696 1161552 4065 0
58 2 S102 697 1162249 4762 0
58 2 S102 689 1162938 5451 0
58 2 S102 685 1163623 6136 0
58 2 S102 672 1164295 6808 0
0 0 0 647 1164942 -6687 0
0 0 0 640 1165582 -6047 0
0 0 0 667 1166249 -5380 0
0 0 0 709 1166958 -4671 0
0 0 0 746 1167704 -3925 0
0 0 0 715 1168419 -3210 0
0 0 0 641 1169060 -2569 0
59 1 S112 627 1169687 -1942 0
59 1 S112 613 1170300 -1329 0
59 1 S112 611 1170911 -718 0
59 1 S112 622 1171533 -96 0
59 2 S112 657 1172190 561 0
59 2 S112 682 1172872 1243 0
59 2 S112 680 1173552 1923 0
59 2 S112 675 1174227 2598 0
59 2 S112 663 1174890 3261 0
59 2 S112 648 1175538 3909 0
59 2 S112 622 1176160 4531 0
59 2 S112 600 1176760 5131 0
59 2 S112 599 1177359 5730 0
59 2 S112 607 1177966 6337 0
59 2 S112 613 1178579 6950 0
0 0 0 643 1179222 -7394 0
0 0 0 685 1179907 -6709 0
0 0 0 691 1180598 -6018 0
0 0 0 687 1181285 -5331 0
0 0 0 685 1181970 -4646 0
0 0 0 686 1182656 -3960 0
0 0 0 681 1183337 -3279 0
0 0 0 668 1184005 -2611 0
60 1 S102 655 1184660 -1956 0
60 1 S102 637 1185297 -1319 0
60 1 S102 655 1185952 -664 0
60 2 S102 673 1186625 9 0
60 2 S102 721 1187346 730 0
60 2 S102 750 1188096 1480 0
60 2 S102 749 1188845 2229 0
60 2 S102 706 1189551 2935 0
60 2 S102 708 1190259 3643 0
60 2 S102 688 1190947 4331 0
60 2 S102 686 1191633 5017 0
60 2 S102 684 1192317 5701 0
60 2 S102 685 1193002 6386 0
0 0 0 672 1193674 -11261 0
0 0 0 692 1194366 -10569 0
0 0 0 707 1195073 -9862 0
0 0 0 689 1195762 -9173 0
0 0 0 686 1196448 -8487 0
0 0 0 658 1197106 -7829 0
0 0 0 632 1197738 -7197 0
0 0 0 633 1198371 -6564 0
0 0 0 639 1199010 -5925 0
0 0 0 676 1199686 -5249 0
0 0 0 718 1200404 -4531 0
0 0 0 743 1201147 -3788 0
0 0 0 711 1201858 -3077 0
0 0 0 693 1202551 -2384 0
61 1 S106 695 1203246 -1689 0
61 1 S106 678 1203924 -1011 0
61 1 S106 664 1204588 -347 0
61 2 S106 650 1205238 303 0
61 2 S106 629 1205867 932 0
61 2 S106 629 1206496 1561 0
61 2 S106 639 1207135 2200 0
61 2 S106 669 1207804 2869 0
61 2 S106 740 1208544 3609 0
61 2 S106 751 1209295 4360 0
61 2 S106 687 1209982 5047 0
61 2 S106 672 1210654 5719 0
61 2 S106 684 1211338 6403 0
0 0 0 684 1212022 -7502 0
0 0 0 678 1212700 -6824 0
0 0 0 668 1213368 -6156 0
0 0 0 630 1213998 -5526 0
0 0 0 634 1214632 -4892 0
0 0 0 633 1215265 -4259 0
0 0 0 657 1215922 -3602 0
0 0 0 700 1216622 -2902 0
0 0 0 677 1217299 -2225 0
62 1 S112 693 1217992 -1532 0
62 1 S112 721 1218713 -811 0
62 1 S112 732 1219445 -79 0
62 2 S112 731 1220176 652 0
62 2 S112 687 1220863 1339 0
62 2 S112 666 1221529 2005 0
62 2 S112 665 1222194 2670 0
62 2 S112 668 1222862 3338 0
62 2 S112 685 1223547 4023 0
62 2 S112 708 1224255 4731 0
62 2 S112 722 1224977 5453 0
62 2 S112 686 1225663 6139 0
62 2 S112 676 1226339 6815 0
0 0 0 681 1227020 -12083 0
0 0 0 695 1227715 -11388 0
0 0 0 698 1228413 -10690 0
0 0 0 684 1229097 -10006 0
0 0 0 652 1229749 -9354 0
0 0 0 677 1230426 -8677 0
0 0 0 674 1231100 -8003 0
0 0 0 693 1231793 -7310 0
0 0 0 688 1232481 -6622 0
0 0 0 664 1233145 -5958 0
0 0 0 669 1233814 -5289 0
0 0 0 670 1234484 -4619 0
0 0 0 672 1235156 -3947 0
0 0 0 668 1235824 -3279 0
0 0 0 646 1236470 -2633 0
63 1 S102 646 1237116 -1987 0
63 1 S102 672 1237788 -1315 0
63 1 S102 699 1238487 -616 0
63 2 S102 706 1239193 90 0
63 2 S102 687 1239880 777 0
63 2 S102 659 1240539 1436 0
63 2 S102 666 1241205 2102 0
63 2 S102 672 1241877 2774 0
63 2 S102 676 1242553 3450 0
63 2 S102 675 1243228 4125 0
63 2 S102 676 1243904 4801 0
63 2 S102 644 1244548 5445 0
63 2 S102 640 1245188 6085 0
63 2 S102 643 1245831 6728 0
0 0 0 668 1246499 -9133 0
0 0 0 690 1247189 -8443 0
0 0 0 693 1247882 -7750 0
0 0 0 669 1248551 -7081 0
0 0 0 685 1249236 -6396 0
0 0 0 672 1249908 -5724 0
0 0 0 671 1250579 -5053 0
0 0 0 647 1251226 -4406 0
0 0 0 624 1251850 -3782 0
0 0 0 640 1252490 -3142 0
0 0 0 655 1253145 -2487 0
64 1 S112 679 1253824 -1808 0
64 1 S112 706 1254530 -1102 0
64 1 S112 702 1255232 -400 0
64 2 S112 671 1255903 271 0
64 2 S112 686 1256589 957 0
64 2 S112 676 1257265 1633 0
64 2 S112 675 1257940 2308 0
64 2 S112 684 1258624 2992 0
64 2 S112 667 1259291 3659 0
64 2 S112 641 1259932 4300 0
64 2 S112 666 1260598 4966 0
64 2 S112 686 1261284 5652 0
64 2 S112 695 1261979 6347 0
0 0 0 727 1262706 -6686 0
0 0 0 708 1263414 -5978 0
0 0 0 688 1264102 -5290 0
0 0 0 711 1264813 -4579 0
0 0 0 690 1265503 -3889 0
0 0 0 677 1266180 -3212 0
0 0 0 649 1266829 -2563 0
65 1 S106 630 1267459 -1933 0
65 1 S106 603 1268062 -1330 0
65 1 S106 593 1268655 -737 0
65 1 S106 604 1269259 -133 0
65 2 S106 624 1269883 491 0
65 2 S106 626 1270509 1117 0
65 2 S106 612 1271121 1729 0
65 2 S106 624 1271745 2353 0
65 2 S106 655 1272400 3008 0
65 2 S106 722 1273122 3730 0
65 2 S106 758 1273880 4488 0
65 2 S106 757 1274637 5245 0
65 2 S106 707 1275344 5952 0
65 2 S106 653 1275997 6605 0
0 0 0 647 1276644 -6276 0
0 0 0 624 1277268 -5652 0
0 0 0 622 1277890 -5030 0
0 0 0 628 1278518 -4402 0
0 0 0 632 1279150 -3770 0
0 0 0 628 1279778 -3142 0
0 0 0 662 1280440 -2480 0
66 1 S116 710 1281150 -1770 0
66 1 S116 762 1281912 -1008 0
66 1 S116 790 1282702 -218 0
66 2 S116 746 1283448 528 0
66 2 S116 738 1284186 1266 0
66 2 S116 753 1284939 2019 0
66 2 S116 737 1285676 2756 0
66 2 S116 726 1286402 3482 0
66 2 S116 697 1287099 4179 0
66 2 S116 664 1287763 4843 0
66 2 S116 658 1288421 5501 0
66 2 S116 656 1289077 6157 0
66 2 S116 672 1289749 6829 0
0 0 0 708 1290457 -11412 0
0 0 0 719 1291176 -10693 0
0 0 0 699 1291875 -9994 0
0 0 0 745 1292620 -9249 0
0 0 0 740 1293360 -8509 0
0 0 0 753 1294113 -7756 0
0 0 0 699 1294812 -7057 0
0 0 0 688 1295500 -6369 0
0 0 0 698 1296198 -5671 0
0 0 0 695 1296893 -4976 0
0 0 0 693 1297586 -4283 0
0 0 0 661 1298247 -3622 0
0 0 0 643 1298890 -2979 0
0 0 0 676 1299566 -2303 0
67 1 S102 718 1300284 -1585 0
67 1 S102 781 1301065 -804 0
67 1 S102 799 1301864 -5 0
67 2 S102 747 1302611 742 0
67 2 S102 767 1303378 1509 0
67 2 S102 756 1304134 2265 0
67 2 S102 757 1304891 3022 0
67 2 S102 710 1305601 3732 0
67 2 S102 671 1306272 4403 0
67 2 S102 672 1306944 5075 0
67 2 S102 679 1307623 5754 0
67 2 S102 701 1308324 6455 0
0 0 0 737 1309061 -7828 0
0 0 0 736 1309797 -7092 0
0 0 0 708 1310505 -6384 0
0 0 0 738 1311243 -5646 0
0 0 0 753 1311996 -4893 0
0 0 0 732 1312728 -4161 0
0 0 0 675 1313403 -3486 0
0 0 0 631 1314034 -2855 0
0 0 0 632 1314666 -2223 0
68 1 S106 652 1315318 -1571 0
68 1 S106 703 1316021 -868 0
68 1 S106 778 1316799 -90 0
68 2 S106 803 1317602 713 0
68 2 S106 765 1318367 1478 0
68 2 S106 742 1319109 2220 0
68 2 S106 737 1319846 2957 0
68 2 S106 707 1320553 3664 0
68 2 S106 697 1321250 4361 0
68 2 S106 669 1321919 5030 0
68 2 S106 635 1322554 5665 0
68 2 S106 632 1323186 6297 0
68 2 S106 646 1323832 6943 0
0 0 0 682 1324514 -9948 0
0 0 0 755 1325269 -9193 0
0 0 0 805 1326074 -8388 0
0 0 0 766 1326840 -7622 0
0 0 0 742 1327582 -6880 0
0 0 0 751 1328333 -6129 0
0 0 0 740 1329073 -5389 0
0 0 0 743 1329816 -4646 0
0 0 0 703 1330519 -3943 0
0 0 0 681 1331200 -3262 0
0 0 0 689 1331889 -2573 0
69 1 S102 692 1332581 -1881 0
69 1 S102 704 1333285 -1177 0
69 1 S102 722 1334007 -455 0
69 2 S102 703 1334710 248 0
69 2 S102 699 1335409 947 0
69 2 S102 727 1336136 1674 0
69 2 S102 742 1336878 2416 0
69 2 S102 752 1337630 3168 0
69 2 S102 732 1338362 3900 0
69 2 S102 695 1339057 4595 0
69 2 S102 663 1339720 5258 0
69 2 S102 667 1340387 5925 0
69 2 S102 680 1341067 6605 0
0 0 0 691 1341758 -7873 0
0 0 0 724 1342482 -7149 0
0 0 0 734 1343216 -6415 0
0 0 0 698 1343914 -5717 0
0 0 0 659 1344573 -5058 0
0 0 0 663 1345236 -4395 0
0 0 0 670 1345906 -3725 0
0 0 0 676 1346582 -3049 0
0 0 0 697 1347279 -2352 0
70 1 S112 698 1347977 -1654 0
70 1 S112 680 1348657 -974 0
70 1 S112 703 1349360 -271 0
70 2 S112 709 1350069 438 0
70 2 S112 721 1350790 1159 0
70 2 S112 719 1351509 1878 0
70 2 S112 687 1352196 2565 0
70 2 S112 671 1352867 3236 0
70 2 S112 707 1353574 3943 0
70 2 S112 728 1354302 4671 0
70 2 S112 763 1355065 5434 0
70 2 S112 796 1355861 6230 0
70 2 S112 746 1356607 6976 0
0 0 0 699 1357306 -11324 0
0 0 0 692 1357998 -10632 0
0 0 0 684 1358682 -9948 0
0 0 0 682 1359364 -9266 0
0 0 0 682 1360046 -8584 0
0 0 0 647 1360693 -7937 0
0 0 0 671 1361364 -7266 0
0 0 0 699 1362063 -6567 0
0 0 0 715 1362778 -5852 0
0 0 0 694 1363472 -5158 0
0 0 0 644 1364116 -4514 0
0 0 0 608 1364724 -3906 0
0 0 0 631 1365355 -3275 0
0 0 0 670 1366025 -2605 0
71 1 S116 711 1366736 -1894 0
71 1 S116 737 1367473 -1157 0
71 1 S116 732 1368205 -425 0
71 2 S116 666 1368871 241 0
71 2 S116 647 1369518 888 0
71 2 S116 645 1370163 1533 0
71 2 S116 639 1370802 2172 0
71 2 S116 655 1371457 2827 0
71 2 S116 668 1372125 3495 0
71 2 S116 678 1372803 4173 0
71 2 S116 661 1373464 4834 0
71 2 S116 671 1374135 5505 0
71 2 S116 699 1374834 6204 0
71 2 S116 747 1375581 6951 0
0 0 0 754 1376335 -9122 0
0 0 0 724 1377059 -8398 0
0 0 0 707 1377766 -7691 0
0 0 0 720 1378486 -6971 0
0 0 0 701 1379187 -6270 0
0 0 0 693 1379880 -5577 0
0 0 0 673 1380553 -4904 0
0 0 0 649 1381202 -4255 0
0 0 0 688 1381890 -3567 0
0 0 0 710 1382600 -2857 0
0 0 0 746 1383346 -2111 0
72 1 S102 760 1384106 -1351 0
72 1 S102 722 1384828 -629 0
72 2 S102 696 1385524 67 0
72 2 S102 697 1386221 764 0
72 2 S102 689 1386910 1453 0
72 2 S102 670 1387580 2123 0
72 2 S102 656 1388236 2779 0
72 2 S102 665 1388901 3444 0
72 2 S102 697 1389598 4141 0
72 2 S102 733 1390331 4874 0
72 2 S102 772 1391103 5646 0
72 2 S102 763 1391866 6409 0
0 0 0 719 1392585 -8671 0
0 0 0 663 1393248 -8008 0
0 0 0 663 1393911 -7345 0
0 0 0 664 1394575 -6681 0
0 0 0 680 1395255 -6001 0
0 0 0 710 1395965 -5291 0
0 0 0 727 1396692 -4564 0
0 0 0 698 1397390 -3866 0
0 0 0 678 1398068 -3188 0
0 0 0 691 1398759 -2497 0
73 1 S116 698 1399457 -1799 0
73 1 S116 690 1400147 -1109 0
73 1 S116 691 1400838 -418 0
73 2 S116 661 1401499 243 0
73 2 S116 641 1402140 884 0
73 2 S116 677 1402817 1561 0
73 2 S116 688 1403505 2249 0
73 2 S116 726 1404231 2975 0
73 2 S116 760 1404991 3735 0
73 2 S116 729 1405720 4464 0
73 2 S116 717 1406437 5181 0
73 2 S116 709 1407146 5890 0
73 2 S116 717 1407863 6607 0
0 0 0 739 1408602 -9166 0
0 0 0 735 1409337 -8431 0
0 0 0 707 1410044 -7724 0
0 0 0 743 1410787 -6981 0
0 0 0 741 1411528 -6240 0
0 0 0 744 1412272 -5496 0
0 0 0 710 1412982 -4786 0
0 0 0 711 1413693 -4075 0
0 0 0 728 1414421 -3347 0
0 0 0 731 1415152 -2616 0
74 1 S106 745 1415897 -1871 0
74 1 S106 710 1416607 -1161 0
74 1 S106 668 1417275 -493 0
74 2 S106 672 1417947 179 0
74 2 S106 671 1418618 850 0
74 2 S106 689 1419307 1539 0
74 2 S106 733 1420040 2272 0
74 2 S106 742 1420782 3014 0
74 2 S106 713 1421495 3727 0
74 2 S106 741 1422236 4468 0
74 2 S106 754 1422990 5222 0
74 2 S106 756 1423746 5978 0
74 2 S106 738 1424484 6716 0
0 0 0 677 1425161 -8440 0
0 0 0 680 1425841 -7760 0
0 0 0 661 1426502 -7099 0
0 0 0 660 1427162 -6439 0
0 0 0 694 1427856 -5745 0
0 0 0 692 1428548 -5053 0
0 0 0 697 1429245 -4356 0
0 0 0 703 1429948 -3653 0
0 0 0 700 1430648 -2953 0
0 0 0 657 1431305 -2296 0
75 1 S112 615 1431920 -1681 0
75 1 S112 650 1432570 -1031 0
75 1 S112 701 1433271 -330 0
75 2 S112 752 1434023 422 0
75 2 S112 775 1434798 1197 0
75 2 S112 750 1435548 1947 0
75 2 S112 690 1436238 2637 0
75 2 S112 690 1436928 3327 0
75 2 S112 686 1437614 4013 0
75 2 S112 683 1438297 4696 0
75 2 S112 689 1438986 5385 0
75 2 S112 683 1439669 6068 0
75 2 S112 666 1440335 6734 0
0 0 0 691 1441026 -8622 0
0 0 0 710 1441736 -7912 0
0 0 0 734 1442470 -7178 0
0 0 0 738 1443208 -6440 0
0 0 0 705 1443913 -5735 0
0 0 0 731 1444644 -5004 0
0 0 0 722 1445366 -4282 0
0 0 0 706 1446072 -3576 0
0 0 0 651 1446723 -2925 0
0 0 0 639 1447362 -2286 0
76 1 S116 646 1448008 -1640 0
76 1 S116 674 1448682 -966 0
76 1 S116 732 1449414 -234 0
76 2 S116 754 1450168 520 0
76 2 S116 758 1450926 1278 0
76 2 S116 741 1451667 2019 0
76 2 S116 766 1452433 2785 0
76 2 S116 778 1453211 3563 0
76 2 S116 794 1454005 4357 0
76 2 S116 736 1454741 5093 0
76 2 S116 684 1455425 5777 0
76 2 S116 690 1456115 6467 0
0 0 0 678 1456793 -8572 0
0 0 0 695 1457488 -7877 0
0 0 0 726 1458214 -7151 0
0 0 0 690 1458904 -6461 0
0 0 0 732 1459636 -5729 0
0 0 0 753 1460389 -4976 0
0 0 0 787 1461176 -4189 0
0 0 0 758 1461934 -3431 0
0 0 0 713 1462647 -2718 0
77 1 S106 730 1463377 -1988 0
77 1 S106 733 1464110 -1255 0
77 1 S106 741 1464851 -514 0
77 2 S106 717 1465568 203 0
77 2 S106 674 1466242 877 0
77 2 S106 685 1466927 1562 0
77 2 S106 702 1467629 2264 0
77 2 S106 718 1468347 2982 0
77 2 S106 758 1469105 3740 0
77 2 S106 725 1469830 4465 0
77 2 S106 685 1470515 5150 0
77 2 S106 701 1471216 5851 0
77 2 S106 712 1471928 6563 0
0 0 0 735 1472663 -8998 0
0 0 0 761 1473424 -8237 0
0 0 0 714 1474138 -7523 0
0 0 0 714 1474852 -6809 0
0 0 0 659 1475511 -6150 0
0 0 0 622 1476133 -5528 0
0 0 0 601 1476734 -4927 0
0 0 0 611 1477345 -4316 0
0 0 0 653 1477998 -3663 0
0 0 0 679 1478677 -2984 0
0 0 0 736 1479413 -2248 0
78 1 S112 790 1480203 -1458 0
78 1 S112 802 1481005 -656 0
78 2 S112 795 1481800 139 0
78 2 S112 758 1482558 897 0
78 2 S112 715 1483273 1612 0
78 2 S112 714 1483987 2326 0
78 2 S112 700 1484687 3026 0
78 2 S112 722 1485409 3748 0
78 2 S112 720 1486129 4468 0
78 2 S112 713 1486842 5181 0
78 2 S112 735 1487577 5916 0
78 2 S112 748 1488325 6664 0
0 0 0 758 1489083 -11693 0
0 0 0 756 1489839 -10937 0
0 0 0 711 1490550 -10226 0
0 0 0 703 1491253 -9523 0
0 0 0 723 1491976 -8800 0
0 0 0 708 1492684 -8092 0
0 0 0 706 1493390 -7386 0
0 0 0 700 1494090 -6686 0
0 0 0 753 1494843 -5933 0
0 0 0 778 1495621 -5155 0
0 0 0 803 1496424 -4352 0
0 0 0 791 1497215 -3561 0
0 0 0 738 1497953 -2823 0
0 0 0 716 1498669 -2107 0
79 1 S102 704 1499373 -1403 0
79 1 S102 699 1500072 -704 0
79 2 S102 704 1500776 0 0
79 2 S102 690 1501466 690 0
79 2 S102 695 1502161 1385 0
79 2 S102 750 1502911 2135 0
79 2 S102 785 1503696 2920 0
79 2 S102 786 1504482 3706 0
79 2 S102 742 1505224 4448 0
79 2 S102 699 1505923 5147 0
79 2 S102 700 1506623 5847 0
79 2 S102 706 1507329 6553 0
0 0 0 724 1508053 -8539 0
0 0 0 749 1508802 -7790 0
0 0 0 757 1509559 -7033 0
0 0 0 703 1510262 -6330 0
0 0 0 703 1510965 -5627 0
0 0 0 711 1511676 -4916 0
0 0 0 721 1512397 -4195 0
0 0 0 731 1513128 -3464 0
0 0 0 701 1513829 -2763 0
0 0 0 695 1514524 -2068 0
80 1 S116 712 1515236 -1356 0
80 1 S116 726 1515962 -630 0
80 2 S116 752 1516714 122 0
80 2 S116 722 1517436 844 0
80 2 S116 676 1518112 1520 0
80 2 S116 692 1518804 2212 0
80 2 S116 713 1519517 2925 0
80 2 S116 739 1520256 3664 0
80 2 S116 773 1521029 4437 0
80 2 S116 763 1521792 5200 0
80 2 S116 715 1522507 5915 0
80 2 S116 677 1523184 6592 0
