T_0176
BeatCount Mean SD BeatCountNoOutliers MeanNoOutliers SDNoOutliers
1660 900,332530120482 103,909186376788 1656 899,592391304348 102,930889406184

Trial TrialStatus Trialtype IBI AbsPosition RelPosition Outlier
0 0 0 688 1195 -14687 0
0 0 0 715 1910 -13972 0
0 0 0 696 2606 -13276 0
0 0 0 676 3282 -12600 0
0 0 0 699 3981 -11901 0
0 0 0 776 4757 -11125 0
0 0 0 777 5534 -10348 0
0 0 0 824 6358 -9524 0
0 0 0 858 7216 -8666 0
0 0 0 864 8080 -7802 0
0 0 0 858 8938 -6944 0
0 0 0 889 9827 -6055 0
0 0 0 881 10708 -5174 0
0 0 0 822 11530 -4352 0
0 0 0 815 12345 -3537 0
0 0 0 744 13089 -2793 0
0 0 0 706 13795 -2087 0
1 1 S112 740 14535 -1347 0
1 1 S112 783 15318 -564 0
1 2 S112 774 16092 210 0
1 2 S112 849 16941 1059 0
1 2 S112 912 17853 1971 0
1 2 S112 955 18808 2926 0
1 2 S112 914 19722 3840 0
1 2 S112 938 20660 4778 0
1 2 S112 949 21609 5727 0
1 2 S112 837 22446 6564 0
0 0 0 875 23321 -13168 0
0 0 0 921 24242 -12247 0
0 0 0 871 25113 -11376 0
0 0 0 876 25989 -10500 0
0 0 0 982 26971 -9518 0
0 0 0 912 27883 -8606 0
0 0 0 838 28721 -7768 0
0 0 0 820 29541 -6948 0
0 0 0 795 30336 -6153 0
0 0 0 742 31078 -5411 0
0 0 0 751 31829 -4660 0
0 0 0 769 32598 -3891 0
0 0 0 800 33398 -3091 0
0 0 0 992 34390 -2099 0
2 1 S102 988 35378 -1111 0
2 1 S102 956 36334 -155 0
2 2 S102 1016 37350 861 0
2 2 S102 1008 38358 1869 0
2 2 S102 906 39264 2775 0
2 2 S102 922 40186 3697 0
2 2 S102 925 41111 4622 0
2 2 S102 872 41983 5494 0
2 2 S102 1069 43052 6563 0
0 0 0 1138 44190 -8264 0
0 0 0 993 45183 -7271 0
0 0 0 1065 46248 -6206 0
0 0 0 1005 47253 -5201 0
0 0 0 961 48214 -4240 0
0 0 0 1031 49245 -3209 0
0 0 0 1003 50248 -2206 0
3 1 S116 926 51174 -1280 0
3 1 S116 1000 52174 -280 0
3 2 S116 1037 53211 757 0
3 2 S116 974 54185 1731 0
3 2 S116 1025 55210 2756 0
3 2 S116 1022 56232 3778 0
3 2 S116 943 57175 4721 0
3 2 S116 995 58170 5716 0
3 2 S116 991 59161 6707 0
0 0 0 913 60074 -12341 0
0 0 0 968 61042 -11373 0
0 0 0 858 61900 -10515 0
0 0 0 746 62646 -9769 0
0 0 0 878 63524 -8891 0
0 0 0 922 64446 -7969 0
0 0 0 880 65326 -7089 0
0 0 0 821 66147 -6268 0
0 0 0 974 67121 -5294 0
0 0 0 1070 68191 -4224 0
0 0 0 984 69175 -3240 0
0 0 0 991 70166 -2249 0
4 1 S106 1024 71190 -1225 0
4 1 S106 953 72143 -272 0
4 2 S106 839 72982 567 0
4 2 S106 959 73941 1526 0
4 2 S106 1015 74956 2541 0
4 2 S106 912 75868 3453 0
4 2 S106 996 76864 4449 0
4 2 S106 1043 77907 5492 0
4 2 S106 926 78833 6418 0
0 0 0 941 79774 -6848 0
0 0 0 1041 80815 -5807 0
0 0 0 929 81744 -4878 0
0 0 0 849 82593 -4029 0
0 0 0 801 83394 -3228 0
0 0 0 761 84155 -2467 0
5 1 S116 833 84988 -1634 0
5 1 S116 860 85848 -774 0
5 2 S116 857 86705 83 0
5 2 S116 1076 87781 1159 0
5 2 S116 1107 88888 2266 0
5 2 S116 971 89859 3237 0
5 2 S116 975 90834 4212 0
5 2 S116 950 91784 5162 0
5 2 S116 941 92725 6103 0
5 2 S116 829 93554 6932 0
0 0 0 925 94479 -8655 0
0 0 0 1093 95572 -7562 0
0 0 0 943 96515 -6619 0
0 0 0 899 97414 -5720 0
0 0 0 996 98410 -4724 0
0 0 0 1004 99414 -3720 0
0 0 0 898 100312 -2822 0
6 1 S106 993 101305 -1829 0
6 1 S106 1112 102417 -717 0
6 2 S106 1033 103450 316 0
6 2 S106 1054 104504 1370 0
6 2 S106 1085 105589 2455 0
6 2 S106 1035 106624 3490 0
6 2 S106 969 107593 4459 0
6 2 S106 905 108498 5364 0
6 2 S106 980 109478 6344 0
0 0 0 1000 110478 -10462 0
0 0 0 894 111372 -9568 0
0 0 0 943 112315 -8625 0
0 0 0 934 113249 -7691 0
0 0 0 864 114113 -6827 0
0 0 0 920 115033 -5907 0
0 0 0 875 115908 -5032 0
0 0 0 778 116686 -4254 0
0 0 0 787 117473 -3467 0
0 0 0 870 118343 -2597 0
7 1 S102 896 119239 -1701 0
7 1 S102 872 120111 -829 0
7 2 S102 944 121055 115 0
7 2 S102 972 122027 1087 0
7 2 S102 882 122909 1969 0
7 2 S102 952 123861 2921 0
7 2 S102 1009 124870 3930 0
7 2 S102 939 125809 4869 0
7 2 S102 907 126716 5776 0
7 2 S102 946 127662 6722 0
0 0 0 967 128629 -9270 0
0 0 0 847 129476 -8423 0
0 0 0 954 130430 -7469 0
0 0 0 968 131398 -6501 0
0 0 0 879 132277 -5622 0
0 0 0 803 133080 -4819 0
0 0 0 847 133927 -3972 0
0 0 0 786 134713 -3186 0
0 0 0 745 135458 -2441 0
8 1 S112 787 136245 -1654 0
8 1 S112 809 137054 -845 0
8 2 S112 845 137899 0 0
8 2 S112 1015 138914 1015 0
8 2 S112 1086 140000 2101 0
8 2 S112 962 140962 3063 0
8 2 S112 970 141932 4033 0
8 2 S112 983 142915 5016 0
8 2 S112 934 143849 5950 0
8 2 S112 946 144795 6896 0
0 0 0 956 145751 -8743 0
0 0 0 917 146668 -7826 0
0 0 0 961 147629 -6865 0
0 0 0 1011 148640 -5854 0
0 0 0 936 149576 -4918 0
0 0 0 903 150479 -4015 0
0 0 0 927 151406 -3088 0
0 0 0 841 152247 -2247 0
9 1 S116 775 153022 -1472 0
9 1 S116 824 153846 -648 0
9 2 S116 894 154740 246 0
9 2 S116 973 155713 1219 0
9 2 S116 984 156697 2203 0
9 2 S116 1044 157741 3247 0
9 2 S116 971 158712 4218 0
9 2 S116 897 159609 5115 0
9 2 S116 947 160556 6062 0
9 2 S116 962 161518 7024 0
0 0 0 875 162393 -11233 0
0 0 0 931 163324 -10302 0
0 0 0 965 164289 -9337 0
0 0 0 867 165156 -8470 0
0 0 0 904 166060 -7566 0
0 0 0 884 166944 -6682 0
0 0 0 785 167729 -5897 0
0 0 0 789 168518 -5108 0
0 0 0 922 169440 -4186 0
0 0 0 1000 170440 -3186 0
0 0 0 949 171389 -2237 0
10 1 S102 1004 172393 -1233 0
10 1 S102 1016 173409 -217 0
10 2 S102 950 174359 733 0
10 2 S102 946 175305 1679 0
10 2 S102 992 176297 2671 0
10 2 S102 984 177281 3655 0
10 2 S102 863 178144 4518 0
10 2 S102 945 179089 5463 0
10 2 S102 989 180078 6452 0
0 0 0 910 180988 -10161 0
0 0 0 933 181921 -9228 0
0 0 0 921 182842 -8307 0
0 0 0 866 183708 -7441 0
0 0 0 854 184562 -6587 0
0 0 0 898 185460 -5689 0
0 0 0 888 186348 -4801 0
0 0 0 839 187187 -3962 0
0 0 0 825 188012 -3137 0
0 0 0 912 188924 -2225 0
11 1 S112 1074 189998 -1151 0
11 1 S112 1016 191014 -135 0
11 2 S112 932 191946 797 0
11 2 S112 989 192935 1786 0
11 2 S112 948 193883 2734 0
11 2 S112 864 194747 3598 0
11 2 S112 913 195660 4511 0
11 2 S112 924 196584 5435 0
11 2 S112 882 197466 6317 0
0 0 0 857 198323 -6752 0
0 0 0 916 199239 -5836 0
0 0 0 880 200119 -4956 0
0 0 0 801 200920 -4155 0
0 0 0 838 201758 -3317 0
0 0 0 806 202564 -2511 0
12 1 S116 734 203298 -1777 0
12 1 S116 723 204021 -1054 0
12 1 S116 775 204796 -279 0
12 2 S116 824 205620 545 0
12 2 S116 874 206494 1419 0
12 2 S116 819 207313 2238 0
12 2 S116 877 208190 3115 0
12 2 S116 886 209076 4001 0
12 2 S116 844 209920 4845 0
12 2 S116 793 210713 5638 0
12 2 S116 825 211538 6463 0
0 0 0 815 212353 -12334 0
0 0 0 791 213144 -11543 0
0 0 0 743 213887 -10800 0
0 0 0 781 214668 -10019 0
0 0 0 827 215495 -9192 0
0 0 0 832 216327 -8360 0
0 0 0 787 217114 -7573 0
0 0 0 834 217948 -6739 0
0 0 0 947 218895 -5792 0
0 0 0 1044 219939 -4748 0
0 0 0 963 220902 -3785 0
0 0 0 979 221881 -2806 0
13 1 S112 1007 222888 -1799 0
13 1 S112 943 223831 -856 0
13 2 S112 907 224738 51 0
13 2 S112 983 225721 1034 0
13 2 S112 999 226720 2033 0
13 2 S112 897 227617 2930 0
13 2 S112 927 228544 3857 0
13 2 S112 1004 229548 4861 0
13 2 S112 1015 230563 5876 0
13 2 S112 974 231537 6850 0
0 0 0 978 232515 -10491 0
0 0 0 929 233444 -9562 0
0 0 0 836 234280 -8726 0
0 0 0 835 235115 -7891 0
0 0 0 767 235882 -7124 0
0 0 0 742 236624 -6382 0
0 0 0 732 237356 -5650 0
0 0 0 702 238058 -4948 0
0 0 0 732 238790 -4216 0
0 0 0 806 239596 -3410 0
0 0 0 900 240496 -2510 0
14 1 S106 834 241330 -1676 0
14 1 S106 737 242067 -939 0
14 1 S106 694 242761 -245 0
14 2 S106 695 243456 450 0
14 2 S106 809 244265 1259 0
14 2 S106 956 245221 2215 0
14 2 S106 979 246200 3194 0
14 2 S106 932 247132 4126 0
14 2 S106 929 248061 5055 0
14 2 S106 928 248989 5983 0
14 2 S106 867 249856 6850 0
0 0 0 853 250709 -9440 0
0 0 0 833 251542 -8607 0
0 0 0 821 252363 -7786 0
0 0 0 811 253174 -6975 0
0 0 0 868 254042 -6107 0
0 0 0 821 254863 -5286 0
0 0 0 945 255808 -4341 0
0 0 0 1045 256853 -3296 0
0 0 0 820 257673 -2476 0
15 1 S116 820 258493 -1656 0
15 1 S116 940 259433 -716 0
15 2 S116 874 260307 158 0
15 2 S116 912 261219 1070 0
15 2 S116 1027 262246 2097 0
15 2 S116 1045 263291 3142 0
15 2 S116 959 264250 4101 0
15 2 S116 998 265248 5099 0
15 2 S116 1026 266274 6125 0
0 0 0 1027 267301 -8647 0
0 0 0 1032 268333 -7615 0
0 0 0 1051 269384 -6564 0
0 0 0 982 270366 -5582 0
0 0 0 926 271292 -4656 0
0 0 0 1004 272296 -3652 0
0 0 0 967 273263 -2685 0
16 1 S116 894 274157 -1791 0
16 1 S116 837 274994 -954 0
16 1 S116 778 275772 -176 0
16 2 S116 842 276614 666 0
16 2 S116 948 277562 1614 0
16 2 S116 974 278536 2588 0
16 2 S116 1025 279561 3613 0
16 2 S116 1004 280565 4617 0
16 2 S116 940 281505 5557 0
16 2 S116 958 282463 6515 0
0 0 0 1031 283494 -8170 0
0 0 0 927 284421 -7243 0
0 0 0 911 285332 -6332 0
0 0 0 933 286265 -5399 0
0 0 0 882 287147 -4517 0
0 0 0 830 287977 -3687 0
0 0 0 935 288912 -2752 0
17 1 S106 998 289910 -1754 0
17 1 S106 865 290775 -889 0
17 1 S106 776 291551 -113 0
17 2 S106 766 292317 653 0
17 2 S106 775 293092 1428 0
17 2 S106 1152 294244 2580 0
17 2 S106 997 295241 3577 0
17 2 S106 1009 296250 4586 0
17 2 S106 1035 297285 5621 0
17 2 S106 993 298278 6614 0
0 0 0 962 299240 -10859 0
0 0 0 967 300207 -9892 0
0 0 0 917 301124 -8975 0
0 0 0 816 301940 -8159 0
0 0 0 897 302837 -7262 0
0 0 0 914 303751 -6348 0
0 0 0 864 304615 -5484 0
0 0 0 878 305493 -4606 0
0 0 0 946 306439 -3660 0
0 0 0 995 307434 -2665 0
18 1 S102 886 308320 -1779 0
18 1 S102 948 309268 -831 0
18 2 S102 985 310253 154 0
18 2 S102 951 311204 1105 0
18 2 S102 983 312187 2088 0
18 2 S102 1042 313229 3130 0
18 2 S102 1010 314239 4140 0
18 2 S102 925 315164 5065 0
18 2 S102 930 316094 5995 0
18 2 S102 935 317029 6930 0
0 0 0 829 317858 -6615 0
0 0 0 774 318632 -5841 0
0 0 0 797 319429 -5044 0
0 0 0 819 320248 -4225 0
0 0 0 787 321035 -3438 0
0 0 0 790 321825 -2648 0
19 1 S106 747 322572 -1901 0
19 1 S106 773 323345 -1128 0
19 1 S106 788 324133 -340 0
19 2 S106 693 324826 353 0
19 2 S106 675 325501 1028 0
19 2 S106 780 326281 1808 0
19 2 S106 809 327090 2617 0
19 2 S106 908 327998 3525 0
19 2 S106 925 328923 4450 0
19 2 S106 890 329813 5340 0
19 2 S106 820 330633 6160 0
19 2 S106 817 331450 6977 0
0 0 0 820 332270 -10389 0
0 0 0 806 333076 -9583 0
0 0 0 749 333825 -8834 0
0 0 0 759 334584 -8075 0
0 0 0 751 335335 -7324 0
0 0 0 760 336095 -6564 0
0 0 0 795 336890 -5769 0
0 0 0 801 337691 -4968 0
0 0 0 896 338587 -4072 0
0 0 0 1012 339599 -3060 0
0 0 0 1048 340647 -2012 0
20 1 S112 1001 341648 -1011 0
20 2 S112 1035 342683 24 0
20 2 S112 1011 343694 1035 0
20 2 S112 1032 344726 2067 0
20 2 S112 1030 345756 3097 0
20 2 S112 968 346724 4065 0
20 2 S112 952 347676 5017 0
20 2 S112 973 348649 5990 0
20 2 S112 1006 349655 6996 0
0 0 0 955 350610 -9059 0
0 0 0 880 351490 -8179 0
0 0 0 837 352327 -7342 0
0 0 0 777 353104 -6565 0
0 0 0 794 353898 -5771 0
0 0 0 755 354653 -5016 0
0 0 0 818 355471 -4198 0
0 0 0 912 356383 -3286 0
0 0 0 936 357319 -2350 0
21 1 S106 902 358221 -1448 0
21 1 S106 958 359179 -490 0
21 2 S106 1006 360185 516 0
21 2 S106 989 361174 1505 0
21 2 S106 805 361979 2310 0
21 2 S106 759 362738 3069 0
21 2 S106 701 363439 3770 0
21 2 S106 789 364228 4559 0
21 2 S106 898 365126 5457 0
21 2 S106 1057 366183 6514 0
0 0 0 1060 367243 -9816 0
0 0 0 1020 368263 -8796 0
0 0 0 933 369196 -7863 0
0 0 0 957 370153 -6906 0
0 0 0 952 371105 -5954 0
0 0 0 958 372063 -4996 0
0 0 0 919 372982 -4077 0
0 0 0 975 373957 -3102 0
0 0 0 984 374941 -2118 0
22 1 S116 959 375900 -1159 0
22 1 S116 989 376889 -170 0
22 2 S116 1043 377932 873 0
22 2 S116 1029 378961 1902 0
22 2 S116 997 379958 2899 0
22 2 S116 1032 380990 3931 0
22 2 S116 1089 382079 5020 0
22 2 S116 1059 383138 6079 0
0 0 0 1023 384161 -10190 0
0 0 0 984 385145 -9206 0
0 0 0 892 386037 -8314 0
0 0 0 839 386876 -7475 0
0 0 0 855 387731 -6620 0
0 0 0 773 388504 -5847 0
0 0 0 798 389302 -5049 0
0 0 0 823 390125 -4226 0
0 0 0 794 390919 -3432 0
0 0 0 884 391803 -2548 0
23 1 S112 964 392767 -1584 0
23 1 S112 1006 393773 -578 0
23 2 S112 932 394705 354 0
23 2 S112 963 395668 1317 0
23 2 S112 972 396640 2289 0
23 2 S112 902 397542 3191 0
23 2 S112 873 398415 4064 0
23 2 S112 929 399344 4993 0
23 2 S112 978 400322 5971 0
23 2 S112 876 401198 6847 0
0 0 0 969 402167 -9442 0
0 0 0 1033 403200 -8409 0
0 0 0 911 404111 -7498 0
0 0 0 936 405047 -6562 0
0 0 0 821 405868 -5741 0
0 0 0 824 406692 -4917 0
0 0 0 825 407517 -4092 0
0 0 0 786 408303 -3306 0
0 0 0 762 409065 -2544 0
24 1 S106 876 409941 -1668 0
24 1 S106 940 410881 -728 0
24 2 S106 1019 411900 291 0
24 2 S106 970 412870 1261 0
24 2 S106 1024 413894 2285 0
24 2 S106 981 414875 3266 0
24 2 S106 895 415770 4161 0
24 2 S106 833 416603 4994 0
24 2 S106 763 417366 5757 0
24 2 S106 718 418084 6475 0
0 0 0 731 418815 -8411 0
0 0 0 1067 419882 -7344 0
0 0 0 1018 420900 -6326 0
0 0 0 1030 421930 -5296 0
0 0 0 1016 422946 -4280 0
0 0 0 999 423945 -3281 0
0 0 0 960 424905 -2321 0
25 1 S102 816 425721 -1505 0
25 1 S102 750 426471 -755 0
25 2 S102 770 427241 15 0
25 2 S102 790 428031 805 0
25 2 S102 845 428876 1650 0
25 2 S102 824 429700 2474 0
25 2 S102 863 430563 3337 0
25 2 S102 903 431466 4240 0
25 2 S102 955 432421 5195 0
25 2 S102 921 433342 6116 0
0 0 0 980 434322 -6249 0
0 0 0 983 435305 -5266 0
0 0 0 905 436210 -4361 0
0 0 0 834 437044 -3527 0
0 0 0 775 437819 -2752 0
26 1 S116 775 438594 -1977 0
26 1 S116 868 439462 -1109 0
26 1 S116 917 440379 -192 0
26 2 S116 967 441346 775 0
26 2 S116 950 442296 1725 0
26 2 S116 954 443250 2679 0
26 2 S116 985 444235 3664 0
26 2 S116 940 445175 4604 0
26 2 S116 870 446045 5474 0
26 2 S116 944 446989 6418 0
0 0 0 978 447967 -8072 0
0 0 0 958 448925 -7114 0
0 0 0 903 449828 -6211 0
0 0 0 936 450764 -5275 0
0 0 0 933 451697 -4342 0
0 0 0 881 452578 -3461 0
0 0 0 879 453457 -2582 0
27 1 S106 967 454424 -1615 0
27 1 S106 998 455422 -617 0
27 2 S106 933 456355 316 0
27 2 S106 776 457131 1092 0
27 2 S106 712 457843 1804 0
27 2 S106 706 458549 2510 0
27 2 S106 805 459354 3315 0
27 2 S106 867 460221 4182 0
27 2 S106 965 461186 5147 0
27 2 S106 945 462131 6092 0
27 2 S106 926 463057 7018 0
0 0 0 819 463876 -5625 0
0 0 0 776 464652 -4849 0
0 0 0 784 465436 -4065 0
0 0 0 763 466199 -3302 0
0 0 0 760 466959 -2542 0
28 1 S102 768 467727 -1774 0
28 1 S102 801 468528 -973 0
28 1 S102 814 469342 -159 0
28 2 S102 815 470157 656 0
28 2 S102 909 471066 1565 0
28 2 S102 971 472037 2536 0
28 2 S102 1017 473054 3553 0
28 2 S102 974 474028 4527 0
28 2 S102 953 474981 5480 0
28 2 S102 957 475938 6437 0
0 0 0 976 476914 -10193 0
0 0 0 937 477851 -9256 0
0 0 0 886 478737 -8370 0
0 0 0 838 479575 -7532 0
0 0 0 813 480388 -6719 0
0 0 0 779 481167 -5940 0
0 0 0 809 481976 -5131 0
0 0 0 814 482790 -4317 0
0 0 0 781 483571 -3536 0
0 0 0 737 484308 -2799 0
0 0 0 727 485035 -2072 0
29 1 S112 792 485827 -1280 0
29 1 S112 855 486682 -425 0
29 2 S112 898 487580 473 0
29 2 S112 858 488438 1331 0
29 2 S112 924 489362 2255 0
29 2 S112 931 490293 3186 0
29 2 S112 897 491190 4083 0
29 2 S112 858 492048 4941 0
29 2 S112 917 492965 5858 0
29 2 S112 928 493893 6786 0
0 0 0 861 494754 -6378 0
0 0 0 882 495636 -5496 0
0 0 0 910 496546 -4586 0
0 0 0 961 497507 -3625 0
0 0 0 808 498315 -2817 0
30 1 S112 855 499170 -1962 0
30 1 S112 864 500034 -1098 0
30 1 S112 851 500885 -247 0
30 2 S112 795 501680 548 0
30 2 S112 750 502430 1298 0
30 2 S112 734 503164 2032 0
30 2 S112 732 503896 2764 0
30 2 S112 716 504612 3480 0
30 2 S112 766 505378 4246 0
30 2 S112 703 506081 4949 0
30 2 S112 733 506814 5682 0
30 2 S112 790 507604 6472 0
0 0 0 912 508516 -8333 0
0 0 0 968 509484 -7365 0
0 0 0 867 510351 -6498 0
0 0 0 921 511272 -5577 0
0 0 0 969 512241 -4608 0
0 0 0 951 513192 -3657 0
0 0 0 896 514088 -2761 0
31 1 S106 899 514987 -1862 0
31 1 S106 897 515884 -965 0
31 1 S106 840 516724 -125 0
31 2 S106 902 517626 777 0
31 2 S106 990 518616 1767 0
31 2 S106 938 519554 2705 0
31 2 S106 922 520476 3627 0
31 2 S106 1038 521514 4665 0
31 2 S106 1030 522544 5695 0
31 2 S106 933 523477 6628 0
0 0 0 1008 524485 -8395 0
0 0 0 1002 525487 -7393 0
0 0 0 850 526337 -6543 0
0 0 0 890 527227 -5653 0
0 0 0 919 528146 -4734 0
0 0 0 933 529079 -3801 0
0 0 0 974 530053 -2827 0
32 1 S102 1007 531060 -1820 0
32 1 S102 975 532035 -845 0
32 2 S102 877 532912 32 0
32 2 S102 952 533864 984 0
32 2 S102 1013 534877 1997 0
32 2 S102 913 535790 2910 0
32 2 S102 853 536643 3763 0
32 2 S102 888 537531 4651 0
32 2 S102 973 538504 5624 0
32 2 S102 901 539405 6525 0
0 0 0 876 540281 -9907 0
0 0 0 933 541214 -8974 0
0 0 0 839 542053 -8135 0
0 0 0 773 542826 -7362 0
0 0 0 719 543545 -6643 0
0 0 0 762 544307 -5881 0
0 0 0 767 545074 -5114 0
0 0 0 810 545884 -4304 0
0 0 0 761 546645 -3543 0
0 0 0 762 547407 -2781 0
33 1 S112 814 548221 -1967 0
33 1 S112 861 549082 -1106 0
33 1 S112 863 549945 -243 0
33 2 S112 794 550739 551 0
33 2 S112 844 551583 1395 0
33 2 S112 862 552445 2257 0
33 2 S112 845 553290 3102 0
33 2 S112 781 554071 3883 0
33 2 S112 819 554890 4702 0
33 2 S112 874 555764 5576 0
33 2 S112 904 556668 6480 0
0 0 0 870 557538 -11980 0
0 0 0 946 558484 -11034 0
0 0 0 963 559447 -10071 0
0 0 0 925 560372 -9146 0
0 0 0 890 561262 -8256 0
0 0 0 903 562165 -7353 0
0 0 0 893 563058 -6460 0
0 0 0 837 563895 -5623 0
0 0 0 872 564767 -4751 0
0 0 0 898 565665 -3853 0
0 0 0 895 566560 -2958 0
0 0 0 818 567378 -2140 0
34 1 S106 767 568145 -1373 0
34 1 S106 745 568890 -628 0
34 2 S106 762 569652 134 0
34 2 S106 741 570393 875 0
34 2 S106 741 571134 1616 0
34 2 S106 820 571954 2436 0
34 2 S106 913 572867 3349 0
34 2 S106 916 573783 4265 0
34 2 S106 845 574628 5110 0
34 2 S106 925 575553 6035 0
34 2 S106 942 576495 6977 0
0 0 0 863 577358 -7910 0
0 0 0 858 578216 -7052 0
0 0 0 834 579050 -6218 0
0 0 0 737 579787 -5481 0
0 0 0 790 580577 -4691 0
0 0 0 857 581434 -3834 0
0 0 0 942 582376 -2892 0
0 0 0 806 583182 -2086 0
35 1 S102 946 584128 -1140 0
35 2 S102 1187 585315 47 1
35 2 S102 1177 586492 1224 1
35 2 S102 1064 587556 2288 0
35 2 S102 873 588429 3161 0
35 2 S102 885 589314 4046 0
35 2 S102 889 590203 4935 0
35 2 S102 1088 591291 6023 0
0 0 0 1040 592331 -6631 0
0 0 0 915 593246 -5716 0
0 0 0 848 594094 -4868 0
0 0 0 834 594928 -4034 0
0 0 0 867 595795 -3167 0
0 0 0 823 596618 -2344 0
36 1 S106 916 597534 -1428 0
36 1 S106 772 598306 -656 0
36 2 S106 806 599112 150 0
36 2 S106 790 599902 940 0
36 2 S106 743 600645 1683 0
36 2 S106 813 601458 2496 0
36 2 S106 849 602307 3345 0
36 2 S106 901 603208 4246 0
36 2 S106 923 604131 5169 0
36 2 S106 914 605045 6083 0
36 2 S106 945 605990 7028 0
0 0 0 954 606944 -9392 0
0 0 0 866 607810 -8526 0
0 0 0 863 608673 -7663 0
0 0 0 870 609543 -6793 0
0 0 0 855 610398 -5938 0
0 0 0 790 611188 -5148 0
0 0 0 712 611900 -4436 0
0 0 0 683 612583 -3753 0
0 0 0 741 613324 -3012 0
0 0 0 871 614195 -2141 0
37 1 S116 892 615087 -1249 0
37 1 S116 897 615984 -352 0
37 2 S116 870 616854 518 0
37 2 S116 799 617653 1317 0
37 2 S116 798 618451 2115 0
37 2 S116 825 619276 2940 0
37 2 S116 820 620096 3760 0
37 2 S116 842 620938 4602 0
37 2 S116 847 621785 5449 0
37 2 S116 773 622558 6222 0
37 2 S116 744 623302 6966 0
0 0 0 783 624085 -9957 0
0 0 0 807 624892 -9150 0
0 0 0 884 625776 -8266 0
0 0 0 863 626639 -7403 0
0 0 0 869 627508 -6534 0
0 0 0 843 628351 -5691 0
0 0 0 919 629270 -4772 0
0 0 0 969 630239 -3803 0
0 0 0 947 631186 -2856 0
38 1 S102 932 632118 -1924 0
38 1 S102 921 633039 -1003 0
38 1 S102 914 633953 -89 0
38 2 S102 920 634873 831 0
38 2 S102 866 635739 1697 0
38 2 S102 910 636649 2607 0
38 2 S102 904 637553 3511 0
38 2 S102 897 638450 4408 0
38 2 S102 898 639348 5306 0
38 2 S102 926 640274 6232 0
0 0 0 1004 641278 -9574 0
0 0 0 980 642258 -8594 0
0 0 0 894 643152 -7700 0
0 0 0 891 644043 -6809 0
0 0 0 834 644877 -5975 0
0 0 0 817 645694 -5158 0
0 0 0 782 646476 -4376 0
0 0 0 747 647223 -3629 0
0 0 0 766 647989 -2863 0
0 0 0 834 648823 -2029 0
39 1 S116 865 649688 -1164 0
39 1 S116 842 650530 -322 0
39 2 S116 831 651361 509 0
39 2 S116 916 652277 1425 0
39 2 S116 932 653209 2357 0
39 2 S116 826 654035 3183 0
39 2 S116 822 654857 4005 0
39 2 S116 921 655778 4926 0
39 2 S116 960 656738 5886 0
39 2 S116 942 657680 6828 0
0 0 0 891 658571 -7251 0
0 0 0 957 659528 -6294 0
0 0 0 943 660471 -5351 0
0 0 0 848 661319 -4503 0
0 0 0 824 662143 -3679 0
0 0 0 831 662974 -2848 0
0 0 0 806 663780 -2042 0
40 1 S112 772 664552 -1270 0
40 1 S112 773 665325 -497 0
40 2 S112 798 666123 301 0
40 2 S112 763 666886 1064 0
40 2 S112 731 667617 1795 0
40 2 S112 792 668409 2587 0
40 2 S112 835 669244 3422 0
40 2 S112 871 670115 4293 0
40 2 S112 919 671034 5212 0
40 2 S112 913 671947 6125 0
40 2 S112 847 672794 6972 0
0 0 0 831 673625 -186430 0
0 0 0 844 674469 -185586 0
0 0 0 846 675315 -184740 0
0 0 0 845 676160 -183895 0
0 0 0 832 676992 -183063 0
0 0 0 862 677854 -182201 0
0 0 0 898 678752 -181303 0
0 0 0 783 679535 -180520 0
0 0 0 814 680349 -179706 0
0 0 0 822 681171 -178884 0
0 0 0 827 681998 -178057 0
0 0 0 840 682838 -177217 0
0 0 0 809 683647 -176408 0
0 0 0 775 684422 -175633 0
0 0 0 738 685160 -174895 0
0 0 0 701 685861 -174194 0
0 0 0 689 686550 -173505 0
0 0 0 684 687234 -172821 0
0 0 0 685 687919 -172136 0
0 0 0 705 688624 -171431 0
0 0 0 709 689333 -170722 0
0 0 0 747 690080 -169975 0
0 0 0 755 690835 -169220 0
0 0 0 755 691590 -168465 0
0 0 0 710 692300 -167755 0
0 0 0 760 693060 -166995 0
0 0 0 770 693830 -166225 0
0 0 0 781 694611 -165444 0
0 0 0 777 695388 -164667 0
0 0 0 773 696161 -163894 0
0 0 0 829 696990 -163065 0
0 0 0 825 697815 -162240 0
0 0 0 776 698591 -161464 0
0 0 0 784 699375 -160680 0
0 0 0 836 700211 -159844 0
0 0 0 861 701072 -158983 0
0 0 0 821 701893 -158162 0
0 0 0 873 702766 -157289 0
0 0 0 881 703647 -156408 0
0 0 0 860 704507 -155548 0
0 0 0 883 705390 -154665 0
0 0 0 926 706316 -153739 0
0 0 0 915 707231 -152824 0
0 0 0 971 708202 -151853 0
0 0 0 975 709177 -150878 0
0 0 0 905 710082 -149973 0
0 0 0 873 710955 -149100 0
0 0 0 825 711780 -148275 0
0 0 0 729 712509 -147546 0
0 0 0 681 713190 -146865 0
0 0 0 725 713915 -146140 0
0 0 0 725 714640 -145415 0
0 0 0 800 715440 -144615 0
0 0 0 832 716272 -143783 0
0 0 0 797 717069 -142986 0
0 0 0 803 717872 -142183 0
0 0 0 758 718630 -141425 0
0 0 0 733 719363 -140692 0
0 0 0 741 720104 -139951 0
0 0 0 753 720857 -139198 0
0 0 0 752 721609 -138446 0
0 0 0 789 722398 -137657 0
0 0 0 1013 723411 -136644 0
0 0 0 1068 724479 -135576 0
0 0 0 994 725473 -134582 0
0 0 0 1108 726581 -133474 0
0 0 0 1095 727676 -132379 0
0 0 0 1001 728677 -131378 0
0 0 0 1038 729715 -130340 0
0 0 0 1083 730798 -129257 0
0 0 0 1027 731825 -128230 0
0 0 0 1013 732838 -127217 0
0 0 0 955 733793 -126262 0
0 0 0 909 734702 -125353 0
0 0 0 904 735606 -124449 0
0 0 0 1008 736614 -123441 0
0 0 0 1133 737747 -122308 0
0 0 0 877 738624 -121431 0
0 0 0 758 739382 -120673 0
0 0 0 721 740103 -119952 0
0 0 0 783 740886 -119169 0
0 0 0 841 741727 -118328 0
0 0 0 824 742551 -117504 0
0 0 0 769 743320 -116735 0
0 0 0 732 744052 -116003 0
0 0 0 702 744754 -115301 0
0 0 0 670 745424 -114631 0
0 0 0 701 746125 -113930 0
0 0 0 675 746800 -113255 0
0 0 0 688 747488 -112567 0
0 0 0 671 748159 -111896 0
0 0 0 661 748820 -111235 0
0 0 0 706 749526 -110529 0
0 0 0 716 750242 -109813 0
0 0 0 727 750969 -109086 0
0 0 0 733 751702 -108353 0
0 0 0 714 752416 -107639 0
0 0 0 693 753109 -106946 0
0 0 0 670 753779 -106276 0
0 0 0 661 754440 -105615 0
0 0 0 669 755109 -104946 0
0 0 0 705 755814 -104241 0
0 0 0 733 756547 -103508 0
0 0 0 777 757324 -102731 0
0 0 0 814 758138 -101917 0
0 0 0 887 759025 -101030 0
0 0 0 924 759949 -100106 0
0 0 0 963 760912 -99143 0
0 0 0 998 761910 -98145 0
0 0 0 1020 762930 -97125 0
0 0 0 1039 763969 -96086 0
0 0 0 987 764956 -95099 0
0 0 0 913 765869 -94186 0
0 0 0 802 766671 -93384 0
0 0 0 831 767502 -92553 0
0 0 0 921 768423 -91632 0
0 0 0 793 769216 -90839 0
0 0 0 961 770177 -89878 0
0 0 0 1058 771235 -88820 0
0 0 0 1061 772296 -87759 0
0 0 0 881 773177 -86878 0
0 0 0 959 774136 -85919 0
0 0 0 972 775108 -84947 0
0 0 0 843 775951 -84104 0
0 0 0 769 776720 -83335 0
0 0 0 780 777500 -82555 0
0 0 0 910 778410 -81645 0
0 0 0 868 779278 -80777 0
0 0 0 992 780270 -79785 0
0 0 0 905 781175 -78880 0
0 0 0 875 782050 -78005 0
0 0 0 770 782820 -77235 0
0 0 0 715 783535 -76520 0
0 0 0 712 784247 -75808 0
0 0 0 694 784941 -75114 0
0 0 0 679 785620 -74435 0
0 0 0 658 786278 -73777 0
0 0 0 715 786993 -73062 0
0 0 0 764 787757 -72298 0
0 0 0 701 788458 -71597 0
0 0 0 775 789233 -70822 0
0 0 0 1146 790379 -69676 0
0 0 0 1138 791517 -68538 0
0 0 0 1055 792572 -67483 0
0 0 0 952 793524 -66531 0
0 0 0 1044 794568 -65487 0
0 0 0 1103 795671 -64384 0
0 0 0 995 796666 -63389 0
0 0 0 815 797481 -62574 0
0 0 0 761 798242 -61813 0
0 0 0 794 799036 -61019 0
0 0 0 1136 800172 -59883 0
0 0 0 1118 801290 -58765 0
0 0 0 1030 802320 -57735 0
0 0 0 989 803309 -56746 0
0 0 0 953 804262 -55793 0
0 0 0 923 805185 -54870 0
0 0 0 898 806083 -53972 0
0 0 0 986 807069 -52986 0
0 0 0 955 808024 -52031 0
0 0 0 1155 809179 -50876 0
0 0 0 1057 810236 -49819 0
0 0 0 996 811232 -48823 0
0 0 0 1083 812315 -47740 0
0 0 0 1102 813417 -46638 0
0 0 0 1059 814476 -45579 0
0 0 0 966 815442 -44613 0
0 0 0 910 816352 -43703 0
0 0 0 808 817160 -42895 0
0 0 0 770 817930 -42125 0
0 0 0 749 818679 -41376 0
0 0 0 746 819425 -40630 0
0 0 0 749 820174 -39881 0
0 0 0 746 820920 -39135 0
0 0 0 732 821652 -38403 0
0 0 0 722 822374 -37681 0
0 0 0 840 823214 -36841 0
0 0 0 903 824117 -35938 0
0 0 0 904 825021 -35034 0
0 0 0 848 825869 -34186 0
0 0 0 885 826754 -33301 0
0 0 0 915 827669 -32386 0
0 0 0 887 828556 -31499 0
0 0 0 792 829348 -30707 0
0 0 0 808 830156 -29899 0
0 0 0 861 831017 -29038 0
0 0 0 812 831829 -28226 0
0 0 0 774 832603 -27452 0
0 0 0 740 833343 -26712 0
0 0 0 833 834176 -25879 0
0 0 0 1148 835324 -24731 0
0 0 0 1029 836353 -23702 0
0 0 0 973 837326 -22729 0
0 0 0 965 838291 -21764 0
0 0 0 991 839282 -20773 0
0 0 0 998 840280 -19775 0
0 0 0 933 841213 -18842 0
0 0 0 890 842103 -17952 0
0 0 0 1011 843114 -16941 0
0 0 0 1084 844198 -15857 0
0 0 0 1041 845239 -14816 0
0 0 0 893 846132 -13923 0
0 0 0 992 847124 -12931 0
0 0 0 1089 848213 -11842 0
0 0 0 925 849138 -10917 0
0 0 0 884 850022 -10033 0
0 0 0 934 850956 -9099 0
0 0 0 822 851778 -8277 0
0 0 0 763 852541 -7514 0
0 0 0 786 853327 -6728 0
0 0 0 817 854144 -5911 0
0 0 0 757 854901 -5154 0
0 0 0 885 855786 -4269 0
0 0 0 923 856709 -3346 0
0 0 0 845 857554 -2501 0
41 1 S102 904 858458 -1597 0
41 1 S102 824 859282 -773 0
41 2 S102 813 860095 40 0
41 2 S102 852 860947 892 0
41 2 S102 888 861835 1780 0
41 2 S102 893 862728 2673 0
41 2 S102 896 863624 3569 0
41 2 S102 974 864598 4543 0
41 2 S102 1019 865617 5562 0
41 2 S102 1005 866622 6567 0
0 0 0 977 867599 -5885 0
0 0 0 991 868590 -4894 0
0 0 0 968 869558 -3926 0
0 0 0 884 870442 -3042 0
0 0 0 991 871433 -2051 0
42 1 S112 1092 872525 -959 0
42 2 S112 1005 873530 46 0
42 2 S112 1081 874611 1127 0
42 2 S112 1132 875743 2259 0
42 2 S112 1110 876853 3369 0
42 2 S112 1086 877939 4455 0
42 2 S112 1086 879025 5541 0
42 2 S112 1051 880076 6592 0
0 0 0 1025 881101 -9475 0
0 0 0 1035 882136 -8440 0
0 0 0 867 883003 -7573 0
0 0 0 776 883779 -6797 0
0 0 0 837 884616 -5960 0
0 0 0 852 885468 -5108 0
0 0 0 795 886263 -4313 0
0 0 0 800 887063 -3513 0
0 0 0 776 887839 -2737 0
43 1 S116 775 888614 -1962 0
43 1 S116 896 889510 -1066 0
43 1 S116 1009 890519 -57 0
43 2 S116 1032 891551 975 0
43 2 S116 965 892516 1940 0
43 2 S116 1028 893544 2968 0
43 2 S116 1117 894661 4085 0
43 2 S116 1046 895707 5131 0
43 2 S116 1081 896788 6212 0
0 0 0 1106 897894 -7636 0
0 0 0 1073 898967 -6563 0
0 0 0 1033 900000 -5530 0
0 0 0 1062 901062 -4468 0
0 0 0 1051 902113 -3417 0
0 0 0 993 903106 -2424 0
44 1 S102 1051 904157 -1373 0
44 1 S102 1108 905265 -265 0
44 2 S102 1023 906288 758 0
44 2 S102 1056 907344 1814 0
44 2 S102 1082 908426 2896 0
44 2 S102 1045 909471 3941 0
44 2 S102 1050 910521 4991 0
44 2 S102 1095 911616 6086 0
0 0 0 1099 912715 -8067 0
0 0 0 1010 913725 -7057 0
0 0 0 1028 914753 -6029 0
0 0 0 975 915728 -5054 0
0 0 0 809 916537 -4245 0
0 0 0 712 917249 -3533 0
0 0 0 730 917979 -2803 0
0 0 0 741 918720 -2062 0
45 1 S116 798 919518 -1264 0
45 1 S116 824 920342 -440 0
45 2 S116 806 921148 366 0
45 2 S116 1032 922180 1398 0
45 2 S116 1129 923309 2527 0
45 2 S116 1072 924381 3599 0
45 2 S116 1002 925383 4601 0
45 2 S116 1043 926426 5644 0
45 2 S116 985 927411 6629 0
0 0 0 919 928330 -10125 0
0 0 0 965 929295 -9160 0
0 0 0 934 930229 -8226 0
0 0 0 863 931092 -7363 0
0 0 0 881 931973 -6482 0
0 0 0 888 932861 -5594 0
0 0 0 903 933764 -4691 0
0 0 0 797 934561 -3894 0
0 0 0 725 935286 -3169 0
0 0 0 786 936072 -2383 0
46 1 S102 945 937017 -1438 0
46 1 S102 1099 938116 -339 0
46 2 S102 1006 939122 667 0
46 2 S102 1009 940131 1676 0
46 2 S102 960 941091 2636 0
46 2 S102 918 942009 3554 0
46 2 S102 897 942906 4451 0
46 2 S102 942 943848 5393 0
46 2 S102 1032 944880 6425 0
0 0 0 990 945870 -10207 0
0 0 0 1015 946885 -9192 0
0 0 0 1075 947960 -8117 0
0 0 0 1059 949019 -7058 0
0 0 0 930 949949 -6128 0
0 0 0 919 950868 -5209 0
0 0 0 889 951757 -4320 0
0 0 0 808 952565 -3512 0
0 0 0 841 953406 -2671 0
47 1 S112 1234 954640 -1437 1
47 1 S112 1167 955807 -270 0
47 2 S112 1063 956870 793 0
47 2 S112 1125 957995 1918 0
47 2 S112 1121 959116 3039 0
47 2 S112 1025 960141 4064 0
47 2 S112 1068 961209 5132 0
47 2 S112 1078 962287 6210 0
0 0 0 997 963284 -10930 0
0 0 0 945 964229 -9985 0
0 0 0 903 965132 -9082 0
0 0 0 827 965959 -8255 0
0 0 0 759 966718 -7496 0
0 0 0 714 967432 -6782 0
0 0 0 754 968186 -6028 0
0 0 0 840 969026 -5188 0
0 0 0 970 969996 -4218 0
0 0 0 926 970922 -3292 0
0 0 0 827 971749 -2465 0
48 1 S116 958 972707 -1507 0
48 1 S116 1061 973768 -446 0
48 2 S116 952 974720 506 0
48 2 S116 919 975639 1425 0
48 2 S116 937 976576 2362 0
48 2 S116 900 977476 3262 0
48 2 S116 834 978310 4096 0
48 2 S116 816 979126 4912 0
48 2 S116 881 980007 5793 0
48 2 S116 984 980991 6777 0
0 0 0 985 981976 -6313 0
0 0 0 968 982944 -5345 0
0 0 0 963 983907 -4382 0
0 0 0 847 984754 -3535 0
0 0 0 849 985603 -2686 0
49 1 S112 879 986482 -1807 0
49 1 S112 822 987304 -985 0
49 1 S112 812 988116 -173 0
49 2 S112 814 988930 641 0
49 2 S112 802 989732 1443 0
49 2 S112 897 990629 2340 0
49 2 S112 943 991572 3283 0
49 2 S112 962 992534 4245 0
49 2 S112 913 993447 5158 0
49 2 S112 920 994367 6078 0
0 0 0 953 995320 -12117 0
0 0 0 935 996255 -11182 0
0 0 0 876 997131 -10306 0
0 0 0 904 998035 -9402 0
0 0 0 938 998973 -8464 0
0 0 0 895 999868 -7569 0
0 0 0 842 1000710 -6727 0
0 0 0 951 1001661 -5776 0
0 0 0 1001 1002662 -4775 0
0 0 0 941 1003603 -3834 0
0 0 0 828 1004431 -3006 0
0 0 0 758 1005189 -2248 0
50 1 S106 714 1005903 -1534 0
50 1 S106 747 1006650 -787 0
50 2 S106 827 1007477 40 0
50 2 S106 919 1008396 959 0
50 2 S106 756 1009152 1715 0
50 2 S106 708 1009860 2423 0
50 2 S106 813 1010673 3236 0
50 2 S106 842 1011515 4078 0
50 2 S106 902 1012417 4980 0
50 2 S106 919 1013336 5899 0
50 2 S106 927 1014263 6826 0
0 0 0 891 1015154 -5728 0
0 0 0 804 1015958 -4924 0
0 0 0 790 1016748 -4134 0
0 0 0 806 1017554 -3328 0
0 0 0 779 1018333 -2549 0
51 1 S112 750 1019083 -1799 0
51 1 S112 764 1019847 -1035 0
51 1 S112 861 1020708 -174 0
51 2 S112 912 1021620 738 0
51 2 S112 1056 1022676 1794 0
51 2 S112 1096 1023772 2890 0
51 2 S112 1082 1024854 3972 0
51 2 S112 1020 1025874 4992 0
51 2 S112 998 1026872 5990 0
51 2 S112 978 1027850 6968 0
0 0 0 987 1028837 -5375 0
0 0 0 951 1029788 -4424 0
0 0 0 1007 1030795 -3417 0
0 0 0 971 1031766 -2446 0
52 1 S116 942 1032708 -1504 0
52 1 S116 985 1033693 -519 0
52 2 S116 986 1034679 467 0
52 2 S116 942 1035621 1409 0
52 2 S116 974 1036595 2383 0
52 2 S116 1002 1037597 3385 0
52 2 S116 1001 1038598 4386 0
52 2 S116 906 1039504 5292 0
52 2 S116 1018 1040522 6310 0
0 0 0 1038 1041560 -10059 0
0 0 0 951 1042511 -9108 0
0 0 0 896 1043407 -8212 0
0 0 0 934 1044341 -7278 0
0 0 0 921 1045262 -6357 0
0 0 0 826 1046088 -5531 0
0 0 0 756 1046844 -4775 0
0 0 0 750 1047594 -4025 0
0 0 0 789 1048383 -3236 0
0 0 0 944 1049327 -2292 0
53 1 S106 1038 1050365 -1254 0
53 1 S106 933 1051298 -321 0
53 2 S106 953 1052251 632 0
53 2 S106 976 1053227 1608 0
53 2 S106 932 1054159 2540 0
53 2 S106 867 1055026 3407 0
53 2 S106 898 1055924 4305 0
53 2 S106 930 1056854 5235 0
53 2 S106 926 1057780 6161 0
0 0 0 945 1058725 -6554 0
0 0 0 1043 1059768 -5511 0
0 0 0 997 1060765 -4514 0
0 0 0 855 1061620 -3659 0
0 0 0 935 1062555 -2724 0
54 1 S102 984 1063539 -1740 0
54 1 S102 936 1064475 -804 0
54 2 S102 936 1065411 132 0
54 2 S102 819 1066230 951 0
54 2 S102 802 1067032 1753 0
54 2 S102 909 1067941 2662 0
54 2 S102 825 1068766 3487 0
54 2 S102 948 1069714 4435 0
54 2 S102 1008 1070722 5443 0
54 2 S102 991 1071713 6434 0
0 0 0 883 1072596 -10257 0
0 0 0 913 1073509 -9344 0
0 0 0 992 1074501 -8352 0
0 0 0 988 1075489 -7364 0
0 0 0 943 1076432 -6421 0
0 0 0 1135 1077567 -5286 0
0 0 0 1096 1078663 -4190 0
0 0 0 973 1079636 -3217 0
0 0 0 959 1080595 -2258 0
55 1 S106 965 1081560 -1293 0
55 1 S106 896 1082456 -397 0
55 2 S106 867 1083323 470 0
55 2 S106 1027 1084350 1497 0
55 2 S106 987 1085337 2484 0
55 2 S106 888 1086225 3372 0
55 2 S106 814 1087039 4186 0
55 2 S106 812 1087851 4998 0
55 2 S106 882 1088733 5880 0
55 2 S106 1048 1089781 6928 0
0 0 0 983 1090764 -5152 0
0 0 0 864 1091628 -4288 0
0 0 0 817 1092445 -3471 0
0 0 0 766 1093211 -2705 0
56 1 S116 776 1093987 -1929 0
56 1 S116 805 1094792 -1124 0
56 1 S116 774 1095566 -350 0
56 2 S116 835 1096401 485 0
56 2 S116 893 1097294 1378 0
56 2 S116 972 1098266 2350 0
56 2 S116 923 1099189 3273 0
56 2 S116 946 1100135 4219 0
56 2 S116 984 1101119 5203 0
56 2 S116 943 1102062 6146 0
0 0 0 935 1102997 -7906 0
0 0 0 1019 1104016 -6887 0
0 0 0 1034 1105050 -5853 0
0 0 0 945 1105995 -4908 0
0 0 0 944 1106939 -3964 0
0 0 0 915 1107854 -3049 0
0 0 0 984 1108838 -2065 0
57 1 S106 863 1109701 -1202 0
57 1 S106 822 1110523 -380 0
57 2 S106 1025 1111548 645 0
57 2 S106 1145 1112693 1790 0
57 2 S106 1039 1113732 2829 0
57 2 S106 988 1114720 3817 0
57 2 S106 1053 1115773 4870 0
57 2 S106 1003 1116776 5873 0
57 2 S106 854 1117630 6727 0
0 0 0 858 1118488 -7419 0
0 0 0 890 1119378 -6529 0
0 0 0 824 1120202 -5705 0
0 0 0 775 1120977 -4930 0
0 0 0 758 1121735 -4172 0
0 0 0 839 1122574 -3333 0
0 0 0 963 1123537 -2370 0
58 1 S102 831 1124368 -1539 0
58 1 S102 796 1125164 -743 0
58 2 S102 837 1126001 94 0
58 2 S102 842 1126843 936 0
58 2 S102 766 1127609 1702 0
58 2 S102 834 1128443 2536 0
58 2 S102 848 1129291 3384 0
58 2 S102 861 1130152 4245 0
58 2 S102 799 1130951 5044 0
58 2 S102 780 1131731 5824 0
58 2 S102 809 1132540 6633 0
0 0 0 868 1133408 -5994 0
0 0 0 886 1134294 -5108 0
0 0 0 764 1135058 -4344 0
0 0 0 705 1135763 -3639 0
0 0 0 709 1136472 -2930 0
0 0 0 782 1137254 -2148 0
59 1 S112 913 1138167 -1235 0
59 1 S112 856 1139023 -379 0
59 2 S112 845 1139868 466 0
59 2 S112 804 1140672 1270 0
59 2 S112 765 1141437 2035 0
59 2 S112 747 1142184 2782 0
59 2 S112 784 1142968 3566 0
59 2 S112 817 1143785 4383 0
59 2 S112 824 1144609 5207 0
59 2 S112 870 1145479 6077 0
59 2 S112 918 1146397 6995 0
0 0 0 943 1147340 -8690 0
0 0 0 894 1148234 -7796 0
0 0 0 900 1149134 -6896 0
0 0 0 917 1150051 -5979 0
0 0 0 862 1150913 -5117 0
0 0 0 836 1151749 -4281 0
0 0 0 852 1152601 -3429 0
0 0 0 895 1153496 -2534 0
60 1 S102 917 1154413 -1617 0
60 1 S102 918 1155331 -699 0
60 2 S102 971 1156302 272 0
60 2 S102 1089 1157391 1361 0
60 2 S102 1093 1158484 2454 0
60 2 S102 907 1159391 3361 0
60 2 S102 934 1160325 4295 0
60 2 S102 956 1161281 5251 0
60 2 S102 962 1162243 6213 0
0 0 0 878 1163121 -10217 0
0 0 0 971 1164092 -9246 0
0 0 0 910 1165002 -8336 0
0 0 0 831 1165833 -7505 0
0 0 0 752 1166585 -6753 0
0 0 0 728 1167313 -6025 0
0 0 0 771 1168084 -5254 0
0 0 0 929 1169013 -4325 0
0 0 0 1141 1170154 -3184 0
0 0 0 1075 1171229 -2109 0
61 1 S106 917 1172146 -1192 0
61 1 S106 966 1173112 -226 0
61 2 S106 1004 1174116 778 0
61 2 S106 938 1175054 1716 0
61 2 S106 986 1176040 2702 0
61 2 S106 1027 1177067 3729 0
61 2 S106 966 1178033 4695 0
61 2 S106 885 1178918 5580 0
61 2 S106 898 1179816 6478 0
0 0 0 948 1180764 -5803 0
0 0 0 852 1181616 -4951 0
0 0 0 892 1182508 -4059 0
0 0 0 974 1183482 -3085 0
0 0 0 1029 1184511 -2056 0
62 1 S112 859 1185370 -1197 0
62 1 S112 737 1186107 -460 0
62 2 S112 806 1186913 346 0
62 2 S112 817 1187730 1163 0
62 2 S112 855 1188585 2018 0
62 2 S112 893 1189478 2911 0
62 2 S112 910 1190388 3821 0
62 2 S112 858 1191246 4679 0
62 2 S112 801 1192047 5480 0
62 2 S112 818 1192865 6298 0
0 0 0 827 1193692 -13432 0
0 0 0 774 1194466 -12658 0
0 0 0 739 1195205 -11919 0
0 0 0 744 1195949 -11175 0
0 0 0 958 1196907 -10217 0
0 0 0 1135 1198042 -9082 0
0 0 0 972 1199014 -8110 0
0 0 0 945 1199959 -7165 0
0 0 0 1013 1200972 -6152 0
0 0 0 973 1201945 -5179 0
0 0 0 941 1202886 -4238 0
0 0 0 943 1203829 -3295 0
0 0 0 882 1204711 -2413 0
63 1 S102 906 1205617 -1507 0
63 1 S102 810 1206427 -697 0
63 2 S102 773 1207200 76 0
63 2 S102 833 1208033 909 0
63 2 S102 896 1208929 1805 0
63 2 S102 887 1209816 2692 0
63 2 S102 977 1210793 3669 0
63 2 S102 1084 1211877 4753 0
63 2 S102 1047 1212924 5800 0
63 2 S102 986 1213910 6786 0
0 0 0 1010 1214920 -7357 0
0 0 0 935 1215855 -6422 0
0 0 0 861 1216716 -5561 0
0 0 0 862 1217578 -4699 0
0 0 0 946 1218524 -3753 0
0 0 0 996 1219520 -2757 0
64 1 S112 1017 1220537 -1740 0
64 1 S112 934 1221471 -806 0
64 2 S112 1111 1222582 305 0
64 2 S112 1140 1223722 1445 0
64 2 S112 1074 1224796 2519 0
64 2 S112 1066 1225862 3585 0
64 2 S112 1056 1226918 4641 0
64 2 S112 1037 1227955 5678 0
64 2 S112 1054 1229009 6732 0
0 0 0 1076 1230085 -7378 0
0 0 0 976 1231061 -6402 0
0 0 0 950 1232011 -5452 0
0 0 0 923 1232934 -4529 0
0 0 0 927 1233861 -3602 0
0 0 0 832 1234693 -2770 0
65 1 S106 820 1235513 -1950 0
65 1 S106 927 1236440 -1023 0
65 2 S106 1060 1237500 37 0
65 2 S106 1030 1238530 1067 0
65 2 S106 895 1239425 1962 0
65 2 S106 929 1240354 2891 0
65 2 S106 927 1241281 3818 0
65 2 S106 911 1242192 4729 0
65 2 S106 978 1243170 5707 0
65 2 S106 952 1244122 6659 0
0 0 0 826 1244948 -5546 0
0 0 0 782 1245730 -4764 0
0 0 0 797 1246527 -3967 0
0 0 0 744 1247271 -3223 0
0 0 0 697 1247968 -2526 0
66 1 S116 671 1248639 -1855 0
66 1 S116 683 1249322 -1172 0
66 1 S116 786 1250108 -386 0
66 2 S116 848 1250956 462 0
66 2 S116 920 1251876 1382 0
66 2 S116 954 1252830 2336 0
66 2 S116 959 1253789 3295 0
66 2 S116 916 1254705 4211 0
66 2 S116 809 1255514 5020 0
66 2 S116 779 1256293 5799 0
66 2 S116 772 1257065 6571 0
0 0 0 783 1257848 -10385 0
0 0 0 829 1258677 -9556 0
0 0 0 807 1259484 -8749 0
0 0 0 791 1260275 -7958 0
0 0 0 771 1261046 -7187 0
0 0 0 744 1261790 -6443 0
0 0 0 802 1262592 -5641 0
0 0 0 909 1263501 -4732 0
0 0 0 805 1264306 -3927 0
0 0 0 789 1265095 -3138 0
0 0 0 864 1265959 -2274 0
67 1 S102 924 1266883 -1350 0
67 1 S102 886 1267769 -464 0
67 2 S102 920 1268689 456 0
67 2 S102 928 1269617 1384 0
67 2 S102 918 1270535 2302 0
67 2 S102 873 1271408 3175 0
67 2 S102 859 1272267 4034 0
67 2 S102 903 1273170 4937 0
67 2 S102 936 1274106 5873 0
67 2 S102 978 1275084 6851 0
0 0 0 961 1276045 -5218 0
0 0 0 927 1276972 -4291 0
0 0 0 917 1277889 -3374 0
0 0 0 831 1278720 -2543 0
68 1 S106 757 1279477 -1786 0
68 1 S106 744 1280221 -1042 0
68 1 S106 742 1280963 -300 0
68 2 S106 731 1281694 431 0
68 2 S106 723 1282417 1154 0
68 2 S106 778 1283195 1932 0
68 2 S106 852 1284047 2784 0
68 2 S106 817 1284864 3601 0
68 2 S106 869 1285733 4470 0
68 2 S106 903 1286636 5373 0
68 2 S106 925 1287561 6298 0
0 0 0 876 1288437 -10781 0
0 0 0 861 1289298 -9920 0
0 0 0 891 1290189 -9029 0
0 0 0 872 1291061 -8157 0
0 0 0 829 1291890 -7328 0
0 0 0 779 1292669 -6549 0
0 0 0 886 1293555 -5663 0
0 0 0 1011 1294566 -4652 0
0 0 0 1061 1295627 -3591 0
0 0 0 972 1296599 -2619 0
69 1 S102 995 1297594 -1624 0
69 1 S102 1059 1298653 -565 0
69 2 S102 1067 1299720 502 0
69 2 S102 952 1300672 1454 0
69 2 S102 882 1301554 2336 0
69 2 S102 922 1302476 3258 0
69 2 S102 970 1303446 4228 0
69 2 S102 965 1304411 5193 0
69 2 S102 914 1305325 6107 0
0 0 0 987 1306312 -8639 0
0 0 0 1143 1307455 -7496 0
0 0 0 1062 1308517 -6434 0
0 0 0 841 1309358 -5593 0
0 0 0 806 1310164 -4787 0
0 0 0 783 1310947 -4004 0
0 0 0 749 1311696 -3255 0
0 0 0 719 1312415 -2536 0
70 1 S112 716 1313131 -1820 0
70 1 S112 782 1313913 -1038 0
70 1 S112 916 1314829 -122 0
70 2 S112 1031 1315860 909 0
70 2 S112 1045 1316905 1954 0
70 2 S112 1059 1317964 3013 0
70 2 S112 1108 1319072 4121 0
70 2 S112 1001 1320073 5122 0
70 2 S112 951 1321024 6073 0
0 0 0 985 1322009 -12106 0
0 0 0 1014 1323023 -11092 0
0 0 0 893 1323916 -10199 0
0 0 0 934 1324850 -9265 0
0 0 0 919 1325769 -8346 0
0 0 0 853 1326622 -7493 0
0 0 0 800 1327422 -6693 0
0 0 0 830 1328252 -5863 0
0 0 0 806 1329058 -5057 0
0 0 0 792 1329850 -4265 0
0 0 0 864 1330714 -3401 0
0 0 0 983 1331697 -2418 0
71 1 S116 1032 1332729 -1386 0
71 1 S116 1060 1333789 -326 0
71 2 S116 944 1334733 618 0
71 2 S116 938 1335671 1556 0
71 2 S116 929 1336600 2485 0
71 2 S116 941 1337541 3426 0
71 2 S116 903 1338444 4329 0
71 2 S116 906 1339350 5235 0
71 2 S116 1000 1340350 6235 0
0 0 0 1037 1341387 -10500 0
0 0 0 968 1342355 -9532 0
0 0 0 944 1343299 -8588 0
0 0 0 966 1344265 -7622 0
0 0 0 876 1345141 -6746 0
0 0 0 805 1345946 -5941 0
0 0 0 766 1346712 -5175 0
0 0 0 781 1347493 -4394 0
0 0 0 787 1348280 -3607 0
0 0 0 752 1349032 -2855 0
0 0 0 847 1349879 -2008 0
72 1 S102 1022 1350901 -986 0
72 2 S102 1067 1351968 81 0
72 2 S102 973 1352941 1054 0
72 2 S102 953 1353894 2007 0
72 2 S102 943 1354837 2950 0
72 2 S102 902 1355739 3852 0
72 2 S102 873 1356612 4725 0
72 2 S102 960 1357572 5685 0
72 2 S102 1060 1358632 6745 0
0 0 0 978 1359610 -5474 0
0 0 0 906 1360516 -4568 0
0 0 0 875 1361391 -3693 0
0 0 0 880 1362271 -2813 0
73 1 S116 813 1363084 -2000 0
73 1 S116 753 1363837 -1247 0
73 1 S116 731 1364568 -516 0
73 2 S116 759 1365327 243 0
73 2 S116 1103 1366430 1346 0
73 2 S116 1150 1367580 2496 0
73 2 S116 1024 1368604 3520 0
73 2 S116 1066 1369670 4586 0
73 2 S116 1025 1370695 5611 0
73 2 S116 937 1371632 6548 0
0 0 0 901 1372533 -8897 0
0 0 0 889 1373422 -8008 0
0 0 0 867 1374289 -7141 0
0 0 0 786 1375075 -6355 0
0 0 0 827 1375902 -5528 0
0 0 0 865 1376767 -4663 0
0 0 0 959 1377726 -3704 0
0 0 0 950 1378676 -2754 0
74 1 S106 1036 1379712 -1718 0
74 1 S106 1086 1380798 -632 0
74 2 S106 1011 1381809 379 0
74 2 S106 967 1382776 1346 0
74 2 S106 1049 1383825 2395 0
74 2 S106 1033 1384858 3428 0
74 2 S106 940 1385798 4368 0
74 2 S106 930 1386728 5298 0
74 2 S106 997 1387725 6295 0
0 0 0 1077 1388802 -6653 0
0 0 0 969 1389771 -5684 0
0 0 0 1025 1390796 -4659 0
0 0 0 926 1391722 -3733 0
0 0 0 827 1392549 -2906 0
0 0 0 779 1393328 -2127 0
75 1 S112 783 1394111 -1344 0
75 1 S112 880 1394991 -464 0
75 2 S112 1028 1396019 564 0
75 2 S112 1040 1397059 1604 0
75 2 S112 979 1398038 2583 0
75 2 S112 998 1399036 3581 0
75 2 S112 1034 1400070 4615 0
75 2 S112 1051 1401121 5666 0
75 2 S112 1062 1402183 6728 0
0 0 0 1111 1403294 -7927 0
0 0 0 1000 1404294 -6927 0
0 0 0 962 1405256 -5965 0
0 0 0 990 1406246 -4975 0
0 0 0 954 1407200 -4021 0
0 0 0 867 1408067 -3154 0
0 0 0 910 1408977 -2244 0
76 1 S116 979 1409956 -1265 0
76 1 S116 1105 1411061 -160 0
76 2 S116 1053 1412114 893 0
76 2 S116 1097 1413211 1990 0
76 2 S116 1026 1414237 3016 0
76 2 S116 900 1415137 3916 0
76 2 S116 935 1416072 4851 0
76 2 S116 951 1417023 5802 0
76 2 S116 921 1417944 6723 0
0 0 0 871 1418815 -6962 0
0 0 0 957 1419772 -6005 0
0 0 0 1069 1420841 -4936 0
0 0 0 860 1421701 -4076 0
0 0 0 877 1422578 -3199 0
0 0 0 908 1423486 -2291 0
77 1 S106 821 1424307 -1470 0
77 1 S106 1043 1425350 -427 0
77 2 S106 1229 1426579 802 1
77 2 S106 1082 1427661 1884 0
77 2 S106 1037 1428698 2921 0
77 2 S106 1010 1429708 3931 0
77 2 S106 968 1430676 4899 0
77 2 S106 888 1431564 5787 0
77 2 S106 924 1432488 6711 0
0 0 0 945 1433433 -10713 0
0 0 0 901 1434334 -9812 0
0 0 0 934 1435268 -8878 0
0 0 0 985 1436253 -7893 0
0 0 0 1017 1437270 -6876 0
0 0 0 849 1438119 -6027 0
0 0 0 928 1439047 -5099 0
0 0 0 1011 1440058 -4088 0
0 0 0 963 1441021 -3125 0
0 0 0 892 1441913 -2233 0
78 1 S112 945 1442858 -1288 0
78 1 S112 1091 1443949 -197 0
78 2 S112 1011 1444960 814 0
78 2 S112 865 1445825 1679 0
78 2 S112 940 1446765 2619 0
78 2 S112 1050 1447815 3669 0
78 2 S112 1100 1448915 4769 0
78 2 S112 1038 1449953 5807 0
78 2 S112 1072 1451025 6879 0
0 0 0 1089 1452114 -9821 0
0 0 0 916 1453030 -8905 0
0 0 0 895 1453925 -8010 0
0 0 0 838 1454763 -7172 0
0 0 0 799 1455562 -6373 0
0 0 0 751 1456313 -5622 0
0 0 0 723 1457036 -4899 0
0 0 0 772 1457808 -4127 0
0 0 0 849 1458657 -3278 0
0 0 0 1016 1459673 -2262 0
79 1 S102 948 1460621 -1314 0
79 1 S102 879 1461500 -435 0
79 2 S102 938 1462438 503 0
79 2 S102 928 1463366 1431 0
79 2 S102 892 1464258 2323 0
79 2 S102 819 1465077 3142 0
79 2 S102 846 1465923 3988 0
79 2 S102 885 1466808 4873 0
79 2 S102 975 1467783 5848 0
79 2 S102 908 1468691 6756 0
0 0 0 1049 1469740 -7298 0
0 0 0 1077 1470817 -6221 0
0 0 0 991 1471808 -5230 0
0 0 0 968 1472776 -4262 0
0 0 0 1020 1473796 -3242 0
0 0 0 1104 1474900 -2138 0
80 1 S116 981 1475881 -1157 0
80 1 S116 918 1476799 -239 0
80 2 S116 919 1477718 680 0
80 2 S116 969 1478687 1649 0
80 2 S116 1012 1479699 2661 0
80 2 S116 1055 1480754 3716 0
80 2 S116 879 1481633 4595 0
80 2 S116 884 1482517 5479 0
80 2 S116 885 1483402 6364 0
