T_0115
BeatCount Mean SD BeatCountNoOutliers MeanNoOutliers SDNoOutliers
2137 701,818437061301 84,0176199684273 2087 695,005270723527 72,2156336291771

Trial TrialStatus Trialtype IBI AbsPosition RelPosition Outlier
0 0 0 611 728 -15074 0
0 0 0 616 1344 -14458 0
0 0 0 618 1962 -13840 0
0 0 0 592 2554 -13248 0
0 0 0 590 3144 -12658 0
0 0 0 588 3732 -12070 0
0 0 0 598 4330 -11472 0
0 0 0 593 4923 -10879 0
0 0 0 590 5513 -10289 0
0 0 0 592 6105 -9697 0
0 0 0 602 6707 -9095 0
0 0 0 605 7312 -8490 0
0 0 0 594 7906 -7896 0
0 0 0 561 8467 -7335 0
0 0 0 551 9018 -6784 0
0 0 0 559 9577 -6225 0
0 0 0 564 10141 -5661 0
0 0 0 575 10716 -5086 0
0 0 0 576 11292 -4510 0
0 0 0 592 11884 -3918 0
0 0 0 637 12521 -3281 0
0 0 0 734 13255 -2547 0
1 1 S112 758 14013 -1789 0
1 1 S112 790 14803 -999 0
1 1 S112 726 15529 -273 0
1 2 S112 716 16245 443 0
1 2 S112 673 16918 1116 0
1 2 S112 626 17544 1742 0
1 2 S112 598 18142 2340 0
1 2 S112 581 18723 2921 0
1 2 S112 595 19318 3516 0
1 2 S112 662 19980 4178 0
1 2 S112 1011 20991 5189 1
1 2 S112 778 21769 5967 0
1 2 S112 787 22556 6754 0
0 0 0 786 23342 -11310 0
0 0 0 727 24069 -10583 0
0 0 0 699 24768 -9884 0
0 0 0 696 25464 -9188 0
0 0 0 698 26162 -8490 0
0 0 0 634 26796 -7856 0
0 0 0 654 27450 -7202 0
0 0 0 641 28091 -6561 0
0 0 0 619 28710 -5942 0
0 0 0 649 29359 -5293 0
0 0 0 641 30000 -4652 0
0 0 0 629 30629 -4023 0
0 0 0 607 31236 -3416 0
0 0 0 625 31861 -2791 0
0 0 0 614 32475 -2177 0
2 1 S102 614 33089 -1563 0
2 1 S102 589 33678 -974 0
2 1 S102 569 34247 -405 0
2 2 S102 554 34801 149 0
2 2 S102 554 35355 703 0
2 2 S102 560 35915 1263 0
2 2 S102 594 36509 1857 0
2 2 S102 648 37157 2505 0
2 2 S102 653 37810 3158 0
2 2 S102 611 38421 3769 0
2 2 S102 613 39034 4382 0
2 2 S102 620 39654 5002 0
2 2 S102 627 40281 5629 0
2 2 S102 594 40875 6223 0
2 2 S102 592 41467 6815 0
0 0 0 599 42066 -9048 0
0 0 0 621 42687 -8427 0
0 0 0 651 43338 -7776 0
0 0 0 663 44001 -7113 0
0 0 0 647 44648 -6466 0
0 0 0 620 45268 -5846 0
0 0 0 641 45909 -5205 0
0 0 0 643 46552 -4562 0
0 0 0 622 47174 -3940 0
0 0 0 634 47808 -3306 0
0 0 0 668 48476 -2638 0
0 0 0 634 49110 -2004 0
3 1 S116 590 49700 -1414 0
3 1 S116 594 50294 -820 0
3 1 S116 605 50899 -215 0
3 2 S116 630 51529 415 0
3 2 S116 680 52209 1095 0
3 2 S116 688 52897 1783 0
3 2 S116 644 53541 2427 0
3 2 S116 633 54174 3060 0
3 2 S116 616 54790 3676 0
3 2 S116 600 55390 4276 0
3 2 S116 594 55984 4870 0
3 2 S116 607 56591 5477 0
3 2 S116 630 57221 6107 0
3 2 S116 907 58128 7014 0
0 0 0 753 58881 -11646 0
0 0 0 733 59614 -10913 0
0 0 0 720 60334 -10193 0
0 0 0 676 61010 -9517 0
0 0 0 682 61692 -8835 0
0 0 0 637 62329 -8198 0
0 0 0 635 62964 -7563 0
0 0 0 604 63568 -6959 0
0 0 0 613 64181 -6346 0
0 0 0 597 64778 -5749 0
0 0 0 613 65391 -5136 0
0 0 0 612 66003 -4524 0
0 0 0 594 66597 -3930 0
0 0 0 576 67173 -3354 0
0 0 0 598 67771 -2756 0
0 0 0 631 68402 -2125 0
4 1 S106 668 69070 -1457 0
4 1 S106 856 69926 -601 0
4 2 S106 740 70666 139 0
4 2 S106 648 71314 787 0
4 2 S106 600 71914 1387 0
4 2 S106 590 72504 1977 0
4 2 S106 577 73081 2554 0
4 2 S106 576 73657 3130 0
4 2 S106 578 74235 3708 0
4 2 S106 586 74821 4294 0
4 2 S106 580 75401 4874 0
4 2 S106 591 75992 5465 0
4 2 S106 623 76615 6088 0
4 2 S106 646 77261 6734 0
0 0 0 798 78059 -7090 0
0 0 0 723 78782 -6367 0
0 0 0 684 79466 -5683 0
0 0 0 659 80125 -5024 0
0 0 0 634 80759 -4390 0
0 0 0 609 81368 -3781 0
0 0 0 629 81997 -3152 0
0 0 0 698 82695 -2454 0
5 1 S116 1020 83715 -1434 1
5 1 S116 781 84496 -653 0
5 2 S116 758 85254 105 0
5 2 S116 773 86027 878 0
5 2 S116 860 86887 1738 0
5 2 S116 809 87696 2547 0
5 2 S116 809 88505 3356 0
5 2 S116 781 89286 4137 0
5 2 S116 746 90032 4883 0
5 2 S116 703 90735 5586 0
5 2 S116 751 91486 6337 0
0 0 0 784 92270 -10884 0
0 0 0 782 93052 -10102 0
0 0 0 763 93815 -9339 0
0 0 0 762 94577 -8577 0
0 0 0 734 95311 -7843 0
0 0 0 740 96051 -7103 0
0 0 0 705 96756 -6398 0
0 0 0 672 97428 -5726 0
0 0 0 635 98063 -5091 0
0 0 0 666 98729 -4425 0
0 0 0 695 99424 -3730 0
0 0 0 694 100118 -3036 0
0 0 0 760 100878 -2276 0
6 1 S106 764 101642 -1512 0
6 1 S106 810 102452 -702 0
6 2 S106 741 103193 39 0
6 2 S106 753 103946 792 0
6 2 S106 733 104679 1525 0
6 2 S106 691 105370 2216 0
6 2 S106 634 106004 2850 0
6 2 S106 635 106639 3485 0
6 2 S106 646 107285 4131 0
6 2 S106 665 107950 4796 0
6 2 S106 663 108613 5459 0
6 2 S106 873 109486 6332 0
0 0 0 836 110322 -11184 0
0 0 0 798 111120 -10386 0
0 0 0 777 111897 -9609 0
0 0 0 759 112656 -8850 0
0 0 0 690 113346 -8160 0
0 0 0 682 114028 -7478 0
0 0 0 657 114685 -6821 0
0 0 0 684 115369 -6137 0
0 0 0 648 116017 -5489 0
0 0 0 663 116680 -4826 0
0 0 0 670 117350 -4156 0
0 0 0 794 118144 -3362 0
0 0 0 699 118843 -2663 0
7 1 S102 729 119572 -1934 0
7 1 S102 725 120297 -1209 0
7 1 S102 690 120987 -519 0
7 2 S102 642 121629 123 0
7 2 S102 633 122262 756 0
7 2 S102 632 122894 1388 0
7 2 S102 635 123529 2023 0
7 2 S102 611 124140 2634 0
7 2 S102 620 124760 3254 0
7 2 S102 631 125391 3885 0
7 2 S102 654 126045 4539 0
7 2 S102 669 126714 5208 0
7 2 S102 694 127408 5902 0
7 2 S102 716 128124 6618 0
0 0 0 676 128800 -8588 0
0 0 0 664 129464 -7924 0
0 0 0 651 130115 -7273 0
0 0 0 694 130809 -6579 0
0 0 0 653 131462 -5926 0
0 0 0 657 132119 -5269 0
0 0 0 643 132762 -4626 0
0 0 0 623 133385 -4003 0
0 0 0 602 133987 -3401 0
0 0 0 579 134566 -2822 0
0 0 0 574 135140 -2248 0
8 1 S112 567 135707 -1681 0
8 1 S112 563 136270 -1118 0
8 1 S112 556 136826 -562 0
8 2 S112 593 137419 31 0
8 2 S112 753 138172 784 0
8 2 S112 907 139079 1691 0
8 2 S112 868 139947 2559 0
8 2 S112 784 140731 3343 0
8 2 S112 741 141472 4084 0
8 2 S112 690 142162 4774 0
8 2 S112 628 142790 5402 0
8 2 S112 639 143429 6041 0
8 2 S112 641 144070 6682 0
0 0 0 613 144683 -7476 0
0 0 0 616 145299 -6860 0
0 0 0 644 145943 -6216 0
0 0 0 703 146646 -5513 0
0 0 0 827 147473 -4686 0
0 0 0 764 148237 -3922 0
0 0 0 700 148937 -3222 0
0 0 0 644 149581 -2578 0
9 1 S116 617 150198 -1961 0
9 1 S116 616 150814 -1345 0
9 1 S116 645 151459 -700 0
9 2 S116 873 152332 173 0
9 2 S116 812 153144 985 0
9 2 S116 737 153881 1722 0
9 2 S116 706 154587 2428 0
9 2 S116 682 155269 3110 0
9 2 S116 634 155903 3744 0
9 2 S116 656 156559 4400 0
9 2 S116 667 157226 5067 0
9 2 S116 685 157911 5752 0
9 2 S116 671 158582 6423 0
0 0 0 669 159251 -12852 0
0 0 0 719 159970 -12133 0
0 0 0 766 160736 -11367 0
0 0 0 707 161443 -10660 0
0 0 0 670 162113 -9990 0
0 0 0 679 162792 -9311 0
0 0 0 651 163443 -8660 0
0 0 0 643 164086 -8017 0
0 0 0 663 164749 -7354 0
0 0 0 669 165418 -6685 0
0 0 0 643 166061 -6042 0
0 0 0 647 166708 -5395 0
0 0 0 650 167358 -4745 0
0 0 0 668 168026 -4077 0
0 0 0 644 168670 -3433 0
0 0 0 631 169301 -2802 0
0 0 0 640 169941 -2162 0
10 1 S102 633 170574 -1529 0
10 1 S102 648 171222 -881 0
10 1 S102 619 171841 -262 0
10 2 S102 632 172473 370 0
10 2 S102 628 173101 998 0
10 2 S102 659 173760 1657 0
10 2 S102 689 174449 2346 0
10 2 S102 660 175109 3006 0
10 2 S102 671 175780 3677 0
10 2 S102 677 176457 4354 0
10 2 S102 659 177116 5013 0
10 2 S102 626 177742 5639 0
10 2 S102 622 178364 6261 0
10 2 S102 619 178983 6880 0
0 0 0 642 179625 -11245 0
0 0 0 635 180260 -10610 0
0 0 0 691 180951 -9919 0
0 0 0 767 181718 -9152 0
0 0 0 726 182444 -8426 0
0 0 0 710 183154 -7716 0
0 0 0 682 183836 -7034 0
0 0 0 654 184490 -6380 0
0 0 0 619 185109 -5761 0
0 0 0 615 185724 -5146 0
0 0 0 620 186344 -4526 0
0 0 0 673 187017 -3853 0
0 0 0 681 187698 -3172 0
0 0 0 674 188372 -2498 0
11 1 S112 646 189018 -1852 0
11 1 S112 659 189677 -1193 0
11 1 S112 635 190312 -558 0
11 2 S112 618 190930 60 0
11 2 S112 625 191555 685 0
11 2 S112 632 192187 1317 0
11 2 S112 658 192845 1975 0
11 2 S112 629 193474 2604 0
11 2 S112 646 194120 3250 0
11 2 S112 667 194787 3917 0
11 2 S112 660 195447 4577 0
11 2 S112 627 196074 5204 0
11 2 S112 612 196686 5816 0
11 2 S112 619 197305 6435 0
0 0 0 649 197954 -7074 0
0 0 0 790 198744 -6284 0
0 0 0 790 199534 -5494 0
0 0 0 785 200319 -4709 0
0 0 0 737 201056 -3972 0
0 0 0 697 201753 -3275 0
0 0 0 653 202406 -2622 0
0 0 0 607 203013 -2015 0
12 1 S116 609 203622 -1406 0
12 1 S116 605 204227 -801 0
12 1 S116 627 204854 -174 0
12 2 S116 652 205506 478 0
12 2 S116 645 206151 1123 0
12 2 S116 666 206817 1789 0
12 2 S116 663 207480 2452 0
12 2 S116 675 208155 3127 0
12 2 S116 660 208815 3787 0
12 2 S116 705 209520 4492 0
12 2 S116 657 210177 5149 0
12 2 S116 645 210822 5794 0
12 2 S116 623 211445 6417 0
0 0 0 614 212059 -11835 0
0 0 0 635 212694 -11200 0
0 0 0 667 213361 -10533 0
0 0 0 685 214046 -9848 0
0 0 0 770 214816 -9078 0
0 0 0 770 215586 -8308 0
0 0 0 680 216266 -7628 0
0 0 0 637 216903 -6991 0
0 0 0 629 217532 -6362 0
0 0 0 630 218162 -5732 0
0 0 0 665 218827 -5067 0
0 0 0 680 219507 -4387 0
0 0 0 666 220173 -3721 0
0 0 0 666 220839 -3055 0
0 0 0 650 221489 -2405 0
13 1 S112 630 222119 -1775 0
13 1 S112 632 222751 -1143 0
13 1 S112 621 223372 -522 0
13 2 S112 639 224011 117 0
13 2 S112 622 224633 739 0
13 2 S112 624 225257 1363 0
13 2 S112 652 225909 2015 0
13 2 S112 697 226606 2712 0
13 2 S112 706 227312 3418 0
13 2 S112 728 228040 4146 0
13 2 S112 731 228771 4877 0
13 2 S112 678 229449 5555 0
13 2 S112 661 230110 6216 0
13 2 S112 694 230804 6910 0
0 0 0 689 231493 -11135 0
0 0 0 672 232165 -10463 0
0 0 0 652 232817 -9811 0
0 0 0 660 233477 -9151 0
0 0 0 640 234117 -8511 0
0 0 0 628 234745 -7883 0
0 0 0 599 235344 -7284 0
0 0 0 592 235936 -6692 0
0 0 0 598 236534 -6094 0
0 0 0 632 237166 -5462 0
0 0 0 634 237800 -4828 0
0 0 0 634 238434 -4194 0
0 0 0 602 239036 -3592 0
0 0 0 598 239634 -2994 0
0 0 0 617 240251 -2377 0
14 1 S106 614 240865 -1763 0
14 1 S106 601 241466 -1162 0
14 1 S106 583 242049 -579 0
14 2 S106 599 242648 20 0
14 2 S106 617 243265 637 0
14 2 S106 631 243896 1268 0
14 2 S106 655 244551 1923 0
14 2 S106 660 245211 2583 0
14 2 S106 686 245897 3269 0
14 2 S106 709 246606 3978 0
14 2 S106 643 247249 4621 0
14 2 S106 642 247891 5263 0
14 2 S106 651 248542 5914 0
14 2 S106 697 249239 6611 0
0 0 0 810 250049 -11030 0
0 0 0 704 250753 -10326 0
0 0 0 667 251420 -9659 0
0 0 0 719 252139 -8940 0
0 0 0 660 252799 -8280 0
0 0 0 618 253417 -7662 0
0 0 0 608 254025 -7054 0
0 0 0 608 254633 -6446 0
0 0 0 609 255242 -5837 0
0 0 0 601 255843 -5236 0
0 0 0 949 256792 -4287 1
0 0 0 892 257684 -3395 0
0 0 0 859 258543 -2536 0
15 1 S116 827 259370 -1709 0
15 1 S116 756 260126 -953 0
15 1 S116 706 260832 -247 0
15 2 S116 690 261522 443 0
15 2 S116 661 262183 1104 0
15 2 S116 630 262813 1734 0
15 2 S116 617 263430 2351 0
15 2 S116 603 264033 2954 0
15 2 S116 603 264636 3557 0
15 2 S116 615 265251 4172 0
15 2 S116 633 265884 4805 0
15 2 S116 642 266526 5447 0
15 2 S116 739 267265 6186 0
0 0 0 906 268171 -10266 0
0 0 0 852 269023 -9414 0
0 0 0 756 269779 -8658 0
0 0 0 737 270516 -7921 0
0 0 0 713 271229 -7208 0
0 0 0 698 271927 -6510 0
0 0 0 719 272646 -5791 0
0 0 0 746 273392 -5045 0
0 0 0 739 274131 -4306 0
0 0 0 750 274881 -3556 0
0 0 0 755 275636 -2801 0
0 0 0 735 276371 -2066 0
16 1 S116 698 277069 -1368 0
16 1 S116 683 277752 -685 0
16 1 S116 664 278416 -21 0
16 2 S116 645 279061 624 0
16 2 S116 608 279669 1232 0
16 2 S116 640 280309 1872 0
16 2 S116 698 281007 2570 0
16 2 S116 716 281723 3286 0
16 2 S116 747 282470 4033 0
16 2 S116 718 283188 4751 0
16 2 S116 714 283902 5465 0
16 2 S116 692 284594 6157 0
16 2 S116 667 285261 6824 0
0 0 0 639 285900 -8767 0
0 0 0 656 286556 -8111 0
0 0 0 677 287233 -7434 0
0 0 0 985 288218 -6449 1
0 0 0 768 288986 -5681 0
0 0 0 756 289742 -4925 0
0 0 0 751 290493 -4174 0
0 0 0 723 291216 -3451 0
0 0 0 703 291919 -2748 0
0 0 0 690 292609 -2058 0
17 1 S106 676 293285 -1382 0
17 1 S106 639 293924 -743 0
17 1 S106 639 294563 -104 0
17 2 S106 651 295214 547 0
17 2 S106 675 295889 1222 0
17 2 S106 691 296580 1913 0
17 2 S106 640 297220 2553 0
17 2 S106 654 297874 3207 0
17 2 S106 653 298527 3860 0
17 2 S106 661 299188 4521 0
17 2 S106 643 299831 5164 0
17 2 S106 626 300457 5790 0
17 2 S106 638 301095 6428 0
0 0 0 646 301741 -11046 0
0 0 0 823 302564 -10223 0
0 0 0 735 303299 -9488 0
0 0 0 716 304015 -8772 0
0 0 0 665 304680 -8107 0
0 0 0 637 305317 -7470 0
0 0 0 627 305944 -6843 0
0 0 0 730 306674 -6113 0
0 0 0 775 307449 -5338 0
0 0 0 776 308225 -4562 0
0 0 0 757 308982 -3805 0
0 0 0 729 309711 -3076 0
0 0 0 725 310436 -2351 0
18 1 S102 660 311096 -1691 0
18 1 S102 653 311749 -1038 0
18 1 S102 647 312396 -391 0
18 2 S102 679 313075 288 0
18 2 S102 663 313738 951 0
18 2 S102 647 314385 1598 0
18 2 S102 646 315031 2244 0
18 2 S102 650 315681 2894 0
18 2 S102 646 316327 3540 0
18 2 S102 643 316970 4183 0
18 2 S102 655 317625 4838 0
18 2 S102 659 318284 5497 0
18 2 S102 667 318951 6164 0
18 2 S102 629 319580 6793 0
0 0 0 648 320228 -6386 0
0 0 0 644 320872 -5742 0
0 0 0 692 321564 -5050 0
0 0 0 686 322250 -4364 0
0 0 0 653 322903 -3711 0
0 0 0 651 323554 -3060 0
0 0 0 618 324172 -2442 0
19 1 S106 597 324769 -1845 0
19 1 S106 585 325354 -1260 0
19 1 S106 585 325939 -675 0
19 1 S106 588 326527 -87 0
19 2 S106 588 327115 501 0
19 2 S106 586 327701 1087 0
19 2 S106 590 328291 1677 0
19 2 S106 639 328930 2316 0
19 2 S106 670 329600 2986 0
19 2 S106 686 330286 3672 0
19 2 S106 699 330985 4371 0
19 2 S106 686 331671 5057 0
19 2 S106 637 332308 5694 0
19 2 S106 604 332912 6298 0
19 2 S106 603 333515 6901 0
0 0 0 612 334127 -12116 0
0 0 0 668 334795 -11448 0
0 0 0 849 335644 -10599 0
0 0 0 753 336397 -9846 0
0 0 0 747 337144 -9099 0
0 0 0 724 337868 -8375 0
0 0 0 701 338569 -7674 0
0 0 0 650 339219 -7024 0
0 0 0 660 339879 -6364 0
0 0 0 667 340546 -5697 0
0 0 0 727 341273 -4970 0
0 0 0 774 342047 -4196 0
0 0 0 692 342739 -3504 0
0 0 0 679 343418 -2825 0
0 0 0 657 344075 -2168 0
20 1 S112 649 344724 -1519 0
20 1 S112 621 345345 -898 0
20 1 S112 621 345966 -277 0
20 2 S112 619 346585 342 0
20 2 S112 627 347212 969 0
20 2 S112 613 347825 1582 0
20 2 S112 607 348432 2189 0
20 2 S112 618 349050 2807 0
20 2 S112 616 349666 3423 0
20 2 S112 628 350294 4051 0
20 2 S112 639 350933 4690 0
20 2 S112 724 351657 5414 0
20 2 S112 754 352411 6168 0
20 2 S112 695 353106 6863 0
0 0 0 652 353758 -9262 0
0 0 0 640 354398 -8622 0
0 0 0 643 355041 -7979 0
0 0 0 635 355676 -7344 0
0 0 0 637 356313 -6707 0
0 0 0 623 356936 -6084 0
0 0 0 642 357578 -5442 0
0 0 0 665 358243 -4777 0
0 0 0 672 358915 -4105 0
0 0 0 839 359754 -3266 0
0 0 0 795 360549 -2471 0
21 1 S106 708 361257 -1763 0
21 1 S106 672 361929 -1091 0
21 1 S106 648 362577 -443 0
21 2 S106 629 363206 186 0
21 2 S106 606 363812 792 0
21 2 S106 601 364413 1393 0
21 2 S106 601 365014 1994 0
21 2 S106 616 365630 2610 0
21 2 S106 635 366265 3245 0
21 2 S106 668 366933 3913 0
21 2 S106 744 367677 4657 0
21 2 S106 737 368414 5394 0
21 2 S106 716 369130 6110 0
21 2 S106 654 369784 6764 0
0 0 0 657 370441 -10948 0
0 0 0 652 371093 -10296 0
0 0 0 650 371743 -9646 0
0 0 0 636 372379 -9010 0
0 0 0 640 373019 -8370 0
0 0 0 631 373650 -7739 0
0 0 0 643 374293 -7096 0
0 0 0 656 374949 -6440 0
0 0 0 634 375583 -5806 0
0 0 0 633 376216 -5173 0
0 0 0 667 376883 -4506 0
0 0 0 663 377546 -3843 0
0 0 0 626 378172 -3217 0
0 0 0 609 378781 -2608 0
0 0 0 606 379387 -2002 0
22 1 S116 621 380008 -1381 0
22 1 S116 686 380694 -695 0
22 2 S116 731 381425 36 0
22 2 S116 757 382182 793 0
22 2 S116 737 382919 1530 0
22 2 S116 714 383633 2244 0
22 2 S116 695 384328 2939 0
22 2 S116 653 384981 3592 0
22 2 S116 612 385593 4204 0
22 2 S116 604 386197 4808 0
22 2 S116 612 386809 5420 0
22 2 S116 676 387485 6096 0
22 2 S116 865 388350 6961 0
0 0 0 845 389195 -9269 0
0 0 0 845 390040 -8424 0
0 0 0 806 390846 -7618 0
0 0 0 770 391616 -6848 0
0 0 0 721 392337 -6127 0
0 0 0 701 393038 -5426 0
0 0 0 644 393682 -4782 0
0 0 0 656 394338 -4126 0
0 0 0 622 394960 -3504 0
0 0 0 597 395557 -2907 0
0 0 0 578 396135 -2329 0
23 1 S112 588 396723 -1741 0
23 1 S112 607 397330 -1134 0
23 1 S112 612 397942 -522 0
23 2 S112 611 398553 89 0
23 2 S112 591 399144 680 0
23 2 S112 608 399752 1288 0
23 2 S112 640 400392 1928 0
23 2 S112 632 401024 2560 0
23 2 S112 672 401696 3232 0
23 2 S112 664 402360 3896 0
23 2 S112 655 403015 4551 0
23 2 S112 613 403628 5164 0
23 2 S112 604 404232 5768 0
23 2 S112 591 404823 6359 0
23 2 S112 599 405422 6958 0
0 0 0 618 406040 -9036 0
0 0 0 619 406659 -8417 0
0 0 0 682 407341 -7735 0
0 0 0 1100 408441 -6635 1
0 0 0 817 409258 -5818 0
0 0 0 816 410074 -5002 0
0 0 0 796 410870 -4206 0
0 0 0 741 411611 -3465 0
0 0 0 726 412337 -2739 0
0 0 0 713 413050 -2026 0
24 1 S106 753 413803 -1273 0
24 1 S106 717 414520 -556 0
24 2 S106 715 415235 159 0
24 2 S106 741 415976 900 0
24 2 S106 767 416743 1667 0
24 2 S106 724 417467 2391 0
24 2 S106 754 418221 3145 0
24 2 S106 831 419052 3976 0
24 2 S106 846 419898 4822 0
24 2 S106 881 420779 5703 0
24 2 S106 870 421649 6573 0
0 0 0 926 422575 -8599 1
0 0 0 918 423493 -7681 0
0 0 0 1032 424525 -6649 1
0 0 0 1060 425585 -5589 1
0 0 0 964 426549 -4625 1
0 0 0 809 427358 -3816 0
0 0 0 788 428146 -3028 0
0 0 0 775 428921 -2253 0
25 1 S102 826 429747 -1427 0
25 1 S102 830 430577 -597 0
25 2 S102 781 431358 184 0
25 2 S102 747 432105 931 0
25 2 S102 741 432846 1672 0
25 2 S102 734 433580 2406 0
25 2 S102 682 434262 3088 0
25 2 S102 675 434937 3763 0
25 2 S102 683 435620 4446 0
25 2 S102 728 436348 5174 0
25 2 S102 693 437041 5867 0
25 2 S102 651 437692 6518 0
0 0 0 669 438361 -6357 0
0 0 0 669 439030 -5688 0
0 0 0 657 439687 -5031 0
0 0 0 612 440299 -4419 0
0 0 0 616 440915 -3803 0
0 0 0 589 441504 -3214 0
0 0 0 583 442087 -2631 0
0 0 0 565 442652 -2066 0
26 1 S116 579 443231 -1487 0
26 1 S116 652 443883 -835 0
26 2 S116 1059 444942 224 1
26 2 S116 749 445691 973 0
26 2 S116 751 446442 1724 0
26 2 S116 774 447216 2498 0
26 2 S116 795 448011 3293 0
26 2 S116 734 448745 4027 0
26 2 S116 717 449462 4744 0
26 2 S116 712 450174 5456 0
26 2 S116 699 450873 6155 0
26 2 S116 647 451520 6802 0
0 0 0 674 452194 -7063 0
0 0 0 697 452891 -6366 0
0 0 0 779 453670 -5587 0
0 0 0 778 454448 -4809 0
0 0 0 760 455208 -4049 0
0 0 0 743 455951 -3306 0
0 0 0 712 456663 -2594 0
27 1 S106 678 457341 -1916 0
27 1 S106 682 458023 -1234 0
27 1 S106 707 458730 -527 0
27 2 S106 659 459389 132 0
27 2 S106 654 460043 786 0
27 2 S106 666 460709 1452 0
27 2 S106 680 461389 2132 0
27 2 S106 683 462072 2815 0
27 2 S106 648 462720 3463 0
27 2 S106 670 463390 4133 0
27 2 S106 682 464072 4815 0
27 2 S106 808 464880 5623 0
27 2 S106 725 465605 6348 0
0 0 0 683 466288 -7525 0
0 0 0 704 466992 -6821 0
0 0 0 721 467713 -6100 0
0 0 0 771 468484 -5329 0
0 0 0 743 469227 -4586 0
0 0 0 729 469956 -3857 0
0 0 0 733 470689 -3124 0
0 0 0 766 471455 -2358 0
28 1 S102 730 472185 -1628 0
28 1 S102 726 472911 -902 0
28 1 S102 717 473628 -185 0
28 2 S102 694 474322 509 0
28 2 S102 647 474969 1156 0
28 2 S102 618 475587 1774 0
28 2 S102 605 476192 2379 0
28 2 S102 628 476820 3007 0
28 2 S102 635 477455 3642 0
28 2 S102 720 478175 4362 0
28 2 S102 869 479044 5231 0
28 2 S102 857 479901 6088 0
28 2 S102 755 480656 6843 0
0 0 0 756 481412 -10439 0
0 0 0 753 482165 -9686 0
0 0 0 784 482949 -8902 0
0 0 0 730 483679 -8172 0
0 0 0 752 484431 -7420 0
0 0 0 757 485188 -6663 0
0 0 0 761 485949 -5902 0
0 0 0 723 486672 -5179 0
0 0 0 726 487398 -4453 0
0 0 0 708 488106 -3745 0
0 0 0 689 488795 -3056 0
0 0 0 672 489467 -2384 0
29 1 S112 725 490192 -1659 0
29 1 S112 717 490909 -942 0
29 1 S112 735 491644 -207 0
29 2 S112 726 492370 519 0
29 2 S112 725 493095 1244 0
29 2 S112 698 493793 1942 0
29 2 S112 652 494445 2594 0
29 2 S112 625 495070 3219 0
29 2 S112 636 495706 3855 0
29 2 S112 660 496366 4515 0
29 2 S112 1039 497405 5554 1
29 2 S112 872 498277 6426 0
0 0 0 830 499107 -7382 0
0 0 0 780 499887 -6602 0
0 0 0 726 500613 -5876 0
0 0 0 724 501337 -5152 0
0 0 0 706 502043 -4446 0
0 0 0 643 502686 -3803 0
0 0 0 610 503296 -3193 0
0 0 0 592 503888 -2601 0
30 1 S112 603 504491 -1998 0
30 1 S112 687 505178 -1311 0
30 1 S112 704 505882 -607 0
30 2 S112 713 506595 106 0
30 2 S112 731 507326 837 0
30 2 S112 731 508057 1568 0
30 2 S112 673 508730 2241 0
30 2 S112 643 509373 2884 0
30 2 S112 632 510005 3516 0
30 2 S112 619 510624 4135 0
30 2 S112 610 511234 4745 0
30 2 S112 601 511835 5346 0
30 2 S112 626 512461 5972 0
30 2 S112 645 513106 6617 0
0 0 0 754 513860 -8097 0
0 0 0 765 514625 -7332 0
0 0 0 801 515426 -6531 0
0 0 0 741 516167 -5790 0
0 0 0 696 516863 -5094 0
0 0 0 677 517540 -4417 0
0 0 0 678 518218 -3739 0
0 0 0 709 518927 -3030 0
0 0 0 723 519650 -2307 0
31 1 S106 754 520404 -1553 0
31 1 S106 730 521134 -823 0
31 1 S106 713 521847 -110 0
31 2 S106 673 522520 563 0
31 2 S106 712 523232 1275 0
31 2 S106 728 523960 2003 0
31 2 S106 805 524765 2808 0
31 2 S106 805 525570 3613 0
31 2 S106 790 526360 4403 0
31 2 S106 745 527105 5148 0
31 2 S106 698 527803 5846 0
31 2 S106 681 528484 6527 0
0 0 0 680 529164 -9255 0
0 0 0 711 529875 -8544 0
0 0 0 707 530582 -7837 0
0 0 0 687 531269 -7150 0
0 0 0 696 531965 -6454 0
0 0 0 699 532664 -5755 0
0 0 0 675 533339 -5080 0
0 0 0 670 534009 -4410 0
0 0 0 673 534682 -3737 0
0 0 0 647 535329 -3090 0
0 0 0 619 535948 -2471 0
32 1 S102 626 536574 -1845 0
32 1 S102 617 537191 -1228 0
32 1 S102 617 537808 -611 0
32 1 S102 610 538418 -1 0
32 2 S102 593 539011 592 0
32 2 S102 613 539624 1205 0
32 2 S102 625 540249 1830 0
32 2 S102 624 540873 2454 0
32 2 S102 643 541516 3097 0
32 2 S102 634 542150 3731 0
32 2 S102 649 542799 4380 0
32 2 S102 673 543472 5053 0
32 2 S102 662 544134 5715 0
32 2 S102 652 544786 6367 0
0 0 0 690 545476 -11014 0
0 0 0 727 546203 -10287 0
0 0 0 779 546982 -9508 0
0 0 0 738 547720 -8770 0
0 0 0 656 548376 -8114 0
0 0 0 638 549014 -7476 0
0 0 0 626 549640 -6850 0
0 0 0 602 550242 -6248 0
0 0 0 600 550842 -5648 0
0 0 0 609 551451 -5039 0
0 0 0 643 552094 -4396 0
0 0 0 770 552864 -3626 0
0 0 0 754 553618 -2872 0
0 0 0 754 554372 -2118 0
33 1 S112 729 555101 -1389 0
33 1 S112 675 555776 -714 0
33 1 S112 663 556439 -51 0
33 2 S112 638 557077 587 0
33 2 S112 632 557709 1219 0
33 2 S112 602 558311 1821 0
33 2 S112 606 558917 2427 0
33 2 S112 612 559529 3039 0
33 2 S112 640 560169 3679 0
33 2 S112 647 560816 4326 0
33 2 S112 723 561539 5049 0
33 2 S112 710 562249 5759 0
33 2 S112 730 562979 6489 0
0 0 0 675 563654 -10541 0
0 0 0 665 564319 -9876 0
0 0 0 649 564968 -9227 0
0 0 0 660 565628 -8567 0
0 0 0 628 566256 -7939 0
0 0 0 634 566890 -7305 0
0 0 0 651 567541 -6654 0
0 0 0 676 568217 -5978 0
0 0 0 709 568926 -5269 0
0 0 0 691 569617 -4578 0
0 0 0 683 570300 -3895 0
0 0 0 641 570941 -3254 0
0 0 0 627 571568 -2627 0
0 0 0 605 572173 -2022 0
34 1 S106 593 572766 -1429 0
34 1 S106 593 573359 -836 0
34 1 S106 618 573977 -218 0
34 2 S106 713 574690 495 0
34 2 S106 908 575598 1403 0
34 2 S106 842 576440 2245 0
34 2 S106 807 577247 3052 0
34 2 S106 768 578015 3820 0
34 2 S106 723 578738 4543 0
34 2 S106 694 579432 5237 0
34 2 S106 686 580118 5923 0
34 2 S106 673 580791 6596 0
0 0 0 654 581445 -8782 0
0 0 0 686 582131 -8096 0
0 0 0 690 582821 -7406 0
0 0 0 802 583623 -6604 0
0 0 0 732 584355 -5872 0
0 0 0 737 585092 -5135 0
0 0 0 713 585805 -4422 0
0 0 0 727 586532 -3695 0
0 0 0 682 587214 -3013 0
0 0 0 638 587852 -2375 0
35 1 S102 638 588490 -1737 0
35 1 S102 645 589135 -1092 0
35 1 S102 685 589820 -407 0
35 2 S102 699 590519 292 0
35 2 S102 663 591182 955 0
35 2 S102 673 591855 1628 0
35 2 S102 657 592512 2285 0
35 2 S102 656 593168 2941 0
35 2 S102 642 593810 3583 0
35 2 S102 622 594432 4205 0
35 2 S102 639 595071 4844 0
35 2 S102 649 595720 5493 0
35 2 S102 675 596395 6168 0
35 2 S102 675 597070 6843 0
0 0 0 694 597764 -6123 0
0 0 0 686 598450 -5437 0
0 0 0 657 599107 -4780 0
0 0 0 640 599747 -4140 0
0 0 0 616 600363 -3524 0
0 0 0 613 600976 -2911 0
0 0 0 610 601586 -2301 0
36 1 S106 600 602186 -1701 0
36 1 S106 612 602798 -1089 0
36 1 S106 641 603439 -448 0
36 2 S106 700 604139 252 0
36 2 S106 716 604855 968 0
36 2 S106 729 605584 1697 0
36 2 S106 699 606283 2396 0
36 2 S106 662 606945 3058 0
36 2 S106 639 607584 3697 0
36 2 S106 624 608208 4321 0
36 2 S106 633 608841 4954 0
36 2 S106 616 609457 5570 0
36 2 S106 612 610069 6182 0
36 2 S106 625 610694 6807 0
0 0 0 634 611328 -8392 0
0 0 0 787 612115 -7605 0
0 0 0 743 612858 -6862 0
0 0 0 662 613520 -6200 0
0 0 0 611 614131 -5589 0
0 0 0 585 614716 -5004 0
0 0 0 588 615304 -4416 0
0 0 0 632 615936 -3784 0
0 0 0 632 616568 -3152 0
0 0 0 648 617216 -2504 0
37 1 S116 653 617869 -1851 0
37 1 S116 665 618534 -1186 0
37 1 S116 679 619213 -507 0
37 2 S116 632 619845 125 0
37 2 S116 612 620457 737 0
37 2 S116 616 621073 1353 0
37 2 S116 609 621682 1962 0
37 2 S116 607 622289 2569 0
37 2 S116 604 622893 3173 0
37 2 S116 587 623480 3760 0
37 2 S116 596 624076 4356 0
37 2 S116 591 624667 4947 0
37 2 S116 616 625283 5563 0
37 2 S116 668 625951 6231 0
0 0 0 825 626776 -11677 0
0 0 0 809 627585 -10868 0
0 0 0 812 628397 -10056 0
0 0 0 796 629193 -9260 0
0 0 0 753 629946 -8507 0
0 0 0 701 630647 -7806 0
0 0 0 690 631337 -7116 0
0 0 0 656 631993 -6460 0
0 0 0 626 632619 -5834 0
0 0 0 648 633267 -5186 0
0 0 0 656 633923 -4530 0
0 0 0 787 634710 -3743 0
0 0 0 807 635517 -2936 0
0 0 0 769 636286 -2167 0
38 1 S102 734 637020 -1433 0
38 1 S102 696 637716 -737 0
38 1 S102 643 638359 -94 0
38 2 S102 646 639005 552 0
38 2 S102 637 639642 1189 0
38 2 S102 644 640286 1833 0
38 2 S102 634 640920 2467 0
38 2 S102 672 641592 3139 0
38 2 S102 733 642325 3872 0
38 2 S102 752 643077 4624 0
38 2 S102 734 643811 5358 0
38 2 S102 732 644543 6090 0
38 2 S102 690 645233 6780 0
0 0 0 677 645910 -9088 0
0 0 0 628 646538 -8460 0
0 0 0 631 647169 -7829 0
0 0 0 627 647796 -7202 0
0 0 0 634 648430 -6568 0
0 0 0 609 649039 -5959 0
0 0 0 595 649634 -5364 0
0 0 0 583 650217 -4781 0
0 0 0 589 650806 -4192 0
0 0 0 598 651404 -3594 0
0 0 0 660 652064 -2934 0
0 0 0 721 652785 -2213 0
39 1 S116 772 653557 -1441 0
39 1 S116 709 654266 -732 0
39 1 S116 673 654939 -59 0
39 2 S116 640 655579 581 0
39 2 S116 622 656201 1203 0
39 2 S116 596 656797 1799 0
39 2 S116 607 657404 2406 0
39 2 S116 611 658015 3017 0
39 2 S116 647 658662 3664 0
39 2 S116 659 659321 4323 0
39 2 S116 652 659973 4975 0
39 2 S116 694 660667 5669 0
39 2 S116 751 661418 6420 0
0 0 0 803 662221 -6919 0
0 0 0 733 662954 -6186 0
0 0 0 730 663684 -5456 0
0 0 0 717 664401 -4739 0
0 0 0 667 665068 -4072 0
0 0 0 649 665717 -3423 0
0 0 0 651 666368 -2772 0
0 0 0 690 667058 -2082 0
40 1 S112 676 667734 -1406 0
40 1 S112 677 668411 -729 0
40 1 S112 686 669097 -43 0
40 2 S112 663 669760 620 0
40 2 S112 672 670432 1292 0
40 2 S112 660 671092 1952 0
40 2 S112 619 671711 2571 0
40 2 S112 626 672337 3197 0
40 2 S112 640 672977 3837 0
40 2 S112 825 673802 4662 0
40 2 S112 861 674663 5523 0
40 2 S112 820 675483 6343 0
0 0 0 801 676284 -186790 0
0 0 0 767 677051 -186023 0
0 0 0 690 677741 -185333 0
0 0 0 678 678419 -184655 0
0 0 0 643 679062 -184012 0
0 0 0 605 679667 -183407 0
0 0 0 586 680253 -182821 0
0 0 0 586 680839 -182235 0
0 0 0 610 681449 -181625 0
0 0 0 1140 682589 -180485 1
0 0 0 989 683578 -179496 1
0 0 0 944 684522 -178552 1
0 0 0 902 685424 -177650 0
0 0 0 817 686241 -176833 0
0 0 0 766 687007 -176067 0
0 0 0 727 687734 -175340 0
0 0 0 693 688427 -174647 0
0 0 0 644 689071 -174003 0
0 0 0 636 689707 -173367 0
0 0 0 628 690335 -172739 0
0 0 0 636 690971 -172103 0
0 0 0 612 691583 -171491 0
0 0 0 596 692179 -170895 0
0 0 0 605 692784 -170290 0
0 0 0 638 693422 -169652 0
0 0 0 643 694065 -169009 0
0 0 0 676 694741 -168333 0
0 0 0 665 695406 -167668 0
0 0 0 635 696041 -167033 0
0 0 0 622 696663 -166411 0
0 0 0 617 697280 -165794 0
0 0 0 628 697908 -165166 0
0 0 0 642 698550 -164524 0
0 0 0 639 699189 -163885 0
0 0 0 628 699817 -163257 0
0 0 0 631 700448 -162626 0
0 0 0 659 701107 -161967 0
0 0 0 668 701775 -161299 0
0 0 0 659 702434 -160640 0
0 0 0 677 703111 -159963 0
0 0 0 691 703802 -159272 0
0 0 0 702 704504 -158570 0
0 0 0 657 705161 -157913 0
0 0 0 649 705810 -157264 0
0 0 0 650 706460 -156614 0
0 0 0 652 707112 -155962 0
0 0 0 648 707760 -155314 0
0 0 0 623 708383 -154691 0
0 0 0 639 709022 -154052 0
0 0 0 668 709690 -153384 0
0 0 0 938 710628 -152446 1
0 0 0 818 711446 -151628 0
0 0 0 737 712183 -150891 0
0 0 0 718 712901 -150173 0
0 0 0 716 713617 -149457 0
0 0 0 697 714314 -148760 0
0 0 0 690 715004 -148070 0
0 0 0 660 715664 -147410 0
0 0 0 639 716303 -146771 0
0 0 0 620 716923 -146151 0
0 0 0 628 717551 -145523 0
0 0 0 617 718168 -144906 0
0 0 0 710 718878 -144196 0
0 0 0 852 719730 -143344 0
0 0 0 954 720684 -142390 1
0 0 0 890 721574 -141500 0
0 0 0 824 722398 -140676 0
0 0 0 779 723177 -139897 0
0 0 0 724 723901 -139173 0
0 0 0 678 724579 -138495 0
0 0 0 617 725196 -137878 0
0 0 0 612 725808 -137266 0
0 0 0 601 726409 -136665 0
0 0 0 594 727003 -136071 0
0 0 0 584 727587 -135487 0
0 0 0 571 728158 -134916 0
0 0 0 584 728742 -134332 0
0 0 0 661 729403 -133671 0
0 0 0 861 730264 -132810 0
0 0 0 827 731091 -131983 0
0 0 0 779 731870 -131204 0
0 0 0 700 732570 -130504 0
0 0 0 662 733232 -129842 0
0 0 0 634 733866 -129208 0
0 0 0 618 734484 -128590 0
0 0 0 612 735096 -127978 0
0 0 0 612 735708 -127366 0
0 0 0 620 736328 -126746 0
0 0 0 610 736938 -126136 0
0 0 0 594 737532 -125542 0
0 0 0 582 738114 -124960 0
0 0 0 599 738713 -124361 0
0 0 0 591 739304 -123770 0
0 0 0 586 739890 -123184 0
0 0 0 585 740475 -122599 0
0 0 0 596 741071 -122003 0
0 0 0 594 741665 -121409 0
0 0 0 602 742267 -120807 0
0 0 0 609 742876 -120198 0
0 0 0 646 743522 -119552 0
0 0 0 646 744168 -118906 0
0 0 0 621 744789 -118285 0
0 0 0 622 745411 -117663 0
0 0 0 628 746039 -117035 0
0 0 0 622 746661 -116413 0
0 0 0 603 747264 -115810 0
0 0 0 594 747858 -115216 0
0 0 0 591 748449 -114625 0
0 0 0 582 749031 -114043 0
0 0 0 582 749613 -113461 0
0 0 0 586 750199 -112875 0
0 0 0 615 750814 -112260 0
0 0 0 664 751478 -111596 0
0 0 0 710 752188 -110886 0
0 0 0 802 752990 -110084 0
0 0 0 751 753741 -109333 0
0 0 0 808 754549 -108525 0
0 0 0 772 755321 -107753 0
0 0 0 697 756018 -107056 0
0 0 0 702 756720 -106354 0
0 0 0 695 757415 -105659 0
0 0 0 726 758141 -104933 0
0 0 0 709 758850 -104224 0
0 0 0 650 759500 -103574 0
0 0 0 654 760154 -102920 0
0 0 0 648 760802 -102272 0
0 0 0 746 761548 -101526 0
0 0 0 737 762285 -100789 0
0 0 0 718 763003 -100071 0
0 0 0 737 763740 -99334 0
0 0 0 702 764442 -98632 0
0 0 0 682 765124 -97950 0
0 0 0 636 765760 -97314 0
0 0 0 638 766398 -96676 0
0 0 0 642 767040 -96034 0
0 0 0 651 767691 -95383 0
0 0 0 715 768406 -94668 0
0 0 0 707 769113 -93961 0
0 0 0 745 769858 -93216 0
0 0 0 764 770622 -92452 0
0 0 0 780 771402 -91672 0
0 0 0 748 772150 -90924 0
0 0 0 726 772876 -90198 0
0 0 0 714 773590 -89484 0
0 0 0 671 774261 -88813 0
0 0 0 655 774916 -88158 0
0 0 0 650 775566 -87508 0
0 0 0 711 776277 -86797 0
0 0 0 757 777034 -86040 0
0 0 0 751 777785 -85289 0
0 0 0 720 778505 -84569 0
0 0 0 673 779178 -83896 0
0 0 0 638 779816 -83258 0
0 0 0 637 780453 -82621 0
0 0 0 631 781084 -81990 0
0 0 0 640 781724 -81350 0
0 0 0 633 782357 -80717 0
0 0 0 645 783002 -80072 0
0 0 0 648 783650 -79424 0
0 0 0 670 784320 -78754 0
0 0 0 660 784980 -78094 0
0 0 0 672 785652 -77422 0
0 0 0 649 786301 -76773 0
0 0 0 628 786929 -76145 0
0 0 0 622 787551 -75523 0
0 0 0 599 788150 -74924 0
0 0 0 593 788743 -74331 0
0 0 0 620 789363 -73711 0
0 0 0 665 790028 -73046 0
0 0 0 684 790712 -72362 0
0 0 0 706 791418 -71656 0
0 0 0 706 792124 -70950 0
0 0 0 702 792826 -70248 0
0 0 0 654 793480 -69594 0
0 0 0 628 794108 -68966 0
0 0 0 631 794739 -68335 0
0 0 0 614 795353 -67721 0
0 0 0 616 795969 -67105 0
0 0 0 609 796578 -66496 0
0 0 0 668 797246 -65828 0
0 0 0 1120 798366 -64708 1
0 0 0 853 799219 -63855 0
0 0 0 838 800057 -63017 0
0 0 0 800 800857 -62217 0
0 0 0 748 801605 -61469 0
0 0 0 739 802344 -60730 0
0 0 0 782 803126 -59948 0
0 0 0 858 803984 -59090 0
0 0 0 823 804807 -58267 0
0 0 0 830 805637 -57437 0
0 0 0 821 806458 -56616 0
0 0 0 719 807177 -55897 0
0 0 0 727 807904 -55170 0
0 0 0 721 808625 -54449 0
0 0 0 713 809338 -53736 0
0 0 0 668 810006 -53068 0
0 0 0 659 810665 -52409 0
0 0 0 688 811353 -51721 0
0 0 0 734 812087 -50987 0
0 0 0 798 812885 -50189 0
0 0 0 799 813684 -49390 0
0 0 0 781 814465 -48609 0
0 0 0 726 815191 -47883 0
0 0 0 671 815862 -47212 0
0 0 0 627 816489 -46585 0
0 0 0 638 817127 -45947 0
0 0 0 645 817772 -45302 0
0 0 0 788 818560 -44514 0
0 0 0 806 819366 -43708 0
0 0 0 860 820226 -42848 0
0 0 0 826 821052 -42022 0
0 0 0 763 821815 -41259 0
0 0 0 759 822574 -40500 0
0 0 0 724 823298 -39776 0
0 0 0 720 824018 -39056 0
0 0 0 672 824690 -38384 0
0 0 0 644 825334 -37740 0
0 0 0 649 825983 -37091 0
0 0 0 640 826623 -36451 0
0 0 0 668 827291 -35783 0
0 0 0 671 827962 -35112 0
0 0 0 713 828675 -34399 0
0 0 0 791 829466 -33608 0
0 0 0 839 830305 -32769 0
0 0 0 813 831118 -31956 0
0 0 0 760 831878 -31196 0
0 0 0 749 832627 -30447 0
0 0 0 746 833373 -29701 0
0 0 0 723 834096 -28978 0
0 0 0 697 834793 -28281 0
0 0 0 688 835481 -27593 0
0 0 0 697 836178 -26896 0
0 0 0 704 836882 -26192 0
0 0 0 657 837539 -25535 0
0 0 0 648 838187 -24887 0
0 0 0 639 838826 -24248 0
0 0 0 642 839468 -23606 0
0 0 0 682 840150 -22924 0
0 0 0 728 840878 -22196 0
0 0 0 828 841706 -21368 0
0 0 0 790 842496 -20578 0
0 0 0 782 843278 -19796 0
0 0 0 736 844014 -19060 0
0 0 0 740 844754 -18320 0
0 0 0 743 845497 -17577 0
0 0 0 733 846230 -16844 0
0 0 0 727 846957 -16117 0
0 0 0 741 847698 -15376 0
0 0 0 751 848449 -14625 0
0 0 0 781 849230 -13844 0
0 0 0 767 849997 -13077 0
0 0 0 766 850763 -12311 0
0 0 0 748 851511 -11563 0
0 0 0 744 852255 -10819 0
0 0 0 705 852960 -10114 0
0 0 0 696 853656 -9418 0
0 0 0 675 854331 -8743 0
0 0 0 676 855007 -8067 0
0 0 0 656 855663 -7411 0
0 0 0 692 856355 -6719 0
0 0 0 662 857017 -6057 0
0 0 0 686 857703 -5371 0
0 0 0 703 858406 -4668 0
0 0 0 680 859086 -3988 0
0 0 0 638 859724 -3350 0
0 0 0 639 860363 -2711 0
0 0 0 632 860995 -2079 0
41 1 S102 622 861617 -1457 0
41 1 S102 633 862250 -824 0
41 1 S102 639 862889 -185 0
41 2 S102 652 863541 467 0
41 2 S102 644 864185 1111 0
41 2 S102 684 864869 1795 0
41 2 S102 721 865590 2516 0
41 2 S102 707 866297 3223 0
41 2 S102 714 867011 3937 0
41 2 S102 690 867701 4627 0
41 2 S102 690 868391 5317 0
41 2 S102 683 869074 6000 0
41 2 S102 701 869775 6701 0
0 0 0 668 870443 -6126 0
0 0 0 698 871141 -5428 0
0 0 0 701 871842 -4727 0
0 0 0 702 872544 -4025 0
0 0 0 714 873258 -3311 0
0 0 0 801 874059 -2510 0
42 1 S112 920 874979 -1590 1
42 1 S112 996 875975 -594 1
42 2 S112 971 876946 377 1
42 2 S112 977 877923 1354 1
42 2 S112 951 878874 2305 1
42 2 S112 920 879794 3225 1
42 2 S112 878 880672 4103 0
42 2 S112 745 881417 4848 0
42 2 S112 713 882130 5561 0
42 2 S112 701 882831 6262 0
42 2 S112 754 883585 7016 0
0 0 0 740 884325 -8142 0
0 0 0 769 885094 -7373 0
0 0 0 754 885848 -6619 0
0 0 0 697 886545 -5922 0
0 0 0 691 887236 -5231 0
0 0 0 679 887915 -4552 0
0 0 0 665 888580 -3887 0
0 0 0 645 889225 -3242 0
0 0 0 656 889881 -2586 0
43 1 S116 647 890528 -1939 0
43 1 S116 636 891164 -1303 0
43 1 S116 619 891783 -684 0
43 1 S116 624 892407 -60 0
43 2 S116 615 893022 555 0
43 2 S116 607 893629 1162 0
43 2 S116 592 894221 1754 0
43 2 S116 601 894822 2355 0
43 2 S116 602 895424 2957 0
43 2 S116 633 896057 3590 0
43 2 S116 678 896735 4268 0
43 2 S116 692 897427 4960 0
43 2 S116 736 898163 5696 0
43 2 S116 765 898928 6461 0
0 0 0 713 899641 -7349 0
0 0 0 653 900294 -6696 0
0 0 0 665 900959 -6031 0
0 0 0 662 901621 -5369 0
0 0 0 688 902309 -4681 0
0 0 0 642 902951 -4039 0
0 0 0 647 903598 -3392 0
0 0 0 650 904248 -2742 0
0 0 0 664 904912 -2078 0
44 1 S102 669 905581 -1409 0
44 1 S102 645 906226 -764 0
44 1 S102 692 906918 -72 0
44 2 S102 693 907611 621 0
44 2 S102 689 908300 1310 0
44 2 S102 643 908943 1953 0
44 2 S102 630 909573 2583 0
44 2 S102 640 910213 3223 0
44 2 S102 664 910877 3887 0
44 2 S102 742 911619 4629 0
44 2 S102 727 912346 5356 0
44 2 S102 703 913049 6059 0
44 2 S102 696 913745 6755 0
0 0 0 702 914447 -8094 0
0 0 0 693 915140 -7401 0
0 0 0 655 915795 -6746 0
0 0 0 632 916427 -6114 0
0 0 0 645 917072 -5469 0
0 0 0 665 917737 -4804 0
0 0 0 707 918444 -4097 0
0 0 0 712 919156 -3385 0
0 0 0 700 919856 -2685 0
45 1 S116 694 920550 -1991 0
45 1 S116 689 921239 -1302 0
45 1 S116 659 921898 -643 0
45 1 S116 638 922536 -5 0
45 2 S116 660 923196 655 0
45 2 S116 699 923895 1354 0
45 2 S116 812 924707 2166 0
45 2 S116 766 925473 2932 0
45 2 S116 774 926247 3706 0
45 2 S116 757 927004 4463 0
45 2 S116 720 927724 5183 0
45 2 S116 709 928433 5892 0
45 2 S116 691 929124 6583 0
0 0 0 697 929821 -11901 0
0 0 0 666 930487 -11235 0
0 0 0 739 931226 -10496 0
0 0 0 744 931970 -9752 0
0 0 0 768 932738 -8984 0
0 0 0 773 933511 -8211 0
0 0 0 756 934267 -7455 0
0 0 0 763 935030 -6692 0
0 0 0 716 935746 -5976 0
0 0 0 716 936462 -5260 0
0 0 0 704 937166 -4556 0
0 0 0 697 937863 -3859 0
0 0 0 651 938514 -3208 0
0 0 0 702 939216 -2506 0
46 1 S102 674 939890 -1832 0
46 1 S102 714 940604 -1118 0
46 1 S102 674 941278 -444 0
46 2 S102 698 941976 254 0
46 2 S102 681 942657 935 0
46 2 S102 672 943329 1607 0
46 2 S102 650 943979 2257 0
46 2 S102 631 944610 2888 0
46 2 S102 658 945268 3546 0
46 2 S102 737 946005 4283 0
46 2 S102 839 946844 5122 0
46 2 S102 780 947624 5902 0
46 2 S102 755 948379 6657 0
0 0 0 708 949087 -8583 0
0 0 0 671 949758 -7912 0
0 0 0 646 950404 -7266 0
0 0 0 653 951057 -6613 0
0 0 0 670 951727 -5943 0
0 0 0 708 952435 -5235 0
0 0 0 739 953174 -4496 0
0 0 0 755 953929 -3741 0
0 0 0 766 954695 -2975 0
0 0 0 706 955401 -2269 0
47 1 S112 673 956074 -1596 0
47 1 S112 643 956717 -953 0
47 1 S112 628 957345 -325 0
47 2 S112 600 957945 275 0
47 2 S112 586 958531 861 0
47 2 S112 594 959125 1455 0
47 2 S112 641 959766 2096 0
47 2 S112 696 960462 2792 0
47 2 S112 787 961249 3579 0
47 2 S112 796 962045 4375 0
47 2 S112 745 962790 5120 0
47 2 S112 710 963500 5830 0
47 2 S112 695 964195 6525 0
0 0 0 658 964853 -10374 0
0 0 0 660 965513 -9714 0
0 0 0 657 966170 -9057 0
0 0 0 660 966830 -8397 0
0 0 0 628 967458 -7769 0
0 0 0 612 968070 -7157 0
0 0 0 632 968702 -6525 0
0 0 0 825 969527 -5700 0
0 0 0 851 970378 -4849 0
0 0 0 923 971301 -3926 1
0 0 0 874 972175 -3052 0
0 0 0 814 972989 -2238 0
48 1 S116 765 973754 -1473 0
48 1 S116 714 974468 -759 0
48 1 S116 669 975137 -90 0
48 2 S116 681 975818 591 0
48 2 S116 662 976480 1253 0
48 2 S116 665 977145 1918 0
48 2 S116 693 977838 2611 0
48 2 S116 661 978499 3272 0
48 2 S116 698 979197 3970 0
48 2 S116 662 979859 4632 0
48 2 S116 660 980519 5292 0
48 2 S116 641 981160 5933 0
48 2 S116 624 981784 6557 0
0 0 0 640 982424 -8055 0
0 0 0 672 983096 -7383 0
0 0 0 828 983924 -6555 0
0 0 0 794 984718 -5761 0
0 0 0 823 985541 -4938 0
0 0 0 758 986299 -4180 0
0 0 0 705 987004 -3475 0
0 0 0 674 987678 -2801 0
0 0 0 663 988341 -2138 0
49 1 S112 647 988988 -1491 0
49 1 S112 643 989631 -848 0
49 1 S112 625 990256 -223 0
49 2 S112 631 990887 408 0
49 2 S112 642 991529 1050 0
49 2 S112 697 992226 1747 0
49 2 S112 761 992987 2508 0
49 2 S112 670 993657 3178 0
49 2 S112 676 994333 3854 0
49 2 S112 667 995000 4521 0
49 2 S112 724 995724 5245 0
49 2 S112 706 996430 5951 0
49 2 S112 686 997116 6637 0
0 0 0 688 997804 -12138 0
0 0 0 659 998463 -11479 0
0 0 0 646 999109 -10833 0
0 0 0 621 999730 -10212 0
0 0 0 620 1000350 -9592 0
0 0 0 630 1000980 -8962 0
0 0 0 647 1001627 -8315 0
0 0 0 661 1002288 -7654 0
0 0 0 704 1002992 -6950 0
0 0 0 723 1003715 -6227 0
0 0 0 679 1004394 -5548 0
0 0 0 774 1005168 -4774 0
0 0 0 722 1005890 -4052 0
0 0 0 678 1006568 -3374 0
0 0 0 621 1007189 -2753 0
0 0 0 611 1007800 -2142 0
50 1 S106 625 1008425 -1517 0
50 1 S106 632 1009057 -885 0
50 1 S106 629 1009686 -256 0
50 2 S106 645 1010331 389 0
50 2 S106 627 1010958 1016 0
50 2 S106 633 1011591 1649 0
50 2 S106 659 1012250 2308 0
50 2 S106 686 1012936 2994 0
50 2 S106 682 1013618 3676 0
50 2 S106 672 1014290 4348 0
50 2 S106 644 1014934 4992 0
50 2 S106 645 1015579 5637 0
50 2 S106 640 1016219 6277 0
50 2 S106 700 1016919 6977 0
0 0 0 715 1017634 -6300 0
0 0 0 731 1018365 -5569 0
0 0 0 748 1019113 -4821 0
0 0 0 740 1019853 -4081 0
0 0 0 677 1020530 -3404 0
0 0 0 699 1021229 -2705 0
0 0 0 701 1021930 -2004 0
51 1 S112 723 1022653 -1281 0
51 1 S112 718 1023371 -563 0
51 2 S112 757 1024128 194 0
51 2 S112 766 1024894 960 0
51 2 S112 777 1025671 1737 0
51 2 S112 738 1026409 2475 0
51 2 S112 708 1027117 3183 0
51 2 S112 710 1027827 3893 0
51 2 S112 719 1028546 4612 0
51 2 S112 732 1029278 5344 0
51 2 S112 700 1029978 6044 0
51 2 S112 683 1030661 6727 0
0 0 0 715 1031376 -6500 0
0 0 0 754 1032130 -5746 0
0 0 0 831 1032961 -4915 0
0 0 0 747 1033708 -4168 0
0 0 0 725 1034433 -3443 0
0 0 0 704 1035137 -2739 0
0 0 0 714 1035851 -2025 0
52 1 S116 666 1036517 -1359 0
52 1 S116 659 1037176 -700 0
52 1 S116 673 1037849 -27 0
52 2 S116 708 1038557 681 0
52 2 S116 696 1039253 1377 0
52 2 S116 727 1039980 2104 0
52 2 S116 756 1040736 2860 0
52 2 S116 730 1041466 3590 0
52 2 S116 684 1042150 4274 0
52 2 S116 646 1042796 4920 0
52 2 S116 668 1043464 5588 0
52 2 S116 694 1044158 6282 0
0 0 0 751 1044909 -9529 0
0 0 0 701 1045610 -8828 0
0 0 0 731 1046341 -8097 0
0 0 0 764 1047105 -7333 0
0 0 0 745 1047850 -6588 0
0 0 0 742 1048592 -5846 0
0 0 0 716 1049308 -5130 0
0 0 0 688 1049996 -4442 0
0 0 0 649 1050645 -3793 0
0 0 0 640 1051285 -3153 0
0 0 0 646 1051931 -2507 0
53 1 S106 652 1052583 -1855 0
53 1 S106 664 1053247 -1191 0
53 1 S106 671 1053918 -520 0
53 2 S106 663 1054581 143 0
53 2 S106 745 1055326 888 0
53 2 S106 788 1056114 1676 0
53 2 S106 775 1056889 2451 0
53 2 S106 740 1057629 3191 0
53 2 S106 722 1058351 3913 0
53 2 S106 692 1059043 4605 0
53 2 S106 672 1059715 5277 0
53 2 S106 643 1060358 5920 0
53 2 S106 662 1061020 6582 0
0 0 0 661 1061681 -6534 0
0 0 0 762 1062443 -5772 0
0 0 0 871 1063314 -4901 0
0 0 0 809 1064123 -4092 0
0 0 0 835 1064958 -3257 0
0 0 0 838 1065796 -2419 0
54 1 S102 780 1066576 -1639 0
54 1 S102 738 1067314 -901 0
54 1 S102 700 1068014 -201 0
54 2 S102 666 1068680 465 0
54 2 S102 636 1069316 1101 0
54 2 S102 620 1069936 1721 0
54 2 S102 649 1070585 2370 0
54 2 S102 669 1071254 3039 0
54 2 S102 985 1072239 4024 1
54 2 S102 837 1073076 4861 0
54 2 S102 813 1073889 5674 0
54 2 S102 797 1074686 6471 0
0 0 0 816 1075502 -10899 0
0 0 0 799 1076301 -10100 0
0 0 0 780 1077081 -9320 0
0 0 0 769 1077850 -8551 0
0 0 0 730 1078580 -7821 0
0 0 0 671 1079251 -7150 0
0 0 0 669 1079920 -6481 0
0 0 0 669 1080589 -5812 0
0 0 0 701 1081290 -5111 0
0 0 0 738 1082028 -4373 0
0 0 0 786 1082814 -3587 0
0 0 0 834 1083648 -2753 0
55 1 S106 856 1084504 -1897 0
55 1 S106 792 1085296 -1105 0
55 1 S106 773 1086069 -332 0
55 2 S106 727 1086796 395 0
55 2 S106 685 1087481 1080 0
55 2 S106 685 1088166 1765 0
55 2 S106 737 1088903 2502 0
55 2 S106 810 1089713 3312 0
55 2 S106 895 1090608 4207 0
55 2 S106 810 1091418 5017 0
55 2 S106 779 1092197 5796 0
55 2 S106 777 1092974 6573 0
0 0 0 757 1093731 -6663 0
0 0 0 713 1094444 -5950 0
0 0 0 749 1095193 -5201 0
0 0 0 777 1095970 -4424 0
0 0 0 737 1096707 -3687 0
0 0 0 744 1097451 -2943 0
0 0 0 744 1098195 -2199 0
56 1 S116 726 1098921 -1473 0
56 1 S116 689 1099610 -784 0
56 1 S116 655 1100265 -129 0
56 2 S116 676 1100941 547 0
56 2 S116 703 1101644 1250 0
56 2 S116 742 1102386 1992 0
56 2 S116 755 1103141 2747 0
56 2 S116 786 1103927 3533 0
56 2 S116 787 1104714 4320 0
56 2 S116 784 1105498 5104 0
56 2 S116 753 1106251 5857 0
56 2 S116 694 1106945 6551 0
0 0 0 705 1107650 -8410 0
0 0 0 702 1108352 -7708 0
0 0 0 718 1109070 -6990 0
0 0 0 725 1109795 -6265 0
0 0 0 769 1110564 -5496 0
0 0 0 788 1111352 -4708 0
0 0 0 728 1112080 -3980 0
0 0 0 658 1112738 -3322 0
0 0 0 640 1113378 -2682 0
0 0 0 628 1114006 -2054 0
57 1 S106 616 1114622 -1438 0
57 1 S106 601 1115223 -837 0
57 1 S106 590 1115813 -247 0
57 2 S106 639 1116452 392 0
57 2 S106 740 1117192 1132 0
57 2 S106 797 1117989 1929 0
57 2 S106 801 1118790 2730 0
57 2 S106 774 1119564 3504 0
57 2 S106 745 1120309 4249 0
57 2 S106 701 1121010 4950 0
57 2 S106 694 1121704 5644 0
57 2 S106 664 1122368 6308 0
57 2 S106 647 1123015 6955 0
0 0 0 667 1123682 -8078 0
0 0 0 697 1124379 -7381 0
0 0 0 747 1125126 -6634 0
0 0 0 757 1125883 -5877 0
0 0 0 785 1126668 -5092 0
0 0 0 801 1127469 -4291 0
0 0 0 789 1128258 -3502 0
0 0 0 755 1129013 -2747 0
0 0 0 739 1129752 -2008 0
58 1 S102 720 1130472 -1288 0
58 1 S102 730 1131202 -558 0
58 2 S102 717 1131919 159 0
58 2 S102 697 1132616 856 0
58 2 S102 728 1133344 1584 0
58 2 S102 736 1134080 2320 0
58 2 S102 714 1134794 3034 0
58 2 S102 699 1135493 3733 0
58 2 S102 728 1136221 4461 0
58 2 S102 715 1136936 5176 0
58 2 S102 744 1137680 5920 0
58 2 S102 694 1138374 6614 0
0 0 0 662 1139036 -6583 0
0 0 0 661 1139697 -5922 0
0 0 0 663 1140360 -5259 0
0 0 0 665 1141025 -4594 0
0 0 0 622 1141647 -3972 0
0 0 0 642 1142289 -3330 0
0 0 0 615 1142904 -2715 0
0 0 0 588 1143492 -2127 0
59 1 S112 567 1144059 -1560 0
59 1 S112 557 1144616 -1003 0
59 1 S112 560 1145176 -443 0
59 2 S112 593 1145769 150 0
59 2 S112 618 1146387 768 0
59 2 S112 765 1147152 1533 0
59 2 S112 843 1147995 2376 0
59 2 S112 778 1148773 3154 0
59 2 S112 773 1149546 3927 0
59 2 S112 790 1150336 4717 0
59 2 S112 785 1151121 5502 0
59 2 S112 766 1151887 6268 0
59 2 S112 711 1152598 6979 0
0 0 0 698 1153296 -8918 0
0 0 0 683 1153979 -8235 0
0 0 0 720 1154699 -7515 0
0 0 0 747 1155446 -6768 0
0 0 0 711 1156157 -6057 0
0 0 0 772 1156929 -5285 0
0 0 0 812 1157741 -4473 0
0 0 0 865 1158606 -3608 0
0 0 0 834 1159440 -2774 0
60 1 S102 828 1160268 -1946 0
60 1 S102 814 1161082 -1132 0
60 1 S102 744 1161826 -388 0
60 2 S102 722 1162548 334 0
60 2 S102 723 1163271 1057 0
60 2 S102 754 1164025 1811 0
60 2 S102 829 1164854 2640 0
60 2 S102 821 1165675 3461 0
60 2 S102 875 1166550 4336 0
60 2 S102 894 1167444 5230 0
60 2 S102 866 1168310 6096 0
60 2 S102 835 1169145 6931 0
0 0 0 800 1169945 -9660 0
0 0 0 746 1170691 -8914 0
0 0 0 671 1171362 -8243 0
0 0 0 646 1172008 -7597 0
0 0 0 632 1172640 -6965 0
0 0 0 622 1173262 -6343 0
0 0 0 614 1173876 -5729 0
0 0 0 641 1174517 -5088 0
0 0 0 923 1175440 -4165 1
0 0 0 874 1176314 -3291 0
0 0 0 844 1177158 -2447 0
61 1 S106 841 1177999 -1606 0
61 1 S106 796 1178795 -810 0
61 1 S106 735 1179530 -75 0
61 2 S106 676 1180206 601 0
61 2 S106 680 1180886 1281 0
61 2 S106 662 1181548 1943 0
61 2 S106 692 1182240 2635 0
61 2 S106 662 1182902 3297 0
61 2 S106 775 1183677 4072 0
61 2 S106 792 1184469 4864 0
61 2 S106 886 1185355 5750 0
61 2 S106 849 1186204 6599 0
0 0 0 831 1187035 -7026 0
0 0 0 803 1187838 -6223 0
0 0 0 756 1188594 -5467 0
0 0 0 728 1189322 -4739 0
0 0 0 688 1190010 -4051 0
0 0 0 672 1190682 -3379 0
0 0 0 706 1191388 -2673 0
62 1 S112 675 1192063 -1998 0
62 1 S112 750 1192813 -1248 0
62 1 S112 781 1193594 -467 0
62 2 S112 781 1194375 314 0
62 2 S112 723 1195098 1037 0
62 2 S112 716 1195814 1753 0
62 2 S112 705 1196519 2458 0
62 2 S112 671 1197190 3129 0
62 2 S112 685 1197875 3814 0
62 2 S112 697 1198572 4511 0
62 2 S112 724 1199296 5235 0
62 2 S112 717 1200013 5952 0
62 2 S112 725 1200738 6677 0
0 0 0 715 1201453 -10944 0
0 0 0 700 1202153 -10244 0
0 0 0 650 1202803 -9594 0
0 0 0 655 1203458 -8939 0
0 0 0 637 1204095 -8302 0
0 0 0 640 1204735 -7662 0
0 0 0 625 1205360 -7037 0
0 0 0 662 1206022 -6375 0
0 0 0 762 1206784 -5613 0
0 0 0 823 1207607 -4790 0
0 0 0 826 1208433 -3964 0
0 0 0 770 1209203 -3194 0
0 0 0 753 1209956 -2441 0
63 1 S102 708 1210664 -1733 0
63 1 S102 689 1211353 -1044 0
63 1 S102 647 1212000 -397 0
63 2 S102 627 1212627 230 0
63 2 S102 630 1213257 860 0
63 2 S102 648 1213905 1508 0
63 2 S102 709 1214614 2217 0
63 2 S102 786 1215400 3003 0
63 2 S102 816 1216216 3819 0
63 2 S102 830 1217046 4649 0
63 2 S102 827 1217873 5476 0
63 2 S102 767 1218640 6243 0
63 2 S102 723 1219363 6966 0
0 0 0 710 1220073 -7991 0
0 0 0 698 1220771 -7293 0
0 0 0 686 1221457 -6607 0
0 0 0 634 1222091 -5973 0
0 0 0 658 1222749 -5315 0
0 0 0 658 1223407 -4657 0
0 0 0 863 1224270 -3794 0
0 0 0 832 1225102 -2962 0
0 0 0 745 1225847 -2217 0
64 1 S112 731 1226578 -1486 0
64 1 S112 721 1227299 -765 0
64 1 S112 745 1228044 -20 0
64 2 S112 722 1228766 702 0
64 2 S112 727 1229493 1429 0
64 2 S112 714 1230207 2143 0
64 2 S112 682 1230889 2825 0
64 2 S112 636 1231525 3461 0
64 2 S112 649 1232174 4110 0
64 2 S112 636 1232810 4746 0
64 2 S112 660 1233470 5406 0
64 2 S112 642 1234112 6048 0
64 2 S112 694 1234806 6742 0
0 0 0 788 1235594 -6545 0
0 0 0 765 1236359 -5780 0
0 0 0 764 1237123 -5016 0
0 0 0 712 1237835 -4304 0
0 0 0 651 1238486 -3653 0
0 0 0 602 1239088 -3051 0
0 0 0 586 1239674 -2465 0
65 1 S106 577 1240251 -1888 0
65 1 S106 571 1240822 -1317 0
65 1 S106 611 1241433 -706 0
65 2 S106 980 1242413 274 1
65 2 S106 878 1243291 1152 0
65 2 S106 890 1244181 2042 0
65 2 S106 881 1245062 2923 0
65 2 S106 796 1245858 3719 0
65 2 S106 700 1246558 4419 0
65 2 S106 678 1247236 5097 0
65 2 S106 661 1247897 5758 0
65 2 S106 655 1248552 6413 0
0 0 0 632 1249184 -6798 0
0 0 0 793 1249977 -6005 0
0 0 0 860 1250837 -5145 0
0 0 0 887 1251724 -4258 0
0 0 0 791 1252515 -3467 0
0 0 0 800 1253315 -2667 0
66 1 S116 794 1254109 -1873 0
66 1 S116 815 1254924 -1058 0
66 1 S116 752 1255676 -306 0
66 2 S116 705 1256381 399 0
66 2 S116 743 1257124 1142 0
66 2 S116 764 1257888 1906 0
66 2 S116 864 1258752 2770 0
66 2 S116 798 1259550 3568 0
66 2 S116 829 1260379 4397 0
66 2 S116 872 1261251 5269 0
66 2 S116 829 1262080 6098 0
66 2 S116 777 1262857 6875 0
0 0 0 766 1263623 -11822 0
0 0 0 780 1264403 -11042 0
0 0 0 715 1265118 -10327 0
0 0 0 753 1265871 -9574 0
0 0 0 787 1266658 -8787 0
0 0 0 766 1267424 -8021 0
0 0 0 696 1268120 -7325 0
0 0 0 684 1268804 -6641 0
0 0 0 661 1269465 -5980 0
0 0 0 654 1270119 -5326 0
0 0 0 659 1270778 -4667 0
0 0 0 710 1271488 -3957 0
0 0 0 927 1272415 -3030 1
0 0 0 835 1273250 -2195 0
67 1 S102 797 1274047 -1398 0
67 1 S102 747 1274794 -651 0
67 2 S102 695 1275489 44 0
67 2 S102 645 1276134 689 0
67 2 S102 640 1276774 1329 0
67 2 S102 646 1277420 1975 0
67 2 S102 704 1278124 2679 0
67 2 S102 832 1278956 3511 0
67 2 S102 974 1279930 4485 1
67 2 S102 970 1280900 5455 1
67 2 S102 900 1281800 6355 0
0 0 0 877 1282677 -6495 0
0 0 0 823 1283500 -5672 0
0 0 0 762 1284262 -4910 0
0 0 0 675 1284937 -4235 0
0 0 0 642 1285579 -3593 0
0 0 0 625 1286204 -2968 0
0 0 0 603 1286807 -2365 0
68 1 S106 666 1287473 -1699 0
68 1 S106 980 1288453 -719 1
68 2 S106 813 1289266 94 0
68 2 S106 900 1290166 994 0
68 2 S106 894 1291060 1888 0
68 2 S106 858 1291918 2746 0
68 2 S106 776 1292694 3522 0
68 2 S106 741 1293435 4263 0
68 2 S106 710 1294145 4973 0
68 2 S106 663 1294808 5636 0
68 2 S106 668 1295476 6304 0
0 0 0 747 1296223 -10953 0
0 0 0 1001 1297224 -9952 1
0 0 0 887 1298111 -9065 0
0 0 0 874 1298985 -8191 0
0 0 0 823 1299808 -7368 0
0 0 0 738 1300546 -6630 0
0 0 0 703 1301249 -5927 0
0 0 0 709 1301958 -5218 0
0 0 0 750 1302708 -4468 0
0 0 0 807 1303515 -3661 0
0 0 0 815 1304330 -2846 0
0 0 0 814 1305144 -2032 0
69 1 S102 774 1305918 -1258 0
69 1 S102 710 1306628 -548 0
69 2 S102 690 1307318 142 0
69 2 S102 698 1308016 840 0
69 2 S102 698 1308714 1538 0
69 2 S102 719 1309433 2257 0
69 2 S102 672 1310105 2929 0
69 2 S102 677 1310782 3606 0
69 2 S102 704 1311486 4310 0
69 2 S102 732 1312218 5042 0
69 2 S102 736 1312954 5778 0
69 2 S102 678 1313632 6456 0
0 0 0 710 1314342 -9047 0
0 0 0 681 1315023 -8366 0
0 0 0 696 1315719 -7670 0
0 0 0 660 1316379 -7010 0
0 0 0 619 1316998 -6391 0
0 0 0 627 1317625 -5764 0
0 0 0 627 1318252 -5137 0
0 0 0 638 1318890 -4499 0
0 0 0 665 1319555 -3834 0
0 0 0 658 1320213 -3176 0
0 0 0 636 1320849 -2540 0
70 1 S112 661 1321510 -1879 0
70 1 S112 668 1322178 -1211 0
70 1 S112 657 1322835 -554 0
70 2 S112 623 1323458 69 0
70 2 S112 637 1324095 706 0
70 2 S112 674 1324769 1380 0
70 2 S112 696 1325465 2076 0
70 2 S112 691 1326156 2767 0
70 2 S112 670 1326826 3437 0
70 2 S112 662 1327488 4099 0
70 2 S112 657 1328145 4756 0
70 2 S112 649 1328794 5405 0
70 2 S112 643 1329437 6048 0
70 2 S112 635 1330072 6683 0
0 0 0 650 1330722 -11069 0
0 0 0 676 1331398 -10393 0
0 0 0 874 1332272 -9519 0
0 0 0 787 1333059 -8732 0
0 0 0 769 1333828 -7963 0
0 0 0 754 1334582 -7209 0
0 0 0 730 1335312 -6479 0
0 0 0 684 1335996 -5795 0
0 0 0 705 1336701 -5090 0
0 0 0 734 1337435 -4356 0
0 0 0 842 1338277 -3514 0
0 0 0 842 1339119 -2672 0
71 1 S116 833 1339952 -1839 0
71 1 S116 818 1340770 -1021 0
71 1 S116 830 1341600 -191 0
71 2 S116 909 1342509 718 0
71 2 S116 937 1343446 1655 1
71 2 S116 945 1344391 2600 1
71 2 S116 995 1345386 3595 1
71 2 S116 986 1346372 4581 1
71 2 S116 994 1347366 5575 1
71 2 S116 1057 1348423 6632 1
0 0 0 1002 1349425 -9625 1
0 0 0 979 1350404 -8646 1
0 0 0 859 1351263 -7787 0
0 0 0 642 1351905 -7145 0
0 0 0 668 1352573 -6477 0
0 0 0 811 1353384 -5666 0
0 0 0 754 1354138 -4912 0
0 0 0 801 1354939 -4111 0
0 0 0 894 1355833 -3217 0
0 0 0 881 1356714 -2336 0
72 1 S102 869 1357583 -1467 0
72 1 S102 879 1358462 -588 0
72 2 S102 844 1359306 256 0
72 2 S102 763 1360069 1019 0
72 2 S102 714 1360783 1733 0
72 2 S102 690 1361473 2423 0
72 2 S102 667 1362140 3090 0
72 2 S102 640 1362780 3730 0
72 2 S102 638 1363418 4368 0
72 2 S102 641 1364059 5009 0
72 2 S102 644 1364703 5653 0
72 2 S102 634 1365337 6287 0
72 2 S102 623 1365960 6910 0
0 0 0 613 1366573 -6005 0
0 0 0 637 1367210 -5368 0
0 0 0 671 1367881 -4697 0
0 0 0 682 1368563 -4015 0
0 0 0 710 1369273 -3305 0
0 0 0 688 1369961 -2617 0
73 1 S116 709 1370670 -1908 0
73 1 S116 747 1371417 -1161 0
73 1 S116 795 1372212 -366 0
73 2 S116 762 1372974 396 0
73 2 S116 744 1373718 1140 0
73 2 S116 746 1374464 1886 0
73 2 S116 765 1375229 2651 0
73 2 S116 729 1375958 3380 0
73 2 S116 718 1376676 4098 0
73 2 S116 750 1377426 4848 0
73 2 S116 756 1378182 5604 0
73 2 S116 741 1378923 6345 0
0 0 0 792 1379715 -9341 0
0 0 0 774 1380489 -8567 0
0 0 0 742 1381231 -7825 0
0 0 0 761 1381992 -7064 0
0 0 0 742 1382734 -6322 0
0 0 0 744 1383478 -5578 0
0 0 0 706 1384184 -4872 0
0 0 0 746 1384930 -4126 0
0 0 0 766 1385696 -3360 0
0 0 0 779 1386475 -2581 0
74 1 S106 819 1387294 -1762 0
74 1 S106 850 1388144 -912 0
74 1 S106 812 1388956 -100 0
74 2 S106 739 1389695 639 0
74 2 S106 704 1390399 1343 0
74 2 S106 701 1391100 2044 0
74 2 S106 721 1391821 2765 0
74 2 S106 727 1392548 3492 0
74 2 S106 705 1393253 4197 0
74 2 S106 754 1394007 4951 0
74 2 S106 959 1394966 5910 1
74 2 S106 1002 1395968 6912 1
0 0 0 931 1396899 -6481 1
0 0 0 870 1397769 -5611 0
0 0 0 831 1398600 -4780 0
0 0 0 744 1399344 -4036 0
0 0 0 688 1400032 -3348 0
0 0 0 633 1400665 -2715 0
0 0 0 648 1401313 -2067 0
75 1 S112 674 1401987 -1393 0
75 1 S112 704 1402691 -689 0
75 2 S112 710 1403401 21 0
75 2 S112 701 1404102 722 0
75 2 S112 706 1404808 1428 0
75 2 S112 732 1405540 2160 0
75 2 S112 739 1406279 2899 0
75 2 S112 711 1406990 3610 0
75 2 S112 728 1407718 4338 0
75 2 S112 738 1408456 5076 0
75 2 S112 715 1409171 5791 0
75 2 S112 673 1409844 6464 0
0 0 0 721 1410565 -6691 0
0 0 0 740 1411305 -5951 0
0 0 0 761 1412066 -5190 0
0 0 0 696 1412762 -4494 0
0 0 0 636 1413398 -3858 0
0 0 0 623 1414021 -3235 0
0 0 0 637 1414658 -2598 0
76 1 S116 645 1415303 -1953 0
76 1 S116 680 1415983 -1273 0
76 1 S116 704 1416687 -569 0
76 2 S116 672 1417359 103 0
76 2 S116 668 1418027 771 0
76 2 S116 924 1418951 1695 1
76 2 S116 830 1419781 2525 0
76 2 S116 834 1420615 3359 0
76 2 S116 787 1421402 4146 0
76 2 S116 728 1422130 4874 0
76 2 S116 714 1422844 5588 0
76 2 S116 730 1423574 6318 0
0 0 0 746 1424320 -7575 0
0 0 0 759 1425079 -6816 0
0 0 0 745 1425824 -6071 0
0 0 0 766 1426590 -5305 0
0 0 0 739 1427329 -4566 0
0 0 0 691 1428020 -3875 0
0 0 0 664 1428684 -3211 0
0 0 0 679 1429363 -2532 0
77 1 S106 745 1430108 -1787 0
77 1 S106 1057 1431165 -730 1
77 2 S106 952 1432117 222 1
77 2 S106 959 1433076 1181 1
77 2 S106 940 1434016 2121 1
77 2 S106 898 1434914 3019 0
77 2 S106 848 1435762 3867 0
77 2 S106 790 1436552 4657 0
77 2 S106 797 1437349 5454 0
77 2 S106 832 1438181 6286 0
0 0 0 819 1439000 -8495 0
0 0 0 852 1439852 -7643 0
0 0 0 881 1440733 -6762 0
0 0 0 782 1441515 -5980 0
0 0 0 749 1442264 -5231 0
0 0 0 738 1443002 -4493 0
0 0 0 775 1443777 -3718 0
0 0 0 858 1444635 -2860 0
78 1 S112 886 1445521 -1974 0
78 1 S112 932 1446453 -1042 1
78 1 S112 902 1447355 -140 0
78 2 S112 883 1448238 743 0
78 2 S112 876 1449114 1619 0
78 2 S112 873 1449987 2492 0
78 2 S112 791 1450778 3283 0
78 2 S112 743 1451521 4026 0
78 2 S112 734 1452255 4760 0
78 2 S112 760 1453015 5520 0
78 2 S112 771 1453786 6291 0
0 0 0 799 1454585 -11014 0
0 0 0 850 1455435 -10164 0
0 0 0 813 1456248 -9351 0
0 0 0 731 1456979 -8620 0
0 0 0 703 1457682 -7917 0
0 0 0 665 1458347 -7252 0
0 0 0 643 1458990 -6609 0
0 0 0 629 1459619 -5980 0
0 0 0 613 1460232 -5367 0
0 0 0 626 1460858 -4741 0
0 0 0 696 1461554 -4045 0
0 0 0 731 1462285 -3314 0
0 0 0 883 1463168 -2431 0
79 1 S102 817 1463985 -1614 0
79 1 S102 743 1464728 -871 0
79 1 S102 723 1465451 -148 0
79 2 S102 707 1466158 559 0
79 2 S102 707 1466865 1266 0
79 2 S102 698 1467563 1964 0
79 2 S102 694 1468257 2658 0
79 2 S102 700 1468957 3358 0
79 2 S102 745 1469702 4103 0
79 2 S102 752 1470454 4855 0
79 2 S102 738 1471192 5593 0
79 2 S102 732 1471924 6325 0
0 0 0 765 1472689 -8875 0
0 0 0 736 1473425 -8139 0
0 0 0 720 1474145 -7419 0
0 0 0 755 1474900 -6664 0
0 0 0 765 1475665 -5899 0
0 0 0 783 1476448 -5116 0
0 0 0 764 1477212 -4352 0
0 0 0 751 1477963 -3601 0
0 0 0 712 1478675 -2889 0
0 0 0 675 1479350 -2214 0
80 1 S116 625 1479975 -1589 0
80 1 S116 628 1480603 -961 0
80 1 S116 650 1481253 -311 0
80 2 S116 731 1481984 420 0
80 2 S116 1131 1483115 1551 1
80 2 S116 888 1484003 2439 0
80 2 S116 877 1484880 3316 0
80 2 S116 875 1485755 4191 0
80 2 S116 794 1486549 4985 0
80 2 S116 757 1487306 5742 0
80 2 S116 755 1488061 6497 0
