T_0146_2
BeatCount Mean SD BeatCountNoOutliers MeanNoOutliers SDNoOutliers
590 744,720338983051 44,3900533362936 578 742,399653979239 40,6189876399363

Trial TrialStatus Trialtype IBI AbsPosition RelPosition Outlier
0 2  760 956 956 0
0 2  737 1693 1693 0
0 0 0 742 2435 -6424 0
0 0 0 782 3217 -5642 0
0 0 0 792 4009 -4850 0
0 0 0 777 4786 -4073 0
0 0 0 737 5523 -3336 0
0 0 0 725 6248 -2611 0
1 1 S102 726 6974 -1885 0
1 1 S102 747 7721 -1138 0
1 1 S102 754 8475 -384 0
1 2 S102 737 9212 353 0
1 2 S102 752 9964 1105 0
1 2 S102 772 10736 1877 0
1 2 S102 815 11551 2692 0
1 2 S102 812 12363 3504 0
1 2 S102 756 13119 4260 0
1 2 S102 752 13871 5012 0
1 2 S102 759 14630 5771 0
1 2 S102 823 15453 6594 0
0 0 0 844 16297 -10533 0
0 0 0 837 17134 -9696 0
0 0 0 805 17939 -8891 0
0 0 0 733 18672 -8158 0
0 0 0 723 19395 -7435 0
0 0 0 731 20126 -6704 0
0 0 0 750 20876 -5954 0
0 0 0 764 21640 -5190 0
0 0 0 751 22391 -4439 0
0 0 0 727 23118 -3712 0
0 0 0 736 23854 -2976 0
0 0 0 720 24574 -2256 0
2 1 S106 706 25280 -1550 0
2 1 S106 671 25951 -879 0
2 1 S106 648 26599 -231 0
2 2 S106 650 27249 419 0
2 2 S106 655 27904 1074 0
2 2 S106 646 28550 1720 0
2 2 S106 652 29202 2372 0
2 2 S106 664 29866 3036 0
2 2 S106 699 30565 3735 0
2 2 S106 718 31283 4453 0
2 2 S106 725 32008 5178 0
2 2 S106 715 32723 5893 0
2 2 S106 711 33434 6604 0
0 0 0 682 34116 -6209 0
0 0 0 664 34780 -5545 0
0 0 0 664 35444 -4881 0
0 0 0 657 36101 -4224 0
0 0 0 674 36775 -3550 0
0 0 0 701 37476 -2849 0
0 0 0 716 38192 -2133 0
3 1 S116 698 38890 -1435 0
3 1 S116 688 39578 -747 0
3 1 S116 704 40282 -43 0
3 2 S116 721 41003 678 0
3 2 S116 762 41765 1440 0
3 2 S116 788 42553 2228 0
3 2 S116 793 43346 3021 0
3 2 S116 758 44104 3779 0
3 2 S116 773 44877 4552 0
3 2 S116 767 45644 5319 0
3 2 S116 800 46444 6119 0
3 2 S116 821 47265 6940 0
0 0 0 842 48107 -7420 0
0 0 0 810 48917 -6610 0
0 0 0 765 49682 -5845 0
0 0 0 759 50441 -5086 0
0 0 0 730 51171 -4356 0
0 0 0 754 51925 -3602 0
0 0 0 762 52687 -2840 0
0 0 0 725 53412 -2115 0
4 1 S106 721 54133 -1394 0
4 1 S106 739 54872 -655 0
4 2 S106 771 55643 116 0
4 2 S106 812 56455 928 0
4 2 S106 804 57259 1732 0
4 2 S106 766 58025 2498 0
4 2 S106 748 58773 3246 0
4 2 S106 733 59506 3979 0
4 2 S106 738 60244 4717 0
4 2 S106 745 60989 5462 0
4 2 S106 749 61738 6211 0
4 2 S106 718 62456 6929 0
0 0 0 713 63169 -7428 0
0 0 0 728 63897 -6700 0
0 0 0 729 64626 -5971 0
0 0 0 758 65384 -5213 0
0 0 0 753 66137 -4460 0
0 0 0 718 66855 -3742 0
0 0 0 721 67576 -3021 0
0 0 0 704 68280 -2317 0
5 1 S102 714 68994 -1603 0
5 1 S102 729 69723 -874 0
5 1 S102 716 70439 -158 0
5 2 S102 678 71117 520 0
5 2 S102 649 71766 1169 0
5 2 S102 641 72407 1810 0
5 2 S102 627 73034 2437 1
5 2 S102 685 73719 3122 0
5 2 S102 787 74506 3909 0
5 2 S102 826 75332 4735 0
5 2 S102 831 76163 5566 0
5 2 S102 820 76983 6386 0
0 0 0 786 77769 -6771 0
0 0 0 731 78500 -6040 0
0 0 0 727 79227 -5313 0
0 0 0 722 79949 -4591 0
0 0 0 729 80678 -3862 0
0 0 0 733 81411 -3129 0
0 0 0 713 82124 -2416 0
6 1 S112 718 82842 -1698 0
6 1 S112 763 83605 -935 0
6 1 S112 801 84406 -134 0
6 2 S112 811 85217 677 0
6 2 S112 787 86004 1464 0
6 2 S112 761 86765 2225 0
6 2 S112 730 87495 2955 0
6 2 S112 706 88201 3661 0
6 2 S112 727 88928 4388 0
6 2 S112 752 89680 5140 0
6 2 S112 813 90493 5953 0
6 2 S112 830 91323 6783 0
0 0 0 822 92145 -8509 0
0 0 0 795 92940 -7714 0
0 0 0 766 93706 -6948 0
0 0 0 743 94449 -6205 0
0 0 0 734 95183 -5471 0
0 0 0 728 95911 -4743 0
0 0 0 706 96617 -4037 0
0 0 0 720 97337 -3317 0
0 0 0 719 98056 -2598 0
7 1 S102 734 98790 -1864 0
7 1 S102 781 99571 -1083 0
7 1 S102 795 100366 -288 0
7 2 S102 738 101104 450 0
7 2 S102 739 101843 1189 0
7 2 S102 726 102569 1915 0
7 2 S102 733 103302 2648 0
7 2 S102 742 104044 3390 0
7 2 S102 750 104794 4140 0
7 2 S102 726 105520 4866 0
7 2 S102 704 106224 5570 0
7 2 S102 708 106932 6278 0
7 2 S102 741 107673 7019 0
0 0 0 793 108466 -9943 0
0 0 0 795 109261 -9148 0
0 0 0 753 110014 -8395 0
0 0 0 707 110721 -7688 0
0 0 0 702 111423 -6986 0
0 0 0 703 112126 -6283 0
0 0 0 736 112862 -5547 0
0 0 0 739 113601 -4808 0
0 0 0 724 114325 -4084 0
0 0 0 697 115022 -3387 0
0 0 0 711 115733 -2676 0
8 1 S106 719 116452 -1957 0
8 1 S106 746 117198 -1211 0
8 1 S106 746 117944 -465 0
8 2 S106 739 118683 274 0
8 2 S106 723 119406 997 0
8 2 S106 723 120129 1720 0
8 2 S106 747 120876 2467 0
8 2 S106 771 121647 3238 0
8 2 S106 792 122439 4030 0
8 2 S106 771 123210 4801 0
8 2 S106 718 123928 5519 0
8 2 S106 702 124630 6221 0
8 2 S106 694 125324 6915 0
0 0 0 704 126028 -5362 0
0 0 0 737 126765 -4625 0
0 0 0 741 127506 -3884 0
0 0 0 728 128234 -3156 0
0 0 0 745 128979 -2411 0
9 1 S112 775 129754 -1636 0
9 1 S112 824 130578 -812 0
9 2 S112 818 131396 6 0
9 2 S112 774 132170 780 0
9 2 S112 733 132903 1513 0
9 2 S112 751 133654 2264 0
9 2 S112 784 134438 3048 0
9 2 S112 849 135287 3897 0
9 2 S112 889 136176 4786 1
9 2 S112 895 137071 5681 1
9 2 S112 882 137953 6563 1
0 0 0 818 138771 -11436 0
0 0 0 756 139527 -10680 0
0 0 0 748 140275 -9932 0
0 0 0 747 141022 -9185 0
0 0 0 755 141777 -8430 0
0 0 0 769 142546 -7661 0
0 0 0 775 143321 -6886 0
0 0 0 725 144046 -6161 0
0 0 0 722 144768 -5439 0
0 0 0 712 145480 -4727 0
0 0 0 742 146222 -3985 0
0 0 0 751 146973 -3234 0
0 0 0 727 147700 -2507 0
10 1 S102 697 148397 -1810 0
10 1 S102 711 149108 -1099 0
10 1 S102 742 149850 -357 0
10 2 S102 769 150619 412 0
10 2 S102 795 151414 1207 0
10 2 S102 799 152213 2006 0
10 2 S102 777 152990 2783 0
10 2 S102 733 153723 3516 0
10 2 S102 742 154465 4258 0
10 2 S102 744 155209 5002 0
10 2 S102 770 155979 5772 0
10 2 S102 802 156781 6574 0
0 0 0 820 157601 -9234 0
0 0 0 774 158375 -8460 0
0 0 0 730 159105 -7730 0
0 0 0 716 159821 -7014 0
0 0 0 702 160523 -6312 0
0 0 0 712 161235 -5600 0
0 0 0 718 161953 -4882 0
0 0 0 697 162650 -4185 0
0 0 0 713 163363 -3472 0
0 0 0 730 164093 -2742 0
11 1 S112 786 164879 -1956 0
11 1 S112 805 165684 -1151 0
11 1 S112 774 166458 -377 0
11 2 S112 737 167195 360 0
11 2 S112 768 167963 1128 0
11 2 S112 806 168769 1934 0
11 2 S112 869 169638 2803 1
11 2 S112 893 170531 3696 1
11 2 S112 870 171401 4566 1
11 2 S112 841 172242 5407 0
11 2 S112 826 173068 6233 0
11 2 S112 780 173848 7013 0
0 0 0 797 174645 -6862 0
0 0 0 789 175434 -6073 0
0 0 0 776 176210 -5297 0
0 0 0 737 176947 -4560 0
0 0 0 723 177670 -3837 0
0 0 0 713 178383 -3124 0
0 0 0 736 179119 -2388 0
12 1 S106 774 179893 -1614 0
12 1 S106 764 180657 -850 0
12 1 S106 749 181406 -101 0
12 2 S106 760 182166 659 0
12 2 S106 789 182955 1448 0
12 2 S106 797 183752 2245 0
12 2 S106 789 184541 3034 0
12 2 S106 752 185293 3786 0
12 2 S106 730 186023 4516 0
12 2 S106 721 186744 5237 0
12 2 S106 736 187480 5973 0
12 2 S106 758 188238 6731 0
0 0 0 738 188976 -6291 0
0 0 0 724 189700 -5567 0
0 0 0 748 190448 -4819 0
0 0 0 750 191198 -4069 0
0 0 0 753 191951 -3316 0
0 0 0 732 192683 -2584 0
13 1 S116 713 193396 -1871 0
13 1 S116 712 194108 -1159 0
13 1 S116 706 194814 -453 0
13 2 S116 733 195547 280 0
13 2 S116 760 196307 1040 0
13 2 S116 743 197050 1783 0
13 2 S116 771 197821 2554 0
13 2 S116 765 198586 3319 0
13 2 S116 759 199345 4078 0
13 2 S116 731 200076 4809 0
13 2 S116 728 200804 5537 0
13 2 S116 746 201550 6283 0
0 0 0 802 202352 -11698 0
0 0 0 806 203158 -10892 0
0 0 0 774 203932 -10118 0
0 0 0 744 204676 -9374 0
0 0 0 730 205406 -8644 0
0 0 0 732 206138 -7912 0
0 0 0 741 206879 -7171 0
0 0 0 720 207599 -6451 0
0 0 0 729 208328 -5722 0
0 0 0 739 209067 -4983 0
0 0 0 818 209885 -4165 0
0 0 0 848 210733 -3317 0
0 0 0 797 211530 -2520 0
14 1 S102 779 212309 -1741 0
14 1 S102 771 213080 -970 0
14 1 S102 817 213897 -153 0
14 2 S102 822 214719 669 0
14 2 S102 796 215515 1465 0
14 2 S102 816 216331 2281 0
14 2 S102 819 217150 3100 0
14 2 S102 818 217968 3918 0
14 2 S102 811 218779 4729 0
14 2 S102 786 219565 5515 0
14 2 S102 732 220297 6247 0
14 2 S102 739 221036 6986 0
0 0 0 761 221797 -6892 0
0 0 0 807 222604 -6085 0
0 0 0 830 223434 -5255 0
0 0 0 773 224207 -4482 0
0 0 0 742 224949 -3740 0
0 0 0 712 225661 -3028 0
0 0 0 735 226396 -2293 0
15 1 S106 750 227146 -1543 0
15 1 S106 775 227921 -768 0
15 1 S106 767 228688 -1 0
15 2 S106 755 229443 754 0
15 2 S106 803 230246 1557 0
15 2 S106 877 231123 2434 1
15 2 S106 871 231994 3305 1
15 2 S106 867 232861 4172 1
15 2 S106 836 233697 5008 0
15 2 S106 788 234485 5796 0
15 2 S106 780 235265 6576 0
0 0 0 753 236018 -10459 0
0 0 0 752 236770 -9707 0
0 0 0 770 237540 -8937 0
0 0 0 765 238305 -8172 0
0 0 0 748 239053 -7424 0
0 0 0 737 239790 -6687 0
0 0 0 729 240519 -5958 0
0 0 0 739 241258 -5219 0
0 0 0 730 241988 -4489 0
0 0 0 754 242742 -3735 0
0 0 0 755 243497 -2980 0
0 0 0 743 244240 -2237 0
16 1 S102 758 244998 -1479 0
16 1 S102 770 245768 -709 0
16 2 S102 819 246587 110 0
16 2 S102 785 247372 895 0
16 2 S102 740 248112 1635 0
16 2 S102 695 248807 2330 0
16 2 S102 690 249497 3020 0
16 2 S102 714 250211 3734 0
16 2 S102 729 250940 4463 0
16 2 S102 741 251681 5204 0
16 2 S102 724 252405 5928 0
16 2 S102 688 253093 6616 0
0 0 0 653 253746 -8779 0
0 0 0 648 254394 -8131 0
0 0 0 655 255049 -7476 0
0 0 0 632 255681 -6844 0
0 0 0 645 256326 -6199 0
0 0 0 669 256995 -5530 0
0 0 0 703 257698 -4827 0
0 0 0 745 258443 -4082 0
0 0 0 774 259217 -3308 0
0 0 0 770 259987 -2538 0
17 1 S112 765 260752 -1773 0
17 1 S112 716 261468 -1057 0
17 1 S112 682 262150 -375 0
17 2 S112 688 262838 313 0
17 2 S112 716 263554 1029 0
17 2 S112 764 264318 1793 0
17 2 S112 820 265138 2613 0
17 2 S112 833 265971 3446 0
17 2 S112 799 266770 4245 0
17 2 S112 779 267549 5024 0
17 2 S112 797 268346 5821 0
17 2 S112 848 269194 6669 0
0 0 0 862 270056 -11684 1
0 0 0 876 270932 -10808 1
0 0 0 813 271745 -9995 0
0 0 0 757 272502 -9238 0
0 0 0 741 273243 -8497 0
0 0 0 732 273975 -7765 0
0 0 0 750 274725 -7015 0
0 0 0 754 275479 -6261 0
0 0 0 728 276207 -5533 0
0 0 0 731 276938 -4802 0
0 0 0 748 277686 -4054 0
0 0 0 780 278466 -3274 0
0 0 0 796 279262 -2478 0
18 1 S116 779 280041 -1699 0
18 1 S116 731 280772 -968 0
18 1 S116 736 281508 -232 0
18 2 S116 750 282258 518 0
18 2 S116 814 283072 1332 0
18 2 S116 831 283903 2163 0
18 2 S116 807 284710 2970 0
18 2 S116 746 285456 3716 0
18 2 S116 742 286198 4458 0
18 2 S116 757 286955 5215 0
18 2 S116 794 287749 6009 0
18 2 S116 771 288520 6780 0
0 0 0 736 289256 -9294 0
0 0 0 705 289961 -8589 0
0 0 0 705 290666 -7884 0
0 0 0 739 291405 -7145 0
0 0 0 765 292170 -6380 0
0 0 0 751 292921 -5629 0
0 0 0 713 293634 -4916 0
0 0 0 711 294345 -4205 0
0 0 0 701 295046 -3504 0
0 0 0 728 295774 -2776 0
0 0 0 732 296506 -2044 0
19 1 S102 704 297210 -1340 0
19 1 S102 713 297923 -627 0
19 2 S102 723 298646 96 0
19 2 S102 766 299412 862 0
19 2 S102 784 300196 1646 0
19 2 S102 802 300998 2448 0
19 2 S102 766 301764 3214 0
19 2 S102 717 302481 3931 0
19 2 S102 699 303180 4630 0
19 2 S102 699 303879 5329 0
19 2 S102 697 304576 6026 0
19 2 S102 737 305313 6763 0
0 0 0 750 306063 -5849 0
0 0 0 747 306810 -5102 0
0 0 0 716 307526 -4386 0
0 0 0 681 308207 -3705 0
0 0 0 678 308885 -3027 0
0 0 0 683 309568 -2344 0
20 1 S116 705 310273 -1639 0
20 1 S116 727 311000 -912 0
20 1 S116 752 311752 -160 0
20 2 S116 735 312487 575 0
20 2 S116 718 313205 1293 0
20 2 S116 738 313943 2031 0
20 2 S116 727 314670 2758 0
20 2 S116 749 315419 3507 0
20 2 S116 765 316184 4272 0
20 2 S116 769 316953 5041 0
20 2 S116 738 317691 5779 0
20 2 S116 730 318421 6509 0
0 0 0 725 319146 -9660 0
0 0 0 742 319888 -8918 0
0 0 0 745 320633 -8173 0
0 0 0 720 321353 -7453 0
0 0 0 728 322081 -6725 0
0 0 0 729 322810 -5996 0
0 0 0 733 323543 -5263 0
0 0 0 734 324277 -4529 0
0 0 0 733 325010 -3796 0
0 0 0 706 325716 -3090 0
0 0 0 707 326423 -2383 0
21 1 S106 701 327124 -1682 0
21 1 S106 721 327845 -961 0
21 1 S106 738 328583 -223 0
21 2 S106 724 329307 501 0
21 2 S106 714 330021 1215 0
21 2 S106 728 330749 1943 0
21 2 S106 733 331482 2676 0
21 2 S106 759 332241 3435 0
21 2 S106 779 333020 4214 0
21 2 S106 761 333781 4975 0
21 2 S106 709 334490 5684 0
21 2 S106 689 335179 6373 0
0 0 0 681 335860 -7386 0
0 0 0 705 336565 -6681 0
0 0 0 748 337313 -5933 0
0 0 0 787 338100 -5146 0
0 0 0 770 338870 -4376 0
0 0 0 740 339610 -3636 0
0 0 0 738 340348 -2898 0
0 0 0 734 341082 -2164 0
22 1 S112 763 341845 -1401 0
22 1 S112 759 342604 -642 0
22 2 S112 733 343337 91 0
22 2 S112 702 344039 793 0
22 2 S112 713 344752 1506 0
22 2 S112 719 345471 2225 0
22 2 S112 722 346193 2947 0
22 2 S112 703 346896 3650 0
22 2 S112 678 347574 4328 0
22 2 S112 700 348274 5028 0
22 2 S112 711 348985 5739 0
22 2 S112 748 349733 6487 0
0 0 0 751 350484 -8760 0
0 0 0 750 351234 -8010 0
0 0 0 723 351957 -7287 0
0 0 0 713 352670 -6574 0
0 0 0 707 353377 -5867 0
0 0 0 727 354104 -5140 0
0 0 0 711 354815 -4429 0
0 0 0 693 355508 -3736 0
0 0 0 677 356185 -3059 0
0 0 0 675 356860 -2384 0
23 1 S116 671 357531 -1713 0
23 1 S116 684 358215 -1029 0
23 1 S116 708 358923 -321 0
23 2 S116 708 359631 387 0
23 2 S116 670 360301 1057 0
23 2 S116 643 360944 1700 0
23 2 S116 650 361594 2350 0
23 2 S116 678 362272 3028 0
23 2 S116 667 362939 3695 0
23 2 S116 674 363613 4369 0
23 2 S116 686 364299 5055 0
23 2 S116 710 365009 5765 0
23 2 S116 742 365751 6507 0
0 0 0 764 366515 -8080 0
0 0 0 788 367303 -7292 0
0 0 0 764 368067 -6528 0
0 0 0 759 368826 -5769 0
0 0 0 765 369591 -5004 0
0 0 0 763 370354 -4241 0
0 0 0 769 371123 -3472 0
0 0 0 749 371872 -2723 0
24 1 S106 726 372598 -1997 0
24 1 S106 728 373326 -1269 0
24 1 S106 728 374054 -541 0
24 2 S106 751 374805 210 0
24 2 S106 755 375560 965 0
24 2 S106 744 376304 1709 0
24 2 S106 710 377014 2419 0
24 2 S106 721 377735 3140 0
24 2 S106 728 378463 3868 0
24 2 S106 781 379244 4649 0
24 2 S106 772 380016 5421 0
24 2 S106 782 380798 6203 0
24 2 S106 745 381543 6948 0
0 0 0 674 382217 -8128 0
0 0 0 667 382884 -7461 0
0 0 0 659 383543 -6802 0
0 0 0 678 384221 -6124 0
0 0 0 728 384949 -5396 0
0 0 0 766 385715 -4630 0
0 0 0 797 386512 -3833 0
0 0 0 795 387307 -3038 0
0 0 0 754 388061 -2284 0
25 1 S112 734 388795 -1550 0
25 1 S112 727 389522 -823 0
25 1 S112 757 390279 -66 0
25 2 S112 769 391048 703 0
25 2 S112 791 391839 1494 0
25 2 S112 791 392630 2285 0
25 2 S112 764 393394 3049 0
25 2 S112 719 394113 3768 0
25 2 S112 724 394837 4492 0
25 2 S112 753 395590 5245 0
25 2 S112 777 396367 6022 0
25 2 S112 805 397172 6827 0
0 0 0 815 397987 -10644 0
0 0 0 810 398797 -9834 0
0 0 0 786 399583 -9048 0
0 0 0 729 400312 -8319 0
0 0 0 704 401016 -7615 0
0 0 0 700 401716 -6915 0
0 0 0 705 402421 -6210 0
0 0 0 715 403136 -5495 0
0 0 0 712 403848 -4783 0
0 0 0 701 404549 -4082 0
0 0 0 678 405227 -3404 0
0 0 0 686 405913 -2718 0
0 0 0 692 406605 -2026 0
26 1 S102 724 407329 -1302 0
26 1 S102 739 408068 -563 0
26 2 S102 743 408811 180 0
26 2 S102 767 409578 947 0
26 2 S102 751 410329 1698 0
26 2 S102 723 411052 2421 0
26 2 S102 698 411750 3119 0
26 2 S102 711 412461 3830 0
26 2 S102 716 413177 4546 0
26 2 S102 737 413914 5283 0
26 2 S102 747 414661 6030 0
26 2 S102 767 415428 6797 0
0 0 0 750 416178 -7738 0
0 0 0 735 416913 -7003 0
0 0 0 695 417608 -6308 0
0 0 0 687 418295 -5621 0
0 0 0 692 418987 -4929 0
0 0 0 712 419699 -4217 0
0 0 0 744 420443 -3473 0
0 0 0 763 421206 -2710 0
27 1 S116 739 421945 -1971 0
27 1 S116 720 422665 -1251 0
27 1 S116 735 423400 -516 0
27 2 S116 742 424142 226 0
27 2 S116 763 424905 989 0
27 2 S116 768 425673 1757 0
27 2 S116 750 426423 2507 0
27 2 S116 715 427138 3222 0
27 2 S116 701 427839 3923 0
27 2 S116 702 428541 4625 0
27 2 S116 721 429262 5346 0
27 2 S116 755 430017 6101 0
27 2 S116 760 430777 6861 0
