T_0163
BeatCount Mean SD BeatCountNoOutliers MeanNoOutliers SDNoOutliers
1931 761,399792853444 49,6239191026598 1917 760,510172143975 45,6361678835155

Trial TrialStatus Trialtype IBI AbsPosition RelPosition Outlier
0 0 0 782 1082 -15156 0
0 0 0 771 1853 -14385 0
0 0 0 773 2626 -13612 0
0 0 0 763 3389 -12849 0
0 0 0 756 4145 -12093 0
0 0 0 741 4886 -11352 0
0 0 0 730 5616 -10622 0
0 0 0 714 6330 -9908 0
0 0 0 725 7055 -9183 0
0 0 0 739 7794 -8444 0
0 0 0 772 8566 -7672 0
0 0 0 785 9351 -6887 0
0 0 0 790 10141 -6097 0
0 0 0 815 10956 -5282 0
0 0 0 826 11782 -4456 0
0 0 0 822 12604 -3634 0
0 0 0 790 13394 -2844 0
0 0 0 793 14187 -2051 0
1 1 S112 780 14967 -1271 0
1 1 S112 772 15739 -499 0
1 2 S112 752 16491 253 0
1 2 S112 746 17237 999 0
1 2 S112 769 18006 1768 0
1 2 S112 792 18798 2560 0
1 2 S112 811 19609 3371 0
1 2 S112 778 20387 4149 0
1 2 S112 781 21168 4930 0
1 2 S112 798 21966 5728 0
1 2 S112 810 22776 6538 0
0 0 0 813 23589 -10802 0
0 0 0 774 24363 -10028 0
0 0 0 783 25146 -9245 0
0 0 0 783 25929 -8462 0
0 0 0 770 26699 -7692 0
0 0 0 748 27447 -6944 0
0 0 0 786 28233 -6158 0
0 0 0 796 29029 -5362 0
0 0 0 797 29826 -4565 0
0 0 0 772 30598 -3793 0
0 0 0 798 31396 -2995 0
0 0 0 779 32175 -2216 0
2 1 S102 753 32928 -1463 0
2 1 S102 755 33683 -708 0
2 2 S102 768 34451 60 0
2 2 S102 778 35229 838 0
2 2 S102 766 35995 1604 0
2 2 S102 755 36750 2359 0
2 2 S102 771 37521 3130 0
2 2 S102 794 38315 3924 0
2 2 S102 789 39104 4713 0
2 2 S102 779 39883 5492 0
2 2 S102 812 40695 6304 0
0 0 0 809 41504 -9018 0
0 0 0 802 42306 -8216 0
0 0 0 770 43076 -7446 0
0 0 0 792 43868 -6654 0
0 0 0 778 44646 -5876 0
0 0 0 762 45408 -5114 0
0 0 0 769 46177 -4345 0
0 0 0 781 46958 -3564 0
0 0 0 790 47748 -2774 0
0 0 0 769 48517 -2005 0
3 1 S116 757 49274 -1248 0
3 1 S116 776 50050 -472 0
3 2 S116 787 50837 315 0
3 2 S116 789 51626 1104 0
3 2 S116 781 52407 1885 0
3 2 S116 791 53198 2676 0
3 2 S116 788 53986 3464 0
3 2 S116 772 54758 4236 0
3 2 S116 747 55505 4983 0
3 2 S116 763 56268 5746 0
3 2 S116 775 57043 6521 0
0 0 0 785 57828 -11046 0
0 0 0 768 58596 -10278 0
0 0 0 810 59406 -9468 0
0 0 0 817 60223 -8651 0
0 0 0 803 61026 -7848 0
0 0 0 781 61807 -7067 0
0 0 0 807 62614 -6260 0
0 0 0 807 63421 -5453 0
0 0 0 780 64201 -4673 0
0 0 0 757 64958 -3916 0
0 0 0 767 65725 -3149 0
0 0 0 756 66481 -2393 0
4 1 S106 757 67238 -1636 0
4 1 S106 736 67974 -900 0
4 1 S106 753 68727 -147 0
4 2 S106 756 69483 609 0
4 2 S106 771 70254 1380 0
4 2 S106 756 71010 2136 0
4 2 S106 770 71780 2906 0
4 2 S106 794 72574 3700 0
4 2 S106 814 73388 4514 0
4 2 S106 790 74178 5304 0
4 2 S106 780 74958 6084 0
4 2 S106 806 75764 6890 0
0 0 0 817 76581 -6667 0
0 0 0 819 77400 -5848 0
0 0 0 791 78191 -5057 0
0 0 0 796 78987 -4261 0
0 0 0 790 79777 -3471 0
0 0 0 788 80565 -2683 0
5 1 S116 762 81327 -1921 0
5 1 S116 790 82117 -1131 0
5 1 S116 808 82925 -323 0
5 2 S116 825 83750 502 0
5 2 S116 811 84561 1313 0
5 2 S116 811 85372 2124 0
5 2 S116 820 86192 2944 0
5 2 S116 831 87023 3775 0
5 2 S116 811 87834 4586 0
5 2 S116 810 88644 5396 0
5 2 S116 843 89487 6239 0
0 0 0 880 90367 -8796 0
0 0 0 850 91217 -7946 0
0 0 0 813 92030 -7133 0
0 0 0 820 92850 -6313 0
0 0 0 812 93662 -5501 0
0 0 0 792 94454 -4709 0
0 0 0 761 95215 -3948 0
0 0 0 790 96005 -3158 0
0 0 0 797 96802 -2361 0
6 1 S106 789 97591 -1572 0
6 1 S106 769 98360 -803 0
6 2 S106 809 99169 6 0
6 2 S106 821 99990 827 0
6 2 S106 835 100825 1662 0
6 2 S106 810 101635 2472 0
6 2 S106 794 102429 3266 0
6 2 S106 804 103233 4070 0
6 2 S106 799 104032 4869 0
6 2 S106 792 104824 5661 0
6 2 S106 766 105590 6427 0
0 0 0 794 106384 -10236 0
0 0 0 804 107188 -9432 0
0 0 0 813 108001 -8619 0
0 0 0 784 108785 -7835 0
0 0 0 789 109574 -7046 0
0 0 0 795 110369 -6251 0
0 0 0 803 111172 -5448 0
0 0 0 780 111952 -4668 0
0 0 0 794 112746 -3874 0
0 0 0 803 113549 -3071 0
0 0 0 796 114345 -2275 0
7 1 S102 780 115125 -1495 0
7 1 S102 788 115913 -707 0
7 2 S102 829 116742 122 0
7 2 S102 838 117580 960 0
7 2 S102 834 118414 1794 0
7 2 S102 818 119232 2612 0
7 2 S102 841 120073 3453 0
7 2 S102 833 120906 4286 0
7 2 S102 815 121721 5101 0
7 2 S102 788 122509 5889 0
7 2 S102 799 123308 6688 0
0 0 0 794 124102 -7886 0
0 0 0 778 124880 -7108 0
0 0 0 759 125639 -6349 0
0 0 0 777 126416 -5572 0
0 0 0 797 127213 -4775 0
0 0 0 791 128004 -3984 0
0 0 0 764 128768 -3220 0
0 0 0 800 129568 -2420 0
8 1 S112 799 130367 -1621 0
8 1 S112 821 131188 -800 0
8 1 S112 789 131977 -11 0
8 2 S112 816 132793 805 0
8 2 S112 882 133675 1687 0
8 2 S112 907 134582 2594 1
8 2 S112 875 135457 3469 0
8 2 S112 848 136305 4317 0
8 2 S112 894 137199 5211 1
8 2 S112 911 138110 6122 1
8 2 S112 904 139014 7026 1
0 0 0 829 139843 -7497 0
0 0 0 819 140662 -6678 0
0 0 0 807 141469 -5871 0
0 0 0 790 142259 -5081 0
0 0 0 749 143008 -4332 0
0 0 0 759 143767 -3573 0
0 0 0 757 144524 -2816 0
0 0 0 755 145279 -2061 0
9 1 S116 750 146029 -1311 0
9 1 S116 791 146820 -520 0
9 2 S116 801 147621 281 0
9 2 S116 816 148437 1097 0
9 2 S116 799 149236 1896 0
9 2 S116 828 150064 2724 0
9 2 S116 832 150896 3556 0
9 2 S116 829 151725 4385 0
9 2 S116 787 152512 5172 0
9 2 S116 804 153316 5976 0
9 2 S116 812 154128 6788 0
0 0 0 814 154942 -10054 0
0 0 0 788 155730 -9266 0
0 0 0 774 156504 -8492 0
0 0 0 781 157285 -7711 0
0 0 0 796 158081 -6915 0
0 0 0 779 158860 -6136 0
0 0 0 785 159645 -5351 0
0 0 0 803 160448 -4548 0
0 0 0 817 161265 -3731 0
0 0 0 796 162061 -2935 0
0 0 0 782 162843 -2153 0
10 1 S102 786 163629 -1367 0
10 1 S102 787 164416 -580 0
10 2 S102 768 165184 188 0
10 2 S102 753 165937 941 0
10 2 S102 781 166718 1722 0
10 2 S102 790 167508 2512 0
10 2 S102 808 168316 3320 0
10 2 S102 773 169089 4093 0
10 2 S102 807 169896 4900 0
10 2 S102 833 170729 5733 0
10 2 S102 842 171571 6575 0
0 0 0 797 172368 -10317 0
0 0 0 778 173146 -9539 0
0 0 0 796 173942 -8743 0
0 0 0 785 174727 -7958 0
0 0 0 759 175486 -7199 0
0 0 0 758 176244 -6441 0
0 0 0 766 177010 -5675 0
0 0 0 765 177775 -4910 0
0 0 0 752 178527 -4158 0
0 0 0 751 179278 -3407 0
0 0 0 764 180042 -2643 0
11 1 S112 767 180809 -1876 0
11 1 S112 759 181568 -1117 0
11 1 S112 756 182324 -361 0
11 2 S112 794 183118 433 0
11 2 S112 825 183943 1258 0
11 2 S112 856 184799 2114 0
11 2 S112 830 185629 2944 0
11 2 S112 843 186472 3787 0
11 2 S112 832 187304 4619 0
11 2 S112 828 188132 5447 0
11 2 S112 774 188906 6221 0
11 2 S112 773 189679 6994 0
0 0 0 775 190454 -6737 0
0 0 0 776 191230 -5961 0
0 0 0 761 191991 -5200 0
0 0 0 745 192736 -4455 0
0 0 0 754 193490 -3701 0
0 0 0 750 194240 -2951 0
0 0 0 710 194950 -2241 0
12 1 S116 700 195650 -1541 0
12 1 S116 668 196318 -873 0
12 1 S116 699 197017 -174 0
12 2 S116 724 197741 550 0
12 2 S116 788 198529 1338 0
12 2 S116 803 199332 2141 0
12 2 S116 806 200138 2947 0
12 2 S116 829 200967 3776 0
12 2 S116 838 201805 4614 0
12 2 S116 819 202624 5433 0
12 2 S116 789 203413 6222 0
12 2 S116 794 204207 7016 0
0 0 0 796 205003 -10043 0
0 0 0 780 205783 -9263 0
0 0 0 748 206531 -8515 0
0 0 0 771 207302 -7744 0
0 0 0 784 208086 -6960 0
0 0 0 783 208869 -6177 0
0 0 0 802 209671 -5375 0
0 0 0 831 210502 -4544 0
0 0 0 854 211356 -3690 0
0 0 0 837 212193 -2853 0
0 0 0 812 213005 -2041 0
13 1 S112 833 213838 -1208 0
13 1 S112 823 214661 -385 0
13 2 S112 788 215449 403 0
13 2 S112 779 216228 1182 0
13 2 S112 819 217047 2001 0
13 2 S112 838 217885 2839 0
13 2 S112 854 218739 3693 0
13 2 S112 833 219572 4526 0
13 2 S112 856 220428 5382 0
13 2 S112 847 221275 6229 0
0 0 0 840 222115 -10654 0
0 0 0 801 222916 -9853 0
0 0 0 813 223729 -9040 0
0 0 0 808 224537 -8232 0
0 0 0 803 225340 -7429 0
0 0 0 770 226110 -6659 0
0 0 0 803 226913 -5856 0
0 0 0 818 227731 -5038 0
0 0 0 802 228533 -4236 0
0 0 0 777 229310 -3459 0
0 0 0 793 230103 -2666 0
14 1 S106 792 230895 -1874 0
14 1 S106 759 231654 -1115 0
14 1 S106 768 232422 -347 0
14 2 S106 789 233211 442 0
14 2 S106 804 234015 1246 0
14 2 S106 795 234810 2041 0
14 2 S106 816 235626 2857 0
14 2 S106 872 236498 3729 0
14 2 S106 901 237399 4630 1
14 2 S106 853 238252 5483 0
14 2 S106 808 239060 6291 0
0 0 0 818 239878 -10580 0
0 0 0 805 240683 -9775 0
0 0 0 766 241449 -9009 0
0 0 0 738 242187 -8271 0
0 0 0 752 242939 -7519 0
0 0 0 755 243694 -6764 0
0 0 0 744 244438 -6020 0
0 0 0 735 245173 -5285 0
0 0 0 772 245945 -4513 0
0 0 0 787 246732 -3726 0
0 0 0 805 247537 -2921 0
0 0 0 783 248320 -2138 0
15 1 S116 794 249114 -1344 0
15 1 S116 780 249894 -564 0
15 2 S116 749 250643 185 0
15 2 S116 745 251388 930 0
15 2 S116 767 252155 1697 0
15 2 S116 795 252950 2492 0
15 2 S116 829 253779 3321 0
15 2 S116 800 254579 4121 0
15 2 S116 826 255405 4947 0
15 2 S116 829 256234 5776 0
15 2 S116 830 257064 6606 0
0 0 0 795 257859 -8663 0
0 0 0 786 258645 -7877 0
0 0 0 790 259435 -7087 0
0 0 0 770 260205 -6317 0
0 0 0 726 260931 -5591 0
0 0 0 708 261639 -4883 0
0 0 0 706 262345 -4177 0
0 0 0 701 263046 -3476 0
0 0 0 708 263754 -2768 0
0 0 0 696 264450 -2072 0
16 1 S116 682 265132 -1390 0
16 1 S116 703 265835 -687 0
16 2 S116 743 266578 56 0
16 2 S116 767 267345 823 0
16 2 S116 767 268112 1590 0
16 2 S116 741 268853 2331 0
16 2 S116 752 269605 3083 0
16 2 S116 741 270346 3824 0
16 2 S116 736 271082 4560 0
16 2 S116 720 271802 5280 0
16 2 S116 708 272510 5988 0
16 2 S116 721 273231 6709 0
0 0 0 726 273957 -8315 0
0 0 0 745 274702 -7570 0
0 0 0 743 275445 -6827 0
0 0 0 728 276173 -6099 0
0 0 0 760 276933 -5339 0
0 0 0 753 277686 -4586 0
0 0 0 739 278425 -3847 0
0 0 0 729 279154 -3118 0
0 0 0 742 279896 -2376 0
17 1 S106 745 280641 -1631 0
17 1 S106 722 281363 -909 0
17 1 S106 709 282072 -200 0
17 2 S106 1474 283546 1274 1
17 2 S106 729 284275 2003 0
17 2 S106 699 284974 2702 0
17 2 S106 695 285669 3397 0
17 2 S106 705 286374 4102 0
17 2 S106 729 287103 4831 0
17 2 S106 758 287861 5589 0
17 2 S106 777 288638 6366 0
0 0 0 773 289411 -10765 0
0 0 0 771 290182 -9994 0
0 0 0 762 290944 -9232 0
0 0 0 758 291702 -8474 0
0 0 0 749 292451 -7725 0
0 0 0 745 293196 -6980 0
0 0 0 711 293907 -6269 0
0 0 0 722 294629 -5547 0
0 0 0 725 295354 -4822 0
0 0 0 751 296105 -4071 0
0 0 0 805 296910 -3266 0
0 0 0 848 297758 -2418 0
18 1 S102 892 298650 -1526 1
18 1 S102 870 299520 -656 0
18 2 S102 866 300386 210 0
18 2 S102 817 301203 1027 0
18 2 S102 801 302004 1828 0
18 2 S102 794 302798 2622 0
18 2 S102 795 303593 3417 0
18 2 S102 802 304395 4219 0
18 2 S102 788 305183 5007 0
18 2 S102 770 305953 5777 0
18 2 S102 796 306749 6573 0
0 0 0 809 307558 -5748 0
0 0 0 807 308365 -4941 0
0 0 0 769 309134 -4172 0
0 0 0 760 309894 -3412 0
0 0 0 779 310673 -2633 0
19 1 S106 770 311443 -1863 0
19 1 S106 761 312204 -1102 0
19 1 S106 744 312948 -358 0
19 2 S106 761 313709 403 0
19 2 S106 766 314475 1169 0
19 2 S106 776 315251 1945 0
19 2 S106 753 316004 2698 0
19 2 S106 757 316761 3455 0
19 2 S106 786 317547 4241 0
19 2 S106 795 318342 5036 0
19 2 S106 772 319114 5808 0
19 2 S106 759 319873 6567 0
0 0 0 773 320646 -10499 0
0 0 0 773 321419 -9726 0
0 0 0 773 322192 -8953 0
0 0 0 738 322930 -8215 0
0 0 0 748 323678 -7467 0
0 0 0 750 324428 -6717 0
0 0 0 749 325177 -5968 0
0 0 0 726 325903 -5242 0
0 0 0 734 326637 -4508 0
0 0 0 745 327382 -3763 0
0 0 0 768 328150 -2995 0
0 0 0 748 328898 -2247 0
20 1 S112 768 329666 -1479 0
20 1 S112 785 330451 -694 0
20 2 S112 787 331238 93 0
20 2 S112 766 332004 859 0
20 2 S112 755 332759 1614 0
20 2 S112 774 333533 2388 0
20 2 S112 785 334318 3173 0
20 2 S112 779 335097 3952 0
20 2 S112 756 335853 4708 0
20 2 S112 784 336637 5492 0
20 2 S112 793 337430 6285 0
0 0 0 791 338221 -8972 0
0 0 0 760 338981 -8212 0
0 0 0 771 339752 -7441 0
0 0 0 763 340515 -6678 0
0 0 0 732 341247 -5946 0
0 0 0 721 341968 -5225 0
0 0 0 737 342705 -4488 0
0 0 0 736 343441 -3752 0
0 0 0 719 344160 -3033 0
0 0 0 718 344878 -2315 0
21 1 S106 734 345612 -1581 0
21 1 S106 737 346349 -844 0
21 1 S106 720 347069 -124 0
21 2 S106 734 347803 610 0
21 2 S106 759 348562 1369 0
21 2 S106 784 349346 2153 0
21 2 S106 778 350124 2931 0
21 2 S106 769 350893 3700 0
21 2 S106 780 351673 4480 0
21 2 S106 778 352451 5258 0
21 2 S106 740 353191 5998 0
21 2 S106 735 353926 6733 0
0 0 0 757 354683 -10878 0
0 0 0 767 355450 -10111 0
0 0 0 770 356220 -9341 0
0 0 0 750 356970 -8591 0
0 0 0 764 357734 -7827 0
0 0 0 787 358521 -7040 0
0 0 0 771 359292 -6269 0
0 0 0 750 360042 -5519 0
0 0 0 764 360806 -4755 0
0 0 0 760 361566 -3995 0
0 0 0 733 362299 -3262 0
0 0 0 727 363026 -2535 0
22 1 S116 743 363769 -1792 0
22 1 S116 747 364516 -1045 0
22 1 S116 736 365252 -309 0
22 2 S116 728 365980 419 0
22 2 S116 756 366736 1175 0
22 2 S116 773 367509 1948 0
22 2 S116 778 368287 2726 0
22 2 S116 767 369054 3493 0
22 2 S116 787 369841 4280 0
22 2 S116 804 370645 5084 0
22 2 S116 811 371456 5895 0
22 2 S116 772 372228 6667 0
0 0 0 773 373001 -8327 0
0 0 0 789 373790 -7538 0
0 0 0 767 374557 -6771 0
0 0 0 735 375292 -6036 0
0 0 0 754 376046 -5282 0
0 0 0 761 376807 -4521 0
0 0 0 751 377558 -3770 0
0 0 0 743 378301 -3027 0
0 0 0 759 379060 -2268 0
23 1 S112 768 379828 -1500 0
23 1 S112 758 380586 -742 0
23 2 S112 752 381338 10 0
23 2 S112 773 382111 783 0
23 2 S112 771 382882 1554 0
23 2 S112 778 383660 2332 0
23 2 S112 756 384416 3088 0
23 2 S112 770 385186 3858 0
23 2 S112 793 385979 4651 0
23 2 S112 812 386791 5463 0
23 2 S112 843 387634 6306 0
0 0 0 827 388461 -9329 0
0 0 0 819 389280 -8510 0
0 0 0 803 390083 -7707 0
0 0 0 747 390830 -6960 0
0 0 0 733 391563 -6227 0
0 0 0 733 392296 -5494 0
0 0 0 715 393011 -4779 0
0 0 0 708 393719 -4071 0
0 0 0 695 394414 -3376 0
0 0 0 671 395085 -2705 0
0 0 0 693 395778 -2012 0
24 1 S106 694 396472 -1318 0
24 1 S106 694 397166 -624 0
24 2 S106 709 397875 85 0
24 2 S106 721 398596 806 0
24 2 S106 731 399327 1537 0
24 2 S106 734 400061 2271 0
24 2 S106 717 400778 2988 0
24 2 S106 730 401508 3718 0
24 2 S106 746 402254 4464 0
24 2 S106 752 403006 5216 0
24 2 S106 743 403749 5959 0
24 2 S106 766 404515 6725 0
0 0 0 780 405295 -8128 0
0 0 0 812 406107 -7316 0
0 0 0 763 406870 -6553 0
0 0 0 807 407677 -5746 0
0 0 0 801 408478 -4945 0
0 0 0 747 409225 -4198 0
0 0 0 741 409966 -3457 0
0 0 0 745 410711 -2712 0
25 1 S102 734 411445 -1978 0
25 1 S102 729 412174 -1249 0
25 1 S102 764 412938 -485 0
25 2 S102 806 413744 321 0
25 2 S102 859 414603 1180 0
25 2 S102 884 415487 2064 0
25 2 S102 866 416353 2930 0
25 2 S102 874 417227 3804 0
25 2 S102 878 418105 4682 0
25 2 S102 805 418910 5487 0
25 2 S102 796 419706 6283 0
0 0 0 788 420494 -6573 0
0 0 0 787 421281 -5786 0
0 0 0 786 422067 -5000 0
0 0 0 749 422816 -4251 0
0 0 0 770 423586 -3481 0
0 0 0 732 424318 -2749 0
26 1 S116 769 425087 -1980 0
26 1 S116 800 425887 -1180 0
26 1 S116 846 426733 -334 0
26 2 S116 825 427558 491 0
26 2 S116 855 428413 1346 0
26 2 S116 849 429262 2195 0
26 2 S116 807 430069 3002 0
26 2 S116 825 430894 3827 0
26 2 S116 828 431722 4655 0
26 2 S116 832 432554 5487 0
26 2 S116 795 433349 6282 0
0 0 0 765 434114 -6647 0
0 0 0 785 434899 -5862 0
0 0 0 791 435690 -5071 0
0 0 0 778 436468 -4293 0
0 0 0 756 437224 -3537 0
0 0 0 781 438005 -2756 0
27 1 S106 763 438768 -1993 0
27 1 S106 735 439503 -1258 0
27 1 S106 733 440236 -525 0
27 2 S106 747 440983 222 0
27 2 S106 764 441747 986 0
27 2 S106 758 442505 1744 0
27 2 S106 747 443252 2491 0
27 2 S106 781 444033 3272 0
27 2 S106 787 444820 4059 0
27 2 S106 782 445602 4841 0
27 2 S106 760 446362 5601 0
27 2 S106 767 447129 6368 0
0 0 0 754 447883 -6887 0
0 0 0 752 448635 -6135 0
0 0 0 725 449360 -5410 0
0 0 0 730 450090 -4680 0
0 0 0 732 450822 -3948 0
0 0 0 728 451550 -3220 0
0 0 0 715 452265 -2505 0
28 1 S102 727 452992 -1778 0
28 1 S102 727 453719 -1051 0
28 1 S102 731 454450 -320 0
28 2 S102 722 455172 402 0
28 2 S102 749 455921 1151 0
28 2 S102 757 456678 1908 0
28 2 S102 765 457443 2673 0
28 2 S102 744 458187 3417 0
28 2 S102 747 458934 4164 0
28 2 S102 762 459696 4926 0
28 2 S102 755 460451 5681 0
28 2 S102 741 461192 6422 0
0 0 0 719 461911 -11145 0
0 0 0 723 462634 -10422 0
0 0 0 722 463356 -9700 0
0 0 0 728 464084 -8972 0
0 0 0 708 464792 -8264 0
0 0 0 709 465501 -7555 0
0 0 0 726 466227 -6829 0
0 0 0 734 466961 -6095 0
0 0 0 724 467685 -5371 0
0 0 0 719 468404 -4652 0
0 0 0 735 469139 -3917 0
0 0 0 746 469885 -3171 0
0 0 0 745 470630 -2426 0
29 1 S112 729 471359 -1697 0
29 1 S112 739 472098 -958 0
29 1 S112 742 472840 -216 0
29 2 S112 756 473596 540 0
29 2 S112 742 474338 1282 0
29 2 S112 767 475105 2049 0
29 2 S112 807 475912 2856 0
29 2 S112 823 476735 3679 0
29 2 S112 801 477536 4480 0
29 2 S112 785 478321 5265 0
29 2 S112 786 479107 6051 0
29 2 S112 772 479879 6823 0
0 0 0 743 480622 -6592 0
0 0 0 722 481344 -5870 0
0 0 0 730 482074 -5140 0
0 0 0 735 482809 -4405 0
0 0 0 726 483535 -3679 0
0 0 0 705 484240 -2974 0
0 0 0 718 484958 -2256 0
30 1 S112 712 485670 -1544 0
30 1 S112 705 486375 -839 0
30 1 S112 689 487064 -150 0
30 2 S112 676 487740 526 0
30 2 S112 659 488399 1185 0
30 2 S112 682 489081 1867 0
30 2 S112 695 489776 2562 0
30 2 S112 713 490489 3275 0
30 2 S112 706 491195 3981 0
30 2 S112 710 491905 4691 0
30 2 S112 732 492637 5423 0
30 2 S112 735 493372 6158 0
30 2 S112 746 494118 6904 0
0 0 0 741 494859 -9016 0
0 0 0 720 495579 -8296 0
0 0 0 733 496312 -7563 0
0 0 0 754 497066 -6809 0
0 0 0 774 497840 -6035 0
0 0 0 765 498605 -5270 0
0 0 0 758 499363 -4512 0
0 0 0 787 500150 -3725 0
0 0 0 779 500929 -2946 0
0 0 0 742 501671 -2204 0
31 1 S106 727 502398 -1477 0
31 1 S106 695 503093 -782 0
31 1 S106 692 503785 -90 0
31 2 S106 716 504501 626 0
31 2 S106 704 505205 1330 0
31 2 S106 688 505893 2018 0
31 2 S106 681 506574 2699 0
31 2 S106 688 507262 3387 0
31 2 S106 719 507981 4106 0
31 2 S106 741 508722 4847 0
31 2 S106 750 509472 5597 0
31 2 S106 742 510214 6339 0
0 0 0 725 510939 -9432 0
0 0 0 720 511659 -8712 0
0 0 0 726 512385 -7986 0
0 0 0 704 513089 -7282 0
0 0 0 702 513791 -6580 0
0 0 0 683 514474 -5897 0
0 0 0 666 515140 -5231 0
0 0 0 650 515790 -4581 0
0 0 0 636 516426 -3945 0
0 0 0 621 517047 -3324 1
0 0 0 648 517695 -2676 0
0 0 0 667 518362 -2009 0
32 1 S102 688 519050 -1321 0
32 1 S102 716 519766 -605 0
32 2 S102 711 520477 106 0
32 2 S102 698 521175 804 0
32 2 S102 704 521879 1508 0
32 2 S102 704 522583 2212 0
32 2 S102 722 523305 2934 0
32 2 S102 736 524041 3670 0
32 2 S102 749 524790 4419 0
32 2 S102 750 525540 5169 0
32 2 S102 732 526272 5901 0
32 2 S102 739 527011 6640 0
0 0 0 746 527757 -10303 0
0 0 0 756 528513 -9547 0
0 0 0 755 529268 -8792 0
0 0 0 732 530000 -8060 0
0 0 0 709 530709 -7351 0
0 0 0 733 531442 -6618 0
0 0 0 710 532152 -5908 0
0 0 0 718 532870 -5190 0
0 0 0 716 533586 -4474 0
0 0 0 741 534327 -3733 0
0 0 0 768 535095 -2965 0
0 0 0 762 535857 -2203 0
33 1 S112 747 536604 -1456 0
33 1 S112 741 537345 -715 0
33 2 S112 753 538098 38 0
33 2 S112 747 538845 785 0
33 2 S112 749 539594 1534 0
33 2 S112 753 540347 2287 0
33 2 S112 743 541090 3030 0
33 2 S112 718 541808 3748 0
33 2 S112 726 542534 4474 0
33 2 S112 726 543260 5200 0
33 2 S112 742 544002 5942 0
33 2 S112 767 544769 6709 0
0 0 0 767 545536 -11373 0
0 0 0 828 546364 -10545 0
0 0 0 848 547212 -9697 0
0 0 0 848 548060 -8849 0
0 0 0 810 548870 -8039 0
0 0 0 829 549699 -7210 0
0 0 0 831 550530 -6379 0
0 0 0 800 551330 -5579 0
0 0 0 779 552109 -4800 0
0 0 0 780 552889 -4020 0
0 0 0 768 553657 -3252 0
0 0 0 742 554399 -2510 0
34 1 S106 734 555133 -1776 0
34 1 S106 725 555858 -1051 0
34 1 S106 715 556573 -336 0
34 2 S106 701 557274 365 0
34 2 S106 690 557964 1055 0
34 2 S106 700 558664 1755 0
34 2 S106 711 559375 2466 0
34 2 S106 740 560115 3206 0
34 2 S106 742 560857 3948 0
34 2 S106 784 561641 4732 0
34 2 S106 799 562440 5531 0
34 2 S106 804 563244 6335 0
0 0 0 759 564003 -9219 0
0 0 0 787 564790 -8432 0
0 0 0 772 565562 -7660 0
0 0 0 763 566325 -6897 0
0 0 0 741 567066 -6156 0
0 0 0 739 567805 -5417 0
0 0 0 737 568542 -4680 0
0 0 0 713 569255 -3967 0
0 0 0 725 569980 -3242 0
0 0 0 728 570708 -2514 0
35 1 S102 743 571451 -1771 0
35 1 S102 743 572194 -1028 0
35 1 S102 745 572939 -283 0
35 2 S102 763 573702 480 0
35 2 S102 777 574479 1257 0
35 2 S102 795 575274 2052 0
35 2 S102 770 576044 2822 0
35 2 S102 779 576823 3601 0
35 2 S102 784 577607 4385 0
35 2 S102 774 578381 5159 0
35 2 S102 736 579117 5895 0
35 2 S102 729 579846 6624 0
0 0 0 730 580576 -6340 0
0 0 0 727 581303 -5613 0
0 0 0 719 582022 -4894 0
0 0 0 702 582724 -4192 0
0 0 0 719 583443 -3473 0
0 0 0 717 584160 -2756 0
0 0 0 714 584874 -2042 0
36 1 S106 705 585579 -1337 0
36 1 S106 720 586299 -617 0
36 2 S106 733 587032 116 0
36 2 S106 750 587782 866 0
36 2 S106 743 588525 1609 0
36 2 S106 761 589286 2370 0
36 2 S106 777 590063 3147 0
36 2 S106 785 590848 3932 0
36 2 S106 772 591620 4704 0
36 2 S106 734 592354 5438 0
36 2 S106 734 593088 6172 0
36 2 S106 726 593814 6898 0
0 0 0 732 594546 -8153 0
0 0 0 732 595278 -7421 0
0 0 0 709 595987 -6712 0
0 0 0 716 596703 -5996 0
0 0 0 734 597437 -5262 0
0 0 0 753 598190 -4509 0
0 0 0 752 598942 -3757 0
0 0 0 754 599696 -3003 0
0 0 0 799 600495 -2204 0
37 1 S116 817 601312 -1387 0
37 1 S116 782 602094 -605 0
37 2 S116 764 602858 159 0
37 2 S116 781 603639 940 0
37 2 S116 776 604415 1716 0
37 2 S116 771 605186 2487 0
37 2 S116 752 605938 3239 0
37 2 S116 747 606685 3986 0
37 2 S116 765 607450 4751 0
37 2 S116 792 608242 5543 0
37 2 S116 786 609028 6329 0
0 0 0 755 609783 -10555 0
0 0 0 760 610543 -9795 0
0 0 0 770 611313 -9025 0
0 0 0 762 612075 -8263 0
0 0 0 736 612811 -7527 0
0 0 0 722 613533 -6805 0
0 0 0 727 614260 -6078 0
0 0 0 715 614975 -5363 0
0 0 0 708 615683 -4655 0
0 0 0 700 616383 -3955 0
0 0 0 725 617108 -3230 0
0 0 0 740 617848 -2490 0
38 1 S102 743 618591 -1747 0
38 1 S102 737 619328 -1010 0
38 1 S102 746 620074 -264 0
38 2 S102 731 620805 467 0
38 2 S102 719 621524 1186 0
38 2 S102 695 622219 1881 0
38 2 S102 694 622913 2575 0
38 2 S102 682 623595 3257 0
38 2 S102 682 624277 3939 0
38 2 S102 683 624960 4622 0
38 2 S102 691 625651 5313 0
38 2 S102 682 626333 5995 0
38 2 S102 701 627034 6696 0
0 0 0 726 627760 -8576 0
0 0 0 752 628512 -7824 0
0 0 0 749 629261 -7075 0
0 0 0 733 629994 -6342 0
0 0 0 737 630731 -5605 0
0 0 0 724 631455 -4881 0
0 0 0 702 632157 -4179 0
0 0 0 686 632843 -3493 0
0 0 0 664 633507 -2829 0
0 0 0 694 634201 -2135 0
39 1 S116 708 634909 -1427 0
39 1 S116 739 635648 -688 0
39 2 S116 734 636382 46 0
39 2 S116 747 637129 793 0
39 2 S116 764 637893 1557 0
39 2 S116 764 638657 2321 0
39 2 S116 770 639427 3091 0
39 2 S116 736 640163 3827 0
39 2 S116 746 640909 4573 0
39 2 S116 752 641661 5325 0
39 2 S116 763 642424 6088 0
39 2 S116 755 643179 6843 0
0 0 0 741 643920 -6193 0
0 0 0 772 644692 -5421 0
0 0 0 778 645470 -4643 0
0 0 0 768 646238 -3875 0
0 0 0 752 646990 -3123 0
0 0 0 757 647747 -2366 0
40 1 S112 751 648498 -1615 0
40 1 S112 718 649216 -897 0
40 1 S112 719 649935 -178 0
40 2 S112 751 650686 573 0
40 2 S112 829 651515 1402 0
40 2 S112 826 652341 2228 0
40 2 S112 825 653166 3053 0
40 2 S112 882 654048 3935 0
40 2 S112 901 654949 4836 1
40 2 S112 877 655826 5713 0
40 2 S112 800 656626 6513 0
0 0 0 794 657420 -186478 0
0 0 0 761 658181 -185717 0
0 0 0 738 658919 -184979 0
0 0 0 724 659643 -184255 0
0 0 0 733 660376 -183522 0
0 0 0 743 661119 -182779 0
0 0 0 738 661857 -182041 0
0 0 0 736 662593 -181305 0
0 0 0 794 663387 -180511 0
0 0 0 799 664186 -179712 0
0 0 0 839 665025 -178873 0
0 0 0 812 665837 -178061 0
0 0 0 829 666666 -177232 0
0 0 0 854 667520 -176378 0
0 0 0 841 668361 -175537 0
0 0 0 788 669149 -174749 0
0 0 0 774 669923 -173975 0
0 0 0 765 670688 -173210 0
0 0 0 756 671444 -172454 0
0 0 0 721 672165 -171733 0
0 0 0 702 672867 -171031 0
0 0 0 692 673559 -170339 0
0 0 0 693 674252 -169646 0
0 0 0 694 674946 -168952 0
0 0 0 697 675643 -168255 0
0 0 0 679 676322 -167576 0
0 0 0 686 677008 -166890 0
0 0 0 723 677731 -166167 0
0 0 0 725 678456 -165442 0
0 0 0 731 679187 -164711 0
0 0 0 707 679894 -164004 0
0 0 0 694 680588 -163310 0
0 0 0 700 681288 -162610 0
0 0 0 682 681970 -161928 0
0 0 0 672 682642 -161256 0
0 0 0 658 683300 -160598 0
0 0 0 663 683963 -159935 0
0 0 0 661 684624 -159274 0
0 0 0 654 685278 -158620 0
0 0 0 662 685940 -157958 0
0 0 0 673 686613 -157285 0
0 0 0 660 687273 -156625 0
0 0 0 664 687937 -155961 0
0 0 0 662 688599 -155299 0
0 0 0 668 689267 -154631 0
0 0 0 662 689929 -153969 0
0 0 0 688 690617 -153281 0
0 0 0 689 691306 -152592 0
0 0 0 685 691991 -151907 0
0 0 0 680 692671 -151227 0
0 0 0 699 693370 -150528 0
0 0 0 700 694070 -149828 0
0 0 0 703 694773 -149125 0
0 0 0 696 695469 -148429 0
0 0 0 683 696152 -147746 0
0 0 0 675 696827 -147071 0
0 0 0 664 697491 -146407 0
0 0 0 664 698155 -145743 0
0 0 0 674 698829 -145069 0
0 0 0 683 699512 -144386 0
0 0 0 681 700193 -143705 0
0 0 0 692 700885 -143013 0
0 0 0 740 701625 -142273 0
0 0 0 744 702369 -141529 0
0 0 0 741 703110 -140788 0
0 0 0 721 703831 -140067 0
0 0 0 779 704610 -139288 0
0 0 0 740 705350 -138548 0
0 0 0 708 706058 -137840 0
0 0 0 699 706757 -137141 0
0 0 0 681 707438 -136460 0
0 0 0 697 708135 -135763 0
0 0 0 725 708860 -135038 0
0 0 0 739 709599 -134299 0
0 0 0 751 710350 -133548 0
0 0 0 749 711099 -132799 0
0 0 0 747 711846 -132052 0
0 0 0 758 712604 -131294 0
0 0 0 750 713354 -130544 0
0 0 0 751 714105 -129793 0
0 0 0 756 714861 -129037 0
0 0 0 750 715611 -128287 0
0 0 0 727 716338 -127560 0
0 0 0 731 717069 -126829 0
0 0 0 708 717777 -126121 0
0 0 0 721 718498 -125400 0
0 0 0 760 719258 -124640 0
0 0 0 817 720075 -123823 0
0 0 0 815 720890 -123008 0
0 0 0 797 721687 -122211 0
0 0 0 845 722532 -121366 0
0 0 0 878 723410 -120488 0
0 0 0 859 724269 -119629 0
0 0 0 828 725097 -118801 0
0 0 0 809 725906 -117992 0
0 0 0 778 726684 -117214 0
0 0 0 753 727437 -116461 0
0 0 0 735 728172 -115726 0
0 0 0 727 728899 -114999 0
0 0 0 718 729617 -114281 0
0 0 0 688 730305 -113593 0
0 0 0 694 730999 -112899 0
0 0 0 671 731670 -112228 0
0 0 0 658 732328 -111570 0
0 0 0 655 732983 -110915 0
0 0 0 638 733621 -110277 0
0 0 0 625 734246 -109652 1
0 0 0 635 734881 -109017 0
0 0 0 727 735608 -108290 0
0 0 0 792 736400 -107498 0
0 0 0 878 737278 -106620 0
0 0 0 863 738141 -105757 0
0 0 0 838 738979 -104919 0
0 0 0 777 739756 -104142 0
0 0 0 744 740500 -103398 0
0 0 0 733 741233 -102665 0
0 0 0 747 741980 -101918 0
0 0 0 747 742727 -101171 0
0 0 0 715 743442 -100456 0
0 0 0 735 744177 -99721 0
0 0 0 766 744943 -98955 0
0 0 0 829 745772 -98126 0
0 0 0 869 746641 -97257 0
0 0 0 860 747501 -96397 0
0 0 0 825 748326 -95572 0
0 0 0 800 749126 -94772 0
0 0 0 791 749917 -93981 0
0 0 0 775 750692 -93206 0
0 0 0 768 751460 -92438 0
0 0 0 758 752218 -91680 0
0 0 0 755 752973 -90925 0
0 0 0 783 753756 -90142 0
0 0 0 789 754545 -89353 0
0 0 0 813 755358 -88540 0
0 0 0 791 756149 -87749 0
0 0 0 778 756927 -86971 0
0 0 0 806 757733 -86165 0
0 0 0 796 758529 -85369 0
0 0 0 799 759328 -84570 0
0 0 0 768 760096 -83802 0
0 0 0 770 760866 -83032 0
0 0 0 783 761649 -82249 0
0 0 0 776 762425 -81473 0
0 0 0 758 763183 -80715 0
0 0 0 737 763920 -79978 0
0 0 0 739 764659 -79239 0
0 0 0 723 765382 -78516 0
0 0 0 697 766079 -77819 0
0 0 0 666 766745 -77153 0
0 0 0 666 767411 -76487 0
0 0 0 641 768052 -75846 0
0 0 0 639 768691 -75207 0
0 0 0 640 769331 -74567 0
0 0 0 626 769957 -73941 1
0 0 0 646 770603 -73295 0
0 0 0 724 771327 -72571 0
0 0 0 735 772062 -71836 0
0 0 0 777 772839 -71059 0
0 0 0 831 773670 -70228 0
0 0 0 838 774508 -69390 0
0 0 0 837 775345 -68553 0
0 0 0 808 776153 -67745 0
0 0 0 754 776907 -66991 0
0 0 0 716 777623 -66275 0
0 0 0 678 778301 -65597 0
0 0 0 659 778960 -64938 0
0 0 0 672 779632 -64266 0
0 0 0 692 780324 -63574 0
0 0 0 704 781028 -62870 0
0 0 0 705 781733 -62165 0
0 0 0 700 782433 -61465 0
0 0 0 707 783140 -60758 0
0 0 0 762 783902 -59996 0
0 0 0 791 784693 -59205 0
0 0 0 805 785498 -58400 0
0 0 0 831 786329 -57569 0
0 0 0 809 787138 -56760 0
0 0 0 780 787918 -55980 0
0 0 0 736 788654 -55244 0
0 0 0 718 789372 -54526 0
0 0 0 700 790072 -53826 0
0 0 0 679 790751 -53147 0
0 0 0 671 791422 -52476 0
0 0 0 658 792080 -51818 0
0 0 0 647 792727 -51171 0
0 0 0 650 793377 -50521 0
0 0 0 674 794051 -49847 0
0 0 0 682 794733 -49165 0
0 0 0 695 795428 -48470 0
0 0 0 706 796134 -47764 0
0 0 0 700 796834 -47064 0
0 0 0 725 797559 -46339 0
0 0 0 737 798296 -45602 0
0 0 0 787 799083 -44815 0
0 0 0 792 799875 -44023 0
0 0 0 781 800656 -43242 0
0 0 0 788 801444 -42454 0
0 0 0 764 802208 -41690 0
0 0 0 748 802956 -40942 0
0 0 0 731 803687 -40211 0
0 0 0 714 804401 -39497 0
0 0 0 721 805122 -38776 0
0 0 0 715 805837 -38061 0
0 0 0 711 806548 -37350 0
0 0 0 705 807253 -36645 0
0 0 0 693 807946 -35952 0
0 0 0 680 808626 -35272 0
0 0 0 672 809298 -34600 0
0 0 0 668 809966 -33932 0
0 0 0 662 810628 -33270 0
0 0 0 654 811282 -32616 0
0 0 0 660 811942 -31956 0
0 0 0 791 812733 -31165 0
0 0 0 816 813549 -30349 0
0 0 0 837 814386 -29512 0
0 0 0 838 815224 -28674 0
0 0 0 785 816009 -27889 0
0 0 0 757 816766 -27132 0
0 0 0 754 817520 -26378 0
0 0 0 737 818257 -25641 0
0 0 0 723 818980 -24918 0
0 0 0 710 819690 -24208 0
0 0 0 714 820404 -23494 0
0 0 0 717 821121 -22777 0
0 0 0 734 821855 -22043 0
0 0 0 725 822580 -21318 0
0 0 0 720 823300 -20598 0
0 0 0 752 824052 -19846 0
0 0 0 770 824822 -19076 0
0 0 0 784 825606 -18292 0
0 0 0 791 826397 -17501 0
0 0 0 784 827181 -16717 0
0 0 0 770 827951 -15947 0
0 0 0 786 828737 -15161 0
0 0 0 749 829486 -14412 0
0 0 0 718 830204 -13694 0
0 0 0 704 830908 -12990 0
0 0 0 675 831583 -12315 0
0 0 0 685 832268 -11630 0
0 0 0 715 832983 -10915 0
0 0 0 740 833723 -10175 0
0 0 0 796 834519 -9379 0
0 0 0 786 835305 -8593 0
0 0 0 802 836107 -7791 0
0 0 0 792 836899 -6999 0
0 0 0 789 837688 -6210 0
0 0 0 757 838445 -5453 0
0 0 0 786 839231 -4667 0
0 0 0 794 840025 -3873 0
0 0 0 763 840788 -3110 0
0 0 0 734 841522 -2376 0
41 1 S102 735 842257 -1641 0
41 1 S102 729 842986 -912 0
41 1 S102 739 843725 -173 0
41 2 S102 731 844456 558 0
41 2 S102 742 845198 1300 0
41 2 S102 777 845975 2077 0
41 2 S102 800 846775 2877 0
41 2 S102 798 847573 3675 0
41 2 S102 792 848365 4467 0
41 2 S102 790 849155 5257 0
41 2 S102 794 849949 6051 0
41 2 S102 781 850730 6832 0
0 0 0 738 851468 -6057 0
0 0 0 736 852204 -5321 0
0 0 0 721 852925 -4600 0
0 0 0 713 853638 -3887 0
0 0 0 699 854337 -3188 0
0 0 0 700 855037 -2488 0
42 1 S112 710 855747 -1778 0
42 1 S112 716 856463 -1062 0
42 1 S112 718 857181 -344 0
42 2 S112 721 857902 377 0
42 2 S112 740 858642 1117 0
42 2 S112 760 859402 1877 0
42 2 S112 782 860184 2659 0
42 2 S112 804 860988 3463 0
42 2 S112 772 861760 4235 0
42 2 S112 749 862509 4984 0
42 2 S112 745 863254 5729 0
42 2 S112 731 863985 6460 0
0 0 0 718 864703 -8887 0
0 0 0 697 865400 -8190 0
0 0 0 706 866106 -7484 0
0 0 0 704 866810 -6780 0
0 0 0 703 867513 -6077 0
0 0 0 697 868210 -5380 0
0 0 0 725 868935 -4655 0
0 0 0 734 869669 -3921 0
0 0 0 740 870409 -3181 0
0 0 0 715 871124 -2466 0
43 1 S116 728 871852 -1738 0
43 1 S116 722 872574 -1016 0
43 1 S116 713 873287 -303 0
43 2 S116 700 873987 397 0
43 2 S116 713 874700 1110 0
43 2 S116 708 875408 1818 0
43 2 S116 713 876121 2531 0
43 2 S116 713 876834 3244 0
43 2 S116 712 877546 3956 0
43 2 S116 725 878271 4681 0
43 2 S116 737 879008 5418 0
43 2 S116 741 879749 6159 0
43 2 S116 736 880485 6895 0
0 0 0 744 881229 -6254 0
0 0 0 760 881989 -5494 0
0 0 0 759 882748 -4735 0
0 0 0 731 883479 -4004 0
0 0 0 735 884214 -3269 0
0 0 0 744 884958 -2525 0
44 1 S102 739 885697 -1786 0
44 1 S102 731 886428 -1055 0
44 1 S102 723 887151 -332 0
44 2 S102 732 887883 400 0
44 2 S102 730 888613 1130 0
44 2 S102 732 889345 1862 0
44 2 S102 724 890069 2586 0
44 2 S102 737 890806 3323 0
44 2 S102 743 891549 4066 0
44 2 S102 746 892295 4812 0
44 2 S102 742 893037 5554 0
44 2 S102 741 893778 6295 0
0 0 0 767 894545 -8753 0
0 0 0 774 895319 -7979 0
0 0 0 767 896086 -7212 0
0 0 0 746 896832 -6466 0
0 0 0 742 897574 -5724 0
0 0 0 737 898311 -4987 0
0 0 0 730 899041 -4257 0
0 0 0 714 899755 -3543 0
0 0 0 722 900477 -2821 0
0 0 0 737 901214 -2084 0
45 1 S116 753 901967 -1331 0
45 1 S116 753 902720 -578 0
45 2 S116 744 903464 166 0
45 2 S116 769 904233 935 0
45 2 S116 779 905012 1714 0
45 2 S116 798 905810 2512 0
45 2 S116 792 906602 3304 0
45 2 S116 799 907401 4103 0
45 2 S116 786 908187 4889 0
45 2 S116 780 908967 5669 0
45 2 S116 750 909717 6419 0
0 0 0 741 910458 -10629 0
0 0 0 743 911201 -9886 0
0 0 0 730 911931 -9156 0
0 0 0 715 912646 -8441 0
0 0 0 710 913356 -7731 0
0 0 0 736 914092 -6995 0
0 0 0 745 914837 -6250 0
0 0 0 752 915589 -5498 0
0 0 0 749 916338 -4749 0
0 0 0 777 917115 -3972 0
0 0 0 782 917897 -3190 0
0 0 0 772 918669 -2418 0
46 1 S102 745 919414 -1673 0
46 1 S102 759 920173 -914 0
46 1 S102 764 920937 -150 0
46 2 S102 762 921699 612 0
46 2 S102 742 922441 1354 0
46 2 S102 739 923180 2093 0
46 2 S102 763 923943 2856 0
46 2 S102 759 924702 3615 0
46 2 S102 762 925464 4377 0
46 2 S102 759 926223 5136 0
46 2 S102 783 927006 5919 0
46 2 S102 781 927787 6700 0
0 0 0 793 928580 -8538 0
0 0 0 780 929360 -7758 0
0 0 0 756 930116 -7002 0
0 0 0 754 930870 -6248 0
0 0 0 740 931610 -5508 0
0 0 0 717 932327 -4791 0
0 0 0 707 933034 -4084 0
0 0 0 712 933746 -3372 0
0 0 0 711 934457 -2661 0
47 1 S112 706 935163 -1955 0
47 1 S112 711 935874 -1244 0
47 1 S112 755 936629 -489 0
47 2 S112 809 937438 320 0
47 2 S112 834 938272 1154 0
47 2 S112 827 939099 1981 0
47 2 S112 850 939949 2831 0
47 2 S112 865 940814 3696 0
47 2 S112 843 941657 4539 0
47 2 S112 811 942468 5350 0
47 2 S112 772 943240 6122 0
47 2 S112 783 944023 6905 0
0 0 0 786 944809 -10695 0
0 0 0 786 945595 -9909 0
0 0 0 760 946355 -9149 0
0 0 0 733 947088 -8416 0
0 0 0 746 947834 -7670 0
0 0 0 746 948580 -6924 0
0 0 0 758 949338 -6166 0
0 0 0 753 950091 -5413 0
0 0 0 779 950870 -4634 0
0 0 0 791 951661 -3843 0
0 0 0 799 952460 -3044 0
0 0 0 781 953241 -2263 0
48 1 S116 783 954024 -1480 0
48 1 S116 779 954803 -701 0
48 2 S116 761 955564 60 0
48 2 S116 745 956309 805 0
48 2 S116 775 957084 1580 0
48 2 S116 779 957863 2359 0
48 2 S116 780 958643 3139 0
48 2 S116 770 959413 3909 0
48 2 S116 794 960207 4703 0
48 2 S116 806 961013 5509 0
48 2 S116 821 961834 6330 0
0 0 0 802 962636 -6976 0
0 0 0 776 963412 -6200 0
0 0 0 786 964198 -5414 0
0 0 0 771 964969 -4643 0
0 0 0 759 965728 -3884 0
0 0 0 745 966473 -3139 0
0 0 0 763 967236 -2376 0
49 1 S112 767 968003 -1609 0
49 1 S112 759 968762 -850 0
49 1 S112 752 969514 -98 0
49 2 S112 762 970276 664 0
49 2 S112 771 971047 1435 0
49 2 S112 786 971833 2221 0
49 2 S112 780 972613 3001 0
49 2 S112 763 973376 3764 0
49 2 S112 778 974154 4542 0
49 2 S112 770 974924 5312 0
49 2 S112 765 975689 6077 0
49 2 S112 737 976426 6814 0
0 0 0 746 977172 -10975 0
0 0 0 742 977914 -10233 0
0 0 0 750 978664 -9483 0
0 0 0 729 979393 -8754 0
0 0 0 722 980115 -8032 0
0 0 0 746 980861 -7286 0
0 0 0 746 981607 -6540 0
0 0 0 709 982316 -5831 0
0 0 0 698 983014 -5133 0
0 0 0 687 983701 -4446 0
0 0 0 695 984396 -3751 0
0 0 0 696 985092 -3055 0
0 0 0 689 985781 -2366 0
50 1 S106 714 986495 -1652 0
50 1 S106 744 987239 -908 0
50 1 S106 774 988013 -134 0
50 2 S106 762 988775 628 0
50 2 S106 774 989549 1402 0
50 2 S106 777 990326 2179 0
50 2 S106 752 991078 2931 0
50 2 S106 719 991797 3650 0
50 2 S106 708 992505 4358 0
50 2 S106 704 993209 5062 0
50 2 S106 694 993903 5756 0
50 2 S106 684 994587 6440 0
0 0 0 671 995258 -6897 0
0 0 0 676 995934 -6221 0
0 0 0 701 996635 -5520 0
0 0 0 735 997370 -4785 0
0 0 0 779 998149 -4006 0
0 0 0 782 998931 -3224 0
0 0 0 829 999760 -2395 0
51 1 S112 850 1000610 -1545 0
51 1 S112 817 1001427 -728 0
51 2 S112 782 1002209 54 0
51 2 S112 752 1002961 806 0
51 2 S112 734 1003695 1540 0
51 2 S112 714 1004409 2254 0
51 2 S112 695 1005104 2949 0
51 2 S112 687 1005791 3636 0
51 2 S112 692 1006483 4328 0
51 2 S112 691 1007174 5019 0
51 2 S112 684 1007858 5703 0
51 2 S112 695 1008553 6398 0
0 0 0 731 1009284 -6897 0
0 0 0 755 1010039 -6142 0
0 0 0 745 1010784 -5397 0
0 0 0 717 1011501 -4680 0
0 0 0 728 1012229 -3952 0
0 0 0 720 1012949 -3232 0
0 0 0 702 1013651 -2530 0
52 1 S116 719 1014370 -1811 0
52 1 S116 737 1015107 -1074 0
52 1 S116 770 1015877 -304 0
52 2 S116 820 1016697 516 0
52 2 S116 816 1017513 1332 0
52 2 S116 811 1018324 2143 0
52 2 S116 823 1019147 2966 0
52 2 S116 835 1019982 3801 0
52 2 S116 843 1020825 4644 0
52 2 S116 829 1021654 5473 0
52 2 S116 804 1022458 6277 0
0 0 0 812 1023270 -8876 0
0 0 0 821 1024091 -8055 0
0 0 0 781 1024872 -7274 0
0 0 0 774 1025646 -6500 0
0 0 0 753 1026399 -5747 0
0 0 0 729 1027128 -5018 0
0 0 0 708 1027836 -4310 0
0 0 0 701 1028537 -3609 0
0 0 0 696 1029233 -2913 0
0 0 0 717 1029950 -2196 0
53 1 S106 725 1030675 -1471 0
53 1 S106 735 1031410 -736 0
53 1 S106 724 1032134 -12 0
53 2 S106 736 1032870 724 0
53 2 S106 758 1033628 1482 0
53 2 S106 786 1034414 2268 0
53 2 S106 816 1035230 3084 0
53 2 S106 780 1036010 3864 0
53 2 S106 788 1036798 4652 0
53 2 S106 797 1037595 5449 0
53 2 S106 790 1038385 6239 0
53 2 S106 768 1039153 7007 0
0 0 0 777 1039930 -6357 0
0 0 0 782 1040712 -5575 0
0 0 0 782 1041494 -4793 0
0 0 0 757 1042251 -4036 0
0 0 0 751 1043002 -3285 0
0 0 0 759 1043761 -2526 0
54 1 S102 761 1044522 -1765 0
54 1 S102 755 1045277 -1010 0
54 1 S102 760 1046037 -250 0
54 2 S102 761 1046798 511 0
54 2 S102 781 1047579 1292 0
54 2 S102 793 1048372 2085 0
54 2 S102 774 1049146 2859 0
54 2 S102 800 1049946 3659 0
54 2 S102 809 1050755 4468 0
54 2 S102 816 1051571 5284 0
54 2 S102 800 1052371 6084 0
54 2 S102 787 1053158 6871 0
0 0 0 799 1053957 -10732 0
0 0 0 803 1054760 -9929 0
0 0 0 772 1055532 -9157 0
0 0 0 746 1056278 -8411 0
0 0 0 758 1057036 -7653 0
0 0 0 751 1057787 -6902 0
0 0 0 745 1058532 -6157 0
0 0 0 738 1059270 -5419 0
0 0 0 763 1060033 -4656 0
0 0 0 775 1060808 -3881 0
0 0 0 784 1061592 -3097 0
0 0 0 783 1062375 -2314 0
55 1 S106 803 1063178 -1511 0
55 1 S106 801 1063979 -710 0
55 2 S106 786 1064765 76 0
55 2 S106 764 1065529 840 0
55 2 S106 779 1066308 1619 0
55 2 S106 789 1067097 2408 0
55 2 S106 769 1067866 3177 0
55 2 S106 754 1068620 3931 0
55 2 S106 751 1069371 4682 0
55 2 S106 750 1070121 5432 0
55 2 S106 743 1070864 6175 0
55 2 S106 728 1071592 6903 0
0 0 0 744 1072336 -6312 0
0 0 0 759 1073095 -5553 0
0 0 0 768 1073863 -4785 0
0 0 0 745 1074608 -4040 0
0 0 0 745 1075353 -3295 0
0 0 0 756 1076109 -2539 0
56 1 S116 740 1076849 -1799 0
56 1 S116 719 1077568 -1080 0
56 1 S116 706 1078274 -374 0
56 2 S116 707 1078981 333 0
56 2 S116 708 1079689 1041 0
56 2 S116 704 1080393 1745 0
56 2 S116 742 1081135 2487 0
56 2 S116 773 1081908 3260 0
56 2 S116 797 1082705 4057 0
56 2 S116 804 1083509 4861 0
56 2 S116 828 1084337 5689 0
56 2 S116 859 1085196 6548 0
0 0 0 858 1086054 -6719 0
0 0 0 812 1086866 -5907 0
0 0 0 770 1087636 -5137 0
0 0 0 769 1088405 -4368 0
0 0 0 743 1089148 -3625 0
0 0 0 702 1089850 -2923 0
0 0 0 691 1090541 -2232 0
57 1 S106 685 1091226 -1547 0
57 1 S106 684 1091910 -863 0
57 1 S106 672 1092582 -191 0
57 2 S106 692 1093274 501 0
57 2 S106 741 1094015 1242 0
57 2 S106 772 1094787 2014 0
57 2 S106 765 1095552 2779 0
57 2 S106 791 1096343 3570 0
57 2 S106 826 1097169 4396 0
57 2 S106 845 1098014 5241 0
57 2 S106 796 1098810 6037 0
57 2 S106 776 1099586 6813 0
0 0 0 780 1100366 -8206 0
0 0 0 767 1101133 -7439 0
0 0 0 754 1101887 -6685 0
0 0 0 738 1102625 -5947 0
0 0 0 747 1103372 -5200 0
0 0 0 755 1104127 -4445 0
0 0 0 765 1104892 -3680 0
0 0 0 758 1105650 -2922 0
0 0 0 765 1106415 -2157 0
58 1 S102 812 1107227 -1345 0
58 1 S102 799 1108026 -546 0
58 2 S102 783 1108809 237 0
58 2 S102 806 1109615 1043 0
58 2 S102 833 1110448 1876 0
58 2 S102 818 1111266 2694 0
58 2 S102 819 1112085 3513 0
58 2 S102 830 1112915 4343 0
58 2 S102 821 1113736 5164 0
58 2 S102 784 1114520 5948 0
58 2 S102 791 1115311 6739 0
0 0 0 831 1116142 -6389 0
0 0 0 848 1116990 -5541 0
0 0 0 783 1117773 -4758 0
0 0 0 772 1118545 -3986 0
0 0 0 790 1119335 -3196 0
0 0 0 815 1120150 -2381 0
59 1 S112 802 1120952 -1579 0
59 1 S112 770 1121722 -809 0
59 1 S112 777 1122499 -32 0
59 2 S112 783 1123282 751 0
59 2 S112 795 1124077 1546 0
59 2 S112 772 1124849 2318 0
59 2 S112 787 1125636 3105 0
59 2 S112 817 1126453 3922 0
59 2 S112 816 1127269 4738 0
59 2 S112 786 1128055 5524 0
59 2 S112 767 1128822 6291 0
0 0 0 775 1129597 -9264 0
0 0 0 765 1130362 -8499 0
0 0 0 740 1131102 -7759 0
0 0 0 763 1131865 -6996 0
0 0 0 827 1132692 -6169 0
0 0 0 843 1133535 -5326 0
0 0 0 824 1134359 -4502 0
0 0 0 851 1135210 -3651 0
0 0 0 865 1136075 -2786 0
60 1 S102 815 1136890 -1971 0
60 1 S102 786 1137676 -1185 0
60 1 S102 786 1138462 -399 0
60 2 S102 775 1139237 376 0
60 2 S102 748 1139985 1124 0
60 2 S102 740 1140725 1864 0
60 2 S102 756 1141481 2620 0
60 2 S102 753 1142234 3373 0
60 2 S102 765 1142999 4138 0
60 2 S102 755 1143754 4893 0
60 2 S102 768 1144522 5661 0
60 2 S102 807 1145329 6468 0
0 0 0 829 1146158 -10508 0
0 0 0 816 1146974 -9692 0
0 0 0 788 1147762 -8904 0
0 0 0 793 1148555 -8111 0
0 0 0 810 1149365 -7301 0
0 0 0 788 1150153 -6513 0
0 0 0 783 1150936 -5730 0
0 0 0 803 1151739 -4927 0
0 0 0 807 1152546 -4120 0
0 0 0 782 1153328 -3338 0
0 0 0 753 1154081 -2585 0
61 1 S106 771 1154852 -1814 0
61 1 S106 764 1155616 -1050 0
61 1 S106 745 1156361 -305 0
61 2 S106 764 1157125 459 0
61 2 S106 786 1157911 1245 0
61 2 S106 832 1158743 2077 0
61 2 S106 856 1159599 2933 0
61 2 S106 836 1160435 3769 0
61 2 S106 835 1161270 4604 0
61 2 S106 841 1162111 5445 0
61 2 S106 788 1162899 6233 0
61 2 S106 769 1163668 7002 0
0 0 0 773 1164441 -6002 0
0 0 0 780 1165221 -5222 0
0 0 0 749 1165970 -4473 0
0 0 0 752 1166722 -3721 0
0 0 0 766 1167488 -2955 0
0 0 0 782 1168270 -2173 0
62 1 S112 774 1169044 -1399 0
62 1 S112 781 1169825 -618 0
62 2 S112 803 1170628 185 0
62 2 S112 822 1171450 1007 0
62 2 S112 825 1172275 1832 0
62 2 S112 813 1173088 2645 0
62 2 S112 840 1173928 3485 0
62 2 S112 867 1174795 4352 0
62 2 S112 851 1175646 5203 0
62 2 S112 792 1176438 5995 0
62 2 S112 803 1177241 6798 0
0 0 0 795 1178036 -10825 0
0 0 0 783 1178819 -10042 0
0 0 0 744 1179563 -9298 0
0 0 0 747 1180310 -8551 0
0 0 0 756 1181066 -7795 0
0 0 0 735 1181801 -7060 0
0 0 0 727 1182528 -6333 0
0 0 0 722 1183250 -5611 0
0 0 0 753 1184003 -4858 0
0 0 0 749 1184752 -4109 0
0 0 0 744 1185496 -3365 0
0 0 0 736 1186232 -2629 0
63 1 S102 745 1186977 -1884 0
63 1 S102 747 1187724 -1137 0
63 1 S102 760 1188484 -377 0
63 2 S102 740 1189224 363 0
63 2 S102 732 1189956 1095 0
63 2 S102 742 1190698 1837 0
63 2 S102 732 1191430 2569 0
63 2 S102 721 1192151 3290 0
63 2 S102 711 1192862 4001 0
63 2 S102 714 1193576 4715 0
63 2 S102 737 1194313 5452 0
63 2 S102 750 1195063 6202 0
63 2 S102 734 1195797 6936 0
0 0 0 765 1196562 -7783 0
0 0 0 756 1197318 -7027 0
0 0 0 723 1198041 -6304 0
0 0 0 702 1198743 -5602 0
0 0 0 689 1199432 -4913 0
0 0 0 672 1200104 -4241 0
0 0 0 673 1200777 -3568 0
0 0 0 674 1201451 -2894 0
0 0 0 666 1202117 -2228 0
64 1 S112 687 1202804 -1541 0
64 1 S112 709 1203513 -832 0
64 1 S112 719 1204232 -113 0
64 2 S112 763 1204995 650 0
64 2 S112 794 1205789 1444 0
64 2 S112 808 1206597 2252 0
64 2 S112 829 1207426 3081 0
64 2 S112 831 1208257 3912 0
64 2 S112 836 1209093 4748 0
64 2 S112 809 1209902 5557 0
64 2 S112 802 1210704 6359 0
0 0 0 788 1211492 -7078 0
0 0 0 761 1212253 -6317 0
0 0 0 740 1212993 -5577 0
0 0 0 751 1213744 -4826 0
0 0 0 748 1214492 -4078 0
0 0 0 763 1215255 -3315 0
0 0 0 746 1216001 -2569 0
65 1 S106 766 1216767 -1803 0
65 1 S106 788 1217555 -1015 0
65 1 S106 758 1218313 -257 0
65 2 S106 739 1219052 482 0
65 2 S106 717 1219769 1199 0
65 2 S106 718 1220487 1917 0
65 2 S106 705 1221192 2622 0
65 2 S106 696 1221888 3318 0
65 2 S106 684 1222572 4002 0
65 2 S106 678 1223250 4680 0
65 2 S106 688 1223938 5368 0
65 2 S106 695 1224633 6063 0
65 2 S106 705 1225338 6768 0
0 0 0 703 1226041 -6090 0
0 0 0 699 1226740 -5391 0
0 0 0 712 1227452 -4679 0
0 0 0 707 1228159 -3972 0
0 0 0 713 1228872 -3259 0
0 0 0 704 1229576 -2555 0
66 1 S116 699 1230275 -1856 0
66 1 S116 707 1230982 -1149 0
66 1 S116 712 1231694 -437 0
66 2 S116 709 1232403 272 0
66 2 S116 699 1233102 971 0
66 2 S116 701 1233803 1672 0
66 2 S116 698 1234501 2370 0
66 2 S116 689 1235190 3059 0
66 2 S116 687 1235877 3746 0
66 2 S116 725 1236602 4471 0
66 2 S116 764 1237366 5235 0
66 2 S116 785 1238151 6020 0
66 2 S116 793 1238944 6813 0
0 0 0 764 1239708 -10526 0
0 0 0 732 1240440 -9794 0
0 0 0 697 1241137 -9097 0
0 0 0 692 1241829 -8405 0
0 0 0 673 1242502 -7732 0
0 0 0 656 1243158 -7076 0
0 0 0 658 1243816 -6418 0
0 0 0 688 1244504 -5730 0
0 0 0 749 1245253 -4981 0
0 0 0 904 1246157 -4077 1
0 0 0 866 1247023 -3211 0
0 0 0 884 1247907 -2327 0
67 1 S102 912 1248819 -1415 1
67 1 S102 867 1249686 -548 0
67 2 S102 812 1250498 264 0
67 2 S102 824 1251322 1088 0
67 2 S102 797 1252119 1885 0
67 2 S102 775 1252894 2660 0
67 2 S102 752 1253646 3412 0
67 2 S102 755 1254401 4167 0
67 2 S102 734 1255135 4901 0
67 2 S102 724 1255859 5625 0
67 2 S102 712 1256571 6337 0
0 0 0 724 1257295 -6650 0
0 0 0 735 1258030 -5915 0
0 0 0 732 1258762 -5183 0
0 0 0 716 1259478 -4467 0
0 0 0 710 1260188 -3757 0
0 0 0 710 1260898 -3047 0
0 0 0 708 1261606 -2339 0
68 1 S106 706 1262312 -1633 0
68 1 S106 714 1263026 -919 0
68 1 S106 756 1263782 -163 0
68 2 S106 774 1264556 611 0
68 2 S106 810 1265366 1421 0
68 2 S106 818 1266184 2239 0
68 2 S106 772 1266956 3011 0
68 2 S106 768 1267724 3779 0
68 2 S106 770 1268494 4549 0
68 2 S106 764 1269258 5313 0
68 2 S106 767 1270025 6080 0
68 2 S106 743 1270768 6823 0
0 0 0 749 1271517 -10515 0
0 0 0 745 1272262 -9770 0
0 0 0 738 1273000 -9032 0
0 0 0 717 1273717 -8315 0
0 0 0 733 1274450 -7582 0
0 0 0 737 1275187 -6845 0
0 0 0 734 1275921 -6111 0
0 0 0 738 1276659 -5373 0
0 0 0 748 1277407 -4625 0
0 0 0 754 1278161 -3871 0
0 0 0 735 1278896 -3136 0
0 0 0 724 1279620 -2412 0
69 1 S102 728 1280348 -1684 0
69 1 S102 725 1281073 -959 0
69 1 S102 735 1281808 -224 0
69 2 S102 729 1282537 505 0
69 2 S102 719 1283256 1224 0
69 2 S102 728 1283984 1952 0
69 2 S102 733 1284717 2685 0
69 2 S102 734 1285451 3419 0
69 2 S102 713 1286164 4132 0
69 2 S102 704 1286868 4836 0
69 2 S102 712 1287580 5548 0
69 2 S102 717 1288297 6265 0
69 2 S102 735 1289032 7000 0
0 0 0 734 1289766 -8081 0
0 0 0 744 1290510 -7337 0
0 0 0 754 1291264 -6583 0
0 0 0 735 1291999 -5848 0
0 0 0 724 1292723 -5124 0
0 0 0 738 1293461 -4386 0
0 0 0 736 1294197 -3650 0
0 0 0 736 1294933 -2914 0
0 0 0 721 1295654 -2193 0
70 1 S112 742 1296396 -1451 0
70 1 S112 746 1297142 -705 0
70 2 S112 740 1297882 35 0
70 2 S112 727 1298609 762 0
70 2 S112 736 1299345 1498 0
70 2 S112 736 1300081 2234 0
70 2 S112 740 1300821 2974 0
70 2 S112 730 1301551 3704 0
70 2 S112 728 1302279 4432 0
70 2 S112 743 1303022 5175 0
70 2 S112 757 1303779 5932 0
70 2 S112 744 1304523 6676 0
0 0 0 732 1305255 -10862 0
0 0 0 735 1305990 -10127 0
0 0 0 736 1306726 -9391 0
0 0 0 738 1307464 -8653 0
0 0 0 713 1308177 -7940 0
0 0 0 717 1308894 -7223 0
0 0 0 725 1309619 -6498 0
0 0 0 721 1310340 -5777 0
0 0 0 707 1311047 -5070 0
0 0 0 703 1311750 -4367 0
0 0 0 695 1312445 -3672 0
0 0 0 692 1313137 -2980 0
0 0 0 675 1313812 -2305 0
71 1 S116 657 1314469 -1648 0
71 1 S116 646 1315115 -1002 0
71 1 S116 657 1315772 -345 0
71 2 S116 670 1316442 325 0
71 2 S116 773 1317215 1098 0
71 2 S116 725 1317940 1823 0
71 2 S116 700 1318640 2523 0
71 2 S116 703 1319343 3226 0
71 2 S116 702 1320045 3928 0
71 2 S116 695 1320740 4623 0
71 2 S116 696 1321436 5319 0
71 2 S116 705 1322141 6024 0
71 2 S116 703 1322844 6727 0
0 0 0 694 1323538 -8362 0
0 0 0 690 1324228 -7672 0
0 0 0 675 1324903 -6997 0
0 0 0 657 1325560 -6340 0
0 0 0 638 1326198 -5702 0
0 0 0 648 1326846 -5054 0
0 0 0 691 1327537 -4363 0
0 0 0 812 1328349 -3551 0
0 0 0 846 1329195 -2705 0
72 1 S102 861 1330056 -1844 0
72 1 S102 881 1330937 -963 0
72 1 S102 789 1331726 -174 0
72 2 S102 770 1332496 596 0
72 2 S102 754 1333250 1350 0
72 2 S102 729 1333979 2079 0
72 2 S102 758 1334737 2837 0
72 2 S102 799 1335536 3636 0
72 2 S102 893 1336429 4529 1
72 2 S102 851 1337280 5380 0
72 2 S102 837 1338117 6217 0
0 0 0 842 1338959 -6667 0
0 0 0 834 1339793 -5833 0
0 0 0 771 1340564 -5062 0
0 0 0 766 1341330 -4296 0
0 0 0 771 1342101 -3525 0
0 0 0 787 1342888 -2738 0
73 1 S116 780 1343668 -1958 0
73 1 S116 805 1344473 -1153 0
73 1 S116 839 1345312 -314 0
73 2 S116 840 1346152 526 0
73 2 S116 858 1347010 1384 0
73 2 S116 796 1347806 2180 0
73 2 S116 802 1348608 2982 0
73 2 S116 804 1349412 3786 0
73 2 S116 841 1350253 4627 0
73 2 S116 857 1351110 5484 0
73 2 S116 837 1351947 6321 0
0 0 0 789 1352736 -8789 0
0 0 0 776 1353512 -8013 0
0 0 0 784 1354296 -7229 0
0 0 0 774 1355070 -6455 0
0 0 0 758 1355828 -5697 0
0 0 0 781 1356609 -4916 0
0 0 0 808 1357417 -4108 0
0 0 0 825 1358242 -3283 0
0 0 0 805 1359047 -2478 0
74 1 S106 783 1359830 -1695 0
74 1 S106 807 1360637 -888 0
74 1 S106 800 1361437 -88 0
74 2 S106 777 1362214 689 0
74 2 S106 761 1362975 1450 0
74 2 S106 788 1363763 2238 0
74 2 S106 801 1364564 3039 0
74 2 S106 806 1365370 3845 0
74 2 S106 787 1366157 4632 0
74 2 S106 816 1366973 5448 0
74 2 S106 824 1367797 6272 0
0 0 0 819 1368616 -6835 0
0 0 0 783 1369399 -6052 0
0 0 0 798 1370197 -5254 0
0 0 0 793 1370990 -4461 0
0 0 0 761 1371751 -3700 0
0 0 0 752 1372503 -2948 0
0 0 0 771 1373274 -2177 0
75 1 S112 768 1374042 -1409 0
75 1 S112 746 1374788 -663 0
75 2 S112 749 1375537 86 0
75 2 S112 769 1376306 855 0
75 2 S112 801 1377107 1656 0
75 2 S112 810 1377917 2466 0
75 2 S112 810 1378727 3276 0
75 2 S112 854 1379581 4130 0
75 2 S112 859 1380440 4989 0
75 2 S112 829 1381269 5818 0
75 2 S112 798 1382067 6616 0
0 0 0 831 1382898 -6810 0
0 0 0 831 1383729 -5979 0
0 0 0 789 1384518 -5190 0
0 0 0 751 1385269 -4439 0
0 0 0 777 1386046 -3662 0
0 0 0 772 1386818 -2890 0
0 0 0 755 1387573 -2135 0
76 1 S116 770 1388343 -1365 0
76 1 S116 837 1389180 -528 0
76 2 S116 837 1390017 309 0
76 2 S116 816 1390833 1125 0
76 2 S116 824 1391657 1949 0
76 2 S116 849 1392506 2798 0
76 2 S116 853 1393359 3651 0
76 2 S116 822 1394181 4473 0
76 2 S116 813 1394994 5286 0
76 2 S116 837 1395831 6123 0
76 2 S116 825 1396656 6948 0
0 0 0 807 1397463 -6105 0
0 0 0 769 1398232 -5336 0
0 0 0 800 1399032 -4536 0
0 0 0 798 1399830 -3738 0
0 0 0 779 1400609 -2959 0
0 0 0 774 1401383 -2185 0
77 1 S106 797 1402180 -1388 0
77 1 S106 798 1402978 -590 0
77 2 S106 769 1403747 179 0
77 2 S106 765 1404512 944 0
77 2 S106 797 1405309 1741 0
77 2 S106 805 1406114 2546 0
77 2 S106 818 1406932 3364 0
77 2 S106 801 1407733 4165 0
77 2 S106 804 1408537 4969 0
77 2 S106 811 1409348 5780 0
77 2 S106 794 1410142 6574 0
0 0 0 762 1410904 -8297 0
0 0 0 768 1411672 -7529 0
0 0 0 777 1412449 -6752 0
0 0 0 790 1413239 -5962 0
0 0 0 773 1414012 -5189 0
0 0 0 775 1414787 -4414 0
0 0 0 807 1415594 -3607 0
0 0 0 791 1416385 -2816 0
0 0 0 778 1417163 -2038 0
78 1 S112 774 1417937 -1264 0
78 1 S112 792 1418729 -472 0
78 2 S112 776 1419505 304 0
78 2 S112 780 1420285 1084 0
78 2 S112 783 1421068 1867 0
78 2 S112 826 1421894 2693 0
78 2 S112 859 1422753 3552 0
78 2 S112 874 1423627 4426 0
78 2 S112 840 1424467 5266 0
78 2 S112 836 1425303 6102 0
78 2 S112 828 1426131 6930 0
0 0 0 824 1426955 -10549 0
0 0 0 789 1427744 -9760 0
0 0 0 766 1428510 -8994 0
0 0 0 792 1429302 -8202 0
0 0 0 827 1430129 -7375 0
0 0 0 866 1430995 -6509 0
0 0 0 825 1431820 -5684 0
0 0 0 821 1432641 -4863 0
0 0 0 829 1433470 -4034 0
0 0 0 830 1434300 -3204 0
0 0 0 787 1435087 -2417 0
79 1 S102 806 1435893 -1611 0
79 1 S102 790 1436683 -821 0
79 1 S102 732 1437415 -89 0
79 2 S102 737 1438152 648 0
79 2 S102 725 1438877 1373 0
79 2 S102 706 1439583 2079 0
79 2 S102 676 1440259 2755 0
79 2 S102 699 1440958 3454 0
79 2 S102 732 1441690 4186 0
79 2 S102 741 1442431 4927 0
79 2 S102 724 1443155 5651 0
79 2 S102 745 1443900 6396 0
0 0 0 772 1444672 -8863 0
0 0 0 771 1445443 -8092 0
0 0 0 743 1446186 -7349 0
0 0 0 724 1446910 -6625 0
0 0 0 733 1447643 -5892 0
0 0 0 724 1448367 -5168 0
0 0 0 715 1449082 -4453 0
0 0 0 712 1449794 -3741 0
0 0 0 750 1450544 -2991 0
0 0 0 776 1451320 -2215 0
80 1 S116 802 1452122 -1413 0
80 1 S116 784 1452906 -629 0
80 2 S116 814 1453720 185 0
80 2 S116 814 1454534 999 0
80 2 S116 831 1455365 1830 0
80 2 S116 794 1456159 2624 0
80 2 S116 804 1456963 3428 0
80 2 S116 812 1457775 4240 0
80 2 S116 793 1458568 5033 0
80 2 S116 768 1459336 5801 0
80 2 S116 746 1460082 6547 0
