T_0117
BeatCount Mean SD BeatCountNoOutliers MeanNoOutliers SDNoOutliers
1593 935,757689893283 84,9757668245711 1568 936,785714285714 80,068091299742

Trial TrialStatus Trialtype IBI AbsPosition RelPosition Outlier
0 0 0 921 1518 -14917 0
0 0 0 873 2391 -14044 0
0 0 0 901 3292 -13143 0
0 0 0 941 4233 -12202 0
0 0 0 913 5146 -11289 0
0 0 0 918 6064 -10371 0
0 0 0 963 7027 -9408 0
0 0 0 937 7964 -8471 0
0 0 0 864 8828 -7607 0
0 0 0 924 9752 -6683 0
0 0 0 961 10713 -5722 0
0 0 0 911 11624 -4811 0
0 0 0 845 12469 -3966 0
0 0 0 897 13366 -3069 0
0 0 0 958 14324 -2111 0
1 1 S112 950 15274 -1161 0
1 1 S112 922 16196 -239 0
1 2 S112 965 17161 726 0
1 2 S112 983 18144 1709 0
1 2 S112 895 19039 2604 0
1 2 S112 939 19978 3543 0
1 2 S112 958 20936 4501 0
1 2 S112 904 21840 5405 0
1 2 S112 904 22744 6309 0
0 0 0 958 23702 -11599 0
0 0 0 949 24651 -10650 0
0 0 0 911 25562 -9739 0
0 0 0 968 26530 -8771 0
0 0 0 940 27470 -7831 0
0 0 0 915 28385 -6916 0
0 0 0 990 29375 -5926 0
0 0 0 946 30321 -4980 0
0 0 0 949 31270 -4031 0
0 0 0 988 32258 -3043 0
0 0 0 953 33211 -2090 0
2 1 S102 950 34161 -1140 0
2 1 S102 986 35147 -154 0
2 2 S102 941 36088 787 0
2 2 S102 1000 37088 1787 0
2 2 S102 1091 38179 2878 0
2 2 S102 969 39148 3847 0
2 2 S102 1076 40224 4923 0
2 2 S102 1053 41277 5976 0
2 2 S102 983 42260 6959 0
0 0 0 1054 43314 -7803 0
0 0 0 1014 44328 -6789 0
0 0 0 931 45259 -5858 0
0 0 0 1007 46266 -4851 0
0 0 0 998 47264 -3853 0
0 0 0 933 48197 -2920 0
3 1 S116 1025 49222 -1895 0
3 1 S116 1001 50223 -894 0
3 2 S116 1006 51229 112 0
3 2 S116 1073 52302 1185 0
3 2 S116 1053 53355 2238 0
3 2 S116 970 54325 3208 0
3 2 S116 990 55315 4198 0
3 2 S116 958 56273 5156 0
3 2 S116 913 57186 6069 0
0 0 0 996 58182 -12332 0
0 0 0 1027 59209 -11305 0
0 0 0 939 60148 -10366 0
0 0 0 1015 61163 -9351 0
0 0 0 955 62118 -8396 0
0 0 0 918 63036 -7478 0
0 0 0 968 64004 -6510 0
0 0 0 901 64905 -5609 0
0 0 0 910 65815 -4699 0
0 0 0 951 66766 -3748 0
0 0 0 984 67750 -2764 0
4 1 S106 900 68650 -1864 0
4 1 S106 993 69643 -871 0
4 2 S106 1079 70722 208 0
4 2 S106 998 71720 1206 0
4 2 S106 974 72694 2180 0
4 2 S106 1042 73736 3222 0
4 2 S106 1046 74782 4268 0
4 2 S106 942 75724 5210 0
4 2 S106 1019 76743 6229 0
0 0 0 1023 77766 -8348 0
0 0 0 955 78721 -7393 0
0 0 0 1028 79749 -6365 0
0 0 0 979 80728 -5386 0
0 0 0 976 81704 -4410 0
0 0 0 1013 82717 -3397 0
0 0 0 915 83632 -2482 0
5 1 S116 956 84588 -1526 0
5 1 S116 1009 85597 -517 0
5 2 S116 914 86511 397 0
5 2 S116 983 87494 1380 0
5 2 S116 1025 88519 2405 0
5 2 S116 926 89445 3331 0
5 2 S116 1006 90451 4337 0
5 2 S116 1027 91478 5364 0
5 2 S116 956 92434 6320 0
0 0 0 1025 93459 -8670 0
0 0 0 999 94458 -7671 0
0 0 0 989 95447 -6682 0
0 0 0 1018 96465 -5664 0
0 0 0 907 97372 -4757 0
0 0 0 970 98342 -3787 0
0 0 0 995 99337 -2792 0
6 1 S106 888 100225 -1904 0
6 1 S106 988 101213 -916 0
6 2 S106 1039 102252 123 0
6 2 S106 977 103229 1100 0
6 2 S106 1098 104327 2198 0
6 2 S106 1080 105407 3278 0
6 2 S106 968 106375 4246 0
6 2 S106 1029 107404 5275 0
6 2 S106 1042 108446 6317 0
0 0 0 937 109383 -10004 0
0 0 0 1034 110417 -8970 0
0 0 0 1070 111487 -7900 0
0 0 0 838 112325 -7062 0
0 0 0 914 113239 -6148 0
0 0 0 975 114214 -5173 0
0 0 0 982 115196 -4191 0
0 0 0 1096 116292 -3095 0
7 1 S102 1179 117471 -1916 1
7 1 S102 1076 118547 -840 0
7 2 S102 949 119496 109 0
7 2 S102 1035 120531 1144 0
7 2 S102 1031 121562 2175 0
7 2 S102 950 122512 3125 0
7 2 S102 1044 123556 4169 0
7 2 S102 1073 124629 5242 0
7 2 S102 963 125592 6205 0
0 0 0 1013 126605 -8084 0
0 0 0 1050 127655 -7034 0
0 0 0 922 128577 -6112 0
0 0 0 852 129429 -5260 0
0 0 0 900 130329 -4360 0
0 0 0 833 131162 -3527 0
0 0 0 831 131993 -2696 0
8 1 S112 986 132979 -1710 0
8 1 S112 999 133978 -711 0
8 2 S112 951 134929 240 0
8 2 S112 995 135924 1235 0
8 2 S112 977 136901 2212 0
8 2 S112 873 137774 3085 0
8 2 S112 893 138667 3978 0
8 2 S112 910 139577 4888 0
8 2 S112 870 140447 5758 0
8 2 S112 888 141335 6646 0
0 0 0 943 142278 -6452 0
0 0 0 964 143242 -5488 0
0 0 0 865 144107 -4623 0
0 0 0 921 145028 -3702 0
0 0 0 921 145949 -2781 0
9 1 S116 938 146887 -1843 0
9 1 S116 990 147877 -853 0
9 2 S116 953 148830 100 0
9 2 S116 945 149775 1045 0
9 2 S116 977 150752 2022 0
9 2 S116 969 151721 2991 0
9 2 S116 908 152629 3899 0
9 2 S116 953 153582 4852 0
9 2 S116 950 154532 5802 0
9 2 S116 906 155438 6708 0
0 0 0 976 156414 -10321 0
0 0 0 981 157395 -9340 0
0 0 0 901 158296 -8439 0
0 0 0 956 159252 -7483 0
0 0 0 945 160197 -6538 0
0 0 0 868 161065 -5670 0
0 0 0 935 162000 -4735 0
0 0 0 1006 163006 -3729 0
0 0 0 948 163954 -2781 0
10 1 S102 1015 164969 -1766 0
10 1 S102 1109 166078 -657 0
10 2 S102 977 167055 320 0
10 2 S102 1004 168059 1324 0
10 2 S102 1034 169093 2358 0
10 2 S102 986 170079 3344 0
10 2 S102 965 171044 4309 0
10 2 S102 1088 172132 5397 0
10 2 S102 1104 173236 6501 0
0 0 0 1039 174275 -9602 0
0 0 0 1089 175364 -8513 0
0 0 0 1066 176430 -7447 0
0 0 0 934 177364 -6513 0
0 0 0 1059 178423 -5454 0
0 0 0 1066 179489 -4388 0
0 0 0 961 180450 -3427 0
0 0 0 1029 181479 -2398 0
11 1 S112 988 182467 -1410 0
11 1 S112 964 183431 -446 0
11 2 S112 1120 184551 674 0
11 2 S112 1103 185654 1777 0
11 2 S112 1041 186695 2818 0
11 2 S112 1084 187779 3902 0
11 2 S112 989 188768 4891 0
11 2 S112 986 189754 5877 0
11 2 S112 1041 190795 6918 0
0 0 0 938 191733 -5357 0
0 0 0 947 192680 -4410 0
0 0 0 992 193672 -3418 0
0 0 0 823 194495 -2595 0
12 1 S116 739 195234 -1856 0
12 1 S116 695 195929 -1161 1
12 1 S116 720 196649 -441 0
12 2 S116 914 197563 473 0
12 2 S116 1152 198715 1625 0
12 2 S116 1115 199830 2740 0
12 2 S116 1114 200944 3854 0
12 2 S116 1027 201971 4881 0
12 2 S116 1057 203028 5938 0
12 2 S116 1052 204080 6990 0
0 0 0 999 205079 -11142 0
0 0 0 938 206017 -10204 0
0 0 0 938 206955 -9266 0
0 0 0 919 207874 -8347 0
0 0 0 816 208690 -7531 0
0 0 0 876 209566 -6655 0
0 0 0 941 210507 -5714 0
0 0 0 893 211400 -4821 0
0 0 0 858 212258 -3963 0
0 0 0 908 213166 -3055 0
0 0 0 944 214110 -2111 0
13 1 S112 923 215033 -1188 0
13 1 S112 997 216030 -191 0
13 2 S112 1054 217084 863 0
13 2 S112 1023 218107 1886 0
13 2 S112 934 219041 2820 0
13 2 S112 972 220013 3792 0
13 2 S112 987 221000 4779 0
13 2 S112 939 221939 5718 0
13 2 S112 994 222933 6712 0
0 0 0 959 223892 -11345 0
0 0 0 925 224817 -10420 0
0 0 0 962 225779 -9458 0
0 0 0 934 226713 -8524 0
0 0 0 810 227523 -7714 0
0 0 0 870 228393 -6844 0
0 0 0 901 229294 -5943 0
0 0 0 804 230098 -5139 0
0 0 0 792 230890 -4347 0
0 0 0 816 231706 -3531 0
0 0 0 834 232540 -2697 0
14 1 S106 788 233328 -1909 0
14 1 S106 837 234165 -1072 0
14 1 S106 834 234999 -238 0
14 2 S106 810 235809 572 0
14 2 S106 855 236664 1427 0
14 2 S106 872 237536 2299 0
14 2 S106 835 238371 3134 0
14 2 S106 833 239204 3967 0
14 2 S106 850 240054 4817 0
14 2 S106 868 240922 5685 0
14 2 S106 825 241747 6510 0
0 0 0 881 242628 -10231 0
0 0 0 947 243575 -9284 0
0 0 0 963 244538 -8321 0
0 0 0 856 245394 -7465 0
0 0 0 892 246286 -6573 0
0 0 0 950 247236 -5623 0
0 0 0 950 248186 -4673 0
0 0 0 915 249101 -3758 0
0 0 0 966 250067 -2792 0
15 1 S116 980 251047 -1812 0
15 1 S116 891 251938 -921 0
15 2 S116 955 252893 34 0
15 2 S116 1002 253895 1036 0
15 2 S116 944 254839 1980 0
15 2 S116 881 255720 2861 0
15 2 S116 941 256661 3802 0
15 2 S116 946 257607 4748 0
15 2 S116 878 258485 5626 0
15 2 S116 951 259436 6577 0
0 0 0 972 260408 -9096 0
0 0 0 936 261344 -8160 0
0 0 0 960 262304 -7200 0
0 0 0 833 263137 -6367 0
0 0 0 861 263998 -5506 0
0 0 0 902 264900 -4604 0
0 0 0 835 265735 -3769 0
0 0 0 970 266705 -2799 0
16 1 S116 1104 267809 -1695 0
16 1 S116 931 268740 -764 0
16 2 S116 914 269654 150 0
16 2 S116 930 270584 1080 0
16 2 S116 920 271504 2000 0
16 2 S116 882 272386 2882 0
16 2 S116 928 273314 3810 0
16 2 S116 958 274272 4768 0
16 2 S116 910 275182 5678 0
16 2 S116 969 276151 6647 0
0 0 0 985 277136 -8648 0
0 0 0 910 278046 -7738 0
0 0 0 962 279008 -6776 0
0 0 0 910 279918 -5866 0
0 0 0 865 280783 -5001 0
0 0 0 927 281710 -4074 0
0 0 0 966 282676 -3108 0
0 0 0 899 283575 -2209 0
17 1 S106 912 284487 -1297 0
17 1 S106 950 285437 -347 0
17 2 S106 1014 286451 667 0
17 2 S106 930 287381 1597 0
17 2 S106 975 288356 2572 0
17 2 S106 1010 289366 3582 0
17 2 S106 914 290280 4496 0
17 2 S106 977 291257 5473 0
17 2 S106 987 292244 6460 0
0 0 0 884 293128 -9898 0
0 0 0 958 294086 -8940 0
0 0 0 934 295020 -8006 0
0 0 0 842 295862 -7164 0
0 0 0 892 296754 -6272 0
0 0 0 970 297724 -5302 0
0 0 0 973 298697 -4329 0
0 0 0 948 299645 -3381 0
0 0 0 1010 300655 -2371 0
18 1 S102 1022 301677 -1349 0
18 1 S102 982 302659 -367 0
18 2 S102 1030 303689 663 0
18 2 S102 1012 304701 1675 0
18 2 S102 922 305623 2597 0
18 2 S102 969 306592 3566 0
18 2 S102 940 307532 4506 0
18 2 S102 885 308417 5391 0
18 2 S102 958 309375 6349 0
0 0 0 1011 310386 -5902 0
0 0 0 927 311313 -4975 0
0 0 0 973 312286 -4002 0
0 0 0 981 313267 -3021 0
0 0 0 936 314203 -2085 0
19 1 S106 1001 315204 -1084 0
19 1 S106 1022 316226 -62 0
19 2 S106 932 317158 870 0
19 2 S106 1008 318166 1878 0
19 2 S106 1018 319184 2896 0
19 2 S106 918 320102 3814 0
19 2 S106 996 321098 4810 0
19 2 S106 1032 322130 5842 0
19 2 S106 943 323073 6785 0
0 0 0 996 324069 -9809 0
0 0 0 1009 325078 -8800 0
0 0 0 869 325947 -7931 0
0 0 0 910 326857 -7021 0
0 0 0 921 327778 -6100 0
0 0 0 855 328633 -5245 0
0 0 0 948 329581 -4297 0
0 0 0 1111 330692 -3186 0
0 0 0 1027 331719 -2159 0
20 1 S112 1036 332755 -1123 0
20 1 S112 1027 333782 -96 0
20 2 S112 955 334737 859 0
20 2 S112 1034 335771 1893 0
20 2 S112 1002 336773 2895 0
20 2 S112 942 337715 3837 0
20 2 S112 1042 338757 4879 0
20 2 S112 1070 339827 5949 0
20 2 S112 987 340814 6936 0
0 0 0 1079 341893 -9807 0
0 0 0 1037 342930 -8770 0
0 0 0 922 343852 -7848 0
0 0 0 992 344844 -6856 0
0 0 0 946 345790 -5910 0
0 0 0 880 346670 -5030 0
0 0 0 976 347646 -4054 0
0 0 0 1039 348685 -3015 0
0 0 0 940 349625 -2075 0
21 1 S106 1025 350650 -1050 0
21 1 S106 1034 351684 -16 0
21 2 S106 963 352647 947 0
21 2 S106 1071 353718 2018 0
21 2 S106 1053 354771 3071 0
21 2 S106 1001 355772 4072 0
21 2 S106 1094 356866 5166 0
21 2 S106 1052 357918 6218 0
0 0 0 977 358895 -10726 0
0 0 0 1041 359936 -9685 0
0 0 0 982 360918 -8703 0
0 0 0 942 361860 -7761 0
0 0 0 1035 362895 -6726 0
0 0 0 935 363830 -5791 0
0 0 0 1096 364926 -4695 0
0 0 0 1111 366037 -3584 0
0 0 0 1007 367044 -2577 0
22 1 S116 1093 368137 -1484 0
22 1 S116 1099 369236 -385 0
22 2 S116 1002 370238 617 0
22 2 S116 1015 371253 1632 0
22 2 S116 975 372228 2607 0
22 2 S116 928 373156 3535 0
22 2 S116 996 374152 4531 0
22 2 S116 919 375071 5450 0
22 2 S116 860 375931 6310 0
0 0 0 950 376881 -10612 0
0 0 0 1016 377897 -9596 0
0 0 0 895 378792 -8701 0
0 0 0 965 379757 -7736 0
0 0 0 1005 380762 -6731 0
0 0 0 841 381603 -5890 0
0 0 0 870 382473 -5020 0
0 0 0 823 383296 -4197 0
0 0 0 772 384068 -3425 0
0 0 0 833 384901 -2592 0
23 1 S112 860 385761 -1732 0
23 1 S112 809 386570 -923 0
23 1 S112 883 387453 -40 0
23 2 S112 912 388365 872 0
23 2 S112 850 389215 1722 0
23 2 S112 921 390136 2643 0
23 2 S112 978 391114 3621 0
23 2 S112 957 392071 4578 0
23 2 S112 933 393004 5511 0
23 2 S112 998 394002 6509 0
0 0 0 1022 395024 -8351 0
0 0 0 918 395942 -7433 0
0 0 0 955 396897 -6478 0
0 0 0 977 397874 -5501 0
0 0 0 923 398797 -4578 0
0 0 0 1009 399806 -3569 0
0 0 0 1113 400919 -2456 0
24 1 S106 1085 402004 -1371 0
24 1 S106 1013 403017 -358 0
24 2 S106 1077 404094 719 0
24 2 S106 1007 405101 1726 0
24 2 S106 947 406048 2673 0
24 2 S106 987 407035 3660 0
24 2 S106 991 408026 4651 0
24 2 S106 934 408960 5585 0
24 2 S106 1155 410115 6740 1
0 0 0 1159 411274 -7668 1
0 0 0 944 412218 -6724 0
0 0 0 840 413058 -5884 0
0 0 0 869 413927 -5015 0
0 0 0 874 414801 -4141 0
0 0 0 787 415588 -3354 0
0 0 0 882 416470 -2472 0
25 1 S102 1031 417501 -1441 0
25 1 S102 1026 418527 -415 0
25 2 S102 1066 419593 651 0
25 2 S102 1037 420630 1688 0
25 2 S102 953 421583 2641 0
25 2 S102 935 422518 3576 0
25 2 S102 990 423508 4566 0
25 2 S102 979 424487 5545 0
25 2 S102 954 425441 6499 0
0 0 0 1042 426483 -6269 0
0 0 0 1038 427521 -5231 0
0 0 0 928 428449 -4303 0
0 0 0 989 429438 -3314 0
0 0 0 973 430411 -2341 0
26 1 S116 930 431341 -1411 0
26 1 S116 1042 432383 -369 0
26 2 S116 1041 433424 672 0
26 2 S116 965 434389 1637 0
26 2 S116 1014 435403 2651 0
26 2 S116 957 436360 3608 0
26 2 S116 991 437351 4599 0
26 2 S116 1039 438390 5638 0
26 2 S116 1052 439442 6690 0
0 0 0 956 440398 -7307 0
0 0 0 981 441379 -6326 0
0 0 0 896 442275 -5430 0
0 0 0 845 443120 -4585 0
0 0 0 920 444040 -3665 0
0 0 0 876 444916 -2789 0
27 1 S106 849 445765 -1940 0
27 1 S106 965 446730 -975 0
27 2 S106 1002 447732 27 0
27 2 S106 894 448626 921 0
27 2 S106 944 449570 1865 0
27 2 S106 950 450520 2815 0
27 2 S106 882 451402 3697 0
27 2 S106 954 452356 4651 0
27 2 S106 982 453338 5633 0
27 2 S106 933 454271 6566 0
0 0 0 1011 455282 -6067 0
0 0 0 1039 456321 -5028 0
0 0 0 896 457217 -4132 0
0 0 0 949 458166 -3183 0
0 0 0 1011 459177 -2172 0
28 1 S102 971 460148 -1201 0
28 1 S102 951 461099 -250 0
28 2 S102 1074 462173 824 0
28 2 S102 1117 463290 1941 0
28 2 S102 1107 464397 3048 0
28 2 S102 977 465374 4025 0
28 2 S102 1008 466382 5033 0
28 2 S102 924 467306 5957 0
28 2 S102 909 468215 6866 0
0 0 0 966 469181 -9675 0
0 0 0 917 470098 -8758 0
0 0 0 877 470975 -7881 0
0 0 0 885 471860 -6996 0
0 0 0 875 472735 -6121 0
0 0 0 853 473588 -5268 0
0 0 0 948 474536 -4320 0
0 0 0 993 475529 -3327 0
0 0 0 897 476426 -2430 0
29 1 S112 973 477399 -1457 0
29 1 S112 995 478394 -462 0
29 2 S112 943 479337 481 0
29 2 S112 933 480270 1414 0
29 2 S112 979 481249 2393 0
29 2 S112 934 482183 3327 0
29 2 S112 927 483110 4254 0
29 2 S112 999 484109 5253 0
29 2 S112 997 485106 6250 0
0 0 0 958 486064 -8939 0
0 0 0 1067 487131 -7872 0
0 0 0 1042 488173 -6830 0
0 0 0 880 489053 -5950 0
0 0 0 899 489952 -5051 0
0 0 0 916 490868 -4135 0
0 0 0 837 491705 -3298 0
0 0 0 892 492597 -2406 0
30 1 S112 956 493553 -1450 0
30 1 S112 901 494454 -549 0
30 2 S112 911 495365 362 0
30 2 S112 958 496323 1320 0
30 2 S112 920 497243 2240 0
30 2 S112 903 498146 3143 0
30 2 S112 952 499098 4095 0
30 2 S112 938 500036 5033 0
30 2 S112 881 500917 5914 0
30 2 S112 923 501840 6837 0
0 0 0 971 502811 -7826 0
0 0 0 890 503701 -6936 0
0 0 0 907 504608 -6029 0
0 0 0 897 505505 -5132 0
0 0 0 826 506331 -4306 0
0 0 0 913 507244 -3393 0
0 0 0 983 508227 -2410 0
31 1 S106 987 509214 -1423 0
31 1 S106 946 510160 -477 0
31 2 S106 992 511152 515 0
31 2 S106 985 512137 1500 0
31 2 S106 863 513000 2363 0
31 2 S106 916 513916 3279 0
31 2 S106 978 514894 4257 0
31 2 S106 919 515813 5176 0
31 2 S106 969 516782 6145 0
0 0 0 1065 517847 -8589 0
0 0 0 980 518827 -7609 0
0 0 0 1036 519863 -6573 0
0 0 0 942 520805 -5631 0
0 0 0 763 521568 -4868 0
0 0 0 782 522350 -4086 0
0 0 0 806 523156 -3280 0
0 0 0 882 524038 -2398 0
32 1 S102 856 524894 -1542 0
32 1 S102 910 525804 -632 0
32 2 S102 979 526783 347 0
32 2 S102 950 527733 1297 0
32 2 S102 927 528660 2224 0
32 2 S102 953 529613 3177 0
32 2 S102 946 530559 4123 0
32 2 S102 902 531461 5025 0
32 2 S102 939 532400 5964 0
32 2 S102 978 533378 6942 0
0 0 0 909 534287 -9755 0
0 0 0 971 535258 -8784 0
0 0 0 951 536209 -7833 0
0 0 0 889 537098 -6944 0
0 0 0 1007 538105 -5937 0
0 0 0 1076 539181 -4861 0
0 0 0 1012 540193 -3849 0
0 0 0 947 541140 -2902 0
33 1 S112 1008 542148 -1894 0
33 1 S112 974 543122 -920 0
33 2 S112 968 544090 48 0
33 2 S112 1018 545108 1066 0
33 2 S112 960 546068 2026 0
33 2 S112 792 546860 2818 0
33 2 S112 750 547610 3568 0
33 2 S112 809 548419 4377 0
33 2 S112 869 549288 5246 0
33 2 S112 989 550277 6235 0
0 0 0 926 551203 -11722 0
0 0 0 971 552174 -10751 0
0 0 0 978 553152 -9773 0
0 0 0 868 554020 -8905 0
0 0 0 883 554903 -8022 0
0 0 0 884 555787 -7138 0
0 0 0 834 556621 -6304 0
0 0 0 890 557511 -5414 0
0 0 0 929 558440 -4485 0
0 0 0 875 559315 -3610 0
0 0 0 922 560237 -2688 0
34 1 S106 981 561218 -1707 0
34 1 S106 996 562214 -711 0
34 2 S106 990 563204 279 0
34 2 S106 1039 564243 1318 0
34 2 S106 1036 565279 2354 0
34 2 S106 957 566236 3311 0
34 2 S106 1013 567249 4324 0
34 2 S106 1021 568270 5345 0
34 2 S106 965 569235 6310 0
0 0 0 902 570137 -8339 0
0 0 0 970 571107 -7369 0
0 0 0 1050 572157 -6319 0
0 0 0 887 573044 -5432 0
0 0 0 798 573842 -4634 0
0 0 0 805 574647 -3829 0
0 0 0 879 575526 -2950 0
35 1 S102 1003 576529 -1947 0
35 1 S102 1138 577667 -809 0
35 2 S102 995 578662 186 0
35 2 S102 1059 579721 1245 0
35 2 S102 1056 580777 2301 0
35 2 S102 1008 581785 3309 0
35 2 S102 1037 582822 4346 0
35 2 S102 1051 583873 5397 0
35 2 S102 1036 584909 6433 0
0 0 0 993 585902 -6649 0
0 0 0 1052 586954 -5597 0
0 0 0 1037 587991 -4560 0
0 0 0 932 588923 -3628 0
0 0 0 1030 589953 -2598 0
36 1 S106 1094 591047 -1504 0
36 1 S106 1067 592114 -437 0
36 2 S106 991 593105 554 0
36 2 S106 1054 594159 1608 0
36 2 S106 1073 595232 2681 0
36 2 S106 895 596127 3576 0
36 2 S106 745 596872 4321 0
36 2 S106 732 597604 5053 0
36 2 S106 793 598397 5846 0
36 2 S106 924 599321 6770 0
0 0 0 1023 600344 -8553 0
0 0 0 1052 601396 -7501 0
0 0 0 896 602292 -6605 0
0 0 0 892 603184 -5713 0
0 0 0 900 604084 -4813 0
0 0 0 867 604951 -3946 0
0 0 0 872 605823 -3074 0
0 0 0 895 606718 -2179 0
37 1 S116 905 607623 -1274 0
37 1 S116 889 608512 -385 0
37 2 S116 919 609431 534 0
37 2 S116 951 610382 1485 0
37 2 S116 933 611315 2418 0
37 2 S116 862 612177 3280 0
37 2 S116 922 613099 4202 0
37 2 S116 982 614081 5184 0
37 2 S116 987 615068 6171 0
0 0 0 892 615960 -10891 0
0 0 0 989 616949 -9902 0
0 0 0 1050 617999 -8852 0
0 0 0 921 618920 -7931 0
0 0 0 885 619805 -7046 0
0 0 0 929 620734 -6117 0
0 0 0 922 621656 -5195 0
0 0 0 806 622462 -4389 0
0 0 0 830 623292 -3559 0
0 0 0 822 624114 -2737 0
38 1 S102 767 624881 -1970 0
38 1 S102 785 625666 -1185 0
38 1 S102 823 626489 -362 0
38 2 S102 867 627356 505 0
38 2 S102 850 628206 1355 0
38 2 S102 920 629126 2275 0
38 2 S102 965 630091 3240 0
38 2 S102 898 630989 4138 0
38 2 S102 898 631887 5036 0
38 2 S102 918 632805 5954 0
38 2 S102 901 633706 6855 0
0 0 0 915 634621 -8693 0
0 0 0 906 635527 -7787 0
0 0 0 874 636401 -6913 0
0 0 0 876 637277 -6037 0
0 0 0 950 638227 -5087 0
0 0 0 951 639178 -4136 0
0 0 0 1202 640380 -2934 1
39 1 S116 1140 641520 -1794 0
39 1 S116 1045 642565 -749 0
39 2 S116 1078 643643 329 0
39 2 S116 1068 644711 1397 0
39 2 S116 976 645687 2373 0
39 2 S116 987 646674 3360 0
39 2 S116 977 647651 4337 0
39 2 S116 891 648542 5228 0
39 2 S116 932 649474 6160 0
0 0 0 957 650431 -6858 0
0 0 0 961 651392 -5897 0
0 0 0 893 652285 -5004 0
0 0 0 921 653206 -4083 0
0 0 0 938 654144 -3145 0
0 0 0 869 655013 -2276 0
40 1 S112 943 655956 -1333 0
40 1 S112 963 656919 -370 0
40 2 S112 856 657775 486 0
40 2 S112 920 658695 1406 0
40 2 S112 908 659603 2314 0
40 2 S112 826 660429 3140 0
40 2 S112 896 661325 4036 0
40 2 S112 880 662205 4916 0
40 2 S112 792 662997 5708 0
40 2 S112 833 663830 6541 0
0 0 0 892 664722 -186501 0
0 0 0 853 665575 -185648 0
0 0 0 906 666481 -184742 0
0 0 0 933 667414 -183809 0
0 0 0 815 668229 -182994 0
0 0 0 731 668960 -182263 0
0 0 0 747 669707 -181516 0
0 0 0 720 670427 -180796 0
0 0 0 698 671125 -180098 1
0 0 0 703 671828 -179395 1
0 0 0 694 672522 -178701 1
0 0 0 735 673257 -177966 0
0 0 0 797 674054 -177169 0
0 0 0 848 674902 -176321 0
0 0 0 815 675717 -175506 0
0 0 0 844 676561 -174662 0
0 0 0 864 677425 -173798 0
0 0 0 867 678292 -172931 0
0 0 0 824 679116 -172107 0
0 0 0 888 680004 -171219 0
0 0 0 917 680921 -170302 0
0 0 0 873 681794 -169429 0
0 0 0 911 682705 -168518 0
0 0 0 941 683646 -167577 0
0 0 0 950 684596 -166627 0
0 0 0 932 685528 -165695 0
0 0 0 1017 686545 -164678 0
0 0 0 1044 687589 -163634 0
0 0 0 1035 688624 -162599 0
0 0 0 968 689592 -161631 0
0 0 0 1019 690611 -160612 0
0 0 0 1014 691625 -159598 0
0 0 0 900 692525 -158698 0
0 0 0 961 693486 -157737 0
0 0 0 1049 694535 -156688 0
0 0 0 979 695514 -155709 0
0 0 0 949 696463 -154760 0
0 0 0 1005 697468 -153755 0
0 0 0 1045 698513 -152710 0
0 0 0 964 699477 -151746 0
0 0 0 1096 700573 -150650 0
0 0 0 1059 701632 -149591 0
0 0 0 962 702594 -148629 0
0 0 0 984 703578 -147645 0
0 0 0 1003 704581 -146642 0
0 0 0 897 705478 -145745 0
0 0 0 979 706457 -144766 0
0 0 0 1040 707497 -143726 0
0 0 0 928 708425 -142798 0
0 0 0 999 709424 -141799 0
0 0 0 1036 710460 -140763 0
0 0 0 926 711386 -139837 0
0 0 0 1005 712391 -138832 0
0 0 0 1070 713461 -137762 0
0 0 0 913 714374 -136849 0
0 0 0 968 715342 -135881 0
0 0 0 999 716341 -134882 0
0 0 0 974 717315 -133908 0
0 0 0 971 718286 -132937 0
0 0 0 1087 719373 -131850 0
0 0 0 1111 720484 -130739 0
0 0 0 962 721446 -129777 0
0 0 0 1063 722509 -128714 0
0 0 0 1059 723568 -127655 0
0 0 0 974 724542 -126681 0
0 0 0 1056 725598 -125625 0
0 0 0 1064 726662 -124561 0
0 0 0 983 727645 -123578 0
0 0 0 1006 728651 -122572 0
0 0 0 1017 729668 -121555 0
0 0 0 901 730569 -120654 0
0 0 0 995 731564 -119659 0
0 0 0 1055 732619 -118604 0
0 0 0 984 733603 -117620 0
0 0 0 1078 734681 -116542 0
0 0 0 1103 735784 -115439 0
0 0 0 954 736738 -114485 0
0 0 0 996 737734 -113489 0
0 0 0 1004 738738 -112485 0
0 0 0 915 739653 -111570 0
0 0 0 982 740635 -110588 0
0 0 0 1032 741667 -109556 0
0 0 0 1024 742691 -108532 0
0 0 0 1050 743741 -107482 0
0 0 0 1111 744852 -106371 0
0 0 0 1124 745976 -105247 0
0 0 0 1035 747011 -104212 0
0 0 0 1086 748097 -103126 0
0 0 0 1051 749148 -102075 0
0 0 0 991 750139 -101084 0
0 0 0 851 750990 -100233 0
0 0 0 957 751947 -99276 0
0 0 0 1055 753002 -98221 0
0 0 0 970 753972 -97251 0
0 0 0 1162 755134 -96089 1
0 0 0 1124 756258 -94965 0
0 0 0 1075 757333 -93890 0
0 0 0 1151 758484 -92739 0
0 0 0 1112 759596 -91627 0
0 0 0 1030 760626 -90597 0
0 0 0 1106 761732 -89491 0
0 0 0 1079 762811 -88412 0
0 0 0 995 763806 -87417 0
0 0 0 1039 764845 -86378 0
0 0 0 1023 765868 -85355 0
0 0 0 915 766783 -84440 0
0 0 0 955 767738 -83485 0
0 0 0 1028 768766 -82457 0
0 0 0 1024 769790 -81433 0
0 0 0 1060 770850 -80373 0
0 0 0 1134 771984 -79239 0
0 0 0 1123 773107 -78116 0
0 0 0 1039 774146 -77077 0
0 0 0 1093 775239 -75984 0
0 0 0 1090 776329 -74894 0
0 0 0 958 777287 -73936 0
0 0 0 1019 778306 -72917 0
0 0 0 1094 779400 -71823 0
0 0 0 1009 780409 -70814 0
0 0 0 1081 781490 -69733 0
0 0 0 1105 782595 -68628 0
0 0 0 1061 783656 -67567 0
0 0 0 967 784623 -66600 0
0 0 0 1023 785646 -65577 0
0 0 0 991 786637 -64586 0
0 0 0 954 787591 -63632 0
0 0 0 1219 788810 -62413 1
0 0 0 1135 789945 -61278 0
0 0 0 1020 790965 -60258 0
0 0 0 1116 792081 -59142 0
0 0 0 1120 793201 -58022 0
0 0 0 1014 794215 -57008 0
0 0 0 883 795098 -56125 0
0 0 0 982 796080 -55143 0
0 0 0 1100 797180 -54043 0
0 0 0 1086 798266 -52957 0
0 0 0 1204 799470 -51753 1
0 0 0 1157 800627 -50596 1
0 0 0 1069 801696 -49527 0
0 0 0 1067 802763 -48460 0
0 0 0 1028 803791 -47432 0
0 0 0 911 804702 -46521 0
0 0 0 1076 805778 -45445 0
0 0 0 1035 806813 -44410 0
0 0 0 891 807704 -43519 0
0 0 0 1005 808709 -42514 0
0 0 0 1148 809857 -41366 0
0 0 0 982 810839 -40384 0
0 0 0 1029 811868 -39355 0
0 0 0 1111 812979 -38244 0
0 0 0 1010 813989 -37234 0
0 0 0 1125 815114 -36109 0
0 0 0 1153 816267 -34956 0
0 0 0 1051 817318 -33905 0
0 0 0 1150 818468 -32755 0
0 0 0 1182 819650 -31573 1
0 0 0 1053 820703 -30520 0
0 0 0 1034 821737 -29486 0
0 0 0 1101 822838 -28385 0
0 0 0 1015 823853 -27370 0
0 0 0 912 824765 -26458 0
0 0 0 972 825737 -25486 0
0 0 0 1029 826766 -24457 0
0 0 0 910 827676 -23547 0
0 0 0 1021 828697 -22526 0
0 0 0 1070 829767 -21456 0
0 0 0 957 830724 -20499 0
0 0 0 1066 831790 -19433 0
0 0 0 1134 832924 -18299 0
0 0 0 945 833869 -17354 0
0 0 0 981 834850 -16373 0
0 0 0 996 835846 -15377 0
0 0 0 943 836789 -14434 0
0 0 0 986 837775 -13448 0
0 0 0 1029 838804 -12419 0
0 0 0 983 839787 -11436 0
0 0 0 1039 840826 -10397 0
0 0 0 1085 841911 -9312 0
0 0 0 1019 842930 -8293 0
0 0 0 945 843875 -7348 0
0 0 0 1041 844916 -6307 0
0 0 0 1129 846045 -5178 0
0 0 0 981 847026 -4197 0
0 0 0 943 847969 -3254 0
0 0 0 815 848784 -2439 0
41 1 S102 738 849522 -1701 0
41 1 S102 741 850263 -960 0
41 1 S102 732 850995 -228 0
41 2 S102 712 851707 484 1
41 2 S102 702 852409 1186 1
41 2 S102 700 853109 1886 1
41 2 S102 687 853796 2573 1
41 2 S102 692 854488 3265 1
41 2 S102 745 855233 4010 0
41 2 S102 705 855938 4715 1
41 2 S102 734 856672 5449 0
41 2 S102 772 857444 6221 0
41 2 S102 787 858231 7008 0
0 0 0 742 858973 -5828 0
0 0 0 781 859754 -5047 0
0 0 0 787 860541 -4260 0
0 0 0 778 861319 -3482 0
0 0 0 742 862061 -2740 0
42 1 S112 778 862839 -1962 0
42 1 S112 820 863659 -1142 0
42 1 S112 790 864449 -352 0
42 2 S112 752 865201 400 0
42 2 S112 780 865981 1180 0
42 2 S112 862 866843 2042 0
42 2 S112 924 867767 2966 0
42 2 S112 951 868718 3917 0
42 2 S112 859 869577 4776 0
42 2 S112 899 870476 5675 0
42 2 S112 916 871392 6591 0
0 0 0 873 872265 -7838 0
0 0 0 878 873143 -6960 0
0 0 0 902 874045 -6058 0
0 0 0 856 874901 -5202 0
0 0 0 825 875726 -4377 0
0 0 0 864 876590 -3513 0
0 0 0 842 877432 -2671 0
43 1 S116 764 878196 -1907 0
43 1 S116 812 879008 -1095 0
43 1 S116 867 879875 -228 0
43 2 S116 906 880781 678 0
43 2 S116 872 881653 1550 0
43 2 S116 929 882582 2479 0
43 2 S116 921 883503 3400 0
43 2 S116 883 884386 4283 0
43 2 S116 950 885336 5233 0
43 2 S116 952 886288 6185 0
0 0 0 856 887144 -7266 0
0 0 0 931 888075 -6335 0
0 0 0 950 889025 -5385 0
0 0 0 861 889886 -4524 0
0 0 0 918 890804 -3606 0
0 0 0 954 891758 -2652 0
44 1 S102 841 892599 -1811 0
44 1 S102 927 893526 -884 0
44 2 S102 1008 894534 124 0
44 2 S102 858 895392 982 0
44 2 S102 767 896159 1749 0
44 2 S102 872 897031 2621 0
44 2 S102 933 897964 3554 0
44 2 S102 965 898929 4519 0
44 2 S102 878 899807 5397 0
44 2 S102 940 900747 6337 0
0 0 0 958 901705 -8057 0
0 0 0 902 902607 -7155 0
0 0 0 930 903537 -6225 0
0 0 0 929 904466 -5296 0
0 0 0 822 905288 -4474 0
0 0 0 841 906129 -3633 0
0 0 0 842 906971 -2791 0
45 1 S116 831 907802 -1960 0
45 1 S116 801 908603 -1159 0
45 1 S116 867 909470 -292 0
45 2 S116 944 910414 652 0
45 2 S116 955 911369 1607 0
45 2 S116 957 912326 2564 0
45 2 S116 959 913285 3523 0
45 2 S116 945 914230 4468 0
45 2 S116 899 915129 5367 0
45 2 S116 937 916066 6304 0
0 0 0 971 917037 -10944 0
0 0 0 946 917983 -9998 0
0 0 0 945 918928 -9053 0
0 0 0 942 919870 -8111 0
0 0 0 832 920702 -7279 0
0 0 0 833 921535 -6446 0
0 0 0 903 922438 -5543 0
0 0 0 1052 923490 -4491 0
0 0 0 1092 924582 -3399 0
0 0 0 1090 925672 -2309 0
46 1 S102 1052 926724 -1257 0
46 1 S102 984 927708 -273 0
46 2 S102 1042 928750 769 0
46 2 S102 991 929741 1760 0
46 2 S102 955 930696 2715 0
46 2 S102 1019 931715 3734 0
46 2 S102 974 932689 4708 0
46 2 S102 935 933624 5643 0
46 2 S102 1031 934655 6674 0
0 0 0 1057 935712 -8516 0
0 0 0 1014 936726 -7502 0
0 0 0 1056 937782 -6446 0
0 0 0 956 938738 -5490 0
0 0 0 904 939642 -4586 0
0 0 0 953 940595 -3633 0
0 0 0 982 941577 -2651 0
47 1 S112 875 942452 -1776 0
47 1 S112 937 943389 -839 0
47 2 S112 1003 944392 164 0
47 2 S112 930 945322 1094 0
47 2 S112 953 946275 2047 0
47 2 S112 947 947222 2994 0
47 2 S112 868 948090 3862 0
47 2 S112 929 949019 4791 0
47 2 S112 954 949973 5745 0
47 2 S112 888 950861 6633 0
0 0 0 927 951788 -11074 0
0 0 0 958 952746 -10116 0
0 0 0 850 953596 -9266 0
0 0 0 894 954490 -8372 0
0 0 0 913 955403 -7459 0
0 0 0 841 956244 -6618 0
0 0 0 760 957004 -5858 0
0 0 0 692 957696 -5166 1
0 0 0 714 958410 -4452 1
0 0 0 770 959180 -3682 0
0 0 0 844 960024 -2838 0
48 1 S116 956 960980 -1882 0
48 1 S116 952 961932 -930 0
48 1 S116 929 962861 -1 0
48 2 S116 888 963749 887 0
48 2 S116 850 964599 1737 0
48 2 S116 860 965459 2597 0
48 2 S116 859 966318 3456 0
48 2 S116 818 967136 4274 0
48 2 S116 833 967969 5107 0
48 2 S116 838 968807 5945 0
48 2 S116 855 969662 6800 0
0 0 0 827 970489 -6448 0
0 0 0 870 971359 -5578 0
0 0 0 897 972256 -4681 0
0 0 0 858 973114 -3823 0
0 0 0 865 973979 -2958 0
0 0 0 906 974885 -2052 0
49 1 S112 914 975799 -1138 0
49 1 S112 888 976687 -250 0
49 2 S112 915 977602 665 0
49 2 S112 913 978515 1578 0
49 2 S112 904 979419 2482 0
49 2 S112 917 980336 3399 0
49 2 S112 946 981282 4345 0
49 2 S112 956 982238 5301 0
49 2 S112 910 983148 6211 0
0 0 0 966 984114 -12585 0
0 0 0 1005 985119 -11580 0
0 0 0 950 986069 -10630 0
0 0 0 916 986985 -9714 0
0 0 0 939 987924 -8775 0
0 0 0 861 988785 -7914 0
0 0 0 845 989630 -7069 0
0 0 0 890 990520 -6179 0
0 0 0 901 991421 -5278 0
0 0 0 815 992236 -4463 0
0 0 0 806 993042 -3657 0
0 0 0 837 993879 -2820 0
50 1 S106 879 994758 -1941 0
50 1 S106 869 995627 -1072 0
50 1 S106 775 996402 -297 0
50 2 S106 792 997194 495 0
50 2 S106 822 998016 1317 0
50 2 S106 888 998904 2205 0
50 2 S106 869 999773 3074 0
50 2 S106 785 1000558 3859 0
50 2 S106 812 1001370 4671 0
50 2 S106 840 1002210 5511 0
50 2 S106 870 1003080 6381 0
0 0 0 863 1003943 -6582 0
0 0 0 896 1004839 -5686 0
0 0 0 898 1005737 -4788 0
0 0 0 873 1006610 -3915 0
0 0 0 852 1007462 -3063 0
0 0 0 888 1008350 -2175 0
51 1 S112 912 1009262 -1263 0
51 1 S112 912 1010174 -351 0
51 2 S112 950 1011124 599 0
51 2 S112 953 1012077 1552 0
51 2 S112 882 1012959 2434 0
51 2 S112 889 1013848 3323 0
51 2 S112 888 1014736 4211 0
51 2 S112 877 1015613 5088 0
51 2 S112 888 1016501 5976 0
51 2 S112 923 1017424 6899 0
0 0 0 963 1018387 -6246 0
0 0 0 914 1019301 -5332 0
0 0 0 934 1020235 -4398 0
0 0 0 964 1021199 -3434 0
0 0 0 944 1022143 -2490 0
52 1 S116 984 1023127 -1506 0
52 1 S116 955 1024082 -551 0
52 2 S116 891 1024973 340 0
52 2 S116 933 1025906 1273 0
52 2 S116 912 1026818 2185 0
52 2 S116 817 1027635 3002 0
52 2 S116 869 1028504 3871 0
52 2 S116 888 1029392 4759 0
52 2 S116 833 1030225 5592 0
52 2 S116 884 1031109 6476 0
0 0 0 942 1032051 -9857 0
0 0 0 931 1032982 -8926 0
0 0 0 910 1033892 -8016 0
0 0 0 968 1034860 -7048 0
0 0 0 903 1035763 -6145 0
0 0 0 889 1036652 -5256 0
0 0 0 924 1037576 -4332 0
0 0 0 900 1038476 -3432 0
0 0 0 896 1039372 -2536 0
53 1 S106 928 1040300 -1608 0
53 1 S106 877 1041177 -731 0
53 2 S106 906 1042083 175 0
53 2 S106 955 1043038 1130 0
53 2 S106 928 1043966 2058 0
53 2 S106 917 1044883 2975 0
53 2 S106 970 1045853 3945 0
53 2 S106 1009 1046862 4954 0
53 2 S106 930 1047792 5884 0
53 2 S106 941 1048733 6825 0
0 0 0 948 1049681 -6153 0
0 0 0 845 1050526 -5308 0
0 0 0 882 1051408 -4426 0
0 0 0 880 1052288 -3546 0
0 0 0 849 1053137 -2697 0
54 1 S102 862 1053999 -1835 0
54 1 S102 931 1054930 -904 0
54 2 S102 977 1055907 73 0
54 2 S102 918 1056825 991 0
54 2 S102 964 1057789 1955 0
54 2 S102 1012 1058801 2967 0
54 2 S102 951 1059752 3918 0
54 2 S102 952 1060704 4870 0
54 2 S102 942 1061646 5812 0
54 2 S102 905 1062551 6717 0
0 0 0 919 1063470 -10534 0
0 0 0 960 1064430 -9574 0
0 0 0 913 1065343 -8661 0
0 0 0 891 1066234 -7770 0
0 0 0 949 1067183 -6821 0
0 0 0 923 1068106 -5898 0
0 0 0 843 1068949 -5055 0
0 0 0 900 1069849 -4155 0
0 0 0 944 1070793 -3211 0
0 0 0 897 1071690 -2314 0
55 1 S106 904 1072594 -1410 0
55 1 S106 934 1073528 -476 0
55 2 S106 884 1074412 408 0
55 2 S106 946 1075358 1354 0
55 2 S106 926 1076284 2280 0
55 2 S106 897 1077181 3177 0
55 2 S106 921 1078102 4098 0
55 2 S106 937 1079039 5035 0
55 2 S106 868 1079907 5903 0
55 2 S106 809 1080716 6712 0
0 0 0 826 1081542 -6951 0
0 0 0 870 1082412 -6081 0
0 0 0 902 1083314 -5179 0
0 0 0 804 1084118 -4375 0
0 0 0 741 1084859 -3634 0
0 0 0 714 1085573 -2920 1
0 0 0 692 1086265 -2228 1
56 1 S116 667 1086932 -1561 1
56 1 S116 696 1087628 -865 1
56 1 S116 725 1088353 -140 0
56 2 S116 771 1089124 631 0
56 2 S116 772 1089896 1403 0
56 2 S116 830 1090726 2233 0
56 2 S116 822 1091548 3055 0
56 2 S116 764 1092312 3819 0
56 2 S116 747 1093059 4566 0
56 2 S116 764 1093823 5330 0
56 2 S116 798 1094621 6128 0
56 2 S116 850 1095471 6978 0
0 0 0 821 1096292 -6243 0
0 0 0 814 1097106 -5429 0
0 0 0 827 1097933 -4602 0
0 0 0 831 1098764 -3771 0
0 0 0 779 1099543 -2992 0
0 0 0 802 1100345 -2190 0
57 1 S106 843 1101188 -1347 0
57 1 S106 864 1102052 -483 0
57 2 S106 776 1102828 293 0
57 2 S106 749 1103577 1042 0
57 2 S106 815 1104392 1857 0
57 2 S106 871 1105263 2728 0
57 2 S106 912 1106175 3640 0
57 2 S106 870 1107045 4510 0
57 2 S106 914 1107959 5424 0
57 2 S106 947 1108906 6371 0
0 0 0 888 1109794 -9684 0
0 0 0 884 1110678 -8800 0
0 0 0 900 1111578 -7900 0
0 0 0 951 1112529 -6949 0
0 0 0 948 1113477 -6001 0
0 0 0 962 1114439 -5039 0
0 0 0 1002 1115441 -4037 0
0 0 0 969 1116410 -3068 0
0 0 0 918 1117328 -2150 0
58 1 S102 963 1118291 -1187 0
58 1 S102 1050 1119341 -137 0
58 2 S102 1031 1120372 894 0
58 2 S102 928 1121300 1822 0
58 2 S102 956 1122256 2778 0
58 2 S102 964 1123220 3742 0
58 2 S102 906 1124126 4648 0
58 2 S102 904 1125030 5552 0
58 2 S102 934 1125964 6486 0
0 0 0 956 1126920 -5688 0
0 0 0 866 1127786 -4822 0
0 0 0 897 1128683 -3925 0
0 0 0 831 1129514 -3094 0
0 0 0 752 1130266 -2342 0
59 1 S112 804 1131070 -1538 0
59 1 S112 869 1131939 -669 0
59 2 S112 795 1132734 126 0
59 2 S112 878 1133612 1004 0
59 2 S112 933 1134545 1937 0
59 2 S112 898 1135443 2835 0
59 2 S112 907 1136350 3742 0
59 2 S112 939 1137289 4681 0
59 2 S112 917 1138206 5598 0
59 2 S112 897 1139103 6495 0
0 0 0 907 1140010 -7817 0
0 0 0 889 1140899 -6928 0
0 0 0 839 1141738 -6089 0
0 0 0 863 1142601 -5226 0
0 0 0 814 1143415 -4412 0
0 0 0 773 1144188 -3639 0
0 0 0 824 1145012 -2815 0
60 1 S102 879 1145891 -1936 0
60 1 S102 835 1146726 -1101 0
60 1 S102 905 1147631 -196 0
60 2 S102 961 1148592 765 0
60 2 S102 925 1149517 1690 0
60 2 S102 997 1150514 2687 0
60 2 S102 971 1151485 3658 0
60 2 S102 896 1152381 4554 0
60 2 S102 920 1153301 5474 0
60 2 S102 921 1154222 6395 0
0 0 0 910 1155132 -9821 0
0 0 0 945 1156077 -8876 0
0 0 0 915 1156992 -7961 0
0 0 0 772 1157764 -7189 0
0 0 0 837 1158601 -6352 0
0 0 0 847 1159448 -5505 0
0 0 0 809 1160257 -4696 0
0 0 0 927 1161184 -3769 0
0 0 0 1068 1162252 -2701 0
61 1 S106 1003 1163255 -1698 0
61 1 S106 1046 1164301 -652 0
61 2 S106 1037 1165338 385 0
61 2 S106 911 1166249 1296 0
61 2 S106 904 1167153 2200 0
61 2 S106 896 1168049 3096 0
61 2 S106 884 1168933 3980 0
61 2 S106 905 1169838 4885 0
61 2 S106 997 1170835 5882 0
61 2 S106 986 1171821 6868 0
0 0 0 921 1172742 -5374 0
0 0 0 971 1173713 -4403 0
0 0 0 929 1174642 -3474 0
0 0 0 773 1175415 -2701 0
62 1 S112 732 1176147 -1969 0
62 1 S112 801 1176948 -1168 0
62 1 S112 843 1177791 -325 0
62 2 S112 971 1178762 646 0
62 2 S112 940 1179702 1586 0
62 2 S112 880 1180582 2466 0
62 2 S112 938 1181520 3404 0
62 2 S112 972 1182492 4376 0
62 2 S112 919 1183411 5295 0
62 2 S112 960 1184371 6255 0
0 0 0 978 1185349 -11534 0
0 0 0 916 1186265 -10618 0
0 0 0 922 1187187 -9696 0
0 0 0 939 1188126 -8757 0
0 0 0 887 1189013 -7870 0
0 0 0 864 1189877 -7006 0
0 0 0 881 1190758 -6125 0
0 0 0 884 1191642 -5241 0
0 0 0 860 1192502 -4381 0
0 0 0 929 1193431 -3452 0
0 0 0 932 1194363 -2520 0
63 1 S102 894 1195257 -1626 0
63 1 S102 968 1196225 -658 0
63 2 S102 999 1197224 341 0
63 2 S102 949 1198173 1290 0
63 2 S102 1006 1199179 2296 0
63 2 S102 1006 1200185 3302 0
63 2 S102 952 1201137 4254 0
63 2 S102 939 1202076 5193 0
63 2 S102 951 1203027 6144 0
0 0 0 909 1203936 -9160 0
0 0 0 934 1204870 -8226 0
0 0 0 966 1205836 -7260 0
0 0 0 927 1206763 -6333 0
0 0 0 791 1207554 -5542 0
0 0 0 819 1208373 -4723 0
0 0 0 814 1209187 -3909 0
0 0 0 749 1209936 -3160 0
0 0 0 816 1210752 -2344 0
64 1 S112 898 1211650 -1446 0
64 1 S112 860 1212510 -586 0
64 2 S112 925 1213435 339 0
64 2 S112 945 1214380 1284 0
64 2 S112 872 1215252 2156 0
64 2 S112 847 1216099 3003 0
64 2 S112 873 1216972 3876 0
64 2 S112 883 1217855 4759 0
64 2 S112 827 1218682 5586 0
64 2 S112 889 1219571 6475 0
0 0 0 926 1220497 -6111 0
0 0 0 881 1221378 -5230 0
0 0 0 916 1222294 -4314 0
0 0 0 948 1223242 -3366 0
0 0 0 883 1224125 -2483 0
65 1 S106 926 1225051 -1557 0
65 1 S106 962 1226013 -595 0
65 2 S106 958 1226971 363 0
65 2 S106 933 1227904 1296 0
65 2 S106 959 1228863 2255 0
65 2 S106 911 1229774 3166 0
65 2 S106 784 1230558 3950 0
65 2 S106 814 1231372 4764 0
65 2 S106 846 1232218 5610 0
65 2 S106 921 1233139 6531 0
0 0 0 876 1234015 -8989 0
0 0 0 961 1234976 -8028 0
0 0 0 938 1235914 -7090 0
0 0 0 893 1236807 -6197 0
0 0 0 957 1237764 -5240 0
0 0 0 941 1238705 -4299 0
0 0 0 837 1239542 -3462 0
0 0 0 877 1240419 -2585 0
66 1 S116 896 1241315 -1689 0
66 1 S116 837 1242152 -852 0
66 2 S116 904 1243056 52 0
66 2 S116 945 1244001 997 0
66 2 S116 923 1244924 1920 0
66 2 S116 922 1245846 2842 0
66 2 S116 981 1246827 3823 0
66 2 S116 951 1247778 4774 0
66 2 S116 967 1248745 5741 0
66 2 S116 995 1249740 6736 0
0 0 0 911 1250651 -10357 0
0 0 0 966 1251617 -9391 0
0 0 0 963 1252580 -8428 0
0 0 0 868 1253448 -7560 0
0 0 0 938 1254386 -6622 0
0 0 0 965 1255351 -5657 0
0 0 0 924 1256275 -4733 0
0 0 0 983 1257258 -3750 0
0 0 0 1042 1258300 -2708 0
67 1 S102 994 1259294 -1714 0
67 1 S102 970 1260264 -744 0
67 2 S102 1004 1261268 260 0
67 2 S102 935 1262203 1195 0
67 2 S102 862 1263065 2057 0
67 2 S102 914 1263979 2971 0
67 2 S102 985 1264964 3956 0
67 2 S102 1017 1265981 4973 0
67 2 S102 989 1266970 5962 0
67 2 S102 1030 1268000 6992 0
0 0 0 1027 1269027 -5509 0
0 0 0 951 1269978 -4558 0
0 0 0 1017 1270995 -3541 0
0 0 0 1049 1272044 -2492 0
68 1 S106 922 1272966 -1570 0
68 1 S106 981 1273947 -589 0
68 2 S106 931 1274878 342 0
68 2 S106 881 1275759 1223 0
68 2 S106 944 1276703 2167 0
68 2 S106 995 1277698 3162 0
68 2 S106 947 1278645 4109 0
68 2 S106 1008 1279653 5117 0
68 2 S106 1059 1280712 6176 0
0 0 0 990 1281702 -12678 0
0 0 0 1039 1282741 -11639 0
0 0 0 982 1283723 -10657 0
0 0 0 894 1284617 -9763 0
0 0 0 915 1285532 -8848 0
0 0 0 906 1286438 -7942 0
0 0 0 812 1287250 -7130 0
0 0 0 863 1288113 -6267 0
0 0 0 887 1289000 -5380 0
0 0 0 847 1289847 -4533 0
0 0 0 896 1290743 -3637 0
0 0 0 940 1291683 -2697 0
69 1 S102 903 1292586 -1794 0
69 1 S102 843 1293429 -951 0
69 1 S102 886 1294315 -65 0
69 2 S102 908 1295223 843 0
69 2 S102 782 1296005 1625 0
69 2 S102 730 1296735 2355 0
69 2 S102 799 1297534 3154 0
69 2 S102 853 1298387 4007 0
69 2 S102 917 1299304 4924 0
69 2 S102 895 1300199 5819 0
69 2 S102 928 1301127 6747 0
0 0 0 938 1302065 -8778 0
0 0 0 930 1302995 -7848 0
0 0 0 938 1303933 -6910 0
0 0 0 918 1304851 -5992 0
0 0 0 885 1305736 -5107 0
0 0 0 896 1306632 -4211 0
0 0 0 936 1307568 -3275 0
0 0 0 934 1308502 -2341 0
70 1 S112 885 1309387 -1456 0
70 1 S112 973 1310360 -483 0
70 2 S112 997 1311357 514 0
70 2 S112 943 1312300 1457 0
70 2 S112 1006 1313306 2463 0
70 2 S112 1055 1314361 3518 0
70 2 S112 1011 1315372 4529 0
70 2 S112 1016 1316388 5545 0
70 2 S112 1001 1317389 6546 0
0 0 0 929 1318318 -11109 0
0 0 0 972 1319290 -10137 0
0 0 0 973 1320263 -9164 0
0 0 0 846 1321109 -8318 0
0 0 0 839 1321948 -7479 0
0 0 0 798 1322746 -6681 0
0 0 0 731 1323477 -5950 0
0 0 0 754 1324231 -5196 0
0 0 0 798 1325029 -4398 0
0 0 0 831 1325860 -3567 0
0 0 0 802 1326662 -2765 0
71 1 S116 877 1327539 -1888 0
71 1 S116 922 1328461 -966 0
71 1 S116 860 1329321 -106 0
71 2 S116 888 1330209 782 0
71 2 S116 895 1331104 1677 0
71 2 S116 838 1331942 2515 0
71 2 S116 830 1332772 3345 0
71 2 S116 854 1333626 4199 0
71 2 S116 893 1334519 5092 0
71 2 S116 848 1335367 5940 0
71 2 S116 909 1336276 6849 0
0 0 0 970 1337246 -9008 0
0 0 0 912 1338158 -8096 0
0 0 0 924 1339082 -7172 0
0 0 0 990 1340072 -6182 0
0 0 0 947 1341019 -5235 0
0 0 0 916 1341935 -4319 0
0 0 0 953 1342888 -3366 0
0 0 0 945 1343833 -2421 0
72 1 S102 882 1344715 -1539 0
72 1 S102 948 1345663 -591 0
72 2 S102 964 1346627 373 0
72 2 S102 877 1347504 1250 0
72 2 S102 949 1348453 2199 0
72 2 S102 988 1349441 3187 0
72 2 S102 919 1350360 4106 0
72 2 S102 1001 1351361 5107 0
72 2 S102 1070 1352431 6177 0
0 0 0 1005 1353436 -6330 0
0 0 0 990 1354426 -5340 0
0 0 0 986 1355412 -4354 0
0 0 0 880 1356292 -3474 0
0 0 0 779 1357071 -2695 0
73 1 S116 844 1357915 -1851 0
73 1 S116 958 1358873 -893 0
73 2 S116 1075 1359948 182 0
73 2 S116 1008 1360956 1190 0
73 2 S116 1044 1362000 2234 0
73 2 S116 1012 1363012 3246 0
73 2 S116 915 1363927 4161 0
73 2 S116 973 1364900 5134 0
73 2 S116 991 1365891 6125 0
0 0 0 915 1366806 -10118 0
0 0 0 979 1367785 -9139 0
0 0 0 976 1368761 -8163 0
0 0 0 899 1369660 -7264 0
0 0 0 942 1370602 -6322 0
0 0 0 941 1371543 -5381 0
0 0 0 884 1372427 -4497 0
0 0 0 952 1373379 -3545 0
0 0 0 1005 1374384 -2540 0
74 1 S106 984 1375368 -1556 0
74 1 S106 947 1376315 -609 0
74 2 S106 986 1377301 377 0
74 2 S106 989 1378290 1366 0
74 2 S106 898 1379188 2264 0
74 2 S106 952 1380140 3216 0
74 2 S106 955 1381095 4171 0
74 2 S106 878 1381973 5049 0
74 2 S106 960 1382933 6009 0
0 0 0 1022 1383955 -6547 0
0 0 0 1011 1384966 -5536 0
0 0 0 945 1385911 -4591 0
0 0 0 961 1386872 -3630 0
0 0 0 940 1387812 -2690 0
75 1 S112 888 1388700 -1802 0
75 1 S112 929 1389629 -873 0
75 1 S112 857 1390486 -16 0
75 2 S112 784 1391270 768 0
75 2 S112 841 1392111 1609 0
75 2 S112 918 1393029 2527 0
75 2 S112 989 1394018 3516 0
75 2 S112 1011 1395029 4527 0
75 2 S112 884 1395913 5411 0
75 2 S112 924 1396837 6335 0
0 0 0 935 1397772 -6656 0
0 0 0 890 1398662 -5766 0
0 0 0 895 1399557 -4871 0
0 0 0 909 1400466 -3962 0
0 0 0 864 1401330 -3098 0
0 0 0 867 1402197 -2231 0
76 1 S116 907 1403104 -1324 0
76 1 S116 931 1404035 -393 0
76 2 S116 896 1404931 503 0
76 2 S116 946 1405877 1449 0
76 2 S116 975 1406852 2424 0
76 2 S116 937 1407789 3361 0
76 2 S116 980 1408769 4341 0
76 2 S116 1023 1409792 5364 0
76 2 S116 991 1410783 6355 0
0 0 0 982 1411765 -7633 0
0 0 0 1026 1412791 -6607 0
0 0 0 1000 1413791 -5607 0
0 0 0 900 1414691 -4707 0
0 0 0 906 1415597 -3801 0
0 0 0 867 1416464 -2934 0
0 0 0 733 1417197 -2201 0
77 1 S106 753 1417950 -1448 0
77 1 S106 782 1418732 -666 0
77 2 S106 852 1419584 186 0
77 2 S106 804 1420388 990 0
77 2 S106 854 1421242 1844 0
77 2 S106 872 1422114 2716 0
77 2 S106 877 1422991 3593 0
77 2 S106 831 1423822 4424 0
77 2 S106 883 1424705 5307 0
77 2 S106 892 1425597 6199 0
0 0 0 859 1426456 -9703 0
0 0 0 876 1427332 -8827 0
0 0 0 891 1428223 -7936 0
0 0 0 844 1429067 -7092 0
0 0 0 844 1429911 -6248 0
0 0 0 835 1430746 -5413 0
0 0 0 778 1431524 -4635 0
0 0 0 825 1432349 -3810 0
0 0 0 894 1433243 -2916 0
78 1 S112 937 1434180 -1979 0
78 1 S112 879 1435059 -1100 0
78 1 S112 934 1435993 -166 0
78 2 S112 957 1436950 791 0
78 2 S112 888 1437838 1679 0
78 2 S112 899 1438737 2578 0
78 2 S112 925 1439662 3503 0
78 2 S112 865 1440527 4368 0
78 2 S112 898 1441425 5266 0
78 2 S112 929 1442354 6195 0
0 0 0 889 1443243 -13092 0
0 0 0 911 1444154 -12181 0
0 0 0 937 1445091 -11244 0
0 0 0 898 1445989 -10346 0
0 0 0 906 1446895 -9440 0
0 0 0 935 1447830 -8505 0
0 0 0 874 1448704 -7631 0
0 0 0 908 1449612 -6723 0
0 0 0 942 1450554 -5781 0
0 0 0 919 1451473 -4862 0
0 0 0 913 1452386 -3949 0
0 0 0 963 1453349 -2986 0
0 0 0 944 1454293 -2042 0
79 1 S102 916 1455209 -1126 0
79 1 S102 986 1456195 -140 0
79 2 S102 998 1457193 858 0
79 2 S102 933 1458126 1791 0
79 2 S102 995 1459121 2786 0
79 2 S102 1034 1460155 3820 0
79 2 S102 958 1461113 4778 0
79 2 S102 980 1462093 5758 0
79 2 S102 993 1463086 6751 0
0 0 0 946 1464032 -8898 0
0 0 0 939 1464971 -7959 0
0 0 0 981 1465952 -6978 0
0 0 0 929 1466881 -6049 0
0 0 0 817 1467698 -5232 0
0 0 0 825 1468523 -4407 0
0 0 0 812 1469335 -3595 0
0 0 0 761 1470096 -2834 0
0 0 0 774 1470870 -2060 0
80 1 S116 825 1471695 -1235 0
80 1 S116 848 1472543 -387 0
80 2 S116 810 1473353 423 0
80 2 S116 866 1474219 1289 0
80 2 S116 880 1475099 2169 0
80 2 S116 885 1475984 3054 0
80 2 S116 832 1476816 3886 0
80 2 S116 871 1477687 4757 0
80 2 S116 890 1478577 5647 0
80 2 S116 863 1479440 6510 0
