T_0114
BeatCount Mean SD BeatCountNoOutliers MeanNoOutliers SDNoOutliers
1740 838,418965517241 102,278177130036 1737 837,912492803684 101,637798520081

Trial TrialStatus Trialtype IBI AbsPosition RelPosition Outlier
0 0 0 627 1072 -14638 0
0 0 0 955 2027 -13683 0
0 0 0 776 2803 -12907 0
0 0 0 685 3488 -12222 0
0 0 0 675 4163 -11547 0
0 0 0 636 4799 -10911 0
0 0 0 610 5409 -10301 0
0 0 0 701 6110 -9600 0
0 0 0 805 6915 -8795 0
0 0 0 828 7743 -7967 0
0 0 0 809 8552 -7158 0
0 0 0 781 9333 -6377 0
0 0 0 757 10090 -5620 0
0 0 0 706 10796 -4914 0
0 0 0 685 11481 -4229 0
0 0 0 670 12151 -3559 0
0 0 0 670 12821 -2889 0
0 0 0 676 13497 -2213 0
1 1 S112 726 14223 -1487 0
1 1 S112 762 14985 -725 0
1 2 S112 847 15832 122 0
1 2 S112 842 16674 964 0
1 2 S112 807 17481 1771 0
1 2 S112 796 18277 2567 0
1 2 S112 810 19087 3377 0
1 2 S112 791 19878 4168 0
1 2 S112 780 20658 4948 0
1 2 S112 856 21514 5804 0
1 2 S112 882 22396 6686 0
0 0 0 890 23286 -10810 0
0 0 0 888 24174 -9922 0
0 0 0 867 25041 -9055 0
0 0 0 836 25877 -8219 0
0 0 0 773 26650 -7446 0
0 0 0 670 27320 -6776 0
0 0 0 640 27960 -6136 0
0 0 0 672 28632 -5464 0
0 0 0 714 29346 -4750 0
0 0 0 811 30157 -3939 0
0 0 0 938 31095 -3001 0
0 0 0 932 32027 -2069 0
2 1 S102 916 32943 -1153 0
2 1 S102 820 33763 -333 0
2 2 S102 818 34581 485 0
2 2 S102 806 35387 1291 0
2 2 S102 816 36203 2107 0
2 2 S102 837 37040 2944 0
2 2 S102 868 37908 3812 0
2 2 S102 903 38811 4715 0
2 2 S102 908 39719 5623 0
2 2 S102 913 40632 6536 0
0 0 0 909 41541 -8537 0
0 0 0 898 42439 -7639 0
0 0 0 892 43331 -6747 0
0 0 0 836 44167 -5911 0
0 0 0 828 44995 -5083 0
0 0 0 791 45786 -4292 0
0 0 0 841 46627 -3451 0
0 0 0 779 47406 -2672 0
3 1 S116 729 48135 -1943 0
3 1 S116 658 48793 -1285 0
3 1 S116 694 49487 -591 0
3 2 S116 684 50171 93 0
3 2 S116 678 50849 771 0
3 2 S116 648 51497 1419 0
3 2 S116 811 52308 2230 0
3 2 S116 822 53130 3052 0
3 2 S116 954 54084 4006 0
3 2 S116 927 55011 4933 0
3 2 S116 828 55839 5761 0
3 2 S116 795 56634 6556 0
0 0 0 770 57404 -10976 0
0 0 0 780 58184 -10196 0
0 0 0 796 58980 -9400 0
0 0 0 825 59805 -8575 0
0 0 0 815 60620 -7760 0
0 0 0 793 61413 -6967 0
0 0 0 731 62144 -6236 0
0 0 0 720 62864 -5516 0
0 0 0 708 63572 -4808 0
0 0 0 742 64314 -4066 0
0 0 0 753 65067 -3313 0
0 0 0 790 65857 -2523 0
4 1 S106 809 66666 -1714 0
4 1 S106 841 67507 -873 0
4 1 S106 816 68323 -57 0
4 2 S106 794 69117 737 0
4 2 S106 823 69940 1560 0
4 2 S106 853 70793 2413 0
4 2 S106 862 71655 3275 0
4 2 S106 825 72480 4100 0
4 2 S106 786 73266 4886 0
4 2 S106 781 74047 5667 0
4 2 S106 848 74895 6515 0
0 0 0 883 75778 -6827 0
0 0 0 916 76694 -5911 0
0 0 0 920 77614 -4991 0
0 0 0 872 78486 -4119 0
0 0 0 778 79264 -3341 0
0 0 0 679 79943 -2662 0
0 0 0 630 80573 -2032 0
5 1 S116 617 81190 -1415 0
5 1 S116 635 81825 -780 0
5 1 S116 726 82551 -54 0
5 2 S116 740 83291 686 0
5 2 S116 739 84030 1425 0
5 2 S116 964 84994 2389 0
5 2 S116 906 85900 3295 0
5 2 S116 800 86700 4095 0
5 2 S116 761 87461 4856 0
5 2 S116 724 88185 5580 0
5 2 S116 724 88909 6304 0
0 0 0 742 89651 -8471 0
0 0 0 810 90461 -7661 0
0 0 0 805 91266 -6856 0
0 0 0 757 92023 -6099 0
0 0 0 794 92817 -5305 0
0 0 0 798 93615 -4507 0
0 0 0 832 94447 -3675 0
0 0 0 821 95268 -2854 0
0 0 0 843 96111 -2011 0
6 1 S106 824 96935 -1187 0
6 1 S106 827 97762 -360 0
6 2 S106 789 98551 429 0
6 2 S106 812 99363 1241 0
6 2 S106 878 100241 2119 0
6 2 S106 890 101131 3009 0
6 2 S106 795 101926 3804 0
6 2 S106 723 102649 4527 0
6 2 S106 764 103413 5291 0
6 2 S106 869 104282 6160 0
0 0 0 1080 105362 -9786 0
0 0 0 1076 106438 -8710 0
0 0 0 943 107381 -7767 0
0 0 0 758 108139 -7009 0
0 0 0 756 108895 -6253 0
0 0 0 737 109632 -5516 0
0 0 0 808 110440 -4708 0
0 0 0 867 111307 -3841 0
0 0 0 940 112247 -2901 0
0 0 0 889 113136 -2012 0
7 1 S102 835 113971 -1177 0
7 1 S102 866 114837 -311 0
7 2 S102 850 115687 539 0
7 2 S102 737 116424 1276 0
7 2 S102 730 117154 2006 0
7 2 S102 747 117901 2753 0
7 2 S102 832 118733 3585 0
7 2 S102 824 119557 4409 0
7 2 S102 861 120418 5270 0
7 2 S102 919 121337 6189 0
7 2 S102 769 122106 6958 0
0 0 0 823 122929 -7389 0
0 0 0 752 123681 -6637 0
0 0 0 680 124361 -5957 0
0 0 0 667 125028 -5290 0
0 0 0 658 125686 -4632 0
0 0 0 837 126523 -3795 0
0 0 0 735 127258 -3060 0
0 0 0 679 127937 -2381 0
8 1 S112 680 128617 -1701 0
8 1 S112 748 129365 -953 0
8 1 S112 729 130094 -224 0
8 2 S112 786 130880 562 0
8 2 S112 803 131683 1365 0
8 2 S112 836 132519 2201 0
8 2 S112 826 133345 3027 0
8 2 S112 852 134197 3879 0
8 2 S112 857 135054 4736 0
8 2 S112 895 135949 5631 0
8 2 S112 913 136862 6544 0
0 0 0 900 137762 -5818 0
0 0 0 930 138692 -4888 0
0 0 0 895 139587 -3993 0
0 0 0 847 140434 -3146 0
0 0 0 876 141310 -2270 0
9 1 S116 808 142118 -1462 0
9 1 S116 726 142844 -736 0
9 1 S116 632 143476 -104 0
9 2 S116 628 144104 524 0
9 2 S116 630 144734 1154 0
9 2 S116 746 145480 1900 0
9 2 S116 1066 146546 2966 0
9 2 S116 997 147543 3963 0
9 2 S116 985 148528 4948 0
9 2 S116 933 149461 5881 0
9 2 S116 947 150408 6828 0
0 0 0 934 151342 -9729 0
0 0 0 905 152247 -8824 0
0 0 0 794 153041 -8030 0
0 0 0 800 153841 -7230 0
0 0 0 773 154614 -6457 0
0 0 0 701 155315 -5756 0
0 0 0 730 156045 -5026 0
0 0 0 733 156778 -4293 0
0 0 0 748 157526 -3545 0
0 0 0 787 158313 -2758 0
10 1 S102 889 159202 -1869 0
10 1 S102 841 160043 -1028 0
10 1 S102 821 160864 -207 0
10 2 S102 832 161696 625 0
10 2 S102 906 162602 1531 0
10 2 S102 951 163553 2482 0
10 2 S102 899 164452 3381 0
10 2 S102 866 165318 4247 0
10 2 S102 847 166165 5094 0
10 2 S102 771 166936 5865 0
10 2 S102 806 167742 6671 0
0 0 0 856 168598 -10344 0
0 0 0 908 169506 -9436 0
0 0 0 835 170341 -8601 0
0 0 0 831 171172 -7770 0
0 0 0 711 171883 -7059 0
0 0 0 655 172538 -6404 0
0 0 0 617 173155 -5787 0
0 0 0 624 173779 -5163 0
0 0 0 699 174478 -4464 0
0 0 0 752 175230 -3712 0
0 0 0 706 175936 -3006 0
11 1 S112 1032 176968 -1974 0
11 1 S112 1005 177973 -969 0
11 2 S112 974 178947 5 0
11 2 S112 935 179882 940 0
11 2 S112 876 180758 1816 0
11 2 S112 824 181582 2640 0
11 2 S112 821 182403 3461 0
11 2 S112 813 183216 4274 0
11 2 S112 873 184089 5147 0
11 2 S112 914 185003 6061 0
11 2 S112 920 185923 6981 0
0 0 0 946 186869 -7127 0
0 0 0 962 187831 -6165 0
0 0 0 905 188736 -5260 0
0 0 0 923 189659 -4337 0
0 0 0 872 190531 -3465 0
0 0 0 780 191311 -2685 0
0 0 0 674 191985 -2011 0
12 1 S116 673 192658 -1338 0
12 1 S116 677 193335 -661 0
12 2 S116 794 194129 133 0
12 2 S116 796 194925 929 0
12 2 S116 931 195856 1860 0
12 2 S116 938 196794 2798 0
12 2 S116 899 197693 3697 0
12 2 S116 836 198529 4533 0
12 2 S116 850 199379 5383 0
12 2 S116 841 200220 6224 0
0 0 0 813 201033 -11696 0
0 0 0 767 201800 -10929 0
0 0 0 770 202570 -10159 0
0 0 0 897 203467 -9262 0
0 0 0 952 204419 -8310 0
0 0 0 957 205376 -7353 0
0 0 0 880 206256 -6473 0
0 0 0 792 207048 -5681 0
0 0 0 751 207799 -4930 0
0 0 0 805 208604 -4125 0
0 0 0 936 209540 -3189 0
0 0 0 917 210457 -2272 0
13 1 S112 903 211360 -1369 0
13 1 S112 932 212292 -437 0
13 2 S112 867 213159 430 0
13 2 S112 911 214070 1341 0
13 2 S112 954 215024 2295 0
13 2 S112 948 215972 3243 0
13 2 S112 879 216851 4122 0
13 2 S112 921 217772 5043 0
13 2 S112 924 218696 5967 0
13 2 S112 895 219591 6862 0
0 0 0 909 220500 -11411 0
0 0 0 878 221378 -10533 0
0 0 0 844 222222 -9689 0
0 0 0 942 223164 -8747 0
0 0 0 880 224044 -7867 0
0 0 0 809 224853 -7058 0
0 0 0 853 225706 -6205 0
0 0 0 872 226578 -5333 0
0 0 0 795 227373 -4538 0
0 0 0 833 228206 -3705 0
0 0 0 911 229117 -2794 0
14 1 S106 845 229962 -1949 0
14 1 S106 900 230862 -1049 0
14 1 S106 950 231812 -99 0
14 2 S106 852 232664 753 0
14 2 S106 900 233564 1653 0
14 2 S106 940 234504 2593 0
14 2 S106 798 235302 3391 0
14 2 S106 710 236012 4101 0
14 2 S106 673 236685 4774 0
14 2 S106 642 237327 5416 0
14 2 S106 1137 238464 6553 1
0 0 0 945 239409 -9611 0
0 0 0 1043 240452 -8568 0
0 0 0 993 241445 -7575 0
0 0 0 831 242276 -6744 0
0 0 0 815 243091 -5929 0
0 0 0 952 244043 -4977 0
0 0 0 846 244889 -4131 0
0 0 0 915 245804 -3216 0
0 0 0 1028 246832 -2188 0
15 1 S116 954 247786 -1234 0
15 1 S116 997 248783 -237 0
15 2 S116 1008 249791 771 0
15 2 S116 920 250711 1691 0
15 2 S116 885 251596 2576 0
15 2 S116 927 252523 3503 0
15 2 S116 835 253358 4338 0
15 2 S116 834 254192 5172 0
15 2 S116 845 255037 6017 0
15 2 S116 841 255878 6858 0
0 0 0 819 256697 -9017 0
0 0 0 931 257628 -8086 0
0 0 0 898 258526 -7188 0
0 0 0 888 259414 -6300 0
0 0 0 876 260290 -5424 0
0 0 0 760 261050 -4664 0
0 0 0 712 261762 -3952 0
0 0 0 727 262489 -3225 0
0 0 0 762 263251 -2463 0
16 1 S116 767 264018 -1696 0
16 1 S116 861 264879 -835 0
16 1 S116 745 265624 -90 0
16 2 S116 674 266298 584 0
16 2 S116 655 266953 1239 0
16 2 S116 687 267640 1926 0
16 2 S116 777 268417 2703 0
16 2 S116 710 269127 3413 0
16 2 S116 806 269933 4219 0
16 2 S116 895 270828 5114 0
16 2 S116 937 271765 6051 0
16 2 S116 878 272643 6929 0
0 0 0 911 273554 -7678 0
0 0 0 881 274435 -6797 0
0 0 0 739 275174 -6058 0
0 0 0 740 275914 -5318 0
0 0 0 699 276613 -4619 0
0 0 0 680 277293 -3939 0
0 0 0 716 278009 -3223 0
0 0 0 817 278826 -2406 0
17 1 S106 1134 279960 -1272 1
17 1 S106 1031 280991 -241 0
17 2 S106 899 281890 658 0
17 2 S106 822 282712 1480 0
17 2 S106 796 283508 2276 0
17 2 S106 731 284239 3007 0
17 2 S106 688 284927 3695 0
17 2 S106 781 285708 4476 0
17 2 S106 748 286456 5224 0
17 2 S106 675 287131 5899 0
17 2 S106 653 287784 6552 0
0 0 0 721 288505 -9869 0
0 0 0 756 289261 -9113 0
0 0 0 838 290099 -8275 0
0 0 0 723 290822 -7552 0
0 0 0 658 291480 -6894 0
0 0 0 676 292156 -6218 0
0 0 0 645 292801 -5573 0
0 0 0 628 293429 -4945 0
0 0 0 607 294036 -4338 0
0 0 0 680 294716 -3658 0
0 0 0 688 295404 -2970 0
0 0 0 683 296087 -2287 0
18 1 S102 669 296756 -1618 0
18 1 S102 731 297487 -887 0
18 1 S102 689 298176 -198 0
18 2 S102 816 298992 618 0
18 2 S102 867 299859 1485 0
18 2 S102 796 300655 2281 0
18 2 S102 704 301359 2985 0
18 2 S102 655 302014 3640 0
18 2 S102 688 302702 4328 0
18 2 S102 709 303411 5037 0
18 2 S102 743 304154 5780 0
18 2 S102 762 304916 6542 0
0 0 0 789 305705 -5733 0
0 0 0 706 306411 -5027 0
0 0 0 714 307125 -4313 0
0 0 0 736 307861 -3577 0
0 0 0 800 308661 -2777 0
0 0 0 709 309370 -2068 0
19 1 S106 667 310037 -1401 0
19 1 S106 634 310671 -767 0
19 1 S106 676 311347 -91 0
19 2 S106 1029 312376 938 0
19 2 S106 998 313374 1936 0
19 2 S106 1043 314417 2979 0
19 2 S106 1021 315438 4000 0
19 2 S106 948 316386 4948 0
19 2 S106 889 317275 5837 0
19 2 S106 858 318133 6695 0
0 0 0 797 318930 -10164 0
0 0 0 823 319753 -9341 0
0 0 0 837 320590 -8504 0
0 0 0 819 321409 -7685 0
0 0 0 751 322160 -6934 0
0 0 0 817 322977 -6117 0
0 0 0 827 323804 -5290 0
0 0 0 911 324715 -4379 0
0 0 0 952 325667 -3427 0
0 0 0 957 326624 -2470 0
20 1 S112 896 327520 -1574 0
20 1 S112 933 328453 -641 0
20 2 S112 898 329351 257 0
20 2 S112 867 330218 1124 0
20 2 S112 896 331114 2020 0
20 2 S112 944 332058 2964 0
20 2 S112 918 332976 3882 0
20 2 S112 881 333857 4763 0
20 2 S112 937 334794 5700 0
20 2 S112 941 335735 6641 0
0 0 0 944 336679 -8712 0
0 0 0 955 337634 -7757 0
0 0 0 960 338594 -6797 0
0 0 0 814 339408 -5983 0
0 0 0 798 340206 -5185 0
0 0 0 954 341160 -4231 0
0 0 0 1006 342166 -3225 0
0 0 0 945 343111 -2280 0
21 1 S106 958 344069 -1322 0
21 1 S106 951 345020 -371 0
21 2 S106 843 345863 472 0
21 2 S106 893 346756 1365 0
21 2 S106 995 347751 2360 0
21 2 S106 905 348656 3265 0
21 2 S106 957 349613 4222 0
21 2 S106 1045 350658 5267 0
21 2 S106 1097 351755 6364 0
0 0 0 1068 352823 -9594 0
0 0 0 1058 353881 -8536 0
0 0 0 813 354694 -7723 0
0 0 0 800 355494 -6923 0
0 0 0 763 356257 -6160 0
0 0 0 738 356995 -5422 0
0 0 0 968 357963 -4454 0
0 0 0 1096 359059 -3358 0
0 0 0 935 359994 -2423 0
22 1 S116 820 360814 -1603 0
22 1 S116 984 361798 -619 0
22 2 S116 975 362773 356 0
22 2 S116 967 363740 1323 0
22 2 S116 916 364656 2239 0
22 2 S116 777 365433 3016 0
22 2 S116 741 366174 3757 0
22 2 S116 716 366890 4473 0
22 2 S116 687 367577 5160 0
22 2 S116 693 368270 5853 0
22 2 S116 694 368964 6547 0
0 0 0 826 369790 -9504 0
0 0 0 988 370778 -8516 0
0 0 0 1000 371778 -7516 0
0 0 0 941 372719 -6575 0
0 0 0 890 373609 -5685 0
0 0 0 872 374481 -4813 0
0 0 0 750 375231 -4063 0
0 0 0 684 375915 -3379 0
0 0 0 678 376593 -2701 0
0 0 0 694 377287 -2007 0
23 1 S112 705 377992 -1302 0
23 1 S112 739 378731 -563 0
23 2 S112 795 379526 232 0
23 2 S112 879 380405 1111 0
23 2 S112 879 381284 1990 0
23 2 S112 876 382160 2866 0
23 2 S112 818 382978 3684 0
23 2 S112 760 383738 4444 0
23 2 S112 732 384470 5176 0
23 2 S112 748 385218 5924 0
23 2 S112 783 386001 6707 0
0 0 0 810 386811 -9161 0
0 0 0 793 387604 -8368 0
0 0 0 775 388379 -7593 0
0 0 0 846 389225 -6747 0
0 0 0 832 390057 -5915 0
0 0 0 752 390809 -5163 0
0 0 0 747 391556 -4416 0
0 0 0 742 392298 -3674 0
0 0 0 782 393080 -2892 0
0 0 0 686 393766 -2206 0
24 1 S106 762 394528 -1444 0
24 1 S106 752 395280 -692 0
24 2 S106 780 396060 88 0
24 2 S106 772 396832 860 0
24 2 S106 833 397665 1693 0
24 2 S106 893 398558 2586 0
24 2 S106 833 399391 3419 0
24 2 S106 869 400260 4288 0
24 2 S106 912 401172 5200 0
24 2 S106 887 402059 6087 0
24 2 S106 848 402907 6935 0
0 0 0 916 403823 -7467 0
0 0 0 945 404768 -6522 0
0 0 0 785 405553 -5737 0
0 0 0 750 406303 -4987 0
0 0 0 742 407045 -4245 0
0 0 0 765 407810 -3480 0
0 0 0 768 408578 -2712 0
25 1 S102 845 409423 -1867 0
25 1 S102 919 410342 -948 0
25 2 S102 959 411301 11 0
25 2 S102 844 412145 855 0
25 2 S102 891 413036 1746 0
25 2 S102 893 413929 2639 0
25 2 S102 735 414664 3374 0
25 2 S102 661 415325 4035 0
25 2 S102 629 415954 4664 0
25 2 S102 641 416595 5305 0
25 2 S102 625 417220 5930 0
25 2 S102 620 417840 6550 0
0 0 0 729 418569 -5652 0
0 0 0 1092 419661 -4560 0
0 0 0 941 420602 -3619 0
0 0 0 876 421478 -2743 0
26 1 S116 808 422286 -1935 0
26 1 S116 769 423055 -1166 0
26 1 S116 696 423751 -470 0
26 2 S116 728 424479 258 0
26 2 S116 755 425234 1013 0
26 2 S116 793 426027 1806 0
26 2 S116 818 426845 2624 0
26 2 S116 901 427746 3525 0
26 2 S116 850 428596 4375 0
26 2 S116 826 429422 5201 0
26 2 S116 834 430256 6035 0
26 2 S116 833 431089 6868 0
0 0 0 848 431937 -8879 0
0 0 0 852 432789 -8027 0
0 0 0 850 433639 -7177 0
0 0 0 812 434451 -6365 0
0 0 0 834 435285 -5531 0
0 0 0 927 436212 -4604 0
0 0 0 913 437125 -3691 0
0 0 0 822 437947 -2869 0
0 0 0 715 438662 -2154 0
27 1 S106 715 439377 -1439 0
27 1 S106 698 440075 -741 0
27 2 S106 770 440845 29 0
27 2 S106 805 441650 834 0
27 2 S106 981 442631 1815 0
27 2 S106 959 443590 2774 0
27 2 S106 923 444513 3697 0
27 2 S106 827 445340 4524 0
27 2 S106 893 446233 5417 0
27 2 S106 964 447197 6381 0
0 0 0 956 448153 -6125 0
0 0 0 922 449075 -5203 0
0 0 0 913 449988 -4290 0
0 0 0 847 450835 -3443 0
0 0 0 786 451621 -2657 0
28 1 S102 802 452423 -1855 0
28 1 S102 936 453359 -919 0
28 2 S102 927 454286 8 0
28 2 S102 781 455067 789 0
28 2 S102 865 455932 1654 0
28 2 S102 1000 456932 2654 0
28 2 S102 970 457902 3624 0
28 2 S102 954 458856 4578 0
28 2 S102 917 459773 5495 0
28 2 S102 776 460549 6271 0
28 2 S102 741 461290 7012 0
0 0 0 773 462063 -9739 0
0 0 0 881 462944 -8858 0
0 0 0 800 463744 -8058 0
0 0 0 875 464619 -7183 0
0 0 0 861 465480 -6322 0
0 0 0 816 466296 -5506 0
0 0 0 781 467077 -4725 0
0 0 0 966 468043 -3759 0
0 0 0 969 469012 -2790 0
29 1 S112 852 469864 -1938 0
29 1 S112 854 470718 -1084 0
29 1 S112 927 471645 -157 0
29 2 S112 830 472475 673 0
29 2 S112 715 473190 1388 0
29 2 S112 726 473916 2114 0
29 2 S112 777 474693 2891 0
29 2 S112 989 475682 3880 0
29 2 S112 954 476636 4834 0
29 2 S112 935 477571 5769 0
29 2 S112 935 478506 6704 0
0 0 0 979 479485 -6541 0
0 0 0 925 480410 -5616 0
0 0 0 866 481276 -4750 0
0 0 0 815 482091 -3935 0
0 0 0 710 482801 -3225 0
0 0 0 680 483481 -2545 0
30 1 S112 669 484150 -1876 0
30 1 S112 739 484889 -1137 0
30 1 S112 794 485683 -343 0
30 2 S112 970 486653 627 0
30 2 S112 988 487641 1615 0
30 2 S112 905 488546 2520 0
30 2 S112 900 489446 3420 0
30 2 S112 814 490260 4234 0
30 2 S112 726 490986 4960 0
30 2 S112 732 491718 5692 0
30 2 S112 788 492506 6480 0
0 0 0 799 493305 -9614 0
0 0 0 843 494148 -8771 0
0 0 0 965 495113 -7806 0
0 0 0 1012 496125 -6794 0
0 0 0 868 496993 -5926 0
0 0 0 798 497791 -5128 0
0 0 0 784 498575 -4344 0
0 0 0 757 499332 -3587 0
0 0 0 731 500063 -2856 0
31 1 S106 860 500923 -1996 0
31 1 S106 924 501847 -1072 0
31 1 S106 835 502682 -237 0
31 2 S106 844 503526 607 0
31 2 S106 941 504467 1548 0
31 2 S106 922 505389 2470 0
31 2 S106 879 506268 3349 0
31 2 S106 949 507217 4298 0
31 2 S106 951 508168 5249 0
31 2 S106 828 508996 6077 0
31 2 S106 893 509889 6970 0
0 0 0 913 510802 -8729 0
0 0 0 880 511682 -7849 0
0 0 0 1013 512695 -6836 0
0 0 0 926 513621 -5910 0
0 0 0 808 514429 -5102 0
0 0 0 836 515265 -4266 0
0 0 0 812 516077 -3454 0
0 0 0 757 516834 -2697 0
32 1 S102 1009 517843 -1688 0
32 1 S102 988 518831 -700 0
32 2 S102 837 519668 137 0
32 2 S102 884 520552 1021 0
32 2 S102 905 521457 1926 0
32 2 S102 759 522216 2685 0
32 2 S102 776 522992 3461 0
32 2 S102 758 523750 4219 0
32 2 S102 765 524515 4984 0
32 2 S102 700 525215 5684 0
32 2 S102 706 525921 6390 0
0 0 0 942 526863 -9777 0
0 0 0 1053 527916 -8724 0
0 0 0 875 528791 -7849 0
0 0 0 741 529532 -7108 0
0 0 0 675 530207 -6433 0
0 0 0 647 530854 -5786 0
0 0 0 699 531553 -5087 0
0 0 0 748 532301 -4339 0
0 0 0 687 532988 -3652 0
0 0 0 765 533753 -2887 0
0 0 0 789 534542 -2098 0
33 1 S112 769 535311 -1329 0
33 1 S112 714 536025 -615 0
33 2 S112 714 536739 99 0
33 2 S112 707 537446 806 0
33 2 S112 719 538165 1525 0
33 2 S112 717 538882 2242 0
33 2 S112 777 539659 3019 0
33 2 S112 808 540467 3827 0
33 2 S112 853 541320 4680 0
33 2 S112 825 542145 5505 0
33 2 S112 843 542988 6348 0
0 0 0 862 543850 -10794 0
0 0 0 838 544688 -9956 0
0 0 0 755 545443 -9201 0
0 0 0 781 546224 -8420 0
0 0 0 798 547022 -7622 0
0 0 0 756 547778 -6866 0
0 0 0 739 548517 -6127 0
0 0 0 749 549266 -5378 0
0 0 0 763 550029 -4615 0
0 0 0 838 550867 -3777 0
0 0 0 949 551816 -2828 0
34 1 S106 944 552760 -1884 0
34 1 S106 846 553606 -1038 0
34 1 S106 796 554402 -242 0
34 2 S106 739 555141 497 0
34 2 S106 698 555839 1195 0
34 2 S106 762 556601 1957 0
34 2 S106 880 557481 2837 0
34 2 S106 921 558402 3758 0
34 2 S106 904 559306 4662 0
34 2 S106 875 560181 5537 0
34 2 S106 794 560975 6331 0
0 0 0 726 561701 -8494 0
0 0 0 793 562494 -7701 0
0 0 0 1048 563542 -6653 0
0 0 0 799 564341 -5854 0
0 0 0 724 565065 -5130 0
0 0 0 758 565823 -4372 0
0 0 0 810 566633 -3562 0
0 0 0 764 567397 -2798 0
35 1 S102 855 568252 -1943 0
35 1 S102 827 569079 -1116 0
35 1 S102 723 569802 -393 0
35 2 S102 653 570455 260 0
35 2 S102 634 571089 894 0
35 2 S102 673 571762 1567 0
35 2 S102 727 572489 2294 0
35 2 S102 718 573207 3012 0
35 2 S102 694 573901 3706 0
35 2 S102 732 574633 4438 0
35 2 S102 722 575355 5160 0
35 2 S102 754 576109 5914 0
35 2 S102 731 576840 6645 0
0 0 0 740 577580 -5745 0
0 0 0 687 578267 -5058 0
0 0 0 678 578945 -4380 0
0 0 0 635 579580 -3745 0
0 0 0 647 580227 -3098 0
0 0 0 691 580918 -2407 0
36 1 S106 693 581611 -1714 0
36 1 S106 711 582322 -1003 0
36 1 S106 698 583020 -305 0
36 2 S106 657 583677 352 0
36 2 S106 661 584338 1013 0
36 2 S106 721 585059 1734 0
36 2 S106 774 585833 2508 0
36 2 S106 860 586693 3368 0
36 2 S106 855 587548 4223 0
36 2 S106 890 588438 5113 0
36 2 S106 904 589342 6017 0
36 2 S106 849 590191 6866 0
0 0 0 831 591022 -7273 0
0 0 0 849 591871 -6424 0
0 0 0 769 592640 -5655 0
0 0 0 780 593420 -4875 0
0 0 0 812 594232 -4063 0
0 0 0 834 595066 -3229 0
0 0 0 898 595964 -2331 0
37 1 S116 1015 596979 -1316 0
37 1 S116 945 597924 -371 0
37 2 S116 834 598758 463 0
37 2 S116 908 599666 1371 0
37 2 S116 954 600620 2325 0
37 2 S116 926 601546 3251 0
37 2 S116 842 602388 4093 0
37 2 S116 872 603260 4965 0
37 2 S116 949 604209 5914 0
37 2 S116 897 605106 6811 0
0 0 0 917 606023 -11371 0
0 0 0 915 606938 -10456 0
0 0 0 887 607825 -9569 0
0 0 0 855 608680 -8714 0
0 0 0 841 609521 -7873 0
0 0 0 795 610316 -7078 0
0 0 0 744 611060 -6334 0
0 0 0 814 611874 -5520 0
0 0 0 902 612776 -4618 0
0 0 0 847 613623 -3771 0
0 0 0 853 614476 -2918 0
0 0 0 904 615380 -2014 0
38 1 S102 888 616268 -1126 0
38 1 S102 826 617094 -300 0
38 2 S102 899 617993 599 0
38 2 S102 947 618940 1546 0
38 2 S102 899 619839 2445 0
38 2 S102 907 620746 3352 0
38 2 S102 906 621652 4258 0
38 2 S102 833 622485 5091 0
38 2 S102 820 623305 5911 0
38 2 S102 883 624188 6794 0
0 0 0 949 625137 -7724 0
0 0 0 858 625995 -6866 0
0 0 0 906 626901 -5960 0
0 0 0 867 627768 -5093 0
0 0 0 838 628606 -4255 0
0 0 0 988 629594 -3267 0
0 0 0 960 630554 -2307 0
39 1 S116 898 631452 -1409 0
39 1 S116 988 632440 -421 0
39 2 S116 1040 633480 619 0
39 2 S116 1020 634500 1639 0
39 2 S116 957 635457 2596 0
39 2 S116 979 636436 3575 0
39 2 S116 958 637394 4533 0
39 2 S116 887 638281 5420 0
39 2 S116 887 639168 6307 0
0 0 0 1002 640170 -7496 0
0 0 0 977 641147 -6519 0
0 0 0 1050 642197 -5469 0
0 0 0 1052 643249 -4417 0
0 0 0 862 644111 -3555 0
0 0 0 775 644886 -2780 0
0 0 0 727 645613 -2053 0
40 1 S112 694 646307 -1359 0
40 1 S112 706 647013 -653 0
40 2 S112 1029 648042 376 0
40 2 S112 890 648932 1266 0
40 2 S112 936 649868 2202 0
40 2 S112 864 650732 3066 0
40 2 S112 773 651505 3839 0
40 2 S112 783 652288 4622 0
40 2 S112 823 653111 5445 0
40 2 S112 857 653968 6302 0
0 0 0 779 654747 -187235 0
0 0 0 832 655579 -186403 0
0 0 0 867 656446 -185536 0
0 0 0 821 657267 -184715 0
0 0 0 765 658032 -183950 0
0 0 0 770 658802 -183180 0
0 0 0 733 659535 -182447 0
0 0 0 677 660212 -181770 0
0 0 0 620 660832 -181150 0
0 0 0 613 661445 -180537 0
0 0 0 606 662051 -179931 0
0 0 0 610 662661 -179321 0
0 0 0 715 663376 -178606 0
0 0 0 743 664119 -177863 0
0 0 0 813 664932 -177050 0
0 0 0 786 665718 -176264 0
0 0 0 759 666477 -175505 0
0 0 0 725 667202 -174780 0
0 0 0 691 667893 -174089 0
0 0 0 635 668528 -173454 0
0 0 0 623 669151 -172831 0
0 0 0 615 669766 -172216 0
0 0 0 620 670386 -171596 0
0 0 0 628 671014 -170968 0
0 0 0 645 671659 -170323 0
0 0 0 640 672299 -169683 0
0 0 0 672 672971 -169011 0
0 0 0 683 673654 -168328 0
0 0 0 688 674342 -167640 0
0 0 0 689 675031 -166951 0
0 0 0 733 675764 -166218 0
0 0 0 701 676465 -165517 0
0 0 0 729 677194 -164788 0
0 0 0 701 677895 -164087 0
0 0 0 772 678667 -163315 0
0 0 0 829 679496 -162486 0
0 0 0 922 680418 -161564 0
0 0 0 915 681333 -160649 0
0 0 0 876 682209 -159773 0
0 0 0 836 683045 -158937 0
0 0 0 791 683836 -158146 0
0 0 0 710 684546 -157436 0
0 0 0 653 685199 -156783 0
0 0 0 682 685881 -156101 0
0 0 0 692 686573 -155409 0
0 0 0 796 687369 -154613 0
0 0 0 969 688338 -153644 0
0 0 0 978 689316 -152666 0
0 0 0 953 690269 -151713 0
0 0 0 900 691169 -150813 0
0 0 0 857 692026 -149956 0
0 0 0 822 692848 -149134 0
0 0 0 814 693662 -148320 0
0 0 0 877 694539 -147443 0
0 0 0 758 695297 -146685 0
0 0 0 681 695978 -146004 0
0 0 0 691 696669 -145313 0
0 0 0 769 697438 -144544 0
0 0 0 853 698291 -143691 0
0 0 0 1005 699296 -142686 0
0 0 0 927 700223 -141759 0
0 0 0 862 701085 -140897 0
0 0 0 893 701978 -140004 0
0 0 0 893 702871 -139111 0
0 0 0 811 703682 -138300 0
0 0 0 820 704502 -137480 0
0 0 0 817 705319 -136663 0
0 0 0 777 706096 -135886 0
0 0 0 745 706841 -135141 0
0 0 0 796 707637 -134345 0
0 0 0 843 708480 -133502 0
0 0 0 894 709374 -132608 0
0 0 0 786 710160 -131822 0
0 0 0 775 710935 -131047 0
0 0 0 734 711669 -130313 0
0 0 0 768 712437 -129545 0
0 0 0 692 713129 -128853 0
0 0 0 763 713892 -128090 0
0 0 0 777 714669 -127313 0
0 0 0 814 715483 -126499 0
0 0 0 851 716334 -125648 0
0 0 0 834 717168 -124814 0
0 0 0 839 718007 -123975 0
0 0 0 820 718827 -123155 0
0 0 0 779 719606 -122376 0
0 0 0 763 720369 -121613 0
0 0 0 767 721136 -120846 0
0 0 0 762 721898 -120084 0
0 0 0 800 722698 -119284 0
0 0 0 860 723558 -118424 0
0 0 0 930 724488 -117494 0
0 0 0 907 725395 -116587 0
0 0 0 966 726361 -115621 0
0 0 0 929 727290 -114692 0
0 0 0 849 728139 -113843 0
0 0 0 877 729016 -112966 0
0 0 0 879 729895 -112087 0
0 0 0 820 730715 -111267 0
0 0 0 904 731619 -110363 0
0 0 0 914 732533 -109449 0
0 0 0 861 733394 -108588 0
0 0 0 880 734274 -107708 0
0 0 0 886 735160 -106822 0
0 0 0 720 735880 -106102 0
0 0 0 708 736588 -105394 0
0 0 0 638 737226 -104756 0
0 0 0 624 737850 -104132 0
0 0 0 671 738521 -103461 0
0 0 0 934 739455 -102527 0
0 0 0 762 740217 -101765 0
0 0 0 839 741056 -100926 0
0 0 0 872 741928 -100054 0
0 0 0 854 742782 -99200 0
0 0 0 808 743590 -98392 0
0 0 0 844 744434 -97548 0
0 0 0 871 745305 -96677 0
0 0 0 785 746090 -95892 0
0 0 0 793 746883 -95099 0
0 0 0 781 747664 -94318 0
0 0 0 732 748396 -93586 0
0 0 0 768 749164 -92818 0
0 0 0 758 749922 -92060 0
0 0 0 779 750701 -91281 0
0 0 0 691 751392 -90590 0
0 0 0 687 752079 -89903 0
0 0 0 807 752886 -89096 0
0 0 0 862 753748 -88234 0
0 0 0 938 754686 -87296 0
0 0 0 966 755652 -86330 0
0 0 0 954 756606 -85376 0
0 0 0 887 757493 -84489 0
0 0 0 853 758346 -83636 0
0 0 0 749 759095 -82887 0
0 0 0 666 759761 -82221 0
0 0 0 608 760369 -81613 0
0 0 0 604 760973 -81009 0
0 0 0 614 761587 -80395 0
0 0 0 615 762202 -79780 0
0 0 0 752 762954 -79028 0
0 0 0 785 763739 -78243 0
0 0 0 731 764470 -77512 0
0 0 0 908 765378 -76604 0
0 0 0 931 766309 -75673 0
0 0 0 889 767198 -74784 0
0 0 0 810 768008 -73974 0
0 0 0 776 768784 -73198 0
0 0 0 767 769551 -72431 0
0 0 0 852 770403 -71579 0
0 0 0 891 771294 -70688 0
0 0 0 882 772176 -69806 0
0 0 0 921 773097 -68885 0
0 0 0 964 774061 -67921 0
0 0 0 982 775043 -66939 0
0 0 0 918 775961 -66021 0
0 0 0 857 776818 -65164 0
0 0 0 863 777681 -64301 0
0 0 0 1018 778699 -63283 0
0 0 0 1002 779701 -62281 0
0 0 0 962 780663 -61319 0
0 0 0 1034 781697 -60285 0
0 0 0 1037 782734 -59248 0
0 0 0 961 783695 -58287 0
0 0 0 900 784595 -57387 0
0 0 0 916 785511 -56471 0
0 0 0 851 786362 -55620 0
0 0 0 794 787156 -54826 0
0 0 0 945 788101 -53881 0
0 0 0 967 789068 -52914 0
0 0 0 994 790062 -51920 0
0 0 0 1008 791070 -50912 0
0 0 0 1028 792098 -49884 0
0 0 0 1008 793106 -48876 0
0 0 0 908 794014 -47968 0
0 0 0 848 794862 -47120 0
0 0 0 878 795740 -46242 0
0 0 0 934 796674 -45308 0
0 0 0 961 797635 -44347 0
0 0 0 902 798537 -43445 0
0 0 0 930 799467 -42515 0
0 0 0 992 800459 -41523 0
0 0 0 997 801456 -40526 0
0 0 0 963 802419 -39563 0
0 0 0 910 803329 -38653 0
0 0 0 884 804213 -37769 0
0 0 0 869 805082 -36900 0
0 0 0 925 806007 -35975 0
0 0 0 992 806999 -34983 0
0 0 0 1009 808008 -33974 0
0 0 0 1017 809025 -32957 0
0 0 0 1047 810072 -31910 0
0 0 0 983 811055 -30927 0
0 0 0 831 811886 -30096 0
0 0 0 809 812695 -29287 0
0 0 0 812 813507 -28475 0
0 0 0 752 814259 -27723 0
0 0 0 725 814984 -26998 0
0 0 0 725 815709 -26273 0
0 0 0 963 816672 -25310 0
0 0 0 1124 817796 -24186 1
0 0 0 1024 818820 -23162 0
0 0 0 986 819806 -22176 0
0 0 0 931 820737 -21245 0
0 0 0 783 821520 -20462 0
0 0 0 705 822225 -19757 0
0 0 0 650 822875 -19107 0
0 0 0 642 823517 -18465 0
0 0 0 641 824158 -17824 0
0 0 0 635 824793 -17189 0
0 0 0 615 825408 -16574 0
0 0 0 683 826091 -15891 0
0 0 0 951 827042 -14940 0
0 0 0 861 827903 -14079 0
0 0 0 880 828783 -13199 0
0 0 0 886 829669 -12313 0
0 0 0 861 830530 -11452 0
0 0 0 724 831254 -10728 0
0 0 0 645 831899 -10083 0
0 0 0 640 832539 -9443 0
0 0 0 607 833146 -8836 0
0 0 0 592 833738 -8244 0
0 0 0 656 834394 -7588 0
0 0 0 894 835288 -6694 0
0 0 0 813 836101 -5881 0
0 0 0 788 836889 -5093 0
0 0 0 832 837721 -4261 0
0 0 0 806 838527 -3455 0
0 0 0 772 839299 -2683 0
41 1 S102 796 840095 -1887 0
41 1 S102 807 840902 -1080 0
41 1 S102 852 841754 -228 0
41 2 S102 868 842622 640 0
41 2 S102 829 843451 1469 0
41 2 S102 837 844288 2306 0
41 2 S102 829 845117 3135 0
41 2 S102 837 845954 3972 0
41 2 S102 863 846817 4835 0
41 2 S102 944 847761 5779 0
41 2 S102 912 848673 6691 0
0 0 0 852 849525 -5770 0
0 0 0 858 850383 -4912 0
0 0 0 802 851185 -4110 0
0 0 0 715 851900 -3395 0
0 0 0 675 852575 -2720 0
0 0 0 673 853248 -2047 0
42 1 S112 674 853922 -1373 0
42 1 S112 775 854697 -598 0
42 2 S112 840 855537 242 0
42 2 S112 867 856404 1109 0
42 2 S112 880 857284 1989 0
42 2 S112 875 858159 2864 0
42 2 S112 768 858927 3632 0
42 2 S112 729 859656 4361 0
42 2 S112 758 860414 5119 0
42 2 S112 780 861194 5899 0
42 2 S112 809 862003 6708 0
0 0 0 849 862852 -8192 0
0 0 0 903 863755 -7289 0
0 0 0 884 864639 -6405 0
0 0 0 772 865411 -5633 0
0 0 0 798 866209 -4835 0
0 0 0 753 866962 -4082 0
0 0 0 689 867651 -3393 0
0 0 0 649 868300 -2744 0
0 0 0 659 868959 -2085 0
43 1 S116 646 869605 -1439 0
43 1 S116 638 870243 -801 0
43 1 S116 629 870872 -172 0
43 2 S116 682 871554 510 0
43 2 S116 697 872251 1207 0
43 2 S116 668 872919 1875 0
43 2 S116 647 873566 2522 0
43 2 S116 631 874197 3153 0
43 2 S116 625 874822 3778 0
43 2 S116 670 875492 4448 0
43 2 S116 673 876165 5121 0
43 2 S116 734 876899 5855 0
43 2 S116 750 877649 6605 0
0 0 0 810 878459 -6694 0
0 0 0 870 879329 -5824 0
0 0 0 915 880244 -4909 0
0 0 0 931 881175 -3978 0
0 0 0 866 882041 -3112 0
0 0 0 875 882916 -2237 0
44 1 S102 867 883783 -1370 0
44 1 S102 802 884585 -568 0
44 2 S102 749 885334 181 0
44 2 S102 799 886133 980 0
44 2 S102 961 887094 1941 0
44 2 S102 917 888011 2858 0
44 2 S102 1015 889026 3873 0
44 2 S102 1061 890087 4934 0
44 2 S102 909 890996 5843 0
44 2 S102 922 891918 6765 0
0 0 0 953 892871 -7385 0
0 0 0 907 893778 -6478 0
0 0 0 861 894639 -5617 0
0 0 0 936 895575 -4681 0
0 0 0 974 896549 -3707 0
0 0 0 933 897482 -2774 0
45 1 S116 973 898455 -1801 0
45 1 S116 985 899440 -816 0
45 2 S116 905 900345 89 0
45 2 S116 897 901242 986 0
45 2 S116 941 902183 1927 0
45 2 S116 974 903157 2901 0
45 2 S116 1002 904159 3903 0
45 2 S116 1032 905191 4935 0
45 2 S116 1030 906221 5965 0
45 2 S116 936 907157 6901 0
0 0 0 994 908151 -10540 0
0 0 0 1038 909189 -9502 0
0 0 0 973 910162 -8529 0
0 0 0 973 911135 -7556 0
0 0 0 982 912117 -6574 0
0 0 0 884 913001 -5690 0
0 0 0 956 913957 -4734 0
0 0 0 1031 914988 -3703 0
0 0 0 935 915923 -2768 0
46 1 S102 1017 916940 -1751 0
46 1 S102 1062 918002 -689 0
46 2 S102 980 918982 291 0
46 2 S102 999 919981 1290 0
46 2 S102 978 920959 2268 0
46 2 S102 922 921881 3190 0
46 2 S102 985 922866 4175 0
46 2 S102 984 923850 5159 0
46 2 S102 909 924759 6068 0
0 0 0 1002 925761 -8248 0
0 0 0 961 926722 -7287 0
0 0 0 930 927652 -6357 0
0 0 0 930 928582 -5427 0
0 0 0 894 929476 -4533 0
0 0 0 789 930265 -3744 0
0 0 0 726 930991 -3018 0
0 0 0 847 931838 -2171 0
47 1 S112 1087 932925 -1084 0
47 1 S112 1062 933987 -22 0
47 2 S112 993 934980 971 0
47 2 S112 946 935926 1917 0
47 2 S112 959 936885 2876 0
47 2 S112 907 937792 3783 0
47 2 S112 874 938666 4657 0
47 2 S112 879 939545 5536 0
47 2 S112 905 940450 6441 0
0 0 0 937 941387 -13229 0
0 0 0 878 942265 -12351 0
0 0 0 920 943185 -11431 0
0 0 0 966 944151 -10465 0
0 0 0 964 945115 -9501 0
0 0 0 940 946055 -8561 0
0 0 0 910 946965 -7651 0
0 0 0 819 947784 -6832 0
0 0 0 718 948502 -6114 0
0 0 0 740 949242 -5374 0
0 0 0 770 950012 -4604 0
0 0 0 1074 951086 -3530 0
0 0 0 1015 952101 -2515 0
48 1 S116 1017 953118 -1498 0
48 1 S116 962 954080 -536 0
48 2 S116 886 954966 350 0
48 2 S116 905 955871 1255 0
48 2 S116 913 956784 2168 0
48 2 S116 881 957665 3049 0
48 2 S116 881 958546 3930 0
48 2 S116 932 959478 4862 0
48 2 S116 966 960444 5828 0
48 2 S116 940 961384 6768 0
0 0 0 967 962351 -6357 0
0 0 0 982 963333 -5375 0
0 0 0 897 964230 -4478 0
0 0 0 852 965082 -3626 0
0 0 0 840 965922 -2786 0
49 1 S112 800 966722 -1986 0
49 1 S112 900 967622 -1086 0
49 1 S112 972 968594 -114 0
49 2 S112 910 969504 796 0
49 2 S112 878 970382 1674 0
49 2 S112 938 971320 2612 0
49 2 S112 937 972257 3549 0
49 2 S112 851 973108 4400 0
49 2 S112 911 974019 5311 0
49 2 S112 907 974926 6218 0
0 0 0 834 975760 -11748 0
0 0 0 859 976619 -10889 0
0 0 0 871 977490 -10018 0
0 0 0 872 978362 -9146 0
0 0 0 845 979207 -8301 0
0 0 0 805 980012 -7496 0
0 0 0 711 980723 -6785 0
0 0 0 663 981386 -6122 0
0 0 0 696 982082 -5426 0
0 0 0 732 982814 -4694 0
0 0 0 812 983626 -3882 0
0 0 0 763 984389 -3119 0
0 0 0 761 985150 -2358 0
50 1 S106 778 985928 -1580 0
50 1 S106 781 986709 -799 0
50 1 S106 750 987459 -49 0
50 2 S106 752 988211 703 0
50 2 S106 783 988994 1486 0
50 2 S106 801 989795 2287 0
50 2 S106 750 990545 3037 0
50 2 S106 750 991295 3787 0
50 2 S106 730 992025 4517 0
50 2 S106 749 992774 5266 0
50 2 S106 793 993567 6059 0
50 2 S106 889 994456 6948 0
0 0 0 949 995405 -5100 0
0 0 0 925 996330 -4175 0
0 0 0 907 997237 -3268 0
0 0 0 862 998099 -2406 0
51 1 S112 799 998898 -1607 0
51 1 S112 749 999647 -858 0
51 1 S112 784 1000431 -74 0
51 2 S112 817 1001248 743 0
51 2 S112 907 1002155 1650 0
51 2 S112 896 1003051 2546 0
51 2 S112 917 1003968 3463 0
51 2 S112 880 1004848 4343 0
51 2 S112 780 1005628 5123 0
51 2 S112 816 1006444 5939 0
51 2 S112 931 1007375 6870 0
0 0 0 1007 1008382 -5386 0
0 0 0 975 1009357 -4411 0
0 0 0 905 1010262 -3506 0
0 0 0 941 1011203 -2565 0
52 1 S116 899 1012102 -1666 0
52 1 S116 874 1012976 -792 0
52 2 S116 908 1013884 116 0
52 2 S116 860 1014744 976 0
52 2 S116 795 1015539 1771 0
52 2 S116 863 1016402 2634 0
52 2 S116 1032 1017434 3666 0
52 2 S116 1102 1018536 4768 0
52 2 S116 973 1019509 5741 0
52 2 S116 939 1020448 6680 0
0 0 0 949 1021397 -8154 0
0 0 0 921 1022318 -7233 0
0 0 0 814 1023132 -6419 0
0 0 0 784 1023916 -5635 0
0 0 0 810 1024726 -4825 0
0 0 0 920 1025646 -3905 0
0 0 0 775 1026421 -3130 0
0 0 0 757 1027178 -2373 0
53 1 S106 749 1027927 -1624 0
53 1 S106 775 1028702 -849 0
53 1 S106 800 1029502 -49 0
53 2 S106 794 1030296 745 0
53 2 S106 831 1031127 1576 0
53 2 S106 789 1031916 2365 0
53 2 S106 695 1032611 3060 0
53 2 S106 647 1033258 3707 0
53 2 S106 625 1033883 4332 0
53 2 S106 630 1034513 4962 0
53 2 S106 655 1035168 5617 0
53 2 S106 853 1036021 6470 0
0 0 0 1068 1037089 -5808 0
0 0 0 1066 1038155 -4742 0
0 0 0 960 1039115 -3782 0
0 0 0 862 1039977 -2920 0
0 0 0 822 1040799 -2098 0
54 1 S102 788 1041587 -1310 0
54 1 S102 765 1042352 -545 0
54 2 S102 713 1043065 168 0
54 2 S102 687 1043752 855 0
54 2 S102 668 1044420 1523 0
54 2 S102 672 1045092 2195 0
54 2 S102 752 1045844 2947 0
54 2 S102 809 1046653 3756 0
54 2 S102 892 1047545 4648 0
54 2 S102 894 1048439 5542 0
54 2 S102 924 1049363 6466 0
0 0 0 877 1050240 -9981 0
0 0 0 817 1051057 -9164 0
0 0 0 787 1051844 -8377 0
0 0 0 765 1052609 -7612 0
0 0 0 755 1053364 -6857 0
0 0 0 791 1054155 -6066 0
0 0 0 779 1054934 -5287 0
0 0 0 734 1055668 -4553 0
0 0 0 775 1056443 -3778 0
0 0 0 802 1057245 -2976 0
0 0 0 849 1058094 -2127 0
55 1 S106 825 1058919 -1302 0
55 1 S106 822 1059741 -480 0
55 2 S106 871 1060612 391 0
55 2 S106 861 1061473 1252 0
55 2 S106 829 1062302 2081 0
55 2 S106 816 1063118 2897 0
55 2 S106 817 1063935 3714 0
55 2 S106 836 1064771 4550 0
55 2 S106 839 1065610 5389 0
55 2 S106 824 1066434 6213 0
0 0 0 834 1067268 -6133 0
0 0 0 850 1068118 -5283 0
0 0 0 866 1068984 -4417 0
0 0 0 860 1069844 -3557 0
0 0 0 861 1070705 -2696 0
56 1 S116 906 1071611 -1790 0
56 1 S116 850 1072461 -940 0
56 1 S116 878 1073339 -62 0
56 2 S116 879 1074218 817 0
56 2 S116 916 1075134 1733 0
56 2 S116 905 1076039 2638 0
56 2 S116 931 1076970 3569 0
56 2 S116 921 1077891 4490 0
56 2 S116 947 1078838 5437 0
56 2 S116 1006 1079844 6443 0
0 0 0 1001 1080845 -6565 0
0 0 0 926 1081771 -5639 0
0 0 0 933 1082704 -4706 0
0 0 0 813 1083517 -3893 0
0 0 0 837 1084354 -3056 0
0 0 0 918 1085272 -2138 0
57 1 S106 989 1086261 -1149 0
57 1 S106 899 1087160 -250 0
57 2 S106 928 1088088 678 0
57 2 S106 957 1089045 1635 0
57 2 S106 927 1089972 2562 0
57 2 S106 941 1090913 3503 0
57 2 S106 835 1091748 4338 0
57 2 S106 790 1092538 5128 0
57 2 S106 845 1093383 5973 0
57 2 S106 946 1094329 6919 0
0 0 0 925 1095254 -7408 0
0 0 0 986 1096240 -6422 0
0 0 0 977 1097217 -5445 0
0 0 0 893 1098110 -4552 0
0 0 0 905 1099015 -3647 0
0 0 0 878 1099893 -2769 0
58 1 S102 795 1100688 -1974 0
58 1 S102 826 1101514 -1148 0
58 1 S102 887 1102401 -261 0
58 2 S102 900 1103301 639 0
58 2 S102 923 1104224 1562 0
58 2 S102 962 1105186 2524 0
58 2 S102 908 1106094 3432 0
58 2 S102 927 1107021 4359 0
58 2 S102 922 1107943 5281 0
58 2 S102 864 1108807 6145 0
0 0 0 891 1109698 -6393 0
0 0 0 956 1110654 -5437 0
0 0 0 845 1111499 -4592 0
0 0 0 862 1112361 -3730 0
0 0 0 875 1113236 -2855 0
0 0 0 854 1114090 -2001 0
59 1 S112 919 1115009 -1082 0
59 1 S112 978 1115987 -104 0
59 2 S112 949 1116936 845 0
59 2 S112 889 1117825 1734 0
59 2 S112 937 1118762 2671 0
59 2 S112 956 1119718 3627 0
59 2 S112 902 1120620 4529 0
59 2 S112 880 1121500 5409 0
59 2 S112 928 1122428 6337 0
0 0 0 909 1123337 -7923 0
0 0 0 901 1124238 -7022 0
0 0 0 887 1125125 -6135 0
0 0 0 880 1126005 -5255 0
0 0 0 872 1126877 -4383 0
0 0 0 933 1127810 -3450 0
0 0 0 911 1128721 -2539 0
60 1 S102 831 1129552 -1708 0
60 1 S102 861 1130413 -847 0
60 2 S102 855 1131268 8 0
60 2 S102 819 1132087 827 0
60 2 S102 912 1132999 1739 0
60 2 S102 894 1133893 2633 0
60 2 S102 815 1134708 3448 0
60 2 S102 845 1135553 4293 0
60 2 S102 907 1136460 5200 0
60 2 S102 852 1137312 6052 0
60 2 S102 860 1138172 6912 0
0 0 0 932 1139104 -9248 0
0 0 0 925 1140029 -8323 0
0 0 0 854 1140883 -7469 0
0 0 0 872 1141755 -6597 0
0 0 0 832 1142587 -5765 0
0 0 0 742 1143329 -5023 0
0 0 0 747 1144076 -4276 0
0 0 0 757 1144833 -3519 0
0 0 0 823 1145656 -2696 0
61 1 S106 873 1146529 -1823 0
61 1 S106 1059 1147588 -764 0
61 2 S106 1040 1148628 276 0
61 2 S106 852 1149480 1128 0
61 2 S106 846 1150326 1974 0
61 2 S106 847 1151173 2821 0
61 2 S106 917 1152090 3738 0
61 2 S106 870 1152960 4608 0
61 2 S106 839 1153799 5447 0
61 2 S106 860 1154659 6307 0
0 0 0 827 1155486 -5996 0
0 0 0 881 1156367 -5115 0
0 0 0 875 1157242 -4240 0
0 0 0 762 1158004 -3478 0
0 0 0 726 1158730 -2752 0
0 0 0 706 1159436 -2046 0
62 1 S112 698 1160134 -1348 0
62 1 S112 666 1160800 -682 0
62 2 S112 802 1161602 120 0
62 2 S112 901 1162503 1021 0
62 2 S112 861 1163364 1882 0
62 2 S112 850 1164214 2732 0
62 2 S112 937 1165151 3669 0
62 2 S112 887 1166038 4556 0
62 2 S112 843 1166881 5399 0
62 2 S112 768 1167649 6167 0
62 2 S112 812 1168461 6979 0
0 0 0 794 1169255 -10082 0
0 0 0 781 1170036 -9301 0
0 0 0 757 1170793 -8544 0
0 0 0 750 1171543 -7794 0
0 0 0 728 1172271 -7066 0
0 0 0 665 1172936 -6401 0
0 0 0 700 1173636 -5701 0
0 0 0 702 1174338 -4999 0
0 0 0 699 1175037 -4300 0
0 0 0 706 1175743 -3594 0
0 0 0 771 1176514 -2823 0
0 0 0 735 1177249 -2088 0
63 1 S102 746 1177995 -1342 0
63 1 S102 699 1178694 -643 0
63 2 S102 742 1179436 99 0
63 2 S102 756 1180192 855 0
63 2 S102 773 1180965 1628 0
63 2 S102 773 1181738 2401 0
63 2 S102 831 1182569 3232 0
63 2 S102 861 1183430 4093 0
63 2 S102 819 1184249 4912 0
63 2 S102 806 1185055 5718 0
63 2 S102 822 1185877 6540 0
0 0 0 832 1186709 -7682 0
0 0 0 855 1187564 -6827 0
0 0 0 881 1188445 -5946 0
0 0 0 924 1189369 -5022 0
0 0 0 864 1190233 -4158 0
0 0 0 871 1191104 -3287 0
0 0 0 892 1191996 -2395 0
64 1 S112 854 1192850 -1541 0
64 1 S112 858 1193708 -683 0
64 2 S112 916 1194624 233 0
64 2 S112 826 1195450 1059 0
64 2 S112 853 1196303 1912 0
64 2 S112 885 1197188 2797 0
64 2 S112 895 1198083 3692 0
64 2 S112 928 1199011 4620 0
64 2 S112 1012 1200023 5632 0
64 2 S112 1017 1201040 6649 0
0 0 0 1030 1202070 -7059 0
0 0 0 996 1203066 -6063 0
0 0 0 893 1203959 -5170 0
0 0 0 815 1204774 -4355 0
0 0 0 816 1205590 -3539 0
0 0 0 849 1206439 -2690 0
65 1 S106 778 1207217 -1912 0
65 1 S106 861 1208078 -1051 0
65 1 S106 985 1209063 -66 0
65 2 S106 941 1210004 875 0
65 2 S106 888 1210892 1763 0
65 2 S106 926 1211818 2689 0
65 2 S106 978 1212796 3667 0
65 2 S106 919 1213715 4586 0
65 2 S106 1015 1214730 5601 0
65 2 S106 1026 1215756 6627 0
0 0 0 926 1216682 -5594 0
0 0 0 985 1217667 -4609 0
0 0 0 941 1218608 -3668 0
0 0 0 865 1219473 -2803 0
66 1 S116 1033 1220506 -1770 0
66 1 S116 1044 1221550 -726 0
66 2 S116 944 1222494 218 0
66 2 S116 1036 1223530 1254 0
66 2 S116 1004 1224534 2258 0
66 2 S116 910 1225444 3168 0
66 2 S116 876 1226320 4044 0
66 2 S116 898 1227218 4942 0
66 2 S116 897 1228115 5839 0
66 2 S116 955 1229070 6794 0
0 0 0 1003 1230073 -10455 0
0 0 0 971 1231044 -9484 0
0 0 0 895 1231939 -8589 0
0 0 0 911 1232850 -7678 0
0 0 0 868 1233718 -6810 0
0 0 0 862 1234580 -5948 0
0 0 0 878 1235458 -5070 0
0 0 0 927 1236385 -4143 0
0 0 0 808 1237193 -3335 0
0 0 0 855 1238048 -2480 0
67 1 S102 930 1238978 -1550 0
67 1 S102 909 1239887 -641 0
67 2 S102 878 1240765 237 0
67 2 S102 935 1241700 1172 0
67 2 S102 963 1242663 2135 0
67 2 S102 819 1243482 2954 0
67 2 S102 799 1244281 3753 0
67 2 S102 816 1245097 4569 0
67 2 S102 852 1245949 5421 0
67 2 S102 842 1246791 6263 0
0 0 0 934 1247725 -5900 0
0 0 0 1051 1248776 -4849 0
0 0 0 975 1249751 -3874 0
0 0 0 997 1250748 -2877 0
68 1 S106 974 1251722 -1903 0
68 1 S106 880 1252602 -1023 0
68 1 S106 864 1253466 -159 0
68 2 S106 891 1254357 732 0
68 2 S106 902 1255259 1634 0
68 2 S106 889 1256148 2523 0
68 2 S106 942 1257090 3465 0
68 2 S106 978 1258068 4443 0
68 2 S106 910 1258978 5353 0
68 2 S106 954 1259932 6307 0
0 0 0 986 1260918 -9767 0
0 0 0 930 1261848 -8837 0
0 0 0 891 1262739 -7946 0
0 0 0 895 1263634 -7051 0
0 0 0 834 1264468 -6217 0
0 0 0 903 1265371 -5314 0
0 0 0 981 1266352 -4333 0
0 0 0 1056 1267408 -3277 0
0 0 0 943 1268351 -2334 0
69 1 S102 918 1269269 -1416 0
69 1 S102 890 1270159 -526 0
69 2 S102 856 1271015 330 0
69 2 S102 975 1271990 1305 0
69 2 S102 999 1272989 2304 0
69 2 S102 918 1273907 3222 0
69 2 S102 946 1274853 4168 0
69 2 S102 908 1275761 5076 0
69 2 S102 887 1276648 5963 0
69 2 S102 902 1277550 6865 0
0 0 0 930 1278480 -7805 0
0 0 0 850 1279330 -6955 0
0 0 0 895 1280225 -6060 0
0 0 0 882 1281107 -5178 0
0 0 0 813 1281920 -4365 0
0 0 0 850 1282770 -3515 0
0 0 0 887 1283657 -2628 0
70 1 S112 923 1284580 -1705 0
70 1 S112 924 1285504 -781 0
70 2 S112 933 1286437 152 0
70 2 S112 905 1287342 1057 0
70 2 S112 838 1288180 1895 0
70 2 S112 859 1289039 2754 0
70 2 S112 856 1289895 3610 0
70 2 S112 793 1290688 4403 0
70 2 S112 842 1291530 5245 0
70 2 S112 906 1292436 6151 0
0 0 0 994 1293430 -11555 0
0 0 0 932 1294362 -10623 0
0 0 0 900 1295262 -9723 0
0 0 0 872 1296134 -8851 0
0 0 0 741 1296875 -8110 0
0 0 0 738 1297613 -7372 0
0 0 0 709 1298322 -6663 0
0 0 0 739 1299061 -5924 0
0 0 0 710 1299771 -5214 0
0 0 0 848 1300619 -4366 0
0 0 0 896 1301515 -3470 0
0 0 0 897 1302412 -2573 0
71 1 S116 840 1303252 -1733 0
71 1 S116 834 1304086 -899 0
71 1 S116 792 1304878 -107 0
71 2 S116 730 1305608 623 0
71 2 S116 758 1306366 1381 0
71 2 S116 770 1307136 2151 0
71 2 S116 828 1307964 2979 0
71 2 S116 805 1308769 3784 0
71 2 S116 851 1309620 4635 0
71 2 S116 928 1310548 5563 0
71 2 S116 949 1311497 6512 0
0 0 0 884 1312381 -8437 0
0 0 0 863 1313244 -7574 0
0 0 0 853 1314097 -6721 0
0 0 0 751 1314848 -5970 0
0 0 0 703 1315551 -5267 0
0 0 0 734 1316285 -4533 0
0 0 0 743 1317028 -3790 0
0 0 0 808 1317836 -2982 0
0 0 0 795 1318631 -2187 0
72 1 S102 814 1319445 -1373 0
72 1 S102 815 1320260 -558 0
72 2 S102 768 1321028 210 0
72 2 S102 750 1321778 960 0
72 2 S102 798 1322576 1758 0
72 2 S102 740 1323316 2498 0
72 2 S102 692 1324008 3190 0
72 2 S102 641 1324649 3831 0
72 2 S102 643 1325292 4474 0
72 2 S102 749 1326041 5223 0
72 2 S102 765 1326806 5988 0
72 2 S102 852 1327658 6840 0
0 0 0 853 1328511 -5271 0
0 0 0 918 1329429 -4353 0
0 0 0 924 1330353 -3429 0
0 0 0 834 1331187 -2595 0
73 1 S116 752 1331939 -1843 0
73 1 S116 701 1332640 -1142 0
73 1 S116 716 1333356 -426 0
73 2 S116 721 1334077 295 0
73 2 S116 687 1334764 982 0
73 2 S116 696 1335460 1678 0
73 2 S116 818 1336278 2496 0
73 2 S116 764 1337042 3260 0
73 2 S116 715 1337757 3975 0
73 2 S116 719 1338476 4694 0
73 2 S116 746 1339222 5440 0
73 2 S116 794 1340016 6234 0
0 0 0 803 1340819 -10188 0
0 0 0 865 1341684 -9323 0
0 0 0 760 1342444 -8563 0
0 0 0 699 1343143 -7864 0
0 0 0 780 1343923 -7084 0
0 0 0 740 1344663 -6344 0
0 0 0 733 1345396 -5611 0
0 0 0 675 1346071 -4936 0
0 0 0 666 1346737 -4270 0
0 0 0 637 1347374 -3633 0
0 0 0 684 1348058 -2949 0
0 0 0 669 1348727 -2280 0
74 1 S106 665 1349392 -1615 0
74 1 S106 640 1350032 -975 0
74 1 S106 619 1350651 -356 0
74 2 S106 666 1351317 310 0
74 2 S106 780 1352097 1090 0
74 2 S106 797 1352894 1887 0
74 2 S106 855 1353749 2742 0
74 2 S106 798 1354547 3540 0
74 2 S106 723 1355270 4263 0
74 2 S106 732 1356002 4995 0
74 2 S106 756 1356758 5751 0
74 2 S106 780 1357538 6531 0
0 0 0 828 1358366 -5970 0
0 0 0 844 1359210 -5126 0
0 0 0 859 1360069 -4267 0
0 0 0 853 1360922 -3414 0
0 0 0 922 1361844 -2492 0
75 1 S112 954 1362798 -1538 0
75 1 S112 926 1363724 -612 0
75 2 S112 884 1364608 272 0
75 2 S112 878 1365486 1150 0
75 2 S112 860 1366346 2010 0
75 2 S112 814 1367160 2824 0
75 2 S112 875 1368035 3699 0
75 2 S112 988 1369023 4687 0
75 2 S112 972 1369995 5659 0
75 2 S112 956 1370951 6615 0
0 0 0 950 1371901 -6925 0
0 0 0 888 1372789 -6037 0
0 0 0 828 1373617 -5209 0
0 0 0 847 1374464 -4362 0
0 0 0 873 1375337 -3489 0
0 0 0 802 1376139 -2687 0
76 1 S116 848 1376987 -1839 0
76 1 S116 901 1377888 -938 0
76 1 S116 898 1378786 -40 0
76 2 S116 860 1379646 820 0
76 2 S116 873 1380519 1693 0
76 2 S116 905 1381424 2598 0
76 2 S116 928 1382352 3526 0
76 2 S116 905 1383257 4431 0
76 2 S116 928 1384185 5359 0
76 2 S116 969 1385154 6328 0
0 0 0 945 1386099 -7647 0
0 0 0 868 1386967 -6779 0
0 0 0 883 1387850 -5896 0
0 0 0 944 1388794 -4952 0
0 0 0 861 1389655 -4091 0
0 0 0 839 1390494 -3252 0
0 0 0 815 1391309 -2437 0
77 1 S106 793 1392102 -1644 0
77 1 S106 843 1392945 -801 0
77 2 S106 855 1393800 54 0
77 2 S106 836 1394636 890 0
77 2 S106 840 1395476 1730 0
77 2 S106 812 1396288 2542 0
77 2 S106 737 1397025 3279 0
77 2 S106 698 1397723 3977 0
77 2 S106 717 1398440 4694 0
77 2 S106 674 1399114 5368 0
77 2 S106 680 1399794 6048 0
77 2 S106 657 1400451 6705 0
0 0 0 694 1401145 -7638 0
0 0 0 722 1401867 -6916 0
0 0 0 760 1402627 -6156 0
0 0 0 773 1403400 -5383 0
0 0 0 813 1404213 -4570 0
0 0 0 870 1405083 -3700 0
0 0 0 869 1405952 -2831 0
0 0 0 823 1406775 -2008 0
78 1 S112 834 1407609 -1174 0
78 1 S112 802 1408411 -372 0
78 2 S112 784 1409195 412 0
78 2 S112 878 1410073 1290 0
78 2 S112 963 1411036 2253 0
78 2 S112 972 1412008 3225 0
78 2 S112 928 1412936 4153 0
78 2 S112 949 1413885 5102 0
78 2 S112 961 1414846 6063 0
78 2 S112 909 1415755 6972 0
0 0 0 894 1416649 -10486 0
0 0 0 896 1417545 -9590 0
0 0 0 891 1418436 -8699 0
0 0 0 866 1419302 -7833 0
0 0 0 928 1420230 -6905 0
0 0 0 936 1421166 -5969 0
0 0 0 777 1421943 -5192 0
0 0 0 683 1422626 -4509 0
0 0 0 672 1423298 -3837 0
0 0 0 776 1424074 -3061 0
79 1 S102 1062 1425136 -1999 0
79 1 S102 1067 1426203 -932 0
79 2 S102 1020 1427223 88 0
79 2 S102 956 1428179 1044 0
79 2 S102 904 1429083 1948 0
79 2 S102 877 1429960 2825 0
79 2 S102 915 1430875 3740 0
79 2 S102 932 1431807 4672 0
79 2 S102 955 1432762 5627 0
79 2 S102 995 1433757 6622 0
0 0 0 997 1434754 -7418 0
0 0 0 999 1435753 -6419 0
0 0 0 935 1436688 -5484 0
0 0 0 895 1437583 -4589 0
0 0 0 899 1438482 -3690 0
0 0 0 906 1439388 -2784 0
80 1 S116 890 1440278 -1894 0
80 1 S116 949 1441227 -945 0
80 2 S116 945 1442172 0 0
80 2 S116 861 1443033 861 0
80 2 S116 815 1443848 1676 0
80 2 S116 868 1444716 2544 0
80 2 S116 934 1445650 3478 0
80 2 S116 925 1446575 4403 0
80 2 S116 874 1447449 5277 0
80 2 S116 875 1448324 6152 0
80 2 S116 839 1449163 6991 0
