T_0107
BeatCount Mean SD BeatCountNoOutliers MeanNoOutliers SDNoOutliers
2121 720,75954738331 54,7900683448105 2089 722,673049305888 49,0688025857221

Trial TrialStatus Trialtype IBI AbsPosition RelPosition Outlier
0 0 0 760 999 -16208 0
0 0 0 737 1736 -15471 0
0 0 0 706 2442 -14765 0
0 0 0 660 3102 -14105 0
0 0 0 629 3731 -13476 0
0 0 0 616 4347 -12860 0
0 0 0 635 4982 -12225 0
0 0 0 663 5645 -11562 0
0 0 0 644 6289 -10918 0
0 0 0 628 6917 -10290 0
0 0 0 621 7538 -9669 0
0 0 0 675 8213 -8994 0
0 0 0 780 8993 -8214 0
0 0 0 790 9783 -7424 0
0 0 0 779 10562 -6645 0
0 0 0 777 11339 -5868 0
0 0 0 800 12139 -5068 0
0 0 0 788 12927 -4280 0
0 0 0 751 13678 -3529 0
0 0 0 746 14424 -2783 0
0 0 0 755 15179 -2028 0
1 1 S112 757 15936 -1271 0
1 1 S112 746 16682 -525 0
1 2 S112 726 17408 201 0
1 2 S112 725 18133 926 0
1 2 S112 711 18844 1637 0
1 2 S112 730 19574 2367 0
1 2 S112 719 20293 3086 0
1 2 S112 689 20982 3775 0
1 2 S112 693 21675 4468 0
1 2 S112 732 22407 5200 0
1 2 S112 782 23189 5982 0
1 2 S112 804 23993 6786 0
0 0 0 762 24755 -11169 0
0 0 0 744 25499 -10425 0
0 0 0 765 26264 -9660 0
0 0 0 762 27026 -8898 0
0 0 0 711 27737 -8187 0
0 0 0 701 28438 -7486 0
0 0 0 719 29157 -6767 0
0 0 0 724 29881 -6043 0
0 0 0 708 30589 -5335 0
0 0 0 715 31304 -4620 0
0 0 0 721 32025 -3899 0
0 0 0 735 32760 -3164 0
0 0 0 701 33461 -2463 0
2 1 S102 731 34192 -1732 0
2 1 S102 771 34963 -961 0
2 1 S102 805 35768 -156 0
2 2 S102 792 36560 636 0
2 2 S102 759 37319 1395 0
2 2 S102 778 38097 2173 0
2 2 S102 772 38869 2945 0
2 2 S102 776 39645 3721 0
2 2 S102 769 40414 4490 0
2 2 S102 755 41169 5245 0
2 2 S102 772 41941 6017 0
2 2 S102 768 42709 6785 0
0 0 0 778 43487 -8983 0
0 0 0 757 44244 -8226 0
0 0 0 746 44990 -7480 0
0 0 0 768 45758 -6712 0
0 0 0 765 46523 -5947 0
0 0 0 763 47286 -5184 0
0 0 0 742 48028 -4442 0
0 0 0 767 48795 -3675 0
0 0 0 775 49570 -2900 0
0 0 0 781 50351 -2119 0
3 1 S116 748 51099 -1371 0
3 1 S116 771 51870 -600 0
3 2 S116 776 52646 176 0
3 2 S116 773 53419 949 0
3 2 S116 754 54173 1703 0
3 2 S116 749 54922 2452 0
3 2 S116 765 55687 3217 0
3 2 S116 755 56442 3972 0
3 2 S116 728 57170 4700 0
3 2 S116 744 57914 5444 0
3 2 S116 759 58673 6203 0
3 2 S116 764 59437 6967 0
0 0 0 745 60182 -12082 0
0 0 0 775 60957 -11307 0
0 0 0 788 61745 -10519 0
0 0 0 753 62498 -9766 0
0 0 0 768 63266 -8998 0
0 0 0 754 64020 -8244 0
0 0 0 738 64758 -7506 0
0 0 0 694 65452 -6812 0
0 0 0 708 66160 -6104 0
0 0 0 736 66896 -5368 0
0 0 0 749 67645 -4619 0
0 0 0 691 68336 -3928 0
0 0 0 709 69045 -3219 0
0 0 0 691 69736 -2528 0
4 1 S106 658 70394 -1870 0
4 1 S106 630 71024 -1240 0
4 1 S106 609 71633 -631 0
4 2 S106 632 72265 1 0
4 2 S106 674 72939 675 0
4 2 S106 709 73648 1384 0
4 2 S106 749 74397 2133 0
4 2 S106 724 75121 2857 0
4 2 S106 686 75807 3543 0
4 2 S106 723 76530 4266 0
4 2 S106 715 77245 4981 0
4 2 S106 727 77972 5708 0
4 2 S106 675 78647 6383 0
0 0 0 687 79334 -8050 0
0 0 0 706 80040 -7344 0
0 0 0 729 80769 -6615 0
0 0 0 743 81512 -5872 0
0 0 0 694 82206 -5178 0
0 0 0 737 82943 -4441 0
0 0 0 754 83697 -3687 0
0 0 0 709 84406 -2978 0
0 0 0 687 85093 -2291 0
5 1 S116 708 85801 -1583 0
5 1 S116 720 86521 -863 0
5 1 S116 711 87232 -152 0
5 2 S116 698 87930 546 0
5 2 S116 753 88683 1299 0
5 2 S116 796 89479 2095 0
5 2 S116 756 90235 2851 0
5 2 S116 848 91083 3699 0
5 2 S116 859 91942 4558 0
5 2 S116 826 92768 5384 0
5 2 S116 800 93568 6184 0
5 2 S116 736 94304 6920 0
0 0 0 761 95065 -9693 0
0 0 0 759 95824 -8934 0
0 0 0 760 96584 -8174 0
0 0 0 750 97334 -7424 0
0 0 0 781 98115 -6643 0
0 0 0 701 98816 -5942 0
0 0 0 681 99497 -5261 0
0 0 0 656 100153 -4605 0
0 0 0 710 100863 -3895 0
0 0 0 739 101602 -3156 0
0 0 0 759 102361 -2397 0
6 1 S106 722 103083 -1675 0
6 1 S106 703 103786 -972 0
6 1 S106 734 104520 -238 0
6 2 S106 738 105258 500 0
6 2 S106 751 106009 1251 0
6 2 S106 778 106787 2029 0
6 2 S106 787 107574 2816 0
6 2 S106 803 108377 3619 0
6 2 S106 825 109202 4444 0
6 2 S106 744 109946 5188 0
6 2 S106 751 110697 5939 0
6 2 S106 763 111460 6702 0
0 0 0 741 112201 -9914 0
0 0 0 734 112935 -9180 0
0 0 0 734 113669 -8446 0
0 0 0 710 114379 -7736 0
0 0 0 701 115080 -7035 0
0 0 0 658 115738 -6377 0
0 0 0 669 116407 -5708 0
0 0 0 696 117103 -5012 0
0 0 0 714 117817 -4298 0
0 0 0 683 118500 -3615 0
0 0 0 687 119187 -2928 0
0 0 0 677 119864 -2251 0
7 1 S102 709 120573 -1542 0
7 1 S102 749 121322 -793 0
7 1 S102 753 122075 -40 0
7 2 S102 770 122845 730 0
7 2 S102 705 123550 1435 0
7 2 S102 737 124287 2172 0
7 2 S102 737 125024 2909 0
7 2 S102 747 125771 3656 0
7 2 S102 734 126505 4390 0
7 2 S102 706 127211 5096 0
7 2 S102 701 127912 5797 0
7 2 S102 710 128622 6507 0
0 0 0 728 129350 -8200 0
0 0 0 742 130092 -7458 0
0 0 0 747 130839 -6711 0
0 0 0 704 131543 -6007 0
0 0 0 726 132269 -5281 0
0 0 0 730 132999 -4551 0
0 0 0 742 133741 -3809 0
0 0 0 702 134443 -3107 0
0 0 0 729 135172 -2378 0
8 1 S112 756 135928 -1622 0
8 1 S112 782 136710 -840 0
8 1 S112 801 137511 -39 0
8 2 S112 738 138249 699 0
8 2 S112 790 139039 1489 0
8 2 S112 810 139849 2299 0
8 2 S112 798 140647 3097 0
8 2 S112 798 141445 3895 0
8 2 S112 809 142254 4704 0
8 2 S112 812 143066 5516 0
8 2 S112 813 143879 6329 0
0 0 0 751 144630 -8388 0
0 0 0 755 145385 -7633 0
0 0 0 762 146147 -6871 0
0 0 0 759 146906 -6112 0
0 0 0 726 147632 -5386 0
0 0 0 722 148354 -4664 0
0 0 0 729 149083 -3935 0
0 0 0 730 149813 -3205 0
0 0 0 693 150506 -2512 0
9 1 S116 723 151229 -1789 0
9 1 S116 743 151972 -1046 0
9 1 S116 775 152747 -271 0
9 2 S116 728 153475 457 0
9 2 S116 776 154251 1233 0
9 2 S116 786 155037 2019 0
9 2 S116 791 155828 2810 0
9 2 S116 762 156590 3572 0
9 2 S116 776 157366 4348 0
9 2 S116 772 158138 5120 0
9 2 S116 749 158887 5869 0
9 2 S116 733 159620 6602 0
0 0 0 756 160376 -11955 0
0 0 0 760 161136 -11195 0
0 0 0 748 161884 -10447 0
0 0 0 722 162606 -9725 0
0 0 0 746 163352 -8979 0
0 0 0 745 164097 -8234 0
0 0 0 738 164835 -7496 0
0 0 0 703 165538 -6793 0
0 0 0 733 166271 -6060 0
0 0 0 746 167017 -5314 0
0 0 0 749 167766 -4565 0
0 0 0 714 168480 -3851 0
0 0 0 715 169195 -3136 0
0 0 0 717 169912 -2419 0
10 1 S102 737 170649 -1682 0
10 1 S102 678 171327 -1004 0
10 1 S102 692 172019 -312 0
10 2 S102 703 172722 391 0
10 2 S102 732 173454 1123 0
10 2 S102 765 174219 1888 0
10 2 S102 733 174952 2621 0
10 2 S102 787 175739 3408 0
10 2 S102 797 176536 4205 0
10 2 S102 776 177312 4981 0
10 2 S102 762 178074 5743 0
10 2 S102 772 178846 6515 0
0 0 0 771 179617 -11746 0
0 0 0 764 180381 -10982 0
0 0 0 725 181106 -10257 0
0 0 0 751 181857 -9506 0
0 0 0 752 182609 -8754 0
0 0 0 756 183365 -7998 0
0 0 0 724 184089 -7274 0
0 0 0 727 184816 -6547 0
0 0 0 724 185540 -5823 0
0 0 0 755 186295 -5068 0
0 0 0 702 186997 -4366 0
0 0 0 739 187736 -3627 0
0 0 0 715 188451 -2912 0
0 0 0 674 189125 -2238 0
11 1 S112 632 189757 -1606 0
11 1 S112 609 190366 -997 0
11 1 S112 631 190997 -366 0
11 2 S112 666 191663 300 0
11 2 S112 718 192381 1018 0
11 2 S112 720 193101 1738 0
11 2 S112 781 193882 2519 0
11 2 S112 819 194701 3338 0
11 2 S112 823 195524 4161 0
11 2 S112 780 196304 4941 0
11 2 S112 754 197058 5695 0
11 2 S112 761 197819 6456 0
0 0 0 761 198580 -7555 0
0 0 0 719 199299 -6836 0
0 0 0 730 200029 -6106 0
0 0 0 753 200782 -5353 0
0 0 0 774 201556 -4579 0
0 0 0 716 202272 -3863 0
0 0 0 739 203011 -3124 0
0 0 0 755 203766 -2369 0
12 1 S116 737 204503 -1632 0
12 1 S116 699 205202 -933 0
12 1 S116 735 205937 -198 0
12 2 S116 755 206692 557 0
12 2 S116 776 207468 1333 0
12 2 S116 744 208212 2077 0
12 2 S116 833 209045 2910 0
12 2 S116 810 209855 3720 0
12 2 S116 801 210656 4521 0
12 2 S116 782 211438 5303 0
12 2 S116 793 212231 6096 0
12 2 S116 783 213014 6879 0
0 0 0 762 213776 -11324 0
0 0 0 732 214508 -10592 0
0 0 0 762 215270 -9830 0
0 0 0 781 216051 -9049 0
0 0 0 748 216799 -8301 0
0 0 0 697 217496 -7604 0
0 0 0 707 218203 -6897 0
0 0 0 728 218931 -6169 0
0 0 0 728 219659 -5441 0
0 0 0 704 220363 -4737 0
0 0 0 733 221096 -4004 0
0 0 0 772 221868 -3232 0
0 0 0 786 222654 -2446 0
13 1 S112 773 223427 -1673 0
13 1 S112 778 224205 -895 0
13 1 S112 770 224975 -125 0
13 2 S112 772 225747 647 0
13 2 S112 746 226493 1393 0
13 2 S112 770 227263 2163 0
13 2 S112 776 228039 2939 0
13 2 S112 784 228823 3723 0
13 2 S112 737 229560 4460 0
13 2 S112 754 230314 5214 0
13 2 S112 786 231100 6000 0
13 2 S112 779 231879 6779 0
0 0 0 760 232639 -11543 0
0 0 0 774 233413 -10769 0
0 0 0 776 234189 -9993 0
0 0 0 751 234940 -9242 0
0 0 0 741 235681 -8501 0
0 0 0 715 236396 -7786 0
0 0 0 695 237091 -7091 0
0 0 0 637 237728 -6454 0
0 0 0 625 238353 -5829 0
0 0 0 642 238995 -5187 0
0 0 0 669 239664 -4518 0
0 0 0 702 240366 -3816 0
0 0 0 675 241041 -3141 0
0 0 0 672 241713 -2469 0
14 1 S106 684 242397 -1785 0
14 1 S106 693 243090 -1092 0
14 1 S106 685 243775 -407 0
14 2 S106 656 244431 249 0
14 2 S106 676 245107 925 0
14 2 S106 709 245816 1634 0
14 2 S106 720 246536 2354 0
14 2 S106 735 247271 3089 0
14 2 S106 696 247967 3785 0
14 2 S106 754 248721 4539 0
14 2 S106 782 249503 5321 0
14 2 S106 825 250328 6146 0
14 2 S106 787 251115 6933 0
0 0 0 782 251897 -11118 0
0 0 0 803 252700 -10315 0
0 0 0 797 253497 -9518 0
0 0 0 783 254280 -8735 0
0 0 0 724 255004 -8011 0
0 0 0 747 255751 -7264 0
0 0 0 789 256540 -6475 0
0 0 0 758 257298 -5717 0
0 0 0 714 258012 -5003 0
0 0 0 745 258757 -4258 0
0 0 0 754 259511 -3504 0
0 0 0 731 260242 -2773 0
0 0 0 688 260930 -2085 0
15 1 S116 719 261649 -1366 0
15 1 S116 772 262421 -594 0
15 2 S116 809 263230 215 0
15 2 S116 756 263986 971 0
15 2 S116 821 264807 1792 0
15 2 S116 814 265621 2606 0
15 2 S116 765 266386 3371 0
15 2 S116 803 267189 4174 0
15 2 S116 813 268002 4987 0
15 2 S116 811 268813 5798 0
15 2 S116 750 269563 6548 0
0 0 0 751 270314 -9396 0
0 0 0 775 271089 -8621 0
0 0 0 754 271843 -7867 0
0 0 0 697 272540 -7170 0
0 0 0 736 273276 -6434 0
0 0 0 734 274010 -5700 0
0 0 0 740 274750 -4960 0
0 0 0 667 275417 -4293 0
0 0 0 702 276119 -3591 0
0 0 0 750 276869 -2841 0
16 1 S116 852 277721 -1989 0
16 1 S116 815 278536 -1174 0
16 1 S116 760 279296 -414 0
16 2 S116 797 280093 383 0
16 2 S116 805 280898 1188 0
16 2 S116 815 281713 2003 0
16 2 S116 755 282468 2758 0
16 2 S116 743 283211 3501 0
16 2 S116 749 283960 4250 0
16 2 S116 774 284734 5024 0
16 2 S116 755 285489 5779 0
16 2 S116 694 286183 6473 0
0 0 0 764 286947 -10601 0
0 0 0 794 287741 -9807 0
0 0 0 775 288516 -9032 0
0 0 0 744 289260 -8288 0
0 0 0 788 290048 -7500 0
0 0 0 799 290847 -6701 0
0 0 0 795 291642 -5906 0
0 0 0 747 292389 -5159 0
0 0 0 755 293144 -4404 0
0 0 0 743 293887 -3661 0
0 0 0 713 294600 -2948 0
0 0 0 719 295319 -2229 0
17 1 S106 727 296046 -1502 0
17 1 S106 729 296775 -773 0
17 1 S106 728 297503 -45 0
17 2 S106 718 298221 673 0
17 2 S106 739 298960 1412 0
17 2 S106 745 299705 2157 0
17 2 S106 737 300442 2894 0
17 2 S106 746 301188 3640 0
17 2 S106 781 301969 4421 0
17 2 S106 792 302761 5213 0
17 2 S106 801 303562 6014 0
17 2 S106 756 304318 6770 0
0 0 0 789 305107 -11357 0
0 0 0 779 305886 -10578 0
0 0 0 774 306660 -9804 0
0 0 0 731 307391 -9073 0
0 0 0 747 308138 -8326 0
0 0 0 754 308892 -7572 0
0 0 0 731 309623 -6841 0
0 0 0 695 310318 -6146 0
0 0 0 716 311034 -5430 0
0 0 0 744 311778 -4686 0
0 0 0 771 312549 -3915 0
0 0 0 758 313307 -3157 0
0 0 0 773 314080 -2384 0
18 1 S102 775 314855 -1609 0
18 1 S102 794 315649 -815 0
18 1 S102 777 316426 -38 0
18 2 S102 797 317223 759 0
18 2 S102 796 318019 1555 0
18 2 S102 797 318816 2352 0
18 2 S102 730 319546 3082 0
18 2 S102 727 320273 3809 0
18 2 S102 747 321020 4556 0
18 2 S102 786 321806 5342 0
18 2 S102 769 322575 6111 0
18 2 S102 751 323326 6862 0
0 0 0 764 324090 -5769 0
0 0 0 786 324876 -4983 0
0 0 0 728 325604 -4255 0
0 0 0 693 326297 -3562 0
0 0 0 681 326978 -2881 0
0 0 0 663 327641 -2218 0
19 1 S106 619 328260 -1599 0
19 1 S106 609 328869 -990 0
19 1 S106 599 329468 -391 0
19 2 S106 616 330084 225 0
19 2 S106 652 330736 877 0
19 2 S106 687 331423 1564 0
19 2 S106 708 332131 2272 0
19 2 S106 674 332805 2946 0
19 2 S106 701 333506 3647 0
19 2 S106 725 334231 4372 0
19 2 S106 756 334987 5128 0
19 2 S106 748 335735 5876 0
19 2 S106 728 336463 6604 0
0 0 0 746 337209 -12345 0
0 0 0 747 337956 -11598 0
0 0 0 747 338703 -10851 0
0 0 0 729 339432 -10122 0
0 0 0 726 340158 -9396 0
0 0 0 751 340909 -8645 0
0 0 0 742 341651 -7903 0
0 0 0 729 342380 -7174 0
0 0 0 729 343109 -6445 0
0 0 0 751 343860 -5694 0
0 0 0 750 344610 -4944 0
0 0 0 720 345330 -4224 0
0 0 0 741 346071 -3483 0
0 0 0 759 346830 -2724 0
20 1 S112 777 347607 -1947 0
20 1 S112 745 348352 -1202 0
20 1 S112 750 349102 -452 0
20 2 S112 777 349879 325 0
20 2 S112 800 350679 1125 0
20 2 S112 780 351459 1905 0
20 2 S112 771 352230 2676 0
20 2 S112 805 353035 3481 0
20 2 S112 831 353866 4312 0
20 2 S112 823 354689 5135 0
20 2 S112 790 355479 5925 0
20 2 S112 812 356291 6737 0
0 0 0 790 357081 -10196 0
0 0 0 766 357847 -9430 0
0 0 0 778 358625 -8652 0
0 0 0 804 359429 -7848 0
0 0 0 805 360234 -7043 0
0 0 0 738 360972 -6305 0
0 0 0 789 361761 -5516 0
0 0 0 790 362551 -4726 0
0 0 0 774 363325 -3952 0
0 0 0 726 364051 -3226 0
0 0 0 771 364822 -2455 0
21 1 S106 789 365611 -1666 0
21 1 S106 790 366401 -876 0
21 1 S106 752 367153 -124 0
21 2 S106 786 367939 662 0
21 2 S106 808 368747 1470 0
21 2 S106 810 369557 2280 0
21 2 S106 793 370350 3073 0
21 2 S106 808 371158 3881 0
21 2 S106 814 371972 4695 0
21 2 S106 806 372778 5501 0
21 2 S106 753 373531 6254 0
21 2 S106 772 374303 7026 0
0 0 0 774 375077 -11497 0
0 0 0 781 375858 -10716 0
0 0 0 751 376609 -9965 0
0 0 0 788 377397 -9177 0
0 0 0 769 378166 -8408 0
0 0 0 740 378906 -7668 0
0 0 0 694 379600 -6974 0
0 0 0 713 380313 -6261 0
0 0 0 724 381037 -5537 0
0 0 0 745 381782 -4792 0
0 0 0 704 382486 -4088 0
0 0 0 717 383203 -3371 0
0 0 0 736 383939 -2635 0
22 1 S116 749 384688 -1886 0
22 1 S116 754 385442 -1132 0
22 1 S116 693 386135 -439 0
22 2 S116 648 386783 209 0
22 2 S116 630 387413 839 0
22 2 S116 666 388079 1505 0
22 2 S116 804 388883 2309 0
22 2 S116 816 389699 3125 0
22 2 S116 840 390539 3965 0
22 2 S116 816 391355 4781 0
22 2 S116 822 392177 5603 0
22 2 S116 839 393016 6442 0
0 0 0 825 393841 -9892 0
0 0 0 784 394625 -9108 0
0 0 0 738 395363 -8370 0
0 0 0 772 396135 -7598 0
0 0 0 776 396911 -6822 0
0 0 0 759 397670 -6063 0
0 0 0 723 398393 -5340 0
0 0 0 765 399158 -4575 0
0 0 0 762 399920 -3813 0
0 0 0 736 400656 -3077 0
0 0 0 709 401365 -2368 0
23 1 S112 713 402078 -1655 0
23 1 S112 760 402838 -895 0
23 1 S112 774 403612 -121 0
23 2 S112 765 404377 644 0
23 2 S112 787 405164 1431 0
23 2 S112 823 405987 2254 0
23 2 S112 756 406743 3010 0
23 2 S112 798 407541 3808 0
23 2 S112 828 408369 4636 0
23 2 S112 810 409179 5446 0
23 2 S112 793 409972 6239 0
0 0 0 794 410766 -10241 0
0 0 0 783 411549 -9458 0
0 0 0 763 412312 -8695 0
0 0 0 748 413060 -7947 0
0 0 0 776 413836 -7171 0
0 0 0 777 414613 -6394 0
0 0 0 768 415381 -5626 0
0 0 0 733 416114 -4893 0
0 0 0 758 416872 -4135 0
0 0 0 784 417656 -3351 0
0 0 0 790 418446 -2561 0
24 1 S106 769 419215 -1792 0
24 1 S106 800 420015 -992 0
24 1 S106 824 420839 -168 0
24 2 S106 824 421663 656 0
24 2 S106 809 422472 1465 0
24 2 S106 788 423260 2253 0
24 2 S106 833 424093 3086 0
24 2 S106 820 424913 3906 0
24 2 S106 790 425703 4696 0
24 2 S106 783 426486 5479 0
24 2 S106 786 427272 6265 0
0 0 0 798 428070 -8239 0
0 0 0 778 428848 -7461 0
0 0 0 785 429633 -6676 0
0 0 0 779 430412 -5897 0
0 0 0 791 431203 -5106 0
0 0 0 746 431949 -4360 0
0 0 0 739 432688 -3621 0
0 0 0 771 433459 -2850 0
0 0 0 801 434260 -2049 0
25 1 S102 814 435074 -1235 0
25 1 S102 769 435843 -466 0
25 2 S102 793 436636 327 0
25 2 S102 796 437432 1123 0
25 2 S102 799 438231 1922 0
25 2 S102 754 438985 2676 0
25 2 S102 784 439769 3460 0
25 2 S102 769 440538 4229 0
25 2 S102 728 441266 4957 0
25 2 S102 746 442012 5703 0
25 2 S102 761 442773 6464 0
0 0 0 787 443560 -5846 0
0 0 0 745 444305 -5101 0
0 0 0 763 445068 -4338 0
0 0 0 773 445841 -3565 0
0 0 0 766 446607 -2799 0
0 0 0 766 447373 -2033 0
26 1 S116 806 448179 -1227 0
26 1 S116 819 448998 -408 0
26 2 S116 791 449789 383 0
26 2 S116 758 450547 1141 0
26 2 S116 767 451314 1908 0
26 2 S116 793 452107 2701 0
26 2 S116 731 452838 3432 0
26 2 S116 752 453590 4184 0
26 2 S116 785 454375 4969 0
26 2 S116 827 455202 5796 0
26 2 S116 769 455971 6565 0
0 0 0 767 456738 -8401 0
0 0 0 785 457523 -7616 0
0 0 0 771 458294 -6845 0
0 0 0 733 459027 -6112 0
0 0 0 779 459806 -5333 0
0 0 0 778 460584 -4555 0
0 0 0 712 461296 -3843 0
0 0 0 676 461972 -3167 0
0 0 0 661 462633 -2506 0
27 1 S106 633 463266 -1873 0
27 1 S106 615 463881 -1258 0
27 1 S106 627 464508 -631 0
27 2 S106 674 465182 43 0
27 2 S106 641 465823 684 0
27 2 S106 663 466486 1347 0
27 2 S106 707 467193 2054 0
27 2 S106 701 467894 2755 0
27 2 S106 648 468542 3403 0
27 2 S106 653 469195 4056 0
27 2 S106 669 469864 4725 0
27 2 S106 687 470551 5412 0
27 2 S106 732 471283 6144 0
27 2 S106 695 471978 6839 0
0 0 0 668 472646 -8027 0
0 0 0 705 473351 -7322 0
0 0 0 722 474073 -6600 0
0 0 0 753 474826 -5847 0
0 0 0 770 475596 -5077 0
0 0 0 817 476413 -4260 0
0 0 0 828 477241 -3432 0
0 0 0 817 478058 -2615 0
28 1 S102 763 478821 -1852 0
28 1 S102 812 479633 -1040 0
28 1 S102 802 480435 -238 0
28 2 S102 797 481232 559 0
28 2 S102 764 481996 1323 0
28 2 S102 790 482786 2113 0
28 2 S102 792 483578 2905 0
28 2 S102 801 484379 3706 0
28 2 S102 760 485139 4466 0
28 2 S102 769 485908 5235 0
28 2 S102 781 486689 6016 0
28 2 S102 805 487494 6821 0
0 0 0 775 488269 -10972 0
0 0 0 771 489040 -10201 0
0 0 0 772 489812 -9429 0
0 0 0 773 490585 -8656 0
0 0 0 701 491286 -7955 0
0 0 0 705 491991 -7250 0
0 0 0 707 492698 -6543 0
0 0 0 727 493425 -5816 0
0 0 0 699 494124 -5117 0
0 0 0 718 494842 -4399 0
0 0 0 771 495613 -3628 0
0 0 0 813 496426 -2815 0
0 0 0 789 497215 -2026 0
29 1 S112 732 497947 -1294 0
29 1 S112 760 498707 -534 0
29 2 S112 768 499475 234 0
29 2 S112 792 500267 1026 0
29 2 S112 785 501052 1811 0
29 2 S112 731 501783 2542 0
29 2 S112 726 502509 3268 0
29 2 S112 757 503266 4025 0
29 2 S112 799 504065 4824 0
29 2 S112 801 504866 5625 0
29 2 S112 749 505615 6374 0
0 0 0 786 506401 -9435 0
0 0 0 790 507191 -8645 0
0 0 0 779 507970 -7866 0
0 0 0 741 508711 -7125 0
0 0 0 750 509461 -6375 0
0 0 0 783 510244 -5592 0
0 0 0 807 511051 -4785 0
0 0 0 774 511825 -4011 0
0 0 0 745 512570 -3266 0
0 0 0 772 513342 -2494 0
30 1 S112 789 514131 -1705 0
30 1 S112 780 514911 -925 0
30 1 S112 752 515663 -173 0
30 2 S112 793 516456 620 0
30 2 S112 798 517254 1418 0
30 2 S112 802 518056 2220 0
30 2 S112 741 518797 2961 0
30 2 S112 793 519590 3754 0
30 2 S112 813 520403 4567 0
30 2 S112 803 521206 5370 0
30 2 S112 767 521973 6137 0
30 2 S112 812 522785 6949 0
0 0 0 821 523606 -9339 0
0 0 0 805 524411 -8534 0
0 0 0 765 525176 -7769 0
0 0 0 816 525992 -6953 0
0 0 0 788 526780 -6165 0
0 0 0 782 527562 -5383 0
0 0 0 741 528303 -4642 0
0 0 0 775 529078 -3867 0
0 0 0 779 529857 -3088 0
0 0 0 762 530619 -2326 0
31 1 S106 716 531335 -1610 0
31 1 S106 758 532093 -852 0
31 1 S106 785 532878 -67 0
31 2 S106 807 533685 740 0
31 2 S106 790 534475 1530 0
31 2 S106 751 535226 2281 0
31 2 S106 782 536008 3063 0
31 2 S106 815 536823 3878 0
31 2 S106 789 537612 4667 0
31 2 S106 757 538369 5424 0
31 2 S106 764 539133 6188 0
31 2 S106 775 539908 6963 0
0 0 0 762 540670 -9301 0
0 0 0 732 541402 -8569 0
0 0 0 754 542156 -7815 0
0 0 0 760 542916 -7055 0
0 0 0 773 543689 -6282 0
0 0 0 720 544409 -5562 0
0 0 0 740 545149 -4822 0
0 0 0 757 545906 -4065 0
0 0 0 770 546676 -3295 0
0 0 0 708 547384 -2587 0
32 1 S102 806 548190 -1781 0
32 1 S102 821 549011 -960 0
32 1 S102 792 549803 -168 0
32 2 S102 758 550561 590 0
32 2 S102 713 551274 1303 0
32 2 S102 789 552063 2092 0
32 2 S102 792 552855 2884 0
32 2 S102 817 553672 3701 0
32 2 S102 797 554469 4498 0
32 2 S102 795 555264 5293 0
32 2 S102 805 556069 6098 0
32 2 S102 808 556877 6906 0
0 0 0 815 557692 -9935 0
0 0 0 786 558478 -9149 0
0 0 0 778 559256 -8371 0
0 0 0 769 560025 -7602 0
0 0 0 730 560755 -6872 0
0 0 0 707 561462 -6165 0
0 0 0 723 562185 -5442 0
0 0 0 779 562964 -4663 0
0 0 0 776 563740 -3887 0
0 0 0 731 564471 -3156 0
0 0 0 758 565229 -2398 0
33 1 S112 763 565992 -1635 0
33 1 S112 755 566747 -880 0
33 1 S112 714 567461 -166 0
33 2 S112 716 568177 550 0
33 2 S112 728 568905 1278 0
33 2 S112 735 569640 2013 0
33 2 S112 712 570352 2725 0
33 2 S112 748 571100 3473 0
33 2 S112 788 571888 4261 0
33 2 S112 794 572682 5055 0
33 2 S112 773 573455 5828 0
33 2 S112 788 574243 6616 0
0 0 0 777 575020 -11788 0
0 0 0 777 575797 -11011 0
0 0 0 715 576512 -10296 0
0 0 0 728 577240 -9568 0
0 0 0 726 577966 -8842 0
0 0 0 700 578666 -8142 0
0 0 0 674 579340 -7468 0
0 0 0 659 579999 -6809 0
0 0 0 644 580643 -6165 0
0 0 0 657 581300 -5508 0
0 0 0 645 581945 -4863 0
0 0 0 680 582625 -4183 0
0 0 0 725 583350 -3458 0
0 0 0 738 584088 -2720 0
0 0 0 679 584767 -2041 0
34 1 S106 682 585449 -1359 0
34 1 S106 676 586125 -683 0
34 1 S106 662 586787 -21 0
34 2 S106 627 587414 606 0
34 2 S106 621 588035 1227 0
34 2 S106 641 588676 1868 0
34 2 S106 690 589366 2558 0
34 2 S106 733 590099 3291 0
34 2 S106 749 590848 4040 0
34 2 S106 690 591538 4730 0
34 2 S106 741 592279 5471 0
34 2 S106 766 593045 6237 0
34 2 S106 781 593826 7018 0
0 0 0 746 594572 -8002 0
0 0 0 766 595338 -7236 0
0 0 0 777 596115 -6459 0
0 0 0 772 596887 -5687 0
0 0 0 712 597599 -4975 0
0 0 0 695 598294 -4280 0
0 0 0 693 598987 -3587 0
0 0 0 699 599686 -2888 0
0 0 0 669 600355 -2219 0
35 1 S102 632 600987 -1587 0
35 1 S102 603 601590 -984 0
35 1 S102 598 602188 -386 0
35 2 S102 598 602786 212 0
35 2 S102 621 603407 833 0
35 2 S102 650 604057 1483 0
35 2 S102 680 604737 2163 0
35 2 S102 674 605411 2837 0
35 2 S102 668 606079 3505 0
35 2 S102 663 606742 4168 0
35 2 S102 654 607396 4822 0
35 2 S102 652 608048 5474 0
35 2 S102 642 608690 6116 0
35 2 S102 640 609330 6756 0
0 0 0 663 609993 -6357 0
0 0 0 705 610698 -5652 0
0 0 0 739 611437 -4913 0
0 0 0 754 612191 -4159 0
0 0 0 754 612945 -3405 0
0 0 0 730 613675 -2675 0
36 1 S106 756 614431 -1919 0
36 1 S106 746 615177 -1173 0
36 1 S106 753 615930 -420 0
36 2 S106 752 616682 332 0
36 2 S106 740 617422 1072 0
36 2 S106 765 618187 1837 0
36 2 S106 758 618945 2595 0
36 2 S106 770 619715 3365 0
36 2 S106 773 620488 4138 0
36 2 S106 752 621240 4890 0
36 2 S106 752 621992 5642 0
36 2 S106 745 622737 6387 0
0 0 0 737 623474 -10019 0
0 0 0 724 624198 -9295 0
0 0 0 731 624929 -8564 0
0 0 0 732 625661 -7832 0
0 0 0 751 626412 -7081 0
0 0 0 725 627137 -6356 0
0 0 0 730 627867 -5626 0
0 0 0 729 628596 -4897 0
0 0 0 727 629323 -4170 0
0 0 0 695 630018 -3475 0
0 0 0 706 630724 -2769 0
0 0 0 702 631426 -2067 0
37 1 S116 693 632119 -1374 0
37 1 S116 672 632791 -702 0
37 1 S116 673 633464 -29 0
37 2 S116 685 634149 656 0
37 2 S116 722 634871 1378 0
37 2 S116 712 635583 2090 0
37 2 S116 727 636310 2817 0
37 2 S116 755 637065 3572 0
37 2 S116 776 637841 4348 0
37 2 S116 749 638590 5097 0
37 2 S116 718 639308 5815 0
37 2 S116 728 640036 6543 0
0 0 0 728 640764 -10998 0
0 0 0 710 641474 -10288 0
0 0 0 682 642156 -9606 0
0 0 0 704 642860 -8902 0
0 0 0 711 643571 -8191 0
0 0 0 720 644291 -7471 0
0 0 0 688 644979 -6783 0
0 0 0 726 645705 -6057 0
0 0 0 721 646426 -5336 0
0 0 0 745 647171 -4591 0
0 0 0 722 647893 -3869 0
0 0 0 723 648616 -3146 0
0 0 0 731 649347 -2415 0
38 1 S102 743 650090 -1672 0
38 1 S102 715 650805 -957 0
38 1 S102 733 651538 -224 0
38 2 S102 751 652289 527 0
38 2 S102 772 653061 1299 0
38 2 S102 761 653822 2060 0
38 2 S102 732 654554 2792 0
38 2 S102 758 655312 3550 0
38 2 S102 771 656083 4321 0
38 2 S102 775 656858 5096 0
38 2 S102 750 657608 5846 0
38 2 S102 750 658358 6596 0
0 0 0 742 659100 -9572 0
0 0 0 723 659823 -8849 0
0 0 0 716 660539 -8133 0
0 0 0 718 661257 -7415 0
0 0 0 730 661987 -6685 0
0 0 0 719 662706 -5966 0
0 0 0 712 663418 -5254 0
0 0 0 676 664094 -4578 0
0 0 0 694 664788 -3884 0
0 0 0 696 665484 -3188 0
0 0 0 697 666181 -2491 0
39 1 S116 652 666833 -1839 0
39 1 S116 663 667496 -1176 0
39 1 S116 681 668177 -495 0
39 2 S116 710 668887 215 0
39 2 S116 731 669618 946 0
39 2 S116 741 670359 1687 0
39 2 S116 802 671161 2489 0
39 2 S116 782 671943 3271 0
39 2 S116 773 672716 4044 0
39 2 S116 736 673452 4780 0
39 2 S116 752 674204 5532 0
39 2 S116 730 674934 6262 0
39 2 S116 714 675648 6976 0
0 0 0 686 676334 -7905 0
0 0 0 1383 677717 -6522 1
0 0 0 685 678402 -5837 0
0 0 0 662 679064 -5175 0
0 0 0 666 679730 -4509 0
0 0 0 663 680393 -3846 0
0 0 0 645 681038 -3201 0
0 0 0 611 681649 -2590 0
40 1 S112 591 682240 -1999 0
40 1 S112 587 682827 -1412 0
40 1 S112 611 683438 -801 0
40 1 S112 646 684084 -155 0
40 2 S112 686 684770 531 0
40 2 S112 674 685444 1205 0
40 2 S112 700 686144 1905 0
40 2 S112 741 686885 2646 0
40 2 S112 760 687645 3406 0
40 2 S112 678 688323 4084 0
40 2 S112 688 689011 4772 0
40 2 S112 684 689695 5456 0
40 2 S112 684 690379 6140 0
40 2 S112 655 691034 6795 0
0 0 0 629 691663 -188284 0
0 0 0 643 692306 -187641 0
0 0 0 640 692946 -187001 0
0 0 0 664 693610 -186337 0
0 0 0 672 694282 -185665 0
0 0 0 714 694996 -184951 0
0 0 0 759 695755 -184192 0
0 0 0 755 696510 -183437 0
0 0 0 724 697234 -182713 0
0 0 0 740 697974 -181973 0
0 0 0 736 698710 -181237 0
0 0 0 703 699413 -180534 0
0 0 0 671 700084 -179863 0
0 0 0 666 700750 -179197 0
0 0 0 649 701399 -178548 0
0 0 0 616 702015 -177932 0
0 0 0 608 702623 -177324 0
0 0 0 607 703230 -176717 0
0 0 0 618 703848 -176099 0
0 0 0 593 704441 -175506 0
0 0 0 573 705014 -174933 1
0 0 0 570 705584 -174363 1
0 0 0 563 706147 -173800 1
0 0 0 584 706731 -173216 0
0 0 0 624 707355 -172592 0
0 0 0 651 708006 -171941 0
0 0 0 664 708670 -171277 0
0 0 0 671 709341 -170606 0
0 0 0 669 710010 -169937 0
0 0 0 729 710739 -169208 0
0 0 0 768 711507 -168440 0
0 0 0 759 712266 -167681 0
0 0 0 754 713020 -166927 0
0 0 0 739 713759 -166188 0
0 0 0 761 714520 -165427 0
0 0 0 759 715279 -164668 0
0 0 0 774 716053 -163894 0
0 0 0 762 716815 -163132 0
0 0 0 744 717559 -162388 0
0 0 0 753 718312 -161635 0
0 0 0 768 719080 -160867 0
0 0 0 759 719839 -160108 0
0 0 0 761 720600 -159347 0
0 0 0 792 721392 -158555 0
0 0 0 785 722177 -157770 0
0 0 0 778 722955 -156992 0
0 0 0 776 723731 -156216 0
0 0 0 771 724502 -155445 0
0 0 0 757 725259 -154688 0
0 0 0 747 726006 -153941 0
0 0 0 716 726722 -153225 0
0 0 0 708 727430 -152517 0
0 0 0 712 728142 -151805 0
0 0 0 717 728859 -151088 0
0 0 0 719 729578 -150369 0
0 0 0 689 730267 -149680 0
0 0 0 692 730959 -148988 0
0 0 0 623 731582 -148365 0
0 0 0 593 732175 -147772 0
0 0 0 597 732772 -147175 0
0 0 0 582 733354 -146593 0
0 0 0 572 733926 -146021 1
0 0 0 557 734483 -145464 1
0 0 0 550 735033 -144914 1
0 0 0 543 735576 -144371 1
0 0 0 538 736114 -143833 1
0 0 0 539 736653 -143294 1
0 0 0 538 737191 -142756 1
0 0 0 535 737726 -142221 1
0 0 0 536 738262 -141685 1
0 0 0 534 738796 -141151 1
0 0 0 531 739327 -140620 1
0 0 0 526 739853 -140094 1
0 0 0 527 740380 -139567 1
0 0 0 554 740934 -139013 1
0 0 0 618 741552 -138395 0
0 0 0 699 742251 -137696 0
0 0 0 715 742966 -136981 0
0 0 0 747 743713 -136234 0
0 0 0 752 744465 -135482 0
0 0 0 750 745215 -134732 0
0 0 0 736 745951 -133996 0
0 0 0 730 746681 -133266 0
0 0 0 717 747398 -132549 0
0 0 0 721 748119 -131828 0
0 0 0 705 748824 -131123 0
0 0 0 679 749503 -130444 0
0 0 0 703 750206 -129741 0
0 0 0 713 750919 -129028 0
0 0 0 744 751663 -128284 0
0 0 0 767 752430 -127517 0
0 0 0 760 753190 -126757 0
0 0 0 741 753931 -126016 0
0 0 0 752 754683 -125264 0
0 0 0 784 755467 -124480 0
0 0 0 780 756247 -123700 0
0 0 0 730 756977 -122970 0
0 0 0 695 757672 -122275 0
0 0 0 684 758356 -121591 0
0 0 0 685 759041 -120906 0
0 0 0 689 759730 -120217 0
0 0 0 698 760428 -119519 0
0 0 0 689 761117 -118830 0
0 0 0 688 761805 -118142 0
0 0 0 693 762498 -117449 0
0 0 0 723 763221 -116726 0
0 0 0 719 763940 -116007 0
0 0 0 749 764689 -115258 0
0 0 0 739 765428 -114519 0
0 0 0 733 766161 -113786 0
0 0 0 755 766916 -113031 0
0 0 0 737 767653 -112294 0
0 0 0 697 768350 -111597 0
0 0 0 710 769060 -110887 0
0 0 0 714 769774 -110173 0
0 0 0 693 770467 -109480 0
0 0 0 682 771149 -108798 0
0 0 0 684 771833 -108114 0
0 0 0 681 772514 -107433 0
0 0 0 689 773203 -106744 0
0 0 0 701 773904 -106043 0
0 0 0 681 774585 -105362 0
0 0 0 688 775273 -104674 0
0 0 0 696 775969 -103978 0
0 0 0 697 776666 -103281 0
0 0 0 681 777347 -102600 0
0 0 0 685 778032 -101915 0
0 0 0 696 778728 -101219 0
0 0 0 691 779419 -100528 0
0 0 0 673 780092 -99855 0
0 0 0 652 780744 -99203 0
0 0 0 656 781400 -98547 0
0 0 0 652 782052 -97895 0
0 0 0 626 782678 -97269 0
0 0 0 598 783276 -96671 0
0 0 0 607 783883 -96064 0
0 0 0 621 784504 -95443 0
0 0 0 660 785164 -94783 0
0 0 0 695 785859 -94088 0
0 0 0 687 786546 -93401 0
0 0 0 710 787256 -92691 0
0 0 0 711 787967 -91980 0
0 0 0 710 788677 -91270 0
0 0 0 701 789378 -90569 0
0 0 0 665 790043 -89904 0
0 0 0 674 790717 -89230 0
0 0 0 663 791380 -88567 0
0 0 0 654 792034 -87913 0
0 0 0 648 792682 -87265 0
0 0 0 649 793331 -86616 0
0 0 0 664 793995 -85952 0
0 0 0 678 794673 -85274 0
0 0 0 694 795367 -84580 0
0 0 0 643 796010 -83937 0
0 0 0 623 796633 -83314 0
0 0 0 603 797236 -82711 0
0 0 0 583 797819 -82128 0
0 0 0 573 798392 -81555 1
0 0 0 594 798986 -80961 0
0 0 0 613 799599 -80348 0
0 0 0 633 800232 -79715 0
0 0 0 701 800933 -79014 0
0 0 0 767 801700 -78247 0
0 0 0 774 802474 -77473 0
0 0 0 779 803253 -76694 0
0 0 0 747 804000 -75947 0
0 0 0 756 804756 -75191 0
0 0 0 747 805503 -74444 0
0 0 0 741 806244 -73703 0
0 0 0 708 806952 -72995 0
0 0 0 710 807662 -72285 0
0 0 0 710 808372 -71575 0
0 0 0 694 809066 -70881 0
0 0 0 692 809758 -70189 0
0 0 0 675 810433 -69514 0
0 0 0 662 811095 -68852 0
0 0 0 672 811767 -68180 0
0 0 0 696 812463 -67484 0
0 0 0 699 813162 -66785 0
0 0 0 683 813845 -66102 0
0 0 0 664 814509 -65438 0
0 0 0 673 815182 -64765 0
0 0 0 695 815877 -64070 0
0 0 0 722 816599 -63348 0
0 0 0 741 817340 -62607 0
0 0 0 727 818067 -61880 0
0 0 0 731 818798 -61149 0
0 0 0 763 819561 -60386 0
0 0 0 755 820316 -59631 0
0 0 0 735 821051 -58896 0
0 0 0 694 821745 -58202 0
0 0 0 695 822440 -57507 0
0 0 0 694 823134 -56813 0
0 0 0 686 823820 -56127 0
0 0 0 666 824486 -55461 0
0 0 0 646 825132 -54815 0
0 0 0 638 825770 -54177 0
0 0 0 653 826423 -53524 0
0 0 0 680 827103 -52844 0
0 0 0 706 827809 -52138 0
0 0 0 681 828490 -51457 0
0 0 0 721 829211 -50736 0
0 0 0 736 829947 -50000 0
0 0 0 743 830690 -49257 0
0 0 0 725 831415 -48532 0
0 0 0 690 832105 -47842 0
0 0 0 707 832812 -47135 0
0 0 0 712 833524 -46423 0
0 0 0 715 834239 -45708 0
0 0 0 681 834920 -45027 0
0 0 0 677 835597 -44350 0
0 0 0 666 836263 -43684 0
0 0 0 652 836915 -43032 0
0 0 0 613 837528 -42419 0
0 0 0 622 838150 -41797 0
0 0 0 661 838811 -41136 0
0 0 0 686 839497 -40450 0
0 0 0 703 840200 -39747 0
0 0 0 674 840874 -39073 0
0 0 0 671 841545 -38402 0
0 0 0 689 842234 -37713 0
0 0 0 719 842953 -36994 0
0 0 0 724 843677 -36270 0
0 0 0 691 844368 -35579 0
0 0 0 706 845074 -34873 0
0 0 0 704 845778 -34169 0
0 0 0 717 846495 -33452 0
0 0 0 706 847201 -32746 0
0 0 0 669 847870 -32077 0
0 0 0 688 848558 -31389 0
0 0 0 681 849239 -30708 0
0 0 0 662 849901 -30046 0
0 0 0 611 850512 -29435 0
0 0 0 601 851113 -28834 0
0 0 0 575 851688 -28259 1
0 0 0 562 852250 -27697 1
0 0 0 553 852803 -27144 1
0 0 0 544 853347 -26600 1
0 0 0 535 853882 -26065 1
0 0 0 530 854412 -25535 1
0 0 0 527 854939 -25008 1
0 0 0 542 855481 -24466 1
0 0 0 677 856158 -23789 0
0 0 0 679 856837 -23110 0
0 0 0 698 857535 -22412 0
0 0 0 717 858252 -21695 0
0 0 0 635 858887 -21060 0
0 0 0 629 859516 -20431 0
0 0 0 614 860130 -19817 0
0 0 0 621 860751 -19196 0
0 0 0 642 861393 -18554 0
0 0 0 647 862040 -17907 0
0 0 0 655 862695 -17252 0
0 0 0 679 863374 -16573 0
0 0 0 674 864048 -15899 0
0 0 0 634 864682 -15265 0
0 0 0 625 865307 -14640 0
0 0 0 617 865924 -14023 0
0 0 0 588 866512 -13435 0
0 0 0 583 867095 -12852 0
0 0 0 607 867702 -12245 0
0 0 0 637 868339 -11608 0
0 0 0 665 869004 -10943 0
0 0 0 811 869815 -10132 0
0 0 0 775 870590 -9357 0
0 0 0 864 871454 -8493 1
0 0 0 872 872326 -7621 1
0 0 0 813 873139 -6808 0
0 0 0 737 873876 -6071 0
0 0 0 716 874592 -5355 0
0 0 0 694 875286 -4661 0
0 0 0 670 875956 -3991 0
0 0 0 656 876612 -3335 0
0 0 0 652 877264 -2683 0
0 0 0 665 877929 -2018 0
41 1 S102 650 878579 -1368 0
41 1 S102 627 879206 -741 0
41 1 S102 623 879829 -118 0
41 2 S102 653 880482 535 0
41 2 S102 667 881149 1202 0
41 2 S102 686 881835 1888 0
41 2 S102 649 882484 2537 0
41 2 S102 701 883185 3238 0
41 2 S102 735 883920 3973 0
41 2 S102 764 884684 4737 0
41 2 S102 753 885437 5490 0
41 2 S102 749 886186 6239 0
41 2 S102 718 886904 6957 0
0 0 0 720 887624 -6912 0
0 0 0 704 888328 -6208 0
0 0 0 705 889033 -5503 0
0 0 0 683 889716 -4820 0
0 0 0 650 890366 -4170 0
0 0 0 648 891014 -3522 0
0 0 0 616 891630 -2906 0
0 0 0 590 892220 -2316 0
42 1 S112 571 892791 -1745 1
42 1 S112 590 893381 -1155 0
42 1 S112 612 893993 -543 0
42 2 S112 654 894647 111 0
42 2 S112 722 895369 833 0
42 2 S112 738 896107 1571 0
42 2 S112 757 896864 2328 0
42 2 S112 774 897638 3102 0
42 2 S112 760 898398 3862 0
42 2 S112 713 899111 4575 0
42 2 S112 700 899811 5275 0
42 2 S112 711 900522 5986 0
42 2 S112 723 901245 6709 0
0 0 0 714 901959 -8774 0
0 0 0 679 902638 -8095 0
0 0 0 689 903327 -7406 0
0 0 0 691 904018 -6715 0
0 0 0 695 904713 -6020 0
0 0 0 681 905394 -5339 0
0 0 0 693 906087 -4646 0
0 0 0 720 906807 -3926 0
0 0 0 739 907546 -3187 0
0 0 0 730 908276 -2457 0
43 1 S116 716 908992 -1741 0
43 1 S116 727 909719 -1014 0
43 1 S116 710 910429 -304 0
43 2 S116 685 911114 381 0
43 2 S116 698 911812 1079 0
43 2 S116 723 912535 1802 0
43 2 S116 753 913288 2555 0
43 2 S116 758 914046 3313 0
43 2 S116 752 914798 4065 0
43 2 S116 778 915576 4843 0
43 2 S116 789 916365 5632 0
43 2 S116 770 917135 6402 0
0 0 0 726 917861 -8588 0
0 0 0 734 918595 -7854 0
0 0 0 726 919321 -7128 0
0 0 0 736 920057 -6392 0
0 0 0 731 920788 -5661 0
0 0 0 753 921541 -4908 0
0 0 0 727 922268 -4181 0
0 0 0 689 922957 -3492 0
0 0 0 660 923617 -2832 0
0 0 0 613 924230 -2219 0
44 1 S102 626 924856 -1593 0
44 1 S102 654 925510 -939 0
44 1 S102 678 926188 -261 0
44 2 S102 658 926846 397 0
44 2 S102 687 927533 1084 0
44 2 S102 739 928272 1823 0
44 2 S102 747 929019 2570 0
44 2 S102 745 929764 3315 0
44 2 S102 694 930458 4009 0
44 2 S102 715 931173 4724 0
44 2 S102 704 931877 5428 0
44 2 S102 702 932579 6130 0
44 2 S102 675 933254 6805 0
0 0 0 686 933940 -8425 0
0 0 0 722 934662 -7703 0
0 0 0 728 935390 -6975 0
0 0 0 725 936115 -6250 0
0 0 0 687 936802 -5563 0
0 0 0 702 937504 -4861 0
0 0 0 699 938203 -4162 0
0 0 0 704 938907 -3458 0
0 0 0 694 939601 -2764 0
0 0 0 666 940267 -2098 0
45 1 S116 685 940952 -1413 0
45 1 S116 698 941650 -715 0
45 1 S116 693 942343 -22 0
45 2 S116 677 943020 655 0
45 2 S116 691 943711 1346 0
45 2 S116 707 944418 2053 0
45 2 S116 715 945133 2768 0
45 2 S116 679 945812 3447 0
45 2 S116 712 946524 4159 0
45 2 S116 734 947258 4893 0
45 2 S116 760 948018 5653 0
45 2 S116 727 948745 6380 0
0 0 0 729 949474 -12719 0
0 0 0 725 950199 -11994 0
0 0 0 720 950919 -11274 0
0 0 0 684 951603 -10590 0
0 0 0 699 952302 -9891 0
0 0 0 710 953012 -9181 0
0 0 0 718 953730 -8463 0
0 0 0 680 954410 -7783 0
0 0 0 684 955094 -7099 0
0 0 0 678 955772 -6421 0
0 0 0 687 956459 -5734 0
0 0 0 676 957135 -5058 0
0 0 0 701 957836 -4357 0
0 0 0 722 958558 -3635 0
0 0 0 731 959289 -2904 0
0 0 0 743 960032 -2161 0
46 1 S102 727 960759 -1434 0
46 1 S102 730 961489 -704 0
46 2 S102 721 962210 17 0
46 2 S102 693 962903 710 0
46 2 S102 699 963602 1409 0
46 2 S102 706 964308 2115 0
46 2 S102 715 965023 2830 0
46 2 S102 721 965744 3551 0
46 2 S102 711 966455 4262 0
46 2 S102 724 967179 4986 0
46 2 S102 741 967920 5727 0
46 2 S102 737 968657 6464 0
0 0 0 732 969389 -8055 0
0 0 0 721 970110 -7334 0
0 0 0 743 970853 -6591 0
0 0 0 726 971579 -5865 0
0 0 0 702 972281 -5163 0
0 0 0 666 972947 -4497 0
0 0 0 670 973617 -3827 0
0 0 0 674 974291 -3153 0
0 0 0 659 974950 -2494 0
47 1 S112 629 975579 -1865 0
47 1 S112 596 976175 -1269 0
47 1 S112 595 976770 -674 0
47 1 S112 606 977376 -68 0
47 2 S112 660 978036 592 0
47 2 S112 753 978789 1345 0
47 2 S112 784 979573 2129 0
47 2 S112 784 980357 2913 0
47 2 S112 743 981100 3656 0
47 2 S112 750 981850 4406 0
47 2 S112 728 982578 5134 0
47 2 S112 709 983287 5843 0
47 2 S112 671 983958 6514 0
0 0 0 699 984657 -12234 0
0 0 0 707 985364 -11527 0
0 0 0 697 986061 -10830 0
0 0 0 683 986744 -10147 0
0 0 0 679 987423 -9468 0
0 0 0 707 988130 -8761 0
0 0 0 699 988829 -8062 0
0 0 0 707 989536 -7355 0
0 0 0 684 990220 -6671 0
0 0 0 705 990925 -5966 0
0 0 0 727 991652 -5239 0
0 0 0 744 992396 -4495 0
0 0 0 733 993129 -3762 0
0 0 0 723 993852 -3039 0
0 0 0 748 994600 -2291 0
48 1 S116 744 995344 -1547 0
48 1 S116 734 996078 -813 0
48 1 S116 714 996792 -99 0
48 2 S116 704 997496 605 0
48 2 S116 717 998213 1322 0
48 2 S116 723 998936 2045 0
48 2 S116 721 999657 2766 0
48 2 S116 707 1000364 3473 0
48 2 S116 715 1001079 4188 0
48 2 S116 723 1001802 4911 0
48 2 S116 734 1002536 5645 0
48 2 S116 701 1003237 6346 0
0 0 0 734 1003971 -8338 0
0 0 0 737 1004708 -7601 0
0 0 0 736 1005444 -6865 0
0 0 0 708 1006152 -6157 0
0 0 0 731 1006883 -5426 0
0 0 0 739 1007622 -4687 0
0 0 0 711 1008333 -3976 0
0 0 0 666 1008999 -3310 0
0 0 0 676 1009675 -2634 0
49 1 S112 676 1010351 -1958 0
49 1 S112 701 1011052 -1257 0
49 1 S112 676 1011728 -581 0
49 2 S112 711 1012439 130 0
49 2 S112 722 1013161 852 0
49 2 S112 772 1013933 1624 0
49 2 S112 742 1014675 2366 0
49 2 S112 729 1015404 3095 0
49 2 S112 750 1016154 3845 0
49 2 S112 754 1016908 4599 0
49 2 S112 757 1017665 5356 0
49 2 S112 724 1018389 6080 0
49 2 S112 746 1019135 6826 0
0 0 0 738 1019873 -11120 0
0 0 0 729 1020602 -10391 0
0 0 0 693 1021295 -9698 0
0 0 0 733 1022028 -8965 0
0 0 0 705 1022733 -8260 0
0 0 0 689 1023422 -7571 0
0 0 0 648 1024070 -6923 0
0 0 0 607 1024677 -6316 0
0 0 0 613 1025290 -5703 0
0 0 0 636 1025926 -5067 0
0 0 0 656 1026582 -4411 0
0 0 0 672 1027254 -3739 0
0 0 0 659 1027913 -3080 0
0 0 0 731 1028644 -2349 0
50 1 S106 733 1029377 -1616 0
50 1 S106 743 1030120 -873 0
50 1 S106 700 1030820 -173 0
50 2 S106 695 1031515 522 0
50 2 S106 704 1032219 1226 0
50 2 S106 702 1032921 1928 0
50 2 S106 690 1033611 2618 0
50 2 S106 671 1034282 3289 0
50 2 S106 687 1034969 3976 0
50 2 S106 690 1035659 4666 0
50 2 S106 700 1036359 5366 0
50 2 S106 695 1037054 6061 0
50 2 S106 692 1037746 6753 0
0 0 0 716 1038462 -7750 0
0 0 0 727 1039189 -7023 0
0 0 0 726 1039915 -6297 0
0 0 0 724 1040639 -5573 0
0 0 0 737 1041376 -4836 0
0 0 0 720 1042096 -4116 0
0 0 0 678 1042774 -3438 0
0 0 0 658 1043432 -2780 0
0 0 0 636 1044068 -2144 0
51 1 S112 623 1044691 -1521 0
51 1 S112 608 1045299 -913 0
51 1 S112 600 1045899 -313 0
51 2 S112 626 1046525 313 0
51 2 S112 684 1047209 997 0
51 2 S112 750 1047959 1747 0
51 2 S112 742 1048701 2489 0
51 2 S112 760 1049461 3249 0
51 2 S112 797 1050258 4046 0
51 2 S112 790 1051048 4836 0
51 2 S112 749 1051797 5585 0
51 2 S112 710 1052507 6295 0
51 2 S112 699 1053206 6994 0
0 0 0 690 1053896 -6954 0
0 0 0 676 1054572 -6278 0
0 0 0 663 1055235 -5615 0
0 0 0 685 1055920 -4930 0
0 0 0 686 1056606 -4244 0
0 0 0 681 1057287 -3563 0
0 0 0 647 1057934 -2916 0
0 0 0 657 1058591 -2259 0
52 1 S116 686 1059277 -1573 0
52 1 S116 739 1060016 -834 0
52 1 S116 759 1060775 -75 0
52 2 S116 735 1061510 660 0
52 2 S116 764 1062274 1424 0
52 2 S116 774 1063048 2198 0
52 2 S116 774 1063822 2972 0
52 2 S116 729 1064551 3701 0
52 2 S116 696 1065247 4397 0
52 2 S116 717 1065964 5114 0
52 2 S116 733 1066697 5847 0
52 2 S116 734 1067431 6581 0
0 0 0 747 1068178 -9499 0
0 0 0 740 1068918 -8759 0
0 0 0 728 1069646 -8031 0
0 0 0 728 1070374 -7303 0
0 0 0 700 1071074 -6603 0
0 0 0 691 1071765 -5912 0
0 0 0 693 1072458 -5219 0
0 0 0 704 1073162 -4515 0
0 0 0 699 1073861 -3816 0
0 0 0 731 1074592 -3085 0
0 0 0 729 1075321 -2356 0
53 1 S106 775 1076096 -1581 0
53 1 S106 764 1076860 -817 0
53 1 S106 759 1077619 -58 0
53 2 S106 773 1078392 715 0
53 2 S106 760 1079152 1475 0
53 2 S106 748 1079900 2223 0
53 2 S106 748 1080648 2971 0
53 2 S106 754 1081402 3725 0
53 2 S106 749 1082151 4474 0
53 2 S106 727 1082878 5201 0
53 2 S106 741 1083619 5942 0
53 2 S106 746 1084365 6688 0
0 0 0 770 1085135 -7811 0
0 0 0 767 1085902 -7044 0
0 0 0 701 1086603 -6343 0
0 0 0 725 1087328 -5618 0
0 0 0 724 1088052 -4894 0
0 0 0 703 1088755 -4191 0
0 0 0 674 1089429 -3517 0
0 0 0 690 1090119 -2827 0
0 0 0 692 1090811 -2135 0
54 1 S102 685 1091496 -1450 0
54 1 S102 663 1092159 -787 0
54 1 S102 676 1092835 -111 0
54 2 S102 697 1093532 586 0
54 2 S102 695 1094227 1281 0
54 2 S102 678 1094905 1959 0
54 2 S102 698 1095603 2657 0
54 2 S102 714 1096317 3371 0
54 2 S102 688 1097005 4059 0
54 2 S102 659 1097664 4718 0
54 2 S102 682 1098346 5400 0
54 2 S102 695 1099041 6095 0
54 2 S102 690 1099731 6785 0
0 0 0 638 1100369 -10830 0
0 0 0 658 1101027 -10172 0
0 0 0 654 1101681 -9518 0
0 0 0 675 1102356 -8843 0
0 0 0 628 1102984 -8215 0
0 0 0 629 1103613 -7586 0
0 0 0 644 1104257 -6942 0
0 0 0 669 1104926 -6273 0
0 0 0 690 1105616 -5583 0
0 0 0 660 1106276 -4923 0
0 0 0 733 1107009 -4190 0
0 0 0 760 1107769 -3430 0
0 0 0 773 1108542 -2657 0
55 1 S106 728 1109270 -1929 0
55 1 S106 723 1109993 -1206 0
55 1 S106 721 1110714 -485 0
55 2 S106 705 1111419 220 0
55 2 S106 690 1112109 910 0
55 2 S106 680 1112789 1590 0
55 2 S106 676 1113465 2266 0
55 2 S106 685 1114150 2951 0
55 2 S106 702 1114852 3653 0
55 2 S106 696 1115548 4349 0
55 2 S106 683 1116231 5032 0
55 2 S106 708 1116939 5740 0
55 2 S106 712 1117651 6452 0
0 0 0 685 1118336 -7319 0
0 0 0 661 1118997 -6658 0
0 0 0 680 1119677 -5978 0
0 0 0 701 1120378 -5277 0
0 0 0 712 1121090 -4565 0
0 0 0 664 1121754 -3901 0
0 0 0 723 1122477 -3178 0
0 0 0 744 1123221 -2434 0
56 1 S116 735 1123956 -1699 0
56 1 S116 690 1124646 -1009 0
56 1 S116 688 1125334 -321 0
56 2 S116 706 1126040 385 0
56 2 S116 708 1126748 1093 0
56 2 S116 701 1127449 1794 0
56 2 S116 684 1128133 2478 0
56 2 S116 726 1128859 3204 0
56 2 S116 716 1129575 3920 0
56 2 S116 686 1130261 4606 0
56 2 S116 710 1130971 5316 0
56 2 S116 698 1131669 6014 0
56 2 S116 721 1132390 6735 0
0 0 0 661 1133051 -6779 0
0 0 0 691 1133742 -6088 0
0 0 0 682 1134424 -5406 0
0 0 0 703 1135127 -4703 0
0 0 0 625 1135752 -4078 0
0 0 0 618 1136370 -3460 0
0 0 0 591 1136961 -2869 0
0 0 0 595 1137556 -2274 0
57 1 S106 624 1138180 -1650 0
57 1 S106 608 1138788 -1042 0
57 1 S106 604 1139392 -438 0
57 2 S106 674 1140066 236 0
57 2 S106 783 1140849 1019 0
57 2 S106 783 1141632 1802 0
57 2 S106 761 1142393 2563 0
57 2 S106 748 1143141 3311 0
57 2 S106 729 1143870 4040 0
57 2 S106 738 1144608 4778 0
57 2 S106 739 1145347 5517 0
57 2 S106 719 1146066 6236 0
57 2 S106 698 1146764 6934 0
0 0 0 701 1147465 -7534 0
0 0 0 698 1148163 -6836 0
0 0 0 686 1148849 -6150 0
0 0 0 665 1149514 -5485 0
0 0 0 647 1150161 -4838 0
0 0 0 657 1150818 -4181 0
0 0 0 666 1151484 -3515 0
0 0 0 669 1152153 -2846 0
0 0 0 671 1152824 -2175 0
58 1 S102 694 1153518 -1481 0
58 1 S102 712 1154230 -769 0
58 1 S102 757 1154987 -12 0
58 2 S102 761 1155748 749 0
58 2 S102 763 1156511 1512 0
58 2 S102 774 1157285 2286 0
58 2 S102 786 1158071 3072 0
58 2 S102 774 1158845 3846 0
58 2 S102 736 1159581 4582 0
58 2 S102 758 1160339 5340 0
58 2 S102 742 1161081 6082 0
58 2 S102 740 1161821 6822 0
0 0 0 694 1162515 -6642 0
0 0 0 702 1163217 -5940 0
0 0 0 700 1163917 -5240 0
0 0 0 691 1164608 -4549 0
0 0 0 663 1165271 -3886 0
0 0 0 672 1165943 -3214 0
0 0 0 671 1166614 -2543 0
59 1 S112 691 1167305 -1852 0
59 1 S112 667 1167972 -1185 0
59 1 S112 724 1168696 -461 0
59 2 S112 730 1169426 269 0
59 2 S112 775 1170201 1044 0
59 2 S112 751 1170952 1795 0
59 2 S112 717 1171669 2512 0
59 2 S112 740 1172409 3252 0
59 2 S112 743 1173152 3995 0
59 2 S112 733 1173885 4728 0
59 2 S112 706 1174591 5434 0
59 2 S112 713 1175304 6147 0
59 2 S112 722 1176026 6869 0
0 0 0 726 1176752 -9630 0
0 0 0 699 1177451 -8931 0
0 0 0 715 1178166 -8216 0
0 0 0 730 1178896 -7486 0
0 0 0 739 1179635 -6747 0
0 0 0 692 1180327 -6055 0
0 0 0 708 1181035 -5347 0
0 0 0 716 1181751 -4631 0
0 0 0 701 1182452 -3930 0
0 0 0 678 1183130 -3252 0
0 0 0 696 1183826 -2556 0
60 1 S102 709 1184535 -1847 0
60 1 S102 713 1185248 -1134 0
60 1 S102 699 1185947 -435 0
60 2 S102 730 1186677 295 0
60 2 S102 734 1187411 1029 0
60 2 S102 735 1188146 1764 0
60 2 S102 706 1188852 2470 0
60 2 S102 711 1189563 3181 0
60 2 S102 736 1190299 3917 0
60 2 S102 757 1191056 4674 0
60 2 S102 744 1191800 5418 0
60 2 S102 743 1192543 6161 0
60 2 S102 749 1193292 6910 0
0 0 0 737 1194029 -11617 0
0 0 0 711 1194740 -10906 0
0 0 0 716 1195456 -10190 0
0 0 0 712 1196168 -9478 0
0 0 0 710 1196878 -8768 0
0 0 0 668 1197546 -8100 0
0 0 0 654 1198200 -7446 0
0 0 0 660 1198860 -6786 0
0 0 0 657 1199517 -6129 0
0 0 0 644 1200161 -5485 0
0 0 0 677 1200838 -4808 0
0 0 0 729 1201567 -4079 0
0 0 0 732 1202299 -3347 0
0 0 0 715 1203014 -2632 0
61 1 S106 683 1203697 -1949 0
61 1 S106 722 1204419 -1227 0
61 1 S106 727 1205146 -500 0
61 2 S106 716 1205862 216 0
61 2 S106 693 1206555 909 0
61 2 S106 668 1207223 1577 0
61 2 S106 694 1207917 2271 0
61 2 S106 708 1208625 2979 0
61 2 S106 724 1209349 3703 0
61 2 S106 731 1210080 4434 0
61 2 S106 742 1210822 5176 0
61 2 S106 749 1211571 5925 0
61 2 S106 749 1212320 6674 0
0 0 0 746 1213066 -6058 0
0 0 0 758 1213824 -5300 0
0 0 0 765 1214589 -4535 0
0 0 0 754 1215343 -3781 0
0 0 0 739 1216082 -3042 0
0 0 0 736 1216818 -2306 0
62 1 S112 739 1217557 -1567 0
62 1 S112 751 1218308 -816 0
62 1 S112 741 1219049 -75 0
62 2 S112 716 1219765 641 0
62 2 S112 726 1220491 1367 0
62 2 S112 730 1221221 2097 0
62 2 S112 675 1221896 2772 0
62 2 S112 679 1222575 3451 0
62 2 S112 706 1223281 4157 0
62 2 S112 768 1224049 4925 0
62 2 S112 788 1224837 5713 0
62 2 S112 746 1225583 6459 0
0 0 0 749 1226332 -12471 0
0 0 0 749 1227081 -11722 0
0 0 0 736 1227817 -10986 0
0 0 0 687 1228504 -10299 0
0 0 0 702 1229206 -9597 0
0 0 0 718 1229924 -8879 0
0 0 0 714 1230638 -8165 0
0 0 0 703 1231341 -7462 0
0 0 0 722 1232063 -6740 0
0 0 0 728 1232791 -6012 0
0 0 0 739 1233530 -5273 0
0 0 0 748 1234278 -4525 0
0 0 0 744 1235022 -3781 0
0 0 0 750 1235772 -3031 0
0 0 0 764 1236536 -2267 0
63 1 S102 747 1237283 -1520 0
63 1 S102 724 1238007 -796 0
63 1 S102 719 1238726 -77 0
63 2 S102 730 1239456 653 0
63 2 S102 731 1240187 1384 0
63 2 S102 703 1240890 2087 0
63 2 S102 720 1241610 2807 0
63 2 S102 732 1242342 3539 0
63 2 S102 738 1243080 4277 0
63 2 S102 731 1243811 5008 0
63 2 S102 701 1244512 5709 0
63 2 S102 723 1245235 6432 0
0 0 0 735 1245970 -8532 0
0 0 0 710 1246680 -7822 0
0 0 0 682 1247362 -7140 0
0 0 0 687 1248049 -6453 0
0 0 0 654 1248703 -5799 0
0 0 0 623 1249326 -5176 0
0 0 0 585 1249911 -4591 0
0 0 0 578 1250489 -4013 1
0 0 0 585 1251074 -3428 0
0 0 0 587 1251661 -2841 0
0 0 0 583 1252244 -2258 0
64 1 S112 627 1252871 -1631 0
64 1 S112 660 1253531 -971 0
64 1 S112 651 1254182 -320 0
64 2 S112 642 1254824 322 0
64 2 S112 674 1255498 996 0
64 2 S112 696 1256194 1692 0
64 2 S112 725 1256919 2417 0
64 2 S112 732 1257651 3149 0
64 2 S112 756 1258407 3905 0
64 2 S112 714 1259121 4619 0
64 2 S112 693 1259814 5312 0
64 2 S112 677 1260491 5989 0
64 2 S112 636 1261127 6625 0
0 0 0 641 1261768 -7672 0
0 0 0 649 1262417 -7023 0
0 0 0 660 1263077 -6363 0
0 0 0 661 1263738 -5702 0
0 0 0 685 1264423 -5017 0
0 0 0 701 1265124 -4316 0
0 0 0 768 1265892 -3548 0
0 0 0 787 1266679 -2761 0
0 0 0 756 1267435 -2005 0
65 1 S106 783 1268218 -1222 0
65 1 S106 785 1269003 -437 0
65 2 S106 765 1269768 328 0
65 2 S106 719 1270487 1047 0
65 2 S106 731 1271218 1778 0
65 2 S106 733 1271951 2511 0
65 2 S106 750 1272701 3261 0
65 2 S106 707 1273408 3968 0
65 2 S106 706 1274114 4674 0
65 2 S106 709 1274823 5383 0
65 2 S106 709 1275532 6092 0
65 2 S106 678 1276210 6770 0
0 0 0 673 1276883 -7643 0
0 0 0 715 1277598 -6928 0
0 0 0 715 1278313 -6213 0
0 0 0 719 1279032 -5494 0
0 0 0 736 1279768 -4758 0
0 0 0 728 1280496 -4030 0
0 0 0 746 1281242 -3284 0
0 0 0 730 1281972 -2554 0
66 1 S116 728 1282700 -1826 0
66 1 S116 730 1283430 -1096 0
66 1 S116 731 1284161 -365 0
66 2 S116 702 1284863 337 0
66 2 S116 724 1285587 1061 0
66 2 S116 750 1286337 1811 0
66 2 S116 759 1287096 2570 0
66 2 S116 805 1287901 3375 0
66 2 S116 799 1288700 4174 0
66 2 S116 761 1289461 4935 0
66 2 S116 712 1290173 5647 0
66 2 S116 725 1290898 6372 0
0 0 0 738 1291636 -10994 0
0 0 0 728 1292364 -10266 0
0 0 0 701 1293065 -9565 0
0 0 0 708 1293773 -8857 0
0 0 0 704 1294477 -8153 0
0 0 0 707 1295184 -7446 0
0 0 0 686 1295870 -6760 0
0 0 0 710 1296580 -6050 0
0 0 0 736 1297316 -5314 0
0 0 0 757 1298073 -4557 0
0 0 0 741 1298814 -3816 0
0 0 0 747 1299561 -3069 0
0 0 0 757 1300318 -2312 0
67 1 S102 759 1301077 -1553 0
67 1 S102 746 1301823 -807 0
67 1 S102 732 1302555 -75 0
67 2 S102 743 1303298 668 0
67 2 S102 756 1304054 1424 0
67 2 S102 753 1304807 2177 0
67 2 S102 726 1305533 2903 0
67 2 S102 754 1306287 3657 0
67 2 S102 759 1307046 4416 0
67 2 S102 771 1307817 5187 0
67 2 S102 750 1308567 5937 0
67 2 S102 786 1309353 6723 0
0 0 0 803 1310156 -6184 0
0 0 0 813 1310969 -5371 0
0 0 0 781 1311750 -4590 0
0 0 0 771 1312521 -3819 0
0 0 0 772 1313293 -3047 0
0 0 0 761 1314054 -2286 0
68 1 S106 752 1314806 -1534 0
68 1 S106 736 1315542 -798 0
68 1 S106 743 1316285 -55 0
68 2 S106 761 1317046 706 0
68 2 S106 761 1317807 1467 0
68 2 S106 720 1318527 2187 0
68 2 S106 753 1319280 2940 0
68 2 S106 767 1320047 3707 0
68 2 S106 781 1320828 4488 0
68 2 S106 746 1321574 5234 0
68 2 S106 778 1322352 6012 0
68 2 S106 773 1323125 6785 0
0 0 0 783 1323908 -10933 0
0 0 0 720 1324628 -10213 0
0 0 0 735 1325363 -9478 0
0 0 0 714 1326077 -8764 0
0 0 0 699 1326776 -8065 0
0 0 0 660 1327436 -7405 0
0 0 0 670 1328106 -6735 0
0 0 0 656 1328762 -6079 0
0 0 0 687 1329449 -5392 0
0 0 0 678 1330127 -4714 0
0 0 0 670 1330797 -4044 0
0 0 0 701 1331498 -3343 0
0 0 0 707 1332205 -2636 0
69 1 S102 694 1332899 -1942 0
69 1 S102 664 1333563 -1278 0
69 1 S102 688 1334251 -590 0
69 2 S102 699 1334950 109 0
69 2 S102 682 1335632 791 0
69 2 S102 663 1336295 1454 0
69 2 S102 700 1336995 2154 0
69 2 S102 709 1337704 2863 0
69 2 S102 697 1338401 3560 0
69 2 S102 668 1339069 4228 0
69 2 S102 690 1339759 4918 0
69 2 S102 715 1340474 5633 0
69 2 S102 712 1341186 6345 0
0 0 0 687 1341873 -9298 0
0 0 0 668 1342541 -8630 0
0 0 0 691 1343232 -7939 0
0 0 0 711 1343943 -7228 0
0 0 0 700 1344643 -6528 0
0 0 0 664 1345307 -5864 0
0 0 0 714 1346021 -5150 0
0 0 0 724 1346745 -4426 0
0 0 0 734 1347479 -3692 0
0 0 0 682 1348161 -3010 0
0 0 0 687 1348848 -2323 0
70 1 S112 704 1349552 -1619 0
70 1 S112 745 1350297 -874 0
70 1 S112 716 1351013 -158 0
70 2 S112 709 1351722 551 0
70 2 S112 728 1352450 1279 0
70 2 S112 719 1353169 1998 0
70 2 S112 713 1353882 2711 0
70 2 S112 751 1354633 3462 0
70 2 S112 776 1355409 4238 0
70 2 S112 762 1356171 5000 0
70 2 S112 708 1356879 5708 0
70 2 S112 720 1357599 6428 0
0 0 0 719 1358318 -10874 0
0 0 0 710 1359028 -10164 0
0 0 0 676 1359704 -9488 0
0 0 0 687 1360391 -8801 0
0 0 0 681 1361072 -8120 0
0 0 0 686 1361758 -7434 0
0 0 0 635 1362393 -6799 0
0 0 0 680 1363073 -6119 0
0 0 0 719 1363792 -5400 0
0 0 0 746 1364538 -4654 0
0 0 0 746 1365284 -3908 0
0 0 0 755 1366039 -3153 0
0 0 0 768 1366807 -2385 0
71 1 S116 775 1367582 -1610 0
71 1 S116 760 1368342 -850 0
71 1 S116 714 1369056 -136 0
71 2 S116 720 1369776 584 0
71 2 S116 729 1370505 1313 0
71 2 S116 716 1371221 2029 0
71 2 S116 713 1371934 2742 0
71 2 S116 739 1372673 3481 0
71 2 S116 750 1373423 4231 0
71 2 S116 754 1374177 4985 0
71 2 S116 724 1374901 5709 0
71 2 S116 757 1375658 6466 0
0 0 0 773 1376431 -9555 0
0 0 0 777 1377208 -8778 0
0 0 0 716 1377924 -8062 0
0 0 0 715 1378639 -7347 0
0 0 0 716 1379355 -6631 0
0 0 0 704 1380059 -5927 0
0 0 0 680 1380739 -5247 0
0 0 0 702 1381441 -4545 0
0 0 0 706 1382147 -3839 0
0 0 0 740 1382887 -3099 0
0 0 0 736 1383623 -2363 0
72 1 S102 758 1384381 -1605 0
72 1 S102 762 1385143 -843 0
72 1 S102 773 1385916 -70 0
72 2 S102 731 1386647 661 0
72 2 S102 727 1387374 1388 0
72 2 S102 730 1388104 2118 0
72 2 S102 718 1388822 2836 0
72 2 S102 699 1389521 3535 0
72 2 S102 695 1390216 4230 0
72 2 S102 699 1390915 4929 0
72 2 S102 682 1391597 5611 0
72 2 S102 644 1392241 6255 0
72 2 S102 668 1392909 6923 0
0 0 0 674 1393583 -6113 0
0 0 0 710 1394293 -5403 0
0 0 0 704 1394997 -4699 0
0 0 0 629 1395626 -4070 0
0 0 0 637 1396263 -3433 0
0 0 0 630 1396893 -2803 0
0 0 0 639 1397532 -2164 0
73 1 S116 643 1398175 -1521 0
73 1 S116 696 1398871 -825 0
73 1 S116 686 1399557 -139 0
73 2 S116 704 1400261 565 0
73 2 S116 714 1400975 1279 0
73 2 S116 721 1401696 2000 0
73 2 S116 749 1402445 2749 0
73 2 S116 762 1403207 3511 0
73 2 S116 779 1403986 4290 0
73 2 S116 735 1404721 5025 0
73 2 S116 759 1405480 5784 0
73 2 S116 745 1406225 6529 0
0 0 0 709 1406934 -8412 0
0 0 0 688 1407622 -7724 0
0 0 0 687 1408309 -7037 0
0 0 0 675 1408984 -6362 0
0 0 0 654 1409638 -5708 0
0 0 0 614 1410252 -5094 0
0 0 0 649 1410901 -4445 0
0 0 0 669 1411570 -3776 0
0 0 0 704 1412274 -3072 0
0 0 0 685 1412959 -2387 0
74 1 S106 738 1413697 -1649 0
74 1 S106 792 1414489 -857 0
74 1 S106 791 1415280 -66 0
74 2 S106 772 1416052 706 0
74 2 S106 776 1416828 1482 0
74 2 S106 751 1417579 2233 0
74 2 S106 724 1418303 2957 0
74 2 S106 681 1418984 3638 0
74 2 S106 638 1419622 4276 0
74 2 S106 659 1420281 4935 0
74 2 S106 674 1420955 5609 0
74 2 S106 674 1421629 6283 0
74 2 S106 656 1422285 6939 0
0 0 0 695 1422980 -7817 0
0 0 0 696 1423676 -7121 0
0 0 0 742 1424418 -6379 0
0 0 0 690 1425108 -5689 0
0 0 0 771 1425879 -4918 0
0 0 0 776 1426655 -4142 0
0 0 0 774 1427429 -3368 0
0 0 0 676 1428105 -2692 0
0 0 0 685 1428790 -2007 0
75 1 S112 680 1429470 -1327 0
75 1 S112 687 1430157 -640 0
75 2 S112 643 1430800 3 0
75 2 S112 632 1431432 635 0
75 2 S112 650 1432082 1285 0
75 2 S112 662 1432744 1947 0
75 2 S112 647 1433391 2594 0
75 2 S112 613 1434004 3207 0
75 2 S112 600 1434604 3807 0
75 2 S112 625 1435229 4432 0
75 2 S112 697 1435926 5129 0
75 2 S112 771 1436697 5900 0
75 2 S112 793 1437490 6693 0
0 0 0 798 1438288 -7595 0
0 0 0 797 1439085 -6798 0
0 0 0 729 1439814 -6069 0
0 0 0 701 1440515 -5368 0
0 0 0 705 1441220 -4663 0
0 0 0 682 1441902 -3981 0
0 0 0 654 1442556 -3327 0
0 0 0 620 1443176 -2707 0
0 0 0 593 1443769 -2114 0
76 1 S116 572 1444341 -1542 1
76 1 S116 584 1444925 -958 0
76 1 S116 605 1445530 -353 0
76 2 S116 656 1446186 303 0
76 2 S116 725 1446911 1028 0
76 2 S116 727 1447638 1755 0
76 2 S116 747 1448385 2502 0
76 2 S116 810 1449195 3312 0
76 2 S116 808 1450003 4120 0
76 2 S116 803 1450806 4923 0
76 2 S116 773 1451579 5696 0
76 2 S116 795 1452374 6491 0
0 0 0 782 1453156 -7764 0
0 0 0 762 1453918 -7002 0
0 0 0 720 1454638 -6282 0
0 0 0 719 1455357 -5563 0
0 0 0 718 1456075 -4845 0
0 0 0 699 1456774 -4146 0
0 0 0 677 1457451 -3469 0
0 0 0 687 1458138 -2782 0
0 0 0 692 1458830 -2090 0
77 1 S106 700 1459530 -1390 0
77 1 S106 712 1460242 -678 0
77 2 S106 718 1460960 40 0
77 2 S106 751 1461711 791 0
77 2 S106 770 1462481 1561 0
77 2 S106 753 1463234 2314 0
77 2 S106 729 1463963 3043 0
77 2 S106 749 1464712 3792 0
77 2 S106 754 1465466 4546 0
77 2 S106 788 1466254 5334 0
77 2 S106 762 1467016 6096 0
77 2 S106 763 1467779 6859 0
0 0 0 734 1468513 -8919 0
0 0 0 727 1469240 -8192 0
0 0 0 705 1469945 -7487 0
0 0 0 721 1470666 -6766 0
0 0 0 719 1471385 -6047 0
0 0 0 705 1472090 -5342 0
0 0 0 683 1472773 -4659 0
0 0 0 692 1473465 -3967 0
0 0 0 691 1474156 -3276 0
0 0 0 689 1474845 -2587 0
78 1 S112 660 1475505 -1927 0
78 1 S112 673 1476178 -1254 0
78 1 S112 701 1476879 -553 0
78 2 S112 725 1477604 172 0
78 2 S112 672 1478276 844 0
78 2 S112 690 1478966 1534 0
78 2 S112 731 1479697 2265 0
78 2 S112 716 1480413 2981 0
78 2 S112 676 1481089 3657 0
78 2 S112 708 1481797 4365 0
78 2 S112 733 1482530 5098 0
78 2 S112 742 1483272 5840 0
78 2 S112 709 1483981 6549 0
0 0 0 735 1484716 -11582 0
0 0 0 718 1485434 -10864 0
0 0 0 722 1486156 -10142 0
0 0 0 698 1486854 -9444 0
0 0 0 707 1487561 -8737 0
0 0 0 691 1488252 -8046 0
0 0 0 688 1488940 -7358 0
0 0 0 660 1489600 -6698 0
0 0 0 702 1490302 -5996 0
0 0 0 778 1491080 -5218 0
0 0 0 786 1491866 -4432 0
0 0 0 743 1492609 -3689 0
0 0 0 750 1493359 -2939 0
0 0 0 733 1494092 -2206 0
79 1 S102 735 1494827 -1471 0
79 1 S102 711 1495538 -760 0
79 1 S102 731 1496269 -29 0
79 2 S102 724 1496993 695 0
79 2 S102 736 1497729 1431 0
79 2 S102 714 1498443 2145 0
79 2 S102 692 1499135 2837 0
79 2 S102 703 1499838 3540 0
79 2 S102 703 1500541 4243 0
79 2 S102 701 1501242 4944 0
79 2 S102 722 1501964 5666 0
79 2 S102 729 1502693 6395 0
0 0 0 746 1503439 -8891 0
0 0 0 741 1504180 -8150 0
0 0 0 730 1504910 -7420 0
0 0 0 734 1505644 -6686 0
0 0 0 720 1506364 -5966 0
0 0 0 707 1507071 -5259 0
0 0 0 720 1507791 -4539 0
0 0 0 728 1508519 -3811 0
0 0 0 725 1509244 -3086 0
0 0 0 690 1509934 -2396 0
80 1 S116 691 1510625 -1705 0
80 1 S116 691 1511316 -1014 0
80 1 S116 680 1511996 -334 0
80 2 S116 681 1512677 347 0
80 2 S116 684 1513361 1031 0
80 2 S116 703 1514064 1734 0
80 2 S116 737 1514801 2471 0
80 2 S116 728 1515529 3199 0
80 2 S116 749 1516278 3948 0
80 2 S116 765 1517043 4713 0
80 2 S116 777 1517820 5490 0
80 2 S116 766 1518586 6256 0
80 2 S116 760 1519346 7016 0
