T_0155
BeatCount Mean SD BeatCountNoOutliers MeanNoOutliers SDNoOutliers
1762 870,970488081725 99,1068818456959 1746 869,817296678121 94,3248263055456

Trial TrialStatus Trialtype IBI AbsPosition RelPosition Outlier
0 0 0 758 1345 -14339 0
0 0 0 769 2114 -13570 0
0 0 0 724 2838 -12846 0
0 0 0 742 3580 -12104 0
0 0 0 745 4325 -11359 0
0 0 0 792 5117 -10567 0
0 0 0 939 6056 -9628 0
0 0 0 1004 7060 -8624 0
0 0 0 958 8018 -7666 0
0 0 0 950 8968 -6716 0
0 0 0 902 9870 -5814 0
0 0 0 863 10733 -4951 0
0 0 0 847 11580 -4104 0
0 0 0 823 12403 -3281 0
0 0 0 838 13241 -2443 0
1 1 S112 847 14088 -1596 0
1 1 S112 821 14909 -775 0
1 2 S112 823 15732 48 0
1 2 S112 798 16530 846 0
1 2 S112 811 17341 1657 0
1 2 S112 863 18204 2520 0
1 2 S112 896 19100 3416 0
1 2 S112 911 20011 4327 0
1 2 S112 893 20904 5220 0
1 2 S112 899 21803 6119 0
1 2 S112 883 22686 7002 0
0 0 0 886 23572 -10945 0
0 0 0 882 24454 -10063 0
0 0 0 865 25319 -9198 0
0 0 0 850 26169 -8348 0
0 0 0 765 26934 -7583 0
0 0 0 684 27618 -6899 0
0 0 0 642 28260 -6257 0
0 0 0 641 28901 -5616 0
0 0 0 705 29606 -4911 0
0 0 0 820 30426 -4091 0
0 0 0 918 31344 -3173 0
0 0 0 950 32294 -2223 0
2 1 S102 933 33227 -1290 0
2 1 S102 881 34108 -409 0
2 2 S102 817 34925 408 0
2 2 S102 787 35712 1195 0
2 2 S102 764 36476 1959 0
2 2 S102 752 37228 2711 0
2 2 S102 736 37964 3447 0
2 2 S102 724 38688 4171 0
2 2 S102 747 39435 4918 0
2 2 S102 791 40226 5709 0
2 2 S102 852 41078 6561 0
0 0 0 906 41984 -8880 0
0 0 0 855 42839 -8025 0
0 0 0 871 43710 -7154 0
0 0 0 839 44549 -6315 0
0 0 0 760 45309 -5555 0
0 0 0 742 46051 -4813 0
0 0 0 735 46786 -4078 0
0 0 0 682 47468 -3396 0
0 0 0 686 48154 -2710 0
3 1 S116 720 48874 -1990 0
3 1 S116 851 49725 -1139 0
3 1 S116 918 50643 -221 0
3 2 S116 864 51507 643 0
3 2 S116 878 52385 1521 0
3 2 S116 895 53280 2416 0
3 2 S116 872 54152 3288 0
3 2 S116 846 54998 4134 0
3 2 S116 739 55737 4873 0
3 2 S116 724 56461 5597 0
3 2 S116 786 57247 6383 0
0 0 0 932 58179 -11053 0
0 0 0 990 59169 -10063 0
0 0 0 984 60153 -9079 0
0 0 0 878 61031 -8201 0
0 0 0 787 61818 -7414 0
0 0 0 742 62560 -6672 0
0 0 0 740 63300 -5932 0
0 0 0 765 64065 -5167 0
0 0 0 816 64881 -4351 0
0 0 0 772 65653 -3579 0
0 0 0 694 66347 -2885 0
0 0 0 681 67028 -2204 0
4 1 S106 724 67752 -1480 0
4 1 S106 913 68665 -567 0
4 2 S106 968 69633 401 0
4 2 S106 969 70602 1370 0
4 2 S106 953 71555 2323 0
4 2 S106 915 72470 3238 0
4 2 S106 879 73349 4117 0
4 2 S106 826 74175 4943 0
4 2 S106 851 75026 5794 0
4 2 S106 864 75890 6658 0
0 0 0 886 76776 -7261 0
0 0 0 960 77736 -6301 0
0 0 0 986 78722 -5315 0
0 0 0 949 79671 -4366 0
0 0 0 901 80572 -3465 0
0 0 0 839 81411 -2626 0
5 1 S116 862 82273 -1764 0
5 1 S116 914 83187 -850 0
5 2 S116 937 84124 87 0
5 2 S116 942 85066 1029 0
5 2 S116 953 86019 1982 0
5 2 S116 922 86941 2904 0
5 2 S116 843 87784 3747 0
5 2 S116 845 88629 4592 0
5 2 S116 894 89523 5486 0
5 2 S116 924 90447 6410 0
0 0 0 937 91384 -8336 0
0 0 0 941 92325 -7395 0
0 0 0 937 93262 -6458 0
0 0 0 849 94111 -5609 0
0 0 0 813 94924 -4796 0
0 0 0 837 95761 -3959 0
0 0 0 842 96603 -3117 0
0 0 0 856 97459 -2261 0
6 1 S106 838 98297 -1423 0
6 1 S106 843 99140 -580 0
6 2 S106 876 100016 296 0
6 2 S106 913 100929 1209 0
6 2 S106 988 101917 2197 0
6 2 S106 992 102909 3189 0
6 2 S106 949 103858 4138 0
6 2 S106 892 104750 5030 0
6 2 S106 916 105666 5946 0
6 2 S106 890 106556 6836 0
0 0 0 880 107436 -11399 0
0 0 0 820 108256 -10579 0
0 0 0 893 109149 -9686 0
0 0 0 971 110120 -8715 0
0 0 0 923 111043 -7792 0
0 0 0 858 111901 -6934 0
0 0 0 799 112700 -6135 0
0 0 0 714 113414 -5421 0
0 0 0 654 114068 -4767 0
0 0 0 634 114702 -4133 0
0 0 0 629 115331 -3504 0
0 0 0 647 115978 -2857 0
0 0 0 676 116654 -2181 0
7 1 S102 742 117396 -1439 0
7 1 S102 782 118178 -657 0
7 2 S102 787 118965 130 0
7 2 S102 763 119728 893 0
7 2 S102 733 120461 1626 0
7 2 S102 712 121173 2338 0
7 2 S102 707 121880 3045 0
7 2 S102 729 122609 3774 0
7 2 S102 756 123365 4530 0
7 2 S102 826 124191 5356 0
7 2 S102 929 125120 6285 0
0 0 0 973 126093 -8558 0
0 0 0 941 127034 -7617 0
0 0 0 877 127911 -6740 0
0 0 0 794 128705 -5946 0
0 0 0 749 129454 -5197 0
0 0 0 700 130154 -4497 0
0 0 0 677 130831 -3820 0
0 0 0 750 131581 -3070 0
8 1 S112 1321 132902 -1749 1
8 1 S112 1091 133993 -658 0
8 2 S112 1062 135055 404 0
8 2 S112 1021 136076 1425 0
8 2 S112 1047 137123 2472 0
8 2 S112 1040 138163 3512 0
8 2 S112 1019 139182 4531 0
8 2 S112 956 140138 5487 0
8 2 S112 959 141097 6446 0
0 0 0 929 142026 -7015 0
0 0 0 985 143011 -6030 0
0 0 0 984 143995 -5046 0
0 0 0 933 144928 -4113 0
0 0 0 871 145799 -3242 0
0 0 0 810 146609 -2432 0
9 1 S116 868 147477 -1564 0
9 1 S116 876 148353 -688 0
9 2 S116 933 149286 245 0
9 2 S116 915 150201 1160 0
9 2 S116 957 151158 2117 0
9 2 S116 927 152085 3044 0
9 2 S116 969 153054 4013 0
9 2 S116 952 154006 4965 0
9 2 S116 947 154953 5912 0
9 2 S116 914 155867 6826 0
0 0 0 837 156704 -10922 0
0 0 0 861 157565 -10061 0
0 0 0 880 158445 -9181 0
0 0 0 884 159329 -8297 0
0 0 0 802 160131 -7495 0
0 0 0 739 160870 -6756 0
0 0 0 691 161561 -6065 0
0 0 0 696 162257 -5369 0
0 0 0 758 163015 -4611 0
0 0 0 915 163930 -3696 0
0 0 0 853 164783 -2843 0
0 0 0 836 165619 -2007 0
10 1 S102 822 166441 -1185 0
10 1 S102 831 167272 -354 0
10 2 S102 851 168123 497 0
10 2 S102 851 168974 1348 0
10 2 S102 882 169856 2230 0
10 2 S102 879 170735 3109 0
10 2 S102 872 171607 3981 0
10 2 S102 857 172464 4838 0
10 2 S102 845 173309 5683 0
10 2 S102 870 174179 6553 0
0 0 0 874 175053 -10710 0
0 0 0 900 175953 -9810 0
0 0 0 941 176894 -8869 0
0 0 0 858 177752 -8011 0
0 0 0 799 178551 -7212 0
0 0 0 784 179335 -6428 0
0 0 0 803 180138 -5625 0
0 0 0 901 181039 -4724 0
0 0 0 923 181962 -3801 0
0 0 0 915 182877 -2886 0
0 0 0 859 183736 -2027 0
11 1 S112 913 184649 -1114 0
11 1 S112 940 185589 -174 0
11 2 S112 963 186552 789 0
11 2 S112 981 187533 1770 0
11 2 S112 950 188483 2720 0
11 2 S112 948 189431 3668 0
11 2 S112 915 190346 4583 0
11 2 S112 848 191194 5431 0
11 2 S112 858 192052 6289 0
0 0 0 883 192935 -7334 0
0 0 0 951 193886 -6383 0
0 0 0 966 194852 -5417 0
0 0 0 930 195782 -4487 0
0 0 0 771 196553 -3716 0
0 0 0 729 197282 -2987 0
0 0 0 688 197970 -2299 0
12 1 S116 664 198634 -1635 0
12 1 S116 712 199346 -923 0
12 2 S116 1229 200575 306 1
12 2 S116 1075 201650 1381 0
12 2 S116 1023 202673 2404 0
12 2 S116 937 203610 3341 0
12 2 S116 914 204524 4255 0
12 2 S116 935 205459 5190 0
12 2 S116 956 206415 6146 0
0 0 0 951 207366 -11703 0
0 0 0 959 208325 -10744 0
0 0 0 949 209274 -9795 0
0 0 0 933 210207 -8862 0
0 0 0 869 211076 -7993 0
0 0 0 799 211875 -7194 0
0 0 0 840 212715 -6354 0
0 0 0 871 213586 -5483 0
0 0 0 928 214514 -4555 0
0 0 0 938 215452 -3617 0
0 0 0 920 216372 -2697 0
13 1 S112 849 217221 -1848 0
13 1 S112 879 218100 -969 0
13 1 S112 871 218971 -98 0
13 2 S112 880 219851 782 0
13 2 S112 868 220719 1650 0
13 2 S112 896 221615 2546 0
13 2 S112 939 222554 3485 0
13 2 S112 954 223508 4439 0
13 2 S112 956 224464 5395 0
13 2 S112 929 225393 6324 0
0 0 0 883 226276 -10714 0
0 0 0 914 227190 -9800 0
0 0 0 920 228110 -8880 0
0 0 0 881 228991 -7999 0
0 0 0 794 229785 -7205 0
0 0 0 760 230545 -6445 0
0 0 0 775 231320 -5670 0
0 0 0 903 232223 -4767 0
0 0 0 972 233195 -3795 0
0 0 0 952 234147 -2843 0
14 1 S106 898 235045 -1945 0
14 1 S106 913 235958 -1032 0
14 1 S106 904 236862 -128 0
14 2 S106 873 237735 745 0
14 2 S106 857 238592 1602 0
14 2 S106 878 239470 2480 0
14 2 S106 887 240357 3367 0
14 2 S106 909 241266 4276 0
14 2 S106 919 242185 5195 0
14 2 S106 864 243049 6059 0
14 2 S106 907 243956 6966 0
0 0 0 918 244874 -10933 0
0 0 0 930 245804 -10003 0
0 0 0 936 246740 -9067 0
0 0 0 838 247578 -8229 0
0 0 0 742 248320 -7487 0
0 0 0 665 248985 -6822 0
0 0 0 645 249630 -6177 0
0 0 0 691 250321 -5486 0
0 0 0 895 251216 -4591 0
0 0 0 1037 252253 -3554 0
0 0 0 1016 253269 -2538 0
15 1 S116 929 254198 -1609 0
15 1 S116 897 255095 -712 0
15 2 S116 853 255948 141 0
15 2 S116 825 256773 966 0
15 2 S116 803 257576 1769 0
15 2 S116 785 258361 2554 0
15 2 S116 828 259189 3382 0
15 2 S116 876 260065 4258 0
15 2 S116 859 260924 5117 0
15 2 S116 798 261722 5915 0
15 2 S116 813 262535 6728 0
0 0 0 902 263437 -8782 0
0 0 0 970 264407 -7812 0
0 0 0 978 265385 -6834 0
0 0 0 894 266279 -5940 0
0 0 0 823 267102 -5117 0
0 0 0 755 267857 -4362 0
0 0 0 663 268520 -3699 0
0 0 0 635 269155 -3064 0
0 0 0 630 269785 -2434 0
16 1 S116 661 270446 -1773 0
16 1 S116 770 271216 -1003 0
16 2 S116 1107 272323 104 0
16 2 S116 1025 273348 1129 0
16 2 S116 1007 274355 2136 0
16 2 S116 976 275331 3112 0
16 2 S116 911 276242 4023 0
16 2 S116 814 277056 4837 0
16 2 S116 795 277851 5632 0
16 2 S116 851 278702 6483 0
0 0 0 922 279624 -9074 0
0 0 0 872 280496 -8202 0
0 0 0 954 281450 -7248 0
0 0 0 930 282380 -6318 0
0 0 0 888 283268 -5430 0
0 0 0 813 284081 -4617 0
0 0 0 842 284923 -3775 0
0 0 0 863 285786 -2912 0
0 0 0 900 286686 -2012 0
17 1 S106 944 287630 -1068 0
17 1 S106 933 288563 -135 0
17 2 S106 930 289493 795 0
17 2 S106 911 290404 1706 0
17 2 S106 871 291275 2577 0
17 2 S106 857 292132 3434 0
17 2 S106 882 293014 4316 0
17 2 S106 940 293954 5256 0
17 2 S106 948 294902 6204 0
0 0 0 948 295850 -11151 0
0 0 0 927 296777 -10224 0
0 0 0 915 297692 -9309 0
0 0 0 883 298575 -8426 0
0 0 0 796 299371 -7630 0
0 0 0 790 300161 -6840 0
0 0 0 783 300944 -6057 0
0 0 0 924 301868 -5133 0
0 0 0 960 302828 -4173 0
0 0 0 962 303790 -3211 0
0 0 0 927 304717 -2284 0
18 1 S102 881 305598 -1403 0
18 1 S102 895 306493 -508 0
18 2 S102 876 307369 368 0
18 2 S102 870 308239 1238 0
18 2 S102 880 309119 2118 0
18 2 S102 868 309987 2986 0
18 2 S102 865 310852 3851 0
18 2 S102 874 311726 4725 0
18 2 S102 902 312628 5627 0
18 2 S102 912 313540 6539 0
0 0 0 921 314461 -8588 0
0 0 0 889 315350 -7699 0
0 0 0 881 316231 -6818 0
0 0 0 789 317020 -6029 0
0 0 0 804 317824 -5225 0
0 0 0 779 318603 -4446 0
0 0 0 800 319403 -3646 0
0 0 0 846 320249 -2800 0
0 0 0 774 321023 -2026 0
19 1 S106 693 321716 -1333 0
19 1 S106 689 322405 -644 0
19 2 S106 723 323128 79 0
19 2 S106 811 323939 890 0
19 2 S106 986 324925 1876 0
19 2 S106 978 325903 2854 0
19 2 S106 943 326846 3797 0
19 2 S106 887 327733 4684 0
19 2 S106 791 328524 5475 0
19 2 S106 769 329293 6244 0
0 0 0 786 330079 -11604 0
0 0 0 863 330942 -10741 0
0 0 0 981 331923 -9760 0
0 0 0 968 332891 -8792 0
0 0 0 830 333721 -7962 0
0 0 0 741 334462 -7221 0
0 0 0 728 335190 -6493 0
0 0 0 770 335960 -5723 0
0 0 0 973 336933 -4750 0
0 0 0 1028 337961 -3722 0
0 0 0 967 338928 -2755 0
20 1 S112 987 339915 -1768 0
20 1 S112 967 340882 -801 0
20 2 S112 957 341839 156 0
20 2 S112 937 342776 1093 0
20 2 S112 915 343691 2008 0
20 2 S112 868 344559 2876 0
20 2 S112 859 345418 3735 0
20 2 S112 888 346306 4623 0
20 2 S112 924 347230 5547 0
20 2 S112 956 348186 6503 0
0 0 0 917 349103 -10104 0
0 0 0 901 350004 -9203 0
0 0 0 842 350846 -8361 0
0 0 0 920 351766 -7441 0
0 0 0 957 352723 -6484 0
0 0 0 968 353691 -5516 0
0 0 0 953 354644 -4563 0
0 0 0 879 355523 -3684 0
0 0 0 908 356431 -2776 0
21 1 S106 915 357346 -1861 0
21 1 S106 938 358284 -923 0
21 1 S106 912 359196 -11 0
21 2 S106 873 360069 862 0
21 2 S106 856 360925 1718 0
21 2 S106 820 361745 2538 0
21 2 S106 886 362631 3424 0
21 2 S106 1015 363646 4439 0
21 2 S106 1018 364664 5457 0
21 2 S106 993 365657 6450 0
0 0 0 927 366584 -12583 0
0 0 0 941 367525 -11642 0
0 0 0 937 368462 -10705 0
0 0 0 951 369413 -9754 0
0 0 0 932 370345 -8822 0
0 0 0 833 371178 -7989 0
0 0 0 765 371943 -7224 0
0 0 0 710 372653 -6514 0
0 0 0 738 373391 -5776 0
0 0 0 921 374312 -4855 0
0 0 0 1059 375371 -3796 0
0 0 0 961 376332 -2835 0
22 1 S116 955 377287 -1880 0
22 1 S116 874 378161 -1006 0
22 1 S116 863 379024 -143 0
22 2 S116 875 379899 732 0
22 2 S116 922 380821 1654 0
22 2 S116 944 381765 2598 0
22 2 S116 943 382708 3541 0
22 2 S116 862 383570 4403 0
22 2 S116 891 384461 5294 0
22 2 S116 906 385367 6200 0
0 0 0 972 386339 -10484 0
0 0 0 988 387327 -9496 0
0 0 0 970 388297 -8526 0
0 0 0 954 389251 -7572 0
0 0 0 885 390136 -6687 0
0 0 0 772 390908 -5915 0
0 0 0 727 391635 -5188 0
0 0 0 734 392369 -4454 0
0 0 0 738 393107 -3716 0
0 0 0 700 393807 -3016 0
0 0 0 778 394585 -2238 0
23 1 S112 917 395502 -1321 0
23 1 S112 795 396297 -526 0
23 2 S112 750 397047 224 0
23 2 S112 738 397785 962 0
23 2 S112 875 398660 1837 0
23 2 S112 1076 399736 2913 0
23 2 S112 1050 400786 3963 0
23 2 S112 975 401761 4938 0
23 2 S112 898 402659 5836 0
23 2 S112 874 403533 6710 0
0 0 0 889 404422 -9759 0
0 0 0 872 405294 -8887 0
0 0 0 889 406183 -7998 0
0 0 0 911 407094 -7087 0
0 0 0 890 407984 -6197 0
0 0 0 852 408836 -5345 0
0 0 0 874 409710 -4471 0
0 0 0 931 410641 -3540 0
0 0 0 964 411605 -2576 0
24 1 S106 930 412535 -1646 0
24 1 S106 868 413403 -778 0
24 2 S106 893 414296 115 0
24 2 S106 899 415195 1014 0
24 2 S106 927 416122 1941 0
24 2 S106 918 417040 2859 0
24 2 S106 854 417894 3713 0
24 2 S106 833 418727 4546 0
24 2 S106 876 419603 5422 0
24 2 S106 886 420489 6308 0
0 0 0 918 421407 -9651 0
0 0 0 889 422296 -8762 0
0 0 0 880 423176 -7882 0
0 0 0 913 424089 -6969 0
0 0 0 922 425011 -6047 0
0 0 0 903 425914 -5144 0
0 0 0 835 426749 -4309 0
0 0 0 854 427603 -3455 0
0 0 0 857 428460 -2598 0
25 1 S102 868 429328 -1730 0
25 1 S102 897 430225 -833 0
25 2 S102 861 431086 28 0
25 2 S102 896 431982 924 0
25 2 S102 934 432916 1858 0
25 2 S102 956 433872 2814 0
25 2 S102 981 434853 3795 0
25 2 S102 944 435797 4739 0
25 2 S102 914 436711 5653 0
25 2 S102 898 437609 6551 0
0 0 0 889 438498 -5988 0
0 0 0 859 439357 -5129 0
0 0 0 879 440236 -4250 0
0 0 0 875 441111 -3375 0
0 0 0 857 441968 -2518 0
26 1 S116 821 442789 -1697 0
26 1 S116 849 443638 -848 0
26 2 S116 898 444536 50 0
26 2 S116 960 445496 1010 0
26 2 S116 972 446468 1982 0
26 2 S116 930 447398 2912 0
26 2 S116 854 448252 3766 0
26 2 S116 882 449134 4648 0
26 2 S116 879 450013 5527 0
26 2 S116 860 450873 6387 0
0 0 0 848 451721 -7371 0
0 0 0 798 452519 -6573 0
0 0 0 795 453314 -5778 0
0 0 0 870 454184 -4908 0
0 0 0 875 455059 -4033 0
0 0 0 889 455948 -3144 0
0 0 0 805 456753 -2339 0
27 1 S106 749 457502 -1590 0
27 1 S106 718 458220 -872 0
27 1 S106 740 458960 -132 0
27 2 S106 798 459758 666 0
27 2 S106 992 460750 1658 0
27 2 S106 1005 461755 2663 0
27 2 S106 963 462718 3626 0
27 2 S106 850 463568 4476 0
27 2 S106 753 464321 5229 0
27 2 S106 774 465095 6003 0
27 2 S106 785 465880 6788 0
0 0 0 892 466772 -6030 0
0 0 0 976 467748 -5054 0
0 0 0 901 468649 -4153 0
0 0 0 777 469426 -3376 0
0 0 0 743 470169 -2633 0
28 1 S102 732 470901 -1901 0
28 1 S102 803 471704 -1098 0
28 1 S102 1034 472738 -64 0
28 2 S102 1056 473794 992 0
28 2 S102 991 474785 1983 0
28 2 S102 974 475759 2957 0
28 2 S102 1009 476768 3966 0
28 2 S102 1000 477768 4966 0
28 2 S102 923 478691 5889 0
28 2 S102 917 479608 6806 0
0 0 0 946 480554 -10800 0
0 0 0 983 481537 -9817 0
0 0 0 963 482500 -8854 0
0 0 0 854 483354 -8000 0
0 0 0 733 484087 -7267 0
0 0 0 717 484804 -6550 0
0 0 0 692 485496 -5858 0
0 0 0 662 486158 -5196 0
0 0 0 705 486863 -4491 0
0 0 0 1057 487920 -3434 0
0 0 0 1108 489028 -2326 0
29 1 S112 1025 490053 -1301 0
29 1 S112 934 490987 -367 0
29 2 S112 858 491845 491 0
29 2 S112 833 492678 1324 0
29 2 S112 859 493537 2183 0
29 2 S112 892 494429 3075 0
29 2 S112 929 495358 4004 0
29 2 S112 893 496251 4897 0
29 2 S112 937 497188 5834 0
29 2 S112 1034 498222 6868 0
0 0 0 1053 499275 -7331 0
0 0 0 978 500253 -6353 0
0 0 0 972 501225 -5381 0
0 0 0 921 502146 -4460 0
0 0 0 798 502944 -3662 0
0 0 0 709 503653 -2953 0
0 0 0 723 504376 -2230 0
30 1 S112 930 505306 -1300 0
30 1 S112 1295 506601 -5 1
30 2 S112 1103 507704 1098 0
30 2 S112 1087 508791 2185 0
30 2 S112 1005 509796 3190 0
30 2 S112 1033 510829 4223 0
30 2 S112 1033 511862 5256 0
30 2 S112 999 512861 6255 0
0 0 0 955 513816 -9501 0
0 0 0 900 514716 -8601 0
0 0 0 824 515540 -7777 0
0 0 0 868 516408 -6909 0
0 0 0 865 517273 -6044 0
0 0 0 844 518117 -5200 0
0 0 0 803 518920 -4397 0
0 0 0 763 519683 -3634 0
0 0 0 791 520474 -2843 0
31 1 S106 890 521364 -1953 0
31 1 S106 983 522347 -970 0
31 2 S106 1019 523366 49 0
31 2 S106 991 524357 1040 0
31 2 S106 969 525326 2009 0
31 2 S106 881 526207 2890 0
31 2 S106 872 527079 3762 0
31 2 S106 854 527933 4616 0
31 2 S106 851 528784 5467 0
31 2 S106 919 529703 6386 0
0 0 0 924 530627 -9782 0
0 0 0 906 531533 -8876 0
0 0 0 896 532429 -7980 0
0 0 0 915 533344 -7065 0
0 0 0 899 534243 -6166 0
0 0 0 875 535118 -5291 0
0 0 0 810 535928 -4481 0
0 0 0 870 536798 -3611 0
0 0 0 878 537676 -2733 0
32 1 S102 876 538552 -1857 0
32 1 S102 902 539454 -955 0
32 1 S102 861 540315 -94 0
32 2 S102 850 541165 756 0
32 2 S102 851 542016 1607 0
32 2 S102 846 542862 2453 0
32 2 S102 874 543736 3327 0
32 2 S102 886 544622 4213 0
32 2 S102 880 545502 5093 0
32 2 S102 925 546427 6018 0
32 2 S102 959 547386 6977 0
0 0 0 1004 548390 -9990 0
0 0 0 1000 549390 -8990 0
0 0 0 862 550252 -8128 0
0 0 0 786 551038 -7342 0
0 0 0 693 551731 -6649 0
0 0 0 654 552385 -5995 0
0 0 0 636 553021 -5359 0
0 0 0 626 553647 -4733 0
0 0 0 615 554262 -4118 1
0 0 0 602 554864 -3516 1
0 0 0 600 555464 -2916 1
0 0 0 607 556071 -2309 1
33 1 S112 649 556720 -1660 0
33 1 S112 693 557413 -967 0
33 1 S112 702 558115 -265 0
33 2 S112 697 558812 432 0
33 2 S112 706 559518 1138 0
33 2 S112 733 560251 1871 0
33 2 S112 753 561004 2624 0
33 2 S112 780 561784 3404 0
33 2 S112 785 562569 4189 0
33 2 S112 782 563351 4971 0
33 2 S112 784 564135 5755 0
33 2 S112 824 564959 6579 0
0 0 0 906 565865 -11846 0
0 0 0 955 566820 -10891 0
0 0 0 977 567797 -9914 0
0 0 0 970 568767 -8944 0
0 0 0 920 569687 -8024 0
0 0 0 800 570487 -7224 0
0 0 0 743 571230 -6481 0
0 0 0 680 571910 -5801 0
0 0 0 664 572574 -5137 0
0 0 0 714 573288 -4423 0
0 0 0 769 574057 -3654 0
0 0 0 805 574862 -2849 0
34 1 S106 897 575759 -1952 0
34 1 S106 965 576724 -987 0
34 1 S106 953 577677 -34 0
34 2 S106 933 578610 899 0
34 2 S106 877 579487 1776 0
34 2 S106 831 580318 2607 0
34 2 S106 791 581109 3398 0
34 2 S106 755 581864 4153 0
34 2 S106 877 582741 5030 0
34 2 S106 939 583680 5969 0
34 2 S106 927 584607 6896 0
0 0 0 1001 585608 -7769 0
0 0 0 978 586586 -6791 0
0 0 0 862 587448 -5929 0
0 0 0 767 588215 -5162 0
0 0 0 716 588931 -4446 0
0 0 0 681 589612 -3765 0
0 0 0 702 590314 -3063 0
0 0 0 814 591128 -2249 0
35 1 S102 1089 592217 -1160 0
35 1 S102 1004 593221 -156 0
35 2 S102 912 594133 756 0
35 2 S102 906 595039 1662 0
35 2 S102 861 595900 2523 0
35 2 S102 876 596776 3399 0
35 2 S102 859 597635 4258 0
35 2 S102 825 598460 5083 0
35 2 S102 775 599235 5858 0
35 2 S102 783 600018 6641 0
0 0 0 818 600836 -7959 0
0 0 0 884 601720 -7075 0
0 0 0 969 602689 -6106 0
0 0 0 976 603665 -5130 0
0 0 0 885 604550 -4245 0
0 0 0 765 605315 -3480 0
0 0 0 723 606038 -2757 0
0 0 0 716 606754 -2041 0
36 1 S106 780 607534 -1261 0
36 1 S106 1052 608586 -209 0
36 2 S106 1064 609650 855 0
36 2 S106 993 610643 1848 0
36 2 S106 926 611569 2774 0
36 2 S106 944 612513 3718 0
36 2 S106 931 613444 4649 0
36 2 S106 908 614352 5557 0
36 2 S106 819 615171 6376 0
0 0 0 858 616029 -8582 0
0 0 0 875 616904 -7707 0
0 0 0 932 617836 -6775 0
0 0 0 912 618748 -5863 0
0 0 0 883 619631 -4980 0
0 0 0 802 620433 -4178 0
0 0 0 771 621204 -3407 0
0 0 0 738 621942 -2669 0
37 1 S116 758 622700 -1911 0
37 1 S116 843 623543 -1068 0
37 1 S116 977 624520 -91 0
37 2 S116 1015 625535 924 0
37 2 S116 983 626518 1907 0
37 2 S116 942 627460 2849 0
37 2 S116 945 628405 3794 0
37 2 S116 952 629357 4746 0
37 2 S116 949 630306 5695 0
37 2 S116 957 631263 6652 0
0 0 0 900 632163 -11630 0
0 0 0 884 633047 -10746 0
0 0 0 848 633895 -9898 0
0 0 0 838 634733 -9060 0
0 0 0 754 635487 -8306 0
0 0 0 708 636195 -7598 0
0 0 0 691 636886 -6907 0
0 0 0 654 637540 -6253 0
0 0 0 770 638310 -5483 0
0 0 0 884 639194 -4599 0
0 0 0 810 640004 -3789 0
0 0 0 817 640821 -2972 0
0 0 0 826 641647 -2146 0
38 1 S102 942 642589 -1204 0
38 1 S102 888 643477 -316 0
38 2 S102 785 644262 469 0
38 2 S102 748 645010 1217 0
38 2 S102 766 645776 1983 0
38 2 S102 801 646577 2784 0
38 2 S102 928 647505 3712 0
38 2 S102 948 648453 4660 0
38 2 S102 897 649350 5557 0
38 2 S102 820 650170 6377 0
0 0 0 806 650976 -10307 0
0 0 0 875 651851 -9432 0
0 0 0 892 652743 -8540 0
0 0 0 933 653676 -7607 0
0 0 0 927 654603 -6680 0
0 0 0 764 655367 -5916 0
0 0 0 769 656136 -5147 0
0 0 0 768 656904 -4379 0
0 0 0 748 657652 -3631 0
0 0 0 733 658385 -2898 0
0 0 0 754 659139 -2144 0
39 1 S116 859 659998 -1285 0
39 1 S116 1011 661009 -274 0
39 2 S116 1004 662013 730 0
39 2 S116 964 662977 1694 0
39 2 S116 890 663867 2584 0
39 2 S116 791 664658 3375 0
39 2 S116 759 665417 4134 0
39 2 S116 760 666177 4894 0
39 2 S116 926 667103 5820 0
39 2 S116 1048 668151 6868 0
0 0 0 975 669126 -7691 0
0 0 0 943 670069 -6748 0
0 0 0 864 670933 -5884 0
0 0 0 922 671855 -4962 0
0 0 0 883 672738 -4079 0
0 0 0 909 673647 -3170 0
0 0 0 890 674537 -2280 0
40 1 S112 859 675396 -1421 0
40 1 S112 868 676264 -553 0
40 2 S112 890 677154 337 0
40 2 S112 941 678095 1278 0
40 2 S112 981 679076 2259 0
40 2 S112 993 680069 3252 0
40 2 S112 990 681059 4242 0
40 2 S112 954 682013 5196 0
40 2 S112 927 682940 6123 0
0 0 0 908 683848 -189473 0
0 0 0 892 684740 -188581 0
0 0 0 828 685568 -187753 0
0 0 0 856 686424 -186897 0
0 0 0 920 687344 -185977 0
0 0 0 980 688324 -184997 0
0 0 0 962 689286 -184035 0
0 0 0 770 690056 -183265 0
0 0 0 734 690790 -182531 0
0 0 0 736 691526 -181795 0
0 0 0 761 692287 -181034 0
0 0 0 922 693209 -180112 0
0 0 0 916 694125 -179196 0
0 0 0 816 694941 -178380 0
0 0 0 764 695705 -177616 0
0 0 0 711 696416 -176905 0
0 0 0 684 697100 -176221 0
0 0 0 651 697751 -175570 0
0 0 0 623 698374 -174947 0
0 0 0 640 699014 -174307 0
0 0 0 748 699762 -173559 0
0 0 0 900 700662 -172659 0
0 0 0 955 701617 -171704 0
0 0 0 925 702542 -170779 0
0 0 0 867 703409 -169912 0
0 0 0 764 704173 -169148 0
0 0 0 715 704888 -168433 0
0 0 0 702 705590 -167731 0
0 0 0 664 706254 -167067 0
0 0 0 644 706898 -166423 0
0 0 0 659 707557 -165764 0
0 0 0 743 708300 -165021 0
0 0 0 972 709272 -164049 0
0 0 0 994 710266 -163055 0
0 0 0 990 711256 -162065 0
0 0 0 938 712194 -161127 0
0 0 0 838 713032 -160289 0
0 0 0 753 713785 -159536 0
0 0 0 784 714569 -158752 0
0 0 0 815 715384 -157937 0
0 0 0 930 716314 -157007 0
0 0 0 921 717235 -156086 0
0 0 0 901 718136 -155185 0
0 0 0 802 718938 -154383 0
0 0 0 741 719679 -153642 0
0 0 0 685 720364 -152957 0
0 0 0 708 721072 -152249 0
0 0 0 771 721843 -151478 0
0 0 0 858 722701 -150620 0
0 0 0 981 723682 -149639 0
0 0 0 1011 724693 -148628 0
0 0 0 965 725658 -147663 0
0 0 0 896 726554 -146767 0
0 0 0 874 727428 -145893 0
0 0 0 871 728299 -145022 0
0 0 0 874 729173 -144148 0
0 0 0 922 730095 -143226 0
0 0 0 923 731018 -142303 0
0 0 0 904 731922 -141399 0
0 0 0 937 732859 -140462 0
0 0 0 937 733796 -139525 0
0 0 0 886 734682 -138639 0
0 0 0 915 735597 -137724 0
0 0 0 903 736500 -136821 0
0 0 0 876 737376 -135945 0
0 0 0 852 738228 -135093 0
0 0 0 862 739090 -134231 0
0 0 0 845 739935 -133386 0
0 0 0 865 740800 -132521 0
0 0 0 850 741650 -131671 0
0 0 0 876 742526 -130795 0
0 0 0 896 743422 -129899 0
0 0 0 865 744287 -129034 0
0 0 0 872 745159 -128162 0
0 0 0 868 746027 -127294 0
0 0 0 849 746876 -126445 0
0 0 0 812 747688 -125633 0
0 0 0 827 748515 -124806 0
0 0 0 823 749338 -123983 0
0 0 0 790 750128 -123193 0
0 0 0 819 750947 -122374 0
0 0 0 859 751806 -121515 0
0 0 0 892 752698 -120623 0
0 0 0 995 753693 -119628 0
0 0 0 993 754686 -118635 0
0 0 0 927 755613 -117708 0
0 0 0 893 756506 -116815 0
0 0 0 890 757396 -115925 0
0 0 0 887 758283 -115038 0
0 0 0 872 759155 -114166 0
0 0 0 910 760065 -113256 0
0 0 0 910 760975 -112346 0
0 0 0 844 761819 -111502 0
0 0 0 894 762713 -110608 0
0 0 0 900 763613 -109708 0
0 0 0 932 764545 -108776 0
0 0 0 938 765483 -107838 0
0 0 0 916 766399 -106922 0
0 0 0 933 767332 -105989 0
0 0 0 920 768252 -105069 0
0 0 0 888 769140 -104181 0
0 0 0 905 770045 -103276 0
0 0 0 896 770941 -102380 0
0 0 0 881 771822 -101499 0
0 0 0 856 772678 -100643 0
0 0 0 844 773522 -99799 0
0 0 0 802 774324 -98997 0
0 0 0 752 775076 -98245 0
0 0 0 802 775878 -97443 0
0 0 0 839 776717 -96604 0
0 0 0 844 777561 -95760 0
0 0 0 1062 778623 -94698 0
0 0 0 1059 779682 -93639 0
0 0 0 926 780608 -92713 0
0 0 0 930 781538 -91783 0
0 0 0 913 782451 -90870 0
0 0 0 836 783287 -90034 0
0 0 0 831 784118 -89203 0
0 0 0 810 784928 -88393 0
0 0 0 918 785846 -87475 0
0 0 0 938 786784 -86537 0
0 0 0 933 787717 -85604 0
0 0 0 874 788591 -84730 0
0 0 0 909 789500 -83821 0
0 0 0 976 790476 -82845 0
0 0 0 961 791437 -81884 0
0 0 0 882 792319 -81002 0
0 0 0 843 793162 -80159 0
0 0 0 818 793980 -79341 0
0 0 0 785 794765 -78556 0
0 0 0 901 795666 -77655 0
0 0 0 874 796540 -76781 0
0 0 0 961 797501 -75820 0
0 0 0 949 798450 -74871 0
0 0 0 969 799419 -73902 0
0 0 0 891 800310 -73011 0
0 0 0 962 801272 -72049 0
0 0 0 956 802228 -71093 0
0 0 0 899 803127 -70194 0
0 0 0 809 803936 -69385 0
0 0 0 829 804765 -68556 0
0 0 0 821 805586 -67735 0
0 0 0 964 806550 -66771 0
0 0 0 915 807465 -65856 0
0 0 0 1007 808472 -64849 0
0 0 0 1001 809473 -63848 0
0 0 0 977 810450 -62871 0
0 0 0 872 811322 -61999 0
0 0 0 916 812238 -61083 0
0 0 0 927 813165 -60156 0
0 0 0 990 814155 -59166 0
0 0 0 941 815096 -58225 0
0 0 0 1021 816117 -57204 0
0 0 0 1049 817166 -56155 0
0 0 0 1059 818225 -55096 0
0 0 0 1005 819230 -54091 0
0 0 0 994 820224 -53097 0
0 0 0 949 821173 -52148 0
0 0 0 830 822003 -51318 0
0 0 0 816 822819 -50502 0
0 0 0 707 823526 -49795 0
0 0 0 656 824182 -49139 0
0 0 0 631 824813 -48508 0
0 0 0 610 825423 -47898 1
0 0 0 606 826029 -47292 1
0 0 0 617 826646 -46675 0
0 0 0 875 827521 -45800 0
0 0 0 856 828377 -44944 0
0 0 0 830 829207 -44114 0
0 0 0 812 830019 -43302 0
0 0 0 790 830809 -42512 0
0 0 0 749 831558 -41763 0
0 0 0 714 832272 -41049 0
0 0 0 705 832977 -40344 0
0 0 0 713 833690 -39631 0
0 0 0 709 834399 -38922 0
0 0 0 732 835131 -38190 0
0 0 0 701 835832 -37489 0
0 0 0 710 836542 -36779 0
0 0 0 805 837347 -35974 0
0 0 0 1012 838359 -34962 0
0 0 0 1037 839396 -33925 0
0 0 0 990 840386 -32935 0
0 0 0 876 841262 -32059 0
0 0 0 887 842149 -31172 0
0 0 0 833 842982 -30339 0
0 0 0 826 843808 -29513 0
0 0 0 817 844625 -28696 0
0 0 0 806 845431 -27890 0
0 0 0 839 846270 -27051 0
0 0 0 1028 847298 -26023 0
0 0 0 1055 848353 -24968 0
0 0 0 994 849347 -23974 0
0 0 0 983 850330 -22991 0
0 0 0 933 851263 -22058 0
0 0 0 956 852219 -21102 0
0 0 0 968 853187 -20134 0
0 0 0 905 854092 -19229 0
0 0 0 910 855002 -18319 0
0 0 0 937 855939 -17382 0
0 0 0 881 856820 -16501 0
0 0 0 908 857728 -15593 0
0 0 0 935 858663 -14658 0
0 0 0 920 859583 -13738 0
0 0 0 906 860489 -12832 0
0 0 0 932 861421 -11900 0
0 0 0 919 862340 -10981 0
0 0 0 913 863253 -10068 0
0 0 0 907 864160 -9161 0
0 0 0 904 865064 -8257 0
0 0 0 873 865937 -7384 0
0 0 0 878 866815 -6506 0
0 0 0 900 867715 -5606 0
0 0 0 914 868629 -4692 0
0 0 0 807 869436 -3885 0
0 0 0 792 870228 -3093 0
0 0 0 742 870970 -2351 0
41 1 S102 690 871660 -1661 0
41 1 S102 644 872304 -1017 0
41 1 S102 634 872938 -383 0
41 2 S102 661 873599 278 0
41 2 S102 731 874330 1009 0
41 2 S102 811 875141 1820 0
41 2 S102 813 875954 2633 0
41 2 S102 754 876708 3387 0
41 2 S102 785 877493 4172 0
41 2 S102 784 878277 4956 0
41 2 S102 788 879065 5744 0
41 2 S102 738 879803 6482 0
0 0 0 746 880549 -7593 0
0 0 0 815 881364 -6778 0
0 0 0 880 882244 -5898 0
0 0 0 926 883170 -4972 0
0 0 0 858 884028 -4114 0
0 0 0 737 884765 -3377 0
0 0 0 680 885445 -2697 0
0 0 0 672 886117 -2025 0
42 1 S112 710 886827 -1315 0
42 1 S112 982 887809 -333 0
42 2 S112 1044 888853 711 0
42 2 S112 1062 889915 1773 0
42 2 S112 1007 890922 2780 0
42 2 S112 983 891905 3763 0
42 2 S112 900 892805 4663 0
42 2 S112 900 893705 5563 0
42 2 S112 876 894581 6439 0
0 0 0 856 895437 -10345 0
0 0 0 915 896352 -9430 0
0 0 0 908 897260 -8522 0
0 0 0 920 898180 -7602 0
0 0 0 843 899023 -6759 0
0 0 0 785 899808 -5974 0
0 0 0 793 900601 -5181 0
0 0 0 832 901433 -4349 0
0 0 0 858 902291 -3491 0
0 0 0 856 903147 -2635 0
43 1 S116 881 904028 -1754 0
43 1 S116 882 904910 -872 0
43 2 S116 878 905788 6 0
43 2 S116 803 906591 809 0
43 2 S116 870 907461 1679 0
43 2 S116 945 908406 2624 0
43 2 S116 977 909383 3601 0
43 2 S116 989 910372 4590 0
43 2 S116 928 911300 5518 0
43 2 S116 844 912144 6362 0
0 0 0 898 913042 -8174 0
0 0 0 898 913940 -7276 0
0 0 0 942 914882 -6334 0
0 0 0 946 915828 -5388 0
0 0 0 919 916747 -4469 0
0 0 0 818 917565 -3651 0
0 0 0 818 918383 -2833 0
0 0 0 740 919123 -2093 0
44 1 S102 736 919859 -1357 0
44 1 S102 822 920681 -535 0
44 2 S102 892 921573 357 0
44 2 S102 817 922390 1174 0
44 2 S102 850 923240 2024 0
44 2 S102 890 924130 2914 0
44 2 S102 903 925033 3817 0
44 2 S102 929 925962 4746 0
44 2 S102 885 926847 5631 0
44 2 S102 948 927795 6579 0
0 0 0 1021 928816 -8630 0
0 0 0 981 929797 -7649 0
0 0 0 947 930744 -6702 0
0 0 0 861 931605 -5841 0
0 0 0 786 932391 -5055 0
0 0 0 804 933195 -4251 0
0 0 0 810 934005 -3441 0
0 0 0 896 934901 -2545 0
45 1 S116 954 935855 -1591 0
45 1 S116 902 936757 -689 0
45 2 S116 895 937652 206 0
45 2 S116 902 938554 1108 0
45 2 S116 922 939476 2030 0
45 2 S116 943 940419 2973 0
45 2 S116 965 941384 3938 0
45 2 S116 942 942326 4880 0
45 2 S116 867 943193 5747 0
45 2 S116 915 944108 6662 0
0 0 0 920 945028 -11848 0
0 0 0 922 945950 -10926 0
0 0 0 906 946856 -10020 0
0 0 0 862 947718 -9158 0
0 0 0 848 948566 -8310 0
0 0 0 887 949453 -7423 0
0 0 0 929 950382 -6494 0
0 0 0 926 951308 -5568 0
0 0 0 875 952183 -4693 0
0 0 0 896 953079 -3797 0
0 0 0 842 953921 -2955 0
0 0 0 789 954710 -2166 0
46 1 S102 721 955431 -1445 0
46 1 S102 684 956115 -761 0
46 1 S102 667 956782 -94 0
46 2 S102 706 957488 612 0
46 2 S102 1202 958690 1814 1
46 2 S102 1087 959777 2901 0
46 2 S102 1027 960804 3928 0
46 2 S102 998 961802 4926 0
46 2 S102 922 962724 5848 0
46 2 S102 881 963605 6729 0
0 0 0 892 964497 -9588 0
0 0 0 898 965395 -8690 0
0 0 0 912 966307 -7778 0
0 0 0 922 967229 -6856 0
0 0 0 824 968053 -6032 0
0 0 0 755 968808 -5277 0
0 0 0 747 969555 -4530 0
0 0 0 776 970331 -3754 0
0 0 0 914 971245 -2840 0
47 1 S112 1024 972269 -1816 0
47 1 S112 995 973264 -821 0
47 2 S112 999 974263 178 0
47 2 S112 981 975244 1159 0
47 2 S112 975 976219 2134 0
47 2 S112 960 977179 3094 0
47 2 S112 938 978117 4032 0
47 2 S112 903 979020 4935 0
47 2 S112 824 979844 5759 0
47 2 S112 802 980646 6561 0
0 0 0 843 981489 -11512 0
0 0 0 938 982427 -10574 0
0 0 0 939 983366 -9635 0
0 0 0 977 984343 -8658 0
0 0 0 876 985219 -7782 0
0 0 0 792 986011 -6990 0
0 0 0 795 986806 -6195 0
0 0 0 760 987566 -5435 0
0 0 0 902 988468 -4533 0
0 0 0 1038 989506 -3495 0
0 0 0 984 990490 -2511 0
48 1 S116 1000 991490 -1511 0
48 1 S116 960 992450 -551 0
48 2 S116 870 993320 319 0
48 2 S116 859 994179 1178 0
48 2 S116 864 995043 2042 0
48 2 S116 883 995926 2925 0
48 2 S116 901 996827 3826 0
48 2 S116 872 997699 4698 0
48 2 S116 941 998640 5639 0
48 2 S116 973 999613 6612 0
0 0 0 964 1000577 -6565 0
0 0 0 917 1001494 -5648 0
0 0 0 936 1002430 -4712 0
0 0 0 909 1003339 -3803 0
0 0 0 833 1004172 -2970 0
0 0 0 786 1004958 -2184 0
49 1 S112 797 1005755 -1387 0
49 1 S112 895 1006650 -492 0
49 2 S112 983 1007633 491 0
49 2 S112 943 1008576 1434 0
49 2 S112 968 1009544 2402 0
49 2 S112 950 1010494 3352 0
49 2 S112 934 1011428 4286 0
49 2 S112 951 1012379 5237 0
49 2 S112 945 1013324 6182 0
0 0 0 941 1014265 -12291 0
0 0 0 924 1015189 -11367 0
0 0 0 855 1016044 -10512 0
0 0 0 876 1016920 -9636 0
0 0 0 895 1017815 -8741 0
0 0 0 880 1018695 -7861 0
0 0 0 867 1019562 -6994 0
0 0 0 851 1020413 -6143 0
0 0 0 892 1021305 -5251 0
0 0 0 942 1022247 -4309 0
0 0 0 965 1023212 -3344 0
0 0 0 935 1024147 -2409 0
50 1 S106 896 1025043 -1513 0
50 1 S106 806 1025849 -707 0
50 2 S106 759 1026608 52 0
50 2 S106 731 1027339 783 0
50 2 S106 807 1028146 1590 0
50 2 S106 987 1029133 2577 0
50 2 S106 1014 1030147 3591 0
50 2 S106 940 1031087 4531 0
50 2 S106 879 1031966 5410 0
50 2 S106 916 1032882 6326 0
0 0 0 935 1033817 -7328 0
0 0 0 913 1034730 -6415 0
0 0 0 885 1035615 -5530 0
0 0 0 830 1036445 -4700 0
0 0 0 745 1037190 -3955 0
0 0 0 734 1037924 -3221 0
0 0 0 754 1038678 -2467 0
51 1 S112 877 1039555 -1590 0
51 1 S112 1010 1040565 -580 0
51 2 S112 936 1041501 356 0
51 2 S112 945 1042446 1301 0
51 2 S112 911 1043357 2212 0
51 2 S112 902 1044259 3114 0
51 2 S112 930 1045189 4044 0
51 2 S112 925 1046114 4969 0
51 2 S112 913 1047027 5882 0
51 2 S112 878 1047905 6760 0
0 0 0 825 1048730 -7468 0
0 0 0 780 1049510 -6688 0
0 0 0 809 1050319 -5879 0
0 0 0 819 1051138 -5060 0
0 0 0 802 1051940 -4258 0
0 0 0 742 1052682 -3516 0
0 0 0 686 1053368 -2830 0
0 0 0 672 1054040 -2158 0
52 1 S116 799 1054839 -1359 0
52 1 S116 997 1055836 -362 0
52 2 S116 957 1056793 595 0
52 2 S116 853 1057646 1448 0
52 2 S116 819 1058465 2267 0
52 2 S116 867 1059332 3134 0
52 2 S116 882 1060214 4016 0
52 2 S116 828 1061042 4844 0
52 2 S116 813 1061855 5657 0
52 2 S116 811 1062666 6468 0
0 0 0 854 1063520 -8510 0
0 0 0 925 1064445 -7585 0
0 0 0 939 1065384 -6646 0
0 0 0 880 1066264 -5766 0
0 0 0 813 1067077 -4953 0
0 0 0 844 1067921 -4109 0
0 0 0 860 1068781 -3249 0
0 0 0 884 1069665 -2365 0
53 1 S106 903 1070568 -1462 0
53 1 S106 848 1071416 -614 0
53 2 S106 894 1072310 280 0
53 2 S106 903 1073213 1183 0
53 2 S106 928 1074141 2111 0
53 2 S106 881 1075022 2992 0
53 2 S106 879 1075901 3871 0
53 2 S106 871 1076772 4742 0
53 2 S106 872 1077644 5614 0
53 2 S106 934 1078578 6548 0
0 0 0 923 1079501 -7383 0
0 0 0 912 1080413 -6471 0
0 0 0 904 1081317 -5567 0
0 0 0 889 1082206 -4678 0
0 0 0 827 1083033 -3851 0
0 0 0 765 1083798 -3086 0
0 0 0 781 1084579 -2305 0
54 1 S102 910 1085489 -1395 0
54 1 S102 1148 1086637 -247 1
54 2 S102 1069 1087706 822 0
54 2 S102 1075 1088781 1897 0
54 2 S102 1069 1089850 2966 0
54 2 S102 1015 1090865 3981 0
54 2 S102 932 1091797 4913 0
54 2 S102 931 1092728 5844 0
54 2 S102 939 1093667 6783 0
0 0 0 946 1094613 -12166 0
0 0 0 921 1095534 -11245 0
0 0 0 901 1096435 -10344 0
0 0 0 843 1097278 -9501 0
0 0 0 844 1098122 -8657 0
0 0 0 782 1098904 -7875 0
0 0 0 751 1099655 -7124 0
0 0 0 695 1100350 -6429 0
0 0 0 694 1101044 -5735 0
0 0 0 687 1101731 -5048 0
0 0 0 741 1102472 -4307 0
0 0 0 1063 1103535 -3244 0
0 0 0 1014 1104549 -2230 0
55 1 S106 950 1105499 -1280 0
55 1 S106 927 1106426 -353 0
55 2 S106 893 1107319 540 0
55 2 S106 859 1108178 1399 0
55 2 S106 828 1109006 2227 0
55 2 S106 823 1109829 3050 0
55 2 S106 785 1110614 3835 0
55 2 S106 786 1111400 4621 0
55 2 S106 828 1112228 5449 0
55 2 S106 943 1113171 6392 0
0 0 0 975 1114146 -7371 0
0 0 0 915 1115061 -6456 0
0 0 0 849 1115910 -5607 0
0 0 0 855 1116765 -4752 0
0 0 0 847 1117612 -3905 0
0 0 0 862 1118474 -3043 0
0 0 0 831 1119305 -2212 0
56 1 S116 849 1120154 -1363 0
56 1 S116 905 1121059 -458 0
56 2 S116 927 1121986 469 0
56 2 S116 976 1122962 1445 0
56 2 S116 996 1123958 2441 0
56 2 S116 984 1124942 3425 0
56 2 S116 875 1125817 4300 0
56 2 S116 876 1126693 5176 0
56 2 S116 858 1127551 6034 0
56 2 S116 873 1128424 6907 0
0 0 0 931 1129355 -7613 0
0 0 0 877 1130232 -6736 0
0 0 0 925 1131157 -5811 0
0 0 0 944 1132101 -4867 0
0 0 0 908 1133009 -3959 0
0 0 0 857 1133866 -3102 0
0 0 0 821 1134687 -2281 0
57 1 S106 831 1135518 -1450 0
57 1 S106 848 1136366 -602 0
57 2 S106 900 1137266 298 0
57 2 S106 937 1138203 1235 0
57 2 S106 953 1139156 2188 0
57 2 S106 882 1140038 3070 0
57 2 S106 897 1140935 3967 0
57 2 S106 911 1141846 4878 0
57 2 S106 888 1142734 5766 0
57 2 S106 882 1143616 6648 0
0 0 0 905 1144521 -7881 0
0 0 0 911 1145432 -6970 0
0 0 0 904 1146336 -6066 0
0 0 0 804 1147140 -5262 0
0 0 0 756 1147896 -4506 0
0 0 0 663 1148559 -3843 0
0 0 0 640 1149199 -3203 0
0 0 0 705 1149904 -2498 0
58 1 S102 1209 1151113 -1289 1
58 1 S102 1040 1152153 -249 0
58 2 S102 1041 1153194 792 0
58 2 S102 1030 1154224 1822 0
58 2 S102 963 1155187 2785 0
58 2 S102 911 1156098 3696 0
58 2 S102 915 1157013 4611 0
58 2 S102 930 1157943 5541 0
58 2 S102 891 1158834 6432 0
0 0 0 879 1159713 -7809 0
0 0 0 822 1160535 -6987 0
0 0 0 865 1161400 -6122 0
0 0 0 951 1162351 -5171 0
0 0 0 997 1163348 -4174 0
0 0 0 926 1164274 -3248 0
0 0 0 862 1165136 -2386 0
59 1 S112 922 1166058 -1464 0
59 1 S112 980 1167038 -484 0
59 2 S112 1005 1168043 521 0
59 2 S112 1039 1169082 1560 0
59 2 S112 1024 1170106 2584 0
59 2 S112 1008 1171114 3592 0
59 2 S112 943 1172057 4535 0
59 2 S112 890 1172947 5425 0
59 2 S112 873 1173820 6298 0
0 0 0 905 1174725 -10702 0
0 0 0 929 1175654 -9773 0
0 0 0 940 1176594 -8833 0
0 0 0 962 1177556 -7871 0
0 0 0 955 1178511 -6916 0
0 0 0 847 1179358 -6069 0
0 0 0 747 1180105 -5322 0
0 0 0 696 1180801 -4626 0
0 0 0 668 1181469 -3958 0
0 0 0 643 1182112 -3315 0
0 0 0 698 1182810 -2617 0
60 1 S102 1019 1183829 -1598 0
60 1 S102 1070 1184899 -528 0
60 2 S102 962 1185861 434 0
60 2 S102 946 1186807 1380 0
60 2 S102 913 1187720 2293 0
60 2 S102 841 1188561 3134 0
60 2 S102 819 1189380 3953 0
60 2 S102 807 1190187 4760 0
60 2 S102 809 1190996 5569 0
60 2 S102 867 1191863 6436 0
0 0 0 821 1192684 -11311 0
0 0 0 797 1193481 -10514 0
0 0 0 834 1194315 -9680 0
0 0 0 891 1195206 -8789 0
0 0 0 812 1196018 -7977 0
0 0 0 821 1196839 -7156 0
0 0 0 760 1197599 -6396 0
0 0 0 792 1198391 -5604 0
0 0 0 710 1199101 -4894 0
0 0 0 674 1199775 -4220 0
0 0 0 703 1200478 -3517 0
0 0 0 783 1201261 -2734 0
61 1 S106 752 1202013 -1982 0
61 1 S106 713 1202726 -1269 0
61 1 S106 728 1203454 -541 0
61 2 S106 761 1204215 220 0
61 2 S106 842 1205057 1062 0
61 2 S106 912 1205969 1974 0
61 2 S106 952 1206921 2926 0
61 2 S106 939 1207860 3865 0
61 2 S106 924 1208784 4789 0
61 2 S106 858 1209642 5647 0
61 2 S106 818 1210460 6465 0
0 0 0 847 1211307 -6962 0
0 0 0 920 1212227 -6042 0
0 0 0 966 1213193 -5076 0
0 0 0 889 1214082 -4187 0
0 0 0 773 1214855 -3414 0
0 0 0 758 1215613 -2656 0
62 1 S112 783 1216396 -1873 0
62 1 S112 739 1217135 -1134 0
62 1 S112 704 1217839 -430 0
62 2 S112 680 1218519 250 0
62 2 S112 681 1219200 931 0
62 2 S112 697 1219897 1628 0
62 2 S112 807 1220704 2435 0
62 2 S112 946 1221650 3381 0
62 2 S112 939 1222589 4320 0
62 2 S112 919 1223508 5239 0
62 2 S112 908 1224416 6147 0
0 0 0 904 1225320 -12710 0
0 0 0 878 1226198 -11832 0
0 0 0 851 1227049 -10981 0
0 0 0 848 1227897 -10133 0
0 0 0 841 1228738 -9292 0
0 0 0 828 1229566 -8464 0
0 0 0 759 1230325 -7705 0
0 0 0 719 1231044 -6986 0
0 0 0 661 1231705 -6325 0
0 0 0 636 1232341 -5689 0
0 0 0 640 1232981 -5049 0
0 0 0 691 1233672 -4358 0
0 0 0 925 1234597 -3433 0
0 0 0 944 1235541 -2489 0
63 1 S102 910 1236451 -1579 0
63 1 S102 915 1237366 -664 0
63 2 S102 934 1238300 270 0
63 2 S102 891 1239191 1161 0
63 2 S102 883 1240074 2044 0
63 2 S102 835 1240909 2879 0
63 2 S102 867 1241776 3746 0
63 2 S102 843 1242619 4589 0
63 2 S102 808 1243427 5397 0
63 2 S102 832 1244259 6229 0
0 0 0 847 1245106 -9735 0
0 0 0 917 1246023 -8818 0
0 0 0 921 1246944 -7897 0
0 0 0 922 1247866 -6975 0
0 0 0 869 1248735 -6106 0
0 0 0 810 1249545 -5296 0
0 0 0 717 1250262 -4579 0
0 0 0 662 1250924 -3917 0
0 0 0 652 1251576 -3265 0
0 0 0 667 1252243 -2598 0
64 1 S112 749 1252992 -1849 0
64 1 S112 1141 1254133 -708 1
64 2 S112 1002 1255135 294 0
64 2 S112 980 1256115 1274 0
64 2 S112 999 1257114 2273 0
64 2 S112 988 1258102 3261 0
64 2 S112 947 1259049 4208 0
64 2 S112 927 1259976 5135 0
64 2 S112 858 1260834 5993 0
64 2 S112 838 1261672 6831 0
0 0 0 788 1262460 -8545 0
0 0 0 833 1263293 -7712 0
0 0 0 952 1264245 -6760 0
0 0 0 973 1265218 -5787 0
0 0 0 996 1266214 -4791 0
0 0 0 910 1267124 -3881 0
0 0 0 832 1267956 -3049 0
0 0 0 783 1268739 -2266 0
65 1 S106 719 1269458 -1547 0
65 1 S106 674 1270132 -873 0
65 1 S106 685 1270817 -188 0
65 2 S106 773 1271590 585 0
65 2 S106 1013 1272603 1598 0
65 2 S106 1035 1273638 2633 0
65 2 S106 991 1274629 3624 0
65 2 S106 872 1275501 4496 0
65 2 S106 825 1276326 5321 0
65 2 S106 813 1277139 6134 0
65 2 S106 853 1277992 6987 0
0 0 0 918 1278910 -5871 0
0 0 0 944 1279854 -4927 0
0 0 0 890 1280744 -4037 0
0 0 0 824 1281568 -3213 0
0 0 0 776 1282344 -2437 0
66 1 S116 785 1283129 -1652 0
66 1 S116 797 1283926 -855 0
66 2 S116 881 1284807 26 0
66 2 S116 938 1285745 964 0
66 2 S116 1038 1286783 2002 0
66 2 S116 973 1287756 2975 0
66 2 S116 912 1288668 3887 0
66 2 S116 956 1289624 4843 0
66 2 S116 957 1290581 5800 0
66 2 S116 960 1291541 6760 0
0 0 0 939 1292480 -11665 0
0 0 0 896 1293376 -10769 0
0 0 0 839 1294215 -9930 0
0 0 0 818 1295033 -9112 0
0 0 0 771 1295804 -8341 0
0 0 0 708 1296512 -7633 0
0 0 0 665 1297177 -6968 0
0 0 0 635 1297812 -6333 0
0 0 0 639 1298451 -5694 0
0 0 0 649 1299100 -5045 0
0 0 0 732 1299832 -4313 0
0 0 0 1288 1301120 -3025 1
67 1 S102 1071 1302191 -1954 0
67 1 S102 1020 1303211 -934 0
67 2 S102 988 1304199 54 0
67 2 S102 958 1305157 1012 0
67 2 S102 880 1306037 1892 0
67 2 S102 822 1306859 2714 0
67 2 S102 807 1307666 3521 0
67 2 S102 829 1308495 4350 0
67 2 S102 838 1309333 5188 0
67 2 S102 826 1310159 6014 0
67 2 S102 830 1310989 6844 0
0 0 0 896 1311885 -6832 0
0 0 0 932 1312817 -5900 0
0 0 0 949 1313766 -4951 0
0 0 0 867 1314633 -4084 0
0 0 0 771 1315404 -3313 0
0 0 0 738 1316142 -2575 0
68 1 S106 736 1316878 -1839 0
68 1 S106 757 1317635 -1082 0
68 1 S106 851 1318486 -231 0
68 2 S106 901 1319387 670 0
68 2 S106 881 1320268 1551 0
68 2 S106 889 1321157 2440 0
68 2 S106 889 1322046 3329 0
68 2 S106 876 1322922 4205 0
68 2 S106 861 1323783 5066 0
68 2 S106 812 1324595 5878 0
68 2 S106 829 1325424 6707 0
0 0 0 853 1326277 -10411 0
0 0 0 880 1327157 -9531 0
0 0 0 900 1328057 -8631 0
0 0 0 807 1328864 -7824 0
0 0 0 743 1329607 -7081 0
0 0 0 711 1330318 -6370 0
0 0 0 670 1330988 -5700 0
0 0 0 655 1331643 -5045 0
0 0 0 631 1332274 -4414 0
0 0 0 621 1332895 -3793 0
0 0 0 625 1333520 -3168 0
0 0 0 655 1334175 -2513 0
69 1 S102 743 1334918 -1770 0
69 1 S102 839 1335757 -931 0
69 1 S102 856 1336613 -75 0
69 2 S102 856 1337469 781 0
69 2 S102 855 1338324 1636 0
69 2 S102 841 1339165 2477 0
69 2 S102 779 1339944 3256 0
69 2 S102 699 1340643 3955 0
69 2 S102 671 1341314 4626 0
69 2 S102 678 1341992 5304 0
69 2 S102 732 1342724 6036 0
69 2 S102 895 1343619 6931 0
0 0 0 1127 1344746 -9549 1
0 0 0 995 1345741 -8554 0
0 0 0 999 1346740 -7555 0
0 0 0 899 1347639 -6656 0
0 0 0 788 1348427 -5868 0
0 0 0 778 1349205 -5090 0
0 0 0 772 1349977 -4318 0
0 0 0 913 1350890 -3405 0
0 0 0 1060 1351950 -2345 0
70 1 S112 985 1352935 -1360 0
70 1 S112 978 1353913 -382 0
70 2 S112 959 1354872 577 0
70 2 S112 949 1355821 1526 0
70 2 S112 921 1356742 2447 0
70 2 S112 926 1357668 3373 0
70 2 S112 985 1358653 4358 0
70 2 S112 996 1359649 5354 0
70 2 S112 982 1360631 6336 0
0 0 0 937 1361568 -11527 0
0 0 0 914 1362482 -10613 0
0 0 0 890 1363372 -9723 0
0 0 0 890 1364262 -8833 0
0 0 0 816 1365078 -8017 0
0 0 0 756 1365834 -7261 0
0 0 0 735 1366569 -6526 0
0 0 0 781 1367350 -5745 0
0 0 0 882 1368232 -4863 0
0 0 0 1018 1369250 -3845 0
0 0 0 1028 1370278 -2817 0
71 1 S116 966 1371244 -1851 0
71 1 S116 945 1372189 -906 0
71 2 S116 927 1373116 21 0
71 2 S116 847 1373963 868 0
71 2 S116 872 1374835 1740 0
71 2 S116 890 1375725 2630 0
71 2 S116 858 1376583 3488 0
71 2 S116 792 1377375 4280 0
71 2 S116 909 1378284 5189 0
71 2 S116 958 1379242 6147 0
0 0 0 1016 1380258 -9398 0
0 0 0 944 1381202 -8454 0
0 0 0 820 1382022 -7634 0
0 0 0 795 1382817 -6839 0
0 0 0 752 1383569 -6087 0
0 0 0 698 1384267 -5389 0
0 0 0 662 1384929 -4727 0
0 0 0 641 1385570 -4086 0
0 0 0 643 1386213 -3443 0
0 0 0 703 1386916 -2740 0
72 1 S102 1349 1388265 -1391 1
72 1 S102 1097 1389362 -294 0
72 2 S102 1067 1390429 773 0
72 2 S102 1002 1391431 1775 0
72 2 S102 990 1392421 2765 0
72 2 S102 974 1393395 3739 0
72 2 S102 951 1394346 4690 0
72 2 S102 895 1395241 5585 0
72 2 S102 870 1396111 6455 0
0 0 0 912 1397023 -8764 0
0 0 0 960 1397983 -7804 0
0 0 0 975 1398958 -6829 0
0 0 0 979 1399937 -5850 0
0 0 0 914 1400851 -4936 0
0 0 0 850 1401701 -4086 0
0 0 0 908 1402609 -3178 0
0 0 0 911 1403520 -2267 0
73 1 S116 917 1404437 -1350 0
73 1 S116 892 1405329 -458 0
73 2 S116 857 1406186 399 0
73 2 S116 863 1407049 1262 0
73 2 S116 926 1407975 2188 0
73 2 S116 996 1408971 3184 0
73 2 S116 999 1409970 4183 0
73 2 S116 886 1410856 5069 0
73 2 S116 813 1411669 5882 0
73 2 S116 795 1412464 6677 0
0 0 0 892 1413356 -8612 0
0 0 0 945 1414301 -7667 0
0 0 0 909 1415210 -6758 0
0 0 0 787 1415997 -5971 0
0 0 0 725 1416722 -5246 0
0 0 0 702 1417424 -4544 0
0 0 0 670 1418094 -3874 0
0 0 0 718 1418812 -3156 0
0 0 0 783 1419595 -2373 0
74 1 S106 791 1420386 -1582 0
74 1 S106 873 1421259 -709 0
74 2 S106 942 1422201 233 0
74 2 S106 973 1423174 1206 0
74 2 S106 980 1424154 2186 0
74 2 S106 941 1425095 3127 0
74 2 S106 848 1425943 3975 0
74 2 S106 846 1426789 4821 0
74 2 S106 825 1427614 5646 0
74 2 S106 840 1428454 6486 0
0 0 0 877 1429331 -7872 0
0 0 0 958 1430289 -6914 0
0 0 0 951 1431240 -5963 0
0 0 0 985 1432225 -4978 0
0 0 0 938 1433163 -4040 0
0 0 0 838 1434001 -3202 0
0 0 0 832 1434833 -2370 0
75 1 S112 827 1435660 -1543 0
75 1 S112 873 1436533 -670 0
75 2 S112 970 1437503 300 0
75 2 S112 1018 1438521 1318 0
75 2 S112 1050 1439571 2368 0
75 2 S112 1054 1440625 3422 0
75 2 S112 1024 1441649 4446 0
75 2 S112 953 1442602 5399 0
75 2 S112 910 1443512 6309 0
0 0 0 916 1444428 -8027 0
0 0 0 913 1445341 -7114 0
0 0 0 904 1446245 -6210 0
0 0 0 920 1447165 -5290 0
0 0 0 888 1448053 -4402 0
0 0 0 814 1448867 -3588 0
0 0 0 841 1449708 -2747 0
76 1 S116 840 1450548 -1907 0
76 1 S116 871 1451419 -1036 0
76 1 S116 933 1452352 -103 0
76 2 S116 883 1453235 780 0
76 2 S116 955 1454190 1735 0
76 2 S116 1003 1455193 2738 0
76 2 S116 1019 1456212 3757 0
76 2 S116 923 1457135 4680 0
76 2 S116 949 1458084 5629 0
76 2 S116 955 1459039 6584 0
0 0 0 929 1459968 -6198 0
0 0 0 862 1460830 -5336 0
0 0 0 846 1461676 -4490 0
0 0 0 825 1462501 -3665 0
0 0 0 779 1463280 -2886 0
0 0 0 725 1464005 -2161 0
77 1 S106 788 1464793 -1373 0
77 1 S106 948 1465741 -425 0
77 2 S106 997 1466738 572 0
77 2 S106 972 1467710 1544 0
77 2 S106 963 1468673 2507 0
77 2 S106 929 1469602 3436 0
77 2 S106 864 1470466 4300 0
77 2 S106 893 1471359 5193 0
77 2 S106 889 1472248 6082 0
77 2 S106 926 1473174 7008 0
0 0 0 919 1474093 -8718 0
0 0 0 905 1474998 -7813 0
0 0 0 937 1475935 -6876 0
0 0 0 910 1476845 -5966 0
0 0 0 893 1477738 -5073 0
0 0 0 818 1478556 -4255 0
0 0 0 827 1479383 -3428 0
0 0 0 833 1480216 -2595 0
78 1 S112 888 1481104 -1707 0
78 1 S112 964 1482068 -743 0
78 2 S112 1009 1483077 266 0
78 2 S112 1005 1484082 1271 0
78 2 S112 996 1485078 2267 0
78 2 S112 913 1485991 3180 0
78 2 S112 900 1486891 4080 0
78 2 S112 917 1487808 4997 0
78 2 S112 908 1488716 5905 0
78 2 S112 845 1489561 6750 0
0 0 0 881 1490442 -11367 0
0 0 0 930 1491372 -10437 0
0 0 0 996 1492368 -9441 0
0 0 0 974 1493342 -8467 0
0 0 0 923 1494265 -7544 0
0 0 0 859 1495124 -6685 0
0 0 0 895 1496019 -5790 0
0 0 0 887 1496906 -4903 0
0 0 0 898 1497804 -4005 0
0 0 0 888 1498692 -3117 0
0 0 0 880 1499572 -2237 0
79 1 S102 897 1500469 -1340 0
79 1 S102 901 1501370 -439 0
79 2 S102 915 1502285 476 0
79 2 S102 921 1503206 1397 0
79 2 S102 897 1504103 2294 0
79 2 S102 869 1504972 3163 0
79 2 S102 896 1505868 4059 0
79 2 S102 938 1506806 4997 0
79 2 S102 967 1507773 5964 0
79 2 S102 978 1508751 6942 0
0 0 0 972 1509723 -9742 0
0 0 0 865 1510588 -8877 0
0 0 0 809 1511397 -8068 0
0 0 0 813 1512210 -7255 0
0 0 0 753 1512963 -6502 0
0 0 0 764 1513727 -5738 0
0 0 0 768 1514495 -4970 0
0 0 0 709 1515204 -4261 0
0 0 0 716 1515920 -3545 0
0 0 0 743 1516663 -2802 0
80 1 S116 831 1517494 -1971 0
80 1 S116 942 1518436 -1029 0
80 1 S116 1008 1519444 -21 0
80 2 S116 993 1520437 972 0
80 2 S116 974 1521411 1946 0
80 2 S116 938 1522349 2884 0
80 2 S116 885 1523234 3769 0
80 2 S116 797 1524031 4566 0
80 2 S116 793 1524824 5359 0
80 2 S116 800 1525624 6159 0
80 2 S116 849 1526473 7008 0
