T_0154
BeatCount Mean SD BeatCountNoOutliers MeanNoOutliers SDNoOutliers
2034 761,394296951819 83,9398156899588 1980 753,497474747475 69,6356916886207

Trial TrialStatus Trialtype IBI AbsPosition RelPosition Outlier
0 0 0 663 1227 -13507 0
0 0 0 642 1869 -12865 0
0 0 0 637 2506 -12228 0
0 0 0 650 3156 -11578 0
0 0 0 678 3834 -10900 0
0 0 0 759 4593 -10141 0
0 0 0 986 5579 -9155 1
0 0 0 1028 6607 -8127 1
0 0 0 1001 7608 -7126 1
0 0 0 899 8507 -6227 0
0 0 0 821 9328 -5406 0
0 0 0 756 10084 -4650 0
0 0 0 716 10800 -3934 0
0 0 0 698 11498 -3236 0
0 0 0 699 12197 -2537 0
1 1 S112 714 12911 -1823 0
1 1 S112 742 13653 -1081 0
1 1 S112 766 14419 -315 0
1 2 S112 783 15202 468 0
1 2 S112 799 16001 1267 0
1 2 S112 777 16778 2044 0
1 2 S112 764 17542 2808 0
1 2 S112 747 18289 3555 0
1 2 S112 751 19040 4306 0
1 2 S112 755 19795 5061 0
1 2 S112 778 20573 5839 0
1 2 S112 782 21355 6621 0
0 0 0 791 22146 -11636 0
0 0 0 776 22922 -10860 0
0 0 0 751 23673 -10109 0
0 0 0 757 24430 -9352 0
0 0 0 787 25217 -8565 0
0 0 0 789 26006 -7776 0
0 0 0 789 26795 -6987 0
0 0 0 718 27513 -6269 0
0 0 0 746 28259 -5523 0
0 0 0 749 29008 -4774 0
0 0 0 784 29792 -3990 0
0 0 0 793 30585 -3197 0
0 0 0 778 31363 -2419 0
2 1 S102 733 32096 -1686 0
2 1 S102 726 32822 -960 0
2 1 S102 709 33531 -251 0
2 2 S102 716 34247 465 0
2 2 S102 731 34978 1196 0
2 2 S102 714 35692 1910 0
2 2 S102 689 36381 2599 0
2 2 S102 675 37056 3274 0
2 2 S102 681 37737 3955 0
2 2 S102 714 38451 4669 0
2 2 S102 779 39230 5448 0
2 2 S102 829 40059 6277 0
0 0 0 822 40881 -10159 0
0 0 0 976 41857 -9183 0
0 0 0 1005 42862 -8178 1
0 0 0 952 43814 -7226 0
0 0 0 863 44677 -6363 0
0 0 0 816 45493 -5547 0
0 0 0 775 46268 -4772 0
0 0 0 759 47027 -4013 0
0 0 0 758 47785 -3255 0
0 0 0 763 48548 -2492 0
3 1 S116 748 49296 -1744 0
3 1 S116 713 50009 -1031 0
3 1 S116 712 50721 -319 0
3 2 S116 710 51431 391 0
3 2 S116 708 52139 1099 0
3 2 S116 682 52821 1781 0
3 2 S116 684 53505 2465 0
3 2 S116 725 54230 3190 0
3 2 S116 793 55023 3983 0
3 2 S116 917 55940 4900 0
3 2 S116 968 56908 5868 0
3 2 S116 982 57890 6850 1
0 0 0 979 58869 -11071 1
0 0 0 895 59764 -10176 0
0 0 0 826 60590 -9350 0
0 0 0 795 61385 -8555 0
0 0 0 757 62142 -7798 0
0 0 0 723 62865 -7075 0
0 0 0 707 63572 -6368 0
0 0 0 715 64287 -5653 0
0 0 0 728 65015 -4925 0
0 0 0 750 65765 -4175 0
0 0 0 774 66539 -3401 0
0 0 0 896 67435 -2505 0
4 1 S106 986 68421 -1519 1
4 1 S106 990 69411 -529 1
4 2 S106 967 70378 438 0
4 2 S106 904 71282 1342 0
4 2 S106 829 72111 2171 0
4 2 S106 791 72902 2962 0
4 2 S106 769 73671 3731 0
4 2 S106 767 74438 4498 0
4 2 S106 771 75209 5269 0
4 2 S106 776 75985 6045 0
4 2 S106 750 76735 6795 0
0 0 0 752 77487 -7771 0
0 0 0 783 78270 -6988 0
0 0 0 820 79090 -6168 0
0 0 0 855 79945 -5313 0
0 0 0 854 80799 -4459 0
0 0 0 864 81663 -3595 0
0 0 0 889 82552 -2706 0
5 1 S116 858 83410 -1848 0
5 1 S116 840 84250 -1008 0
5 1 S116 793 85043 -215 0
5 2 S116 748 85791 533 0
5 2 S116 761 86552 1294 0
5 2 S116 769 87321 2063 0
5 2 S116 753 88074 2816 0
5 2 S116 724 88798 3540 0
5 2 S116 726 89524 4266 0
5 2 S116 736 90260 5002 0
5 2 S116 762 91022 5764 0
5 2 S116 785 91807 6549 0
0 0 0 785 92592 -9991 0
0 0 0 754 93346 -9237 0
0 0 0 769 94115 -8468 0
0 0 0 787 94902 -7681 0
0 0 0 813 95715 -6868 0
0 0 0 764 96479 -6104 0
0 0 0 756 97235 -5348 0
0 0 0 731 97966 -4617 0
0 0 0 733 98699 -3884 0
0 0 0 725 99424 -3159 0
0 0 0 709 100133 -2450 0
6 1 S106 728 100861 -1722 0
6 1 S106 771 101632 -951 0
6 1 S106 850 102482 -101 0
6 2 S106 873 103355 772 0
6 2 S106 889 104244 1661 0
6 2 S106 834 105078 2495 0
6 2 S106 793 105871 3288 0
6 2 S106 769 106640 4057 0
6 2 S106 760 107400 4817 0
6 2 S106 753 108153 5570 0
6 2 S106 749 108902 6319 0
0 0 0 744 109646 -11919 0
0 0 0 741 110387 -11178 0
0 0 0 757 111144 -10421 0
0 0 0 785 111929 -9636 0
0 0 0 774 112703 -8862 0
0 0 0 759 113462 -8103 0
0 0 0 760 114222 -7343 0
0 0 0 747 114969 -6596 0
0 0 0 764 115733 -5832 0
0 0 0 806 116539 -5026 0
0 0 0 843 117382 -4183 0
0 0 0 816 118198 -3367 0
0 0 0 773 118971 -2594 0
7 1 S102 746 119717 -1848 0
7 1 S102 733 120450 -1115 0
7 1 S102 727 121177 -388 0
7 2 S102 733 121910 345 0
7 2 S102 735 122645 1080 0
7 2 S102 737 123382 1817 0
7 2 S102 725 124107 2542 0
7 2 S102 716 124823 3258 0
7 2 S102 722 125545 3980 0
7 2 S102 750 126295 4730 0
7 2 S102 807 127102 5537 0
7 2 S102 863 127965 6400 0
0 0 0 932 128897 -9246 0
0 0 0 878 129775 -8368 0
0 0 0 840 130615 -7528 0
0 0 0 825 131440 -6703 0
0 0 0 790 132230 -5913 0
0 0 0 753 132983 -5160 0
0 0 0 747 133730 -4413 0
0 0 0 728 134458 -3685 0
0 0 0 711 135169 -2974 0
0 0 0 717 135886 -2257 0
8 1 S112 737 136623 -1520 0
8 1 S112 773 137396 -747 0
8 2 S112 781 138177 34 0
8 2 S112 792 138969 826 0
8 2 S112 892 139861 1718 0
8 2 S112 903 140764 2621 0
8 2 S112 851 141615 3472 0
8 2 S112 785 142400 4257 0
8 2 S112 765 143165 5022 0
8 2 S112 758 143923 5780 0
8 2 S112 753 144676 6533 0
0 0 0 739 145415 -7301 0
0 0 0 738 146153 -6563 0
0 0 0 748 146901 -5815 0
0 0 0 765 147666 -5050 0
0 0 0 770 148436 -4280 0
0 0 0 786 149222 -3494 0
0 0 0 816 150038 -2678 0
9 1 S116 863 150901 -1815 0
9 1 S116 905 151806 -910 0
9 2 S116 976 152782 66 0
9 2 S116 968 153750 1034 0
9 2 S116 903 154653 1937 0
9 2 S116 825 155478 2762 0
9 2 S116 814 156292 3576 0
9 2 S116 829 157121 4405 0
9 2 S116 822 157943 5227 0
9 2 S116 796 158739 6023 0
9 2 S116 785 159524 6808 0
0 0 0 801 160325 -11174 0
0 0 0 833 161158 -10341 0
0 0 0 851 162009 -9490 0
0 0 0 855 162864 -8635 0
0 0 0 854 163718 -7781 0
0 0 0 815 164533 -6966 0
0 0 0 758 165291 -6208 0
0 0 0 769 166060 -5439 0
0 0 0 772 166832 -4667 0
0 0 0 773 167605 -3894 0
0 0 0 754 168359 -3140 0
0 0 0 745 169104 -2395 0
10 1 S102 740 169844 -1655 0
10 1 S102 734 170578 -921 0
10 1 S102 713 171291 -208 0
10 2 S102 690 171981 482 0
10 2 S102 677 172658 1159 0
10 2 S102 662 173320 1821 0
10 2 S102 660 173980 2481 0
10 2 S102 672 174652 3153 0
10 2 S102 685 175337 3838 0
10 2 S102 705 176042 4543 0
10 2 S102 730 176772 5273 0
10 2 S102 784 177556 6057 0
10 2 S102 883 178439 6940 0
0 0 0 914 179353 -11692 0
0 0 0 851 180204 -10841 0
0 0 0 833 181037 -10008 0
0 0 0 824 181861 -9184 0
0 0 0 776 182637 -8408 0
0 0 0 713 183350 -7695 0
0 0 0 689 184039 -7006 0
0 0 0 680 184719 -6326 0
0 0 0 700 185419 -5626 0
0 0 0 745 186164 -4881 0
0 0 0 743 186907 -4138 0
0 0 0 756 187663 -3382 0
0 0 0 800 188463 -2582 0
11 1 S112 814 189277 -1768 0
11 1 S112 796 190073 -972 0
11 1 S112 771 190844 -201 0
11 2 S112 742 191586 541 0
11 2 S112 751 192337 1292 0
11 2 S112 744 193081 2036 0
11 2 S112 738 193819 2774 0
11 2 S112 718 194537 3492 0
11 2 S112 703 195240 4195 0
11 2 S112 697 195937 4892 0
11 2 S112 710 196647 5602 0
11 2 S112 766 197413 6368 0
0 0 0 828 198241 -9001 0
0 0 0 886 199127 -8115 0
0 0 0 847 199974 -7268 0
0 0 0 860 200834 -6408 0
0 0 0 859 201693 -5549 0
0 0 0 825 202518 -4724 0
0 0 0 787 203305 -3937 0
0 0 0 768 204073 -3169 0
0 0 0 716 204789 -2453 0
12 1 S116 741 205530 -1712 0
12 1 S116 753 206283 -959 0
12 1 S116 772 207055 -187 0
12 2 S116 802 207857 615 0
12 2 S116 841 208698 1456 0
12 2 S116 889 209587 2345 0
12 2 S116 921 210508 3266 0
12 2 S116 870 211378 4136 0
12 2 S116 828 212206 4964 0
12 2 S116 810 213016 5774 0
12 2 S116 783 213799 6557 0
0 0 0 767 214566 -12123 0
0 0 0 742 215308 -11381 0
0 0 0 734 216042 -10647 0
0 0 0 739 216781 -9908 0
0 0 0 761 217542 -9147 0
0 0 0 768 218310 -8379 0
0 0 0 741 219051 -7638 0
0 0 0 726 219777 -6912 0
0 0 0 698 220475 -6214 0
0 0 0 702 221177 -5512 0
0 0 0 698 221875 -4814 0
0 0 0 699 222574 -4115 0
0 0 0 702 223276 -3413 0
0 0 0 757 224033 -2656 0
13 1 S112 807 224840 -1849 0
13 1 S112 811 225651 -1038 0
13 1 S112 798 226449 -240 0
13 2 S112 759 227208 519 0
13 2 S112 734 227942 1253 0
13 2 S112 707 228649 1960 0
13 2 S112 693 229342 2653 0
13 2 S112 691 230033 3344 0
13 2 S112 693 230726 4037 0
13 2 S112 707 231433 4744 0
13 2 S112 727 232160 5471 0
13 2 S112 755 232915 6226 0
13 2 S112 754 233669 6980 0
0 0 0 785 234454 -11814 0
0 0 0 845 235299 -10969 0
0 0 0 881 236180 -10088 0
0 0 0 872 237052 -9216 0
0 0 0 828 237880 -8388 0
0 0 0 814 238694 -7574 0
0 0 0 800 239494 -6774 0
0 0 0 782 240276 -5992 0
0 0 0 765 241041 -5227 0
0 0 0 755 241796 -4472 0
0 0 0 745 242541 -3727 0
0 0 0 731 243272 -2996 0
0 0 0 730 244002 -2266 0
14 1 S106 749 244751 -1517 0
14 1 S106 768 245519 -749 0
14 2 S106 775 246294 26 0
14 2 S106 765 247059 791 0
14 2 S106 754 247813 1545 0
14 2 S106 763 248576 2308 0
14 2 S106 796 249372 3104 0
14 2 S106 839 250211 3943 0
14 2 S106 826 251037 4769 0
14 2 S106 807 251844 5576 0
14 2 S106 783 252627 6359 0
0 0 0 789 253416 -11851 0
0 0 0 809 254225 -11042 0
0 0 0 802 255027 -10240 0
0 0 0 794 255821 -9446 0
0 0 0 797 256618 -8649 0
0 0 0 769 257387 -7880 0
0 0 0 736 258123 -7144 0
0 0 0 728 258851 -6416 0
0 0 0 668 259519 -5748 0
0 0 0 704 260223 -5044 0
0 0 0 712 260935 -4332 0
0 0 0 780 261715 -3552 0
0 0 0 984 262699 -2568 1
15 1 S116 987 263686 -1581 1
15 1 S116 934 264620 -647 0
15 2 S116 851 265471 204 0
15 2 S116 778 266249 982 0
15 2 S116 751 267000 1733 0
15 2 S116 740 267740 2473 0
15 2 S116 755 268495 3228 0
15 2 S116 762 269257 3990 0
15 2 S116 744 270001 4734 0
15 2 S116 727 270728 5461 0
15 2 S116 711 271439 6172 0
15 2 S116 711 272150 6883 0
0 0 0 722 272872 -9835 0
0 0 0 746 273618 -9089 0
0 0 0 773 274391 -8316 0
0 0 0 791 275182 -7525 0
0 0 0 815 275997 -6710 0
0 0 0 815 276812 -5895 0
0 0 0 841 277653 -5054 0
0 0 0 812 278465 -4242 0
0 0 0 811 279276 -3431 0
0 0 0 846 280122 -2585 0
16 1 S116 909 281031 -1676 0
16 1 S116 910 281941 -766 0
16 2 S116 913 282854 147 0
16 2 S116 853 283707 1000 0
16 2 S116 806 284513 1806 0
16 2 S116 780 285293 2586 0
16 2 S116 772 286065 3358 0
16 2 S116 766 286831 4124 0
16 2 S116 771 287602 4895 0
16 2 S116 752 288354 5647 0
16 2 S116 747 289101 6394 0
0 0 0 754 289855 -10342 0
0 0 0 829 290684 -9513 0
0 0 0 864 291548 -8649 0
0 0 0 846 292394 -7803 0
0 0 0 877 293271 -6926 0
0 0 0 860 294131 -6066 0
0 0 0 794 294925 -5272 0
0 0 0 720 295645 -4552 0
0 0 0 715 296360 -3837 0
0 0 0 707 297067 -3130 0
0 0 0 703 297770 -2427 0
17 1 S106 708 298478 -1719 0
17 1 S106 693 299171 -1026 0
17 1 S106 684 299855 -342 0
17 2 S106 660 300515 318 0
17 2 S106 654 301169 972 0
17 2 S106 688 301857 1660 0
17 2 S106 690 302547 2350 0
17 2 S106 695 303242 3045 0
17 2 S106 692 303934 3737 0
17 2 S106 688 304622 4425 0
17 2 S106 676 305298 5101 0
17 2 S106 669 305967 5770 0
17 2 S106 654 306621 6424 0
0 0 0 642 307263 -12928 0
0 0 0 634 307897 -12294 0
0 0 0 639 308536 -11655 0
0 0 0 660 309196 -10995 0
0 0 0 706 309902 -10289 0
0 0 0 775 310677 -9514 0
0 0 0 812 311489 -8702 0
0 0 0 804 312293 -7898 0
0 0 0 811 313104 -7087 0
0 0 0 841 313945 -6246 0
0 0 0 838 314783 -5408 0
0 0 0 814 315597 -4594 0
0 0 0 783 316380 -3811 0
0 0 0 752 317132 -3059 0
0 0 0 718 317850 -2341 0
18 1 S102 725 318575 -1616 0
18 1 S102 736 319311 -880 0
18 1 S102 738 320049 -142 0
18 2 S102 767 320816 625 0
18 2 S102 784 321600 1409 0
18 2 S102 776 322376 2185 0
18 2 S102 774 323150 2959 0
18 2 S102 781 323931 3740 0
18 2 S102 748 324679 4488 0
18 2 S102 741 325420 5229 0
18 2 S102 757 326177 5986 0
18 2 S102 795 326972 6781 0
0 0 0 785 327757 -7984 0
0 0 0 802 328559 -7182 0
0 0 0 781 329340 -6401 0
0 0 0 780 330120 -5621 0
0 0 0 792 330912 -4829 0
0 0 0 772 331684 -4057 0
0 0 0 745 332429 -3312 0
0 0 0 723 333152 -2589 0
19 1 S106 715 333867 -1874 0
19 1 S106 734 334601 -1140 0
19 1 S106 731 335332 -409 0
19 2 S106 711 336043 302 0
19 2 S106 702 336745 1004 0
19 2 S106 690 337435 1694 0
19 2 S106 678 338113 2372 0
19 2 S106 672 338785 3044 0
19 2 S106 684 339469 3728 0
19 2 S106 739 340208 4467 0
19 2 S106 838 341046 5305 0
19 2 S106 890 341936 6195 0
0 0 0 841 342777 -12444 0
0 0 0 786 343563 -11658 0
0 0 0 743 344306 -10915 0
0 0 0 721 345027 -10194 0
0 0 0 698 345725 -9496 0
0 0 0 686 346411 -8810 0
0 0 0 671 347082 -8139 0
0 0 0 663 347745 -7476 0
0 0 0 656 348401 -6820 0
0 0 0 657 349058 -6163 0
0 0 0 685 349743 -5478 0
0 0 0 761 350504 -4717 0
0 0 0 901 351405 -3816 0
0 0 0 956 352361 -2860 0
20 1 S112 899 353260 -1961 0
20 1 S112 858 354118 -1103 0
20 1 S112 796 354914 -307 0
20 2 S112 769 355683 462 0
20 2 S112 765 356448 1227 0
20 2 S112 757 357205 1984 0
20 2 S112 739 357944 2723 0
20 2 S112 719 358663 3442 0
20 2 S112 703 359366 4145 0
20 2 S112 687 360053 4832 0
20 2 S112 679 360732 5511 0
20 2 S112 672 361404 6183 0
20 2 S112 660 362064 6843 0
0 0 0 659 362723 -10171 0
0 0 0 672 363395 -9499 0
0 0 0 695 364090 -8804 0
0 0 0 742 364832 -8062 0
0 0 0 791 365623 -7271 0
0 0 0 803 366426 -6468 0
0 0 0 780 367206 -5688 0
0 0 0 763 367969 -4925 0
0 0 0 755 368724 -4170 0
0 0 0 756 369480 -3414 0
0 0 0 742 370222 -2672 0
21 1 S106 730 370952 -1942 0
21 1 S106 738 371690 -1204 0
21 1 S106 732 372422 -472 0
21 2 S106 731 373153 259 0
21 2 S106 723 373876 982 0
21 2 S106 727 374603 1709 0
21 2 S106 730 375333 2439 0
21 2 S106 733 376066 3172 0
21 2 S106 727 376793 3899 0
21 2 S106 726 377519 4625 0
21 2 S106 739 378258 5364 0
21 2 S106 756 379014 6120 0
21 2 S106 776 379790 6896 0
0 0 0 792 380582 -11808 0
0 0 0 805 381387 -11003 0
0 0 0 792 382179 -10211 0
0 0 0 819 382998 -9392 0
0 0 0 825 383823 -8567 0
0 0 0 776 384599 -7791 0
0 0 0 742 385341 -7049 0
0 0 0 731 386072 -6318 0
0 0 0 734 386806 -5584 0
0 0 0 747 387553 -4837 0
0 0 0 734 388287 -4103 0
0 0 0 711 388998 -3392 0
0 0 0 691 389689 -2701 0
0 0 0 677 390366 -2024 0
22 1 S116 673 391039 -1351 0
22 1 S116 688 391727 -663 0
22 2 S116 705 392432 42 0
22 2 S116 738 393170 780 0
22 2 S116 735 393905 1515 0
22 2 S116 728 394633 2243 0
22 2 S116 724 395357 2967 0
22 2 S116 727 396084 3694 0
22 2 S116 736 396820 4430 0
22 2 S116 736 397556 5166 0
22 2 S116 722 398278 5888 0
22 2 S116 722 399000 6610 0
0 0 0 740 399740 -9808 0
0 0 0 762 400502 -9046 0
0 0 0 765 401267 -8281 0
0 0 0 800 402067 -7481 0
0 0 0 860 402927 -6621 0
0 0 0 811 403738 -5810 0
0 0 0 785 404523 -5025 0
0 0 0 776 405299 -4249 0
0 0 0 789 406088 -3460 0
0 0 0 783 406871 -2677 0
23 1 S112 759 407630 -1918 0
23 1 S112 753 408383 -1165 0
23 1 S112 742 409125 -423 0
23 2 S112 733 409858 310 0
23 2 S112 724 410582 1034 0
23 2 S112 718 411300 1752 0
23 2 S112 698 411998 2450 0
23 2 S112 680 412678 3130 0
23 2 S112 658 413336 3788 0
23 2 S112 651 413987 4439 0
23 2 S112 653 414640 5092 0
23 2 S112 661 415301 5753 0
23 2 S112 697 415998 6450 0
0 0 0 766 416764 -9844 0
0 0 0 831 417595 -9013 0
0 0 0 888 418483 -8125 0
0 0 0 932 419415 -7193 0
0 0 0 955 420370 -6238 0
0 0 0 921 421291 -5317 0
0 0 0 868 422159 -4449 0
0 0 0 858 423017 -3591 0
0 0 0 833 423850 -2758 0
24 1 S106 790 424640 -1968 0
24 1 S106 753 425393 -1215 0
24 1 S106 719 426112 -496 0
24 2 S106 704 426816 208 0
24 2 S106 713 427529 921 0
24 2 S106 738 428267 1659 0
24 2 S106 708 428975 2367 0
24 2 S106 645 429620 3012 0
24 2 S106 635 430255 3647 0
24 2 S106 615 430870 4262 0
24 2 S106 604 431474 4866 0
24 2 S106 586 432060 5452 0
24 2 S106 608 432668 6060 0
24 2 S106 627 433295 6687 0
0 0 0 803 434098 -9469 0
0 0 0 745 434843 -8724 0
0 0 0 743 435586 -7981 0
0 0 0 739 436325 -7242 0
0 0 0 753 437078 -6489 0
0 0 0 719 437797 -5770 0
0 0 0 716 438513 -5054 0
0 0 0 680 439193 -4374 0
0 0 0 673 439866 -3701 0
0 0 0 700 440566 -3001 0
0 0 0 730 441296 -2271 0
25 1 S102 750 442046 -1521 0
25 1 S102 728 442774 -793 0
25 1 S102 703 443477 -90 0
25 2 S102 688 444165 598 0
25 2 S102 686 444851 1284 0
25 2 S102 687 445538 1971 0
25 2 S102 678 446216 2649 0
25 2 S102 676 446892 3325 0
25 2 S102 669 447561 3994 0
25 2 S102 675 448236 4669 0
25 2 S102 698 448934 5367 0
25 2 S102 735 449669 6102 0
25 2 S102 820 450489 6922 0
0 0 0 923 451412 -8120 0
0 0 0 966 452378 -7154 0
0 0 0 993 453371 -6161 1
0 0 0 1010 454381 -5151 1
0 0 0 939 455320 -4212 0
0 0 0 803 456123 -3409 0
0 0 0 750 456873 -2659 0
26 1 S116 728 457601 -1931 0
26 1 S116 721 458322 -1210 0
26 1 S116 739 459061 -471 0
26 2 S116 764 459825 293 0
26 2 S116 776 460601 1069 0
26 2 S116 754 461355 1823 0
26 2 S116 713 462068 2536 0
26 2 S116 687 462755 3223 0
26 2 S116 650 463405 3873 0
26 2 S116 655 464060 4528 0
26 2 S116 652 464712 5180 0
26 2 S116 683 465395 5863 0
26 2 S116 717 466112 6580 0
0 0 0 754 466866 -6625 0
0 0 0 760 467626 -5865 0
0 0 0 772 468398 -5093 0
0 0 0 776 469174 -4317 0
0 0 0 750 469924 -3567 0
0 0 0 725 470649 -2842 0
0 0 0 687 471336 -2155 0
27 1 S106 672 472008 -1483 0
27 1 S106 679 472687 -804 0
27 1 S106 710 473397 -94 0
27 2 S106 837 474234 743 0
27 2 S106 948 475182 1691 0
27 2 S106 932 476114 2623 0
27 2 S106 851 476965 3474 0
27 2 S106 802 477767 4276 0
27 2 S106 762 478529 5038 0
27 2 S106 728 479257 5766 0
27 2 S106 699 479956 6465 0
0 0 0 692 480648 -7416 0
0 0 0 692 481340 -6724 0
0 0 0 720 482060 -6004 0
0 0 0 746 482806 -5258 0
0 0 0 752 483558 -4506 0
0 0 0 766 484324 -3740 0
0 0 0 772 485096 -2968 0
0 0 0 752 485848 -2216 0
28 1 S102 714 486562 -1502 0
28 1 S102 720 487282 -782 0
28 1 S102 750 488032 -32 0
28 2 S102 830 488862 798 0
28 2 S102 863 489725 1661 0
28 2 S102 820 490545 2481 0
28 2 S102 782 491327 3263 0
28 2 S102 760 492087 4023 0
28 2 S102 747 492834 4770 0
28 2 S102 736 493570 5506 0
28 2 S102 720 494290 6226 0
28 2 S102 696 494986 6922 0
0 0 0 665 495651 -10334 0
0 0 0 680 496331 -9654 0
0 0 0 697 497028 -8957 0
0 0 0 756 497784 -8201 0
0 0 0 803 498587 -7398 0
0 0 0 812 499399 -6586 0
0 0 0 814 500213 -5772 0
0 0 0 845 501058 -4927 0
0 0 0 846 501904 -4081 0
0 0 0 820 502724 -3261 0
0 0 0 810 503534 -2451 0
29 1 S112 768 504302 -1683 0
29 1 S112 730 505032 -953 0
29 1 S112 706 505738 -247 0
29 2 S112 685 506423 438 0
29 2 S112 683 507106 1121 0
29 2 S112 705 507811 1826 0
29 2 S112 763 508574 2589 0
29 2 S112 800 509374 3389 0
29 2 S112 810 510184 4199 0
29 2 S112 828 511012 5027 0
29 2 S112 786 511798 5813 0
29 2 S112 723 512521 6536 0
0 0 0 691 513212 -8207 0
0 0 0 675 513887 -7532 0
0 0 0 669 514556 -6863 0
0 0 0 672 515228 -6191 0
0 0 0 685 515913 -5506 0
0 0 0 710 516623 -4796 0
0 0 0 714 517337 -4082 0
0 0 0 721 518058 -3361 0
0 0 0 710 518768 -2651 0
30 1 S112 688 519456 -1963 0
30 1 S112 691 520147 -1272 0
30 1 S112 743 520890 -529 0
30 2 S112 794 521684 265 0
30 2 S112 844 522528 1109 0
30 2 S112 833 523361 1942 0
30 2 S112 819 524180 2761 0
30 2 S112 792 524972 3553 0
30 2 S112 776 525748 4329 0
30 2 S112 763 526511 5092 0
30 2 S112 742 527253 5834 0
30 2 S112 720 527973 6554 0
0 0 0 712 528685 -10175 0
0 0 0 701 529386 -9474 0
0 0 0 697 530083 -8777 0
0 0 0 693 530776 -8084 0
0 0 0 701 531477 -7383 0
0 0 0 699 532176 -6684 0
0 0 0 698 532874 -5986 0
0 0 0 691 533565 -5295 0
0 0 0 707 534272 -4588 0
0 0 0 703 534975 -3885 0
0 0 0 712 535687 -3173 0
0 0 0 732 536419 -2441 0
31 1 S106 760 537179 -1681 0
31 1 S106 789 537968 -892 0
31 1 S106 767 538735 -125 0
31 2 S106 739 539474 614 0
31 2 S106 712 540186 1326 0
31 2 S106 693 540879 2019 0
31 2 S106 677 541556 2696 0
31 2 S106 675 542231 3371 0
31 2 S106 679 542910 4050 0
31 2 S106 687 543597 4737 0
31 2 S106 690 544287 5427 0
31 2 S106 680 544967 6107 0
31 2 S106 669 545636 6776 0
0 0 0 659 546295 -9425 0
0 0 0 672 546967 -8753 0
0 0 0 695 547662 -8058 0
0 0 0 727 548389 -7331 0
0 0 0 755 549144 -6576 0
0 0 0 764 549908 -5812 0
0 0 0 776 550684 -5036 0
0 0 0 785 551469 -4251 0
0 0 0 807 552276 -3444 0
0 0 0 829 553105 -2615 0
32 1 S102 808 553913 -1807 0
32 1 S102 784 554697 -1023 0
32 1 S102 775 555472 -248 0
32 2 S102 751 556223 503 0
32 2 S102 740 556963 1243 0
32 2 S102 720 557683 1963 0
32 2 S102 695 558378 2658 0
32 2 S102 697 559075 3355 0
32 2 S102 701 559776 4056 0
32 2 S102 709 560485 4765 0
32 2 S102 734 561219 5499 0
32 2 S102 764 561983 6263 0
32 2 S102 753 562736 7016 0
0 0 0 729 563465 -10740 0
0 0 0 727 564192 -10013 0
0 0 0 723 564915 -9290 0
0 0 0 737 565652 -8553 0
0 0 0 729 566381 -7824 0
0 0 0 709 567090 -7115 0
0 0 0 698 567788 -6417 0
0 0 0 692 568480 -5725 0
0 0 0 690 569170 -5035 0
0 0 0 690 569860 -4345 0
0 0 0 684 570544 -3661 0
0 0 0 682 571226 -2979 0
0 0 0 687 571913 -2292 0
33 1 S112 701 572614 -1591 0
33 1 S112 719 573333 -872 0
33 1 S112 720 574053 -152 0
33 2 S112 716 574769 564 0
33 2 S112 710 575479 1274 0
33 2 S112 703 576182 1977 0
33 2 S112 712 576894 2689 0
33 2 S112 730 577624 3419 0
33 2 S112 742 578366 4161 0
33 2 S112 738 579104 4899 0
33 2 S112 750 579854 5649 0
33 2 S112 742 580596 6391 0
0 0 0 746 581342 -11083 0
0 0 0 737 582079 -10346 0
0 0 0 723 582802 -9623 0
0 0 0 728 583530 -8895 0
0 0 0 718 584248 -8177 0
0 0 0 693 584941 -7484 0
0 0 0 690 585631 -6794 0
0 0 0 683 586314 -6111 0
0 0 0 684 586998 -5427 0
0 0 0 693 587691 -4734 0
0 0 0 715 588406 -4019 0
0 0 0 734 589140 -3285 0
0 0 0 727 589867 -2558 0
34 1 S106 708 590575 -1850 0
34 1 S106 686 591261 -1164 0
34 1 S106 654 591915 -510 0
34 2 S106 651 592566 141 0
34 2 S106 645 593211 786 0
34 2 S106 645 593856 1431 0
34 2 S106 663 594519 2094 0
34 2 S106 696 595215 2790 0
34 2 S106 709 595924 3499 0
34 2 S106 702 596626 4201 0
34 2 S106 707 597333 4908 0
34 2 S106 719 598052 5627 0
34 2 S106 737 598789 6364 0
0 0 0 740 599529 -9143 0
0 0 0 746 600275 -8397 0
0 0 0 744 601019 -7653 0
0 0 0 762 601781 -6891 0
0 0 0 749 602530 -6142 0
0 0 0 728 603258 -5414 0
0 0 0 729 603987 -4685 0
0 0 0 722 604709 -3963 0
0 0 0 721 605430 -3242 0
0 0 0 725 606155 -2517 0
35 1 S102 724 606879 -1793 0
35 1 S102 714 607593 -1079 0
35 1 S102 701 608294 -378 0
35 2 S102 697 608991 319 0
35 2 S102 712 609703 1031 0
35 2 S102 739 610442 1770 0
35 2 S102 767 611209 2537 0
35 2 S102 757 611966 3294 0
35 2 S102 741 612707 4035 0
35 2 S102 726 613433 4761 0
35 2 S102 717 614150 5478 0
35 2 S102 710 614860 6188 0
35 2 S102 712 615572 6900 0
0 0 0 717 616289 -7452 0
0 0 0 713 617002 -6739 0
0 0 0 703 617705 -6036 0
0 0 0 704 618409 -5332 0
0 0 0 716 619125 -4616 0
0 0 0 710 619835 -3906 0
0 0 0 706 620541 -3200 0
0 0 0 699 621240 -2501 0
36 1 S106 694 621934 -1807 0
36 1 S106 699 622633 -1108 0
36 1 S106 721 623354 -387 0
36 2 S106 735 624089 348 0
36 2 S106 741 624830 1089 0
36 2 S106 716 625546 1805 0
36 2 S106 692 626238 2497 0
36 2 S106 671 626909 3168 0
36 2 S106 660 627569 3828 0
36 2 S106 651 628220 4479 0
36 2 S106 654 628874 5133 0
36 2 S106 673 629547 5806 0
36 2 S106 697 630244 6503 0
0 0 0 708 630952 -8870 0
0 0 0 702 631654 -8168 0
0 0 0 703 632357 -7465 0
0 0 0 720 633077 -6745 0
0 0 0 716 633793 -6029 0
0 0 0 691 634484 -5338 0
0 0 0 707 635191 -4631 0
0 0 0 725 635916 -3906 0
0 0 0 761 636677 -3145 0
0 0 0 803 637480 -2342 0
37 1 S116 814 638294 -1528 0
37 1 S116 760 639054 -768 0
37 1 S116 760 639814 -8 0
37 2 S116 754 640568 746 0
37 2 S116 775 641343 1521 0
37 2 S116 760 642103 2281 0
37 2 S116 776 642879 3057 0
37 2 S116 753 643632 3810 0
37 2 S116 732 644364 4542 0
37 2 S116 696 645060 5238 0
37 2 S116 683 645743 5921 0
37 2 S116 669 646412 6590 0
0 0 0 667 647079 -11527 0
0 0 0 669 647748 -10858 0
0 0 0 661 648409 -10197 0
0 0 0 674 649083 -9523 0
0 0 0 712 649795 -8811 0
0 0 0 767 650562 -8044 0
0 0 0 785 651347 -7259 0
0 0 0 792 652139 -6467 0
0 0 0 813 652952 -5654 0
0 0 0 859 653811 -4795 0
0 0 0 964 654775 -3831 0
0 0 0 907 655682 -2924 0
0 0 0 819 656501 -2105 0
38 1 S102 786 657287 -1319 0
38 1 S102 773 658060 -546 0
38 2 S102 750 658810 204 0
38 2 S102 721 659531 925 0
38 2 S102 694 660225 1619 0
38 2 S102 678 660903 2297 0
38 2 S102 680 661583 2977 0
38 2 S102 694 662277 3671 0
38 2 S102 726 663003 4397 0
38 2 S102 770 663773 5167 0
38 2 S102 793 664566 5960 0
38 2 S102 786 665352 6746 0
0 0 0 772 666124 -9093 0
0 0 0 823 666947 -8270 0
0 0 0 846 667793 -7424 0
0 0 0 881 668674 -6543 0
0 0 0 825 669499 -5718 0
0 0 0 813 670312 -4905 0
0 0 0 795 671107 -4110 0
0 0 0 817 671924 -3293 0
0 0 0 855 672779 -2438 0
39 1 S116 946 673725 -1492 0
39 1 S116 950 674675 -542 0
39 2 S116 887 675562 345 0
39 2 S116 859 676421 1204 0
39 2 S116 835 677256 2039 0
39 2 S116 830 678086 2869 0
39 2 S116 803 678889 3672 0
39 2 S116 799 679688 4471 0
39 2 S116 816 680504 5287 0
39 2 S116 838 681342 6125 0
39 2 S116 841 682183 6966 0
0 0 0 860 683043 -6697 0
0 0 0 881 683924 -5816 0
0 0 0 896 684820 -4920 0
0 0 0 844 685664 -4076 0
0 0 0 784 686448 -3292 0
0 0 0 774 687222 -2518 0
40 1 S112 779 688001 -1739 0
40 1 S112 759 688760 -980 0
40 1 S112 728 689488 -252 0
40 2 S112 694 690182 442 0
40 2 S112 681 690863 1123 0
40 2 S112 719 691582 1842 0
40 2 S112 739 692321 2581 0
40 2 S112 769 693090 3350 0
40 2 S112 775 693865 4125 0
40 2 S112 761 694626 4886 0
40 2 S112 747 695373 5633 0
40 2 S112 718 696091 6351 0
0 0 0 703 696794 -187593 0
0 0 0 685 697479 -186908 0
0 0 0 677 698156 -186231 0
0 0 0 678 698834 -185553 0
0 0 0 683 699517 -184870 0
0 0 0 710 700227 -184160 0
0 0 0 746 700973 -183414 0
0 0 0 797 701770 -182617 0
0 0 0 851 702621 -181766 0
0 0 0 879 703500 -180887 0
0 0 0 879 704379 -180008 0
0 0 0 872 705251 -179136 0
0 0 0 880 706131 -178256 0
0 0 0 873 707004 -177383 0
0 0 0 829 707833 -176554 0
0 0 0 799 708632 -175755 0
0 0 0 756 709388 -174999 0
0 0 0 727 710115 -174272 0
0 0 0 719 710834 -173553 0
0 0 0 733 711567 -172820 0
0 0 0 726 712293 -172094 0
0 0 0 693 712986 -171401 0
0 0 0 698 713684 -170703 0
0 0 0 700 714384 -170003 0
0 0 0 727 715111 -169276 0
0 0 0 807 715918 -168469 0
0 0 0 854 716772 -167615 0
0 0 0 876 717648 -166739 0
0 0 0 852 718500 -165887 0
0 0 0 800 719300 -165087 0
0 0 0 759 720059 -164328 0
0 0 0 729 720788 -163599 0
0 0 0 698 721486 -162901 0
0 0 0 678 722164 -162223 0
0 0 0 669 722833 -161554 0
0 0 0 657 723490 -160897 0
0 0 0 663 724153 -160234 0
0 0 0 684 724837 -159550 0
0 0 0 693 725530 -158857 0
0 0 0 689 726219 -158168 0
0 0 0 674 726893 -157494 0
0 0 0 669 727562 -156825 0
0 0 0 659 728221 -156166 0
0 0 0 650 728871 -155516 0
0 0 0 637 729508 -154879 0
0 0 0 621 730129 -154258 0
0 0 0 616 730745 -153642 0
0 0 0 612 731357 -153030 0
0 0 0 607 731964 -152423 0
0 0 0 607 732571 -151816 0
0 0 0 622 733193 -151194 0
0 0 0 662 733855 -150532 0
0 0 0 725 734580 -149807 0
0 0 0 789 735369 -149018 0
0 0 0 841 736210 -148177 0
0 0 0 889 737099 -147288 0
0 0 0 934 738033 -146354 0
0 0 0 924 738957 -145430 0
0 0 0 978 739935 -144452 1
0 0 0 927 740862 -143525 0
0 0 0 852 741714 -142673 0
0 0 0 727 742441 -141946 0
0 0 0 686 743127 -141260 0
0 0 0 679 743806 -140581 0
0 0 0 670 744476 -139911 0
0 0 0 720 745196 -139191 0
0 0 0 952 746148 -138239 0
0 0 0 1095 747243 -137144 1
0 0 0 1085 748328 -136059 1
0 0 0 1021 749349 -135038 1
0 0 0 926 750275 -134112 0
0 0 0 840 751115 -133272 0
0 0 0 773 751888 -132499 0
0 0 0 726 752614 -131773 0
0 0 0 697 753311 -131076 0
0 0 0 675 753986 -130401 0
0 0 0 661 754647 -129740 0
0 0 0 663 755310 -129077 0
0 0 0 661 755971 -128416 0
0 0 0 660 756631 -127756 0
0 0 0 663 757294 -127093 0
0 0 0 659 757953 -126434 0
0 0 0 650 758603 -125784 0
0 0 0 644 759247 -125140 0
0 0 0 647 759894 -124493 0
0 0 0 648 760542 -123845 0
0 0 0 654 761196 -123191 0
0 0 0 666 761862 -122525 0
0 0 0 661 762523 -121864 0
0 0 0 695 763218 -121169 0
0 0 0 760 763978 -120409 0
0 0 0 886 764864 -119523 0
0 0 0 1016 765880 -118507 1
0 0 0 963 766843 -117544 0
0 0 0 897 767740 -116647 0
0 0 0 831 768571 -115816 0
0 0 0 801 769372 -115015 0
0 0 0 767 770139 -114248 0
0 0 0 735 770874 -113513 0
0 0 0 718 771592 -112795 0
0 0 0 705 772297 -112090 0
0 0 0 706 773003 -111384 0
0 0 0 709 773712 -110675 0
0 0 0 737 774449 -109938 0
0 0 0 806 775255 -109132 0
0 0 0 830 776085 -108302 0
0 0 0 892 776977 -107410 0
0 0 0 958 777935 -106452 0
0 0 0 1058 778993 -105394 1
0 0 0 1021 780014 -104373 1
0 0 0 936 780950 -103437 0
0 0 0 849 781799 -102588 0
0 0 0 783 782582 -101805 0
0 0 0 719 783301 -101086 0
0 0 0 747 784048 -100339 0
0 0 0 717 784765 -99622 0
0 0 0 701 785466 -98921 0
0 0 0 686 786152 -98235 0
0 0 0 674 786826 -97561 0
0 0 0 665 787491 -96896 0
0 0 0 652 788143 -96244 0
0 0 0 634 788777 -95610 0
0 0 0 626 789403 -94984 0
0 0 0 618 790021 -94366 0
0 0 0 606 790627 -93760 0
0 0 0 603 791230 -93157 0
0 0 0 605 791835 -92552 0
0 0 0 636 792471 -91916 0
0 0 0 687 793158 -91229 0
0 0 0 781 793939 -90448 0
0 0 0 828 794767 -89620 0
0 0 0 784 795551 -88836 0
0 0 0 757 796308 -88079 0
0 0 0 757 797065 -87322 0
0 0 0 826 797891 -86496 0
0 0 0 905 798796 -85591 0
0 0 0 900 799696 -84691 0
0 0 0 833 800529 -83858 0
0 0 0 783 801312 -83075 0
0 0 0 747 802059 -82328 0
0 0 0 724 802783 -81604 0
0 0 0 709 803492 -80895 0
0 0 0 706 804198 -80189 0
0 0 0 702 804900 -79487 0
0 0 0 705 805605 -78782 0
0 0 0 714 806319 -78068 0
0 0 0 726 807045 -77342 0
0 0 0 729 807774 -76613 0
0 0 0 732 808506 -75881 0
0 0 0 761 809267 -75120 0
0 0 0 774 810041 -74346 0
0 0 0 776 810817 -73570 0
0 0 0 758 811575 -72812 0
0 0 0 754 812329 -72058 0
0 0 0 748 813077 -71310 0
0 0 0 745 813822 -70565 0
0 0 0 749 814571 -69816 0
0 0 0 738 815309 -69078 0
0 0 0 738 816047 -68340 0
0 0 0 727 816774 -67613 0
0 0 0 694 817468 -66919 0
0 0 0 688 818156 -66231 0
0 0 0 670 818826 -65561 0
0 0 0 651 819477 -64910 0
0 0 0 648 820125 -64262 0
0 0 0 641 820766 -63621 0
0 0 0 634 821400 -62987 0
0 0 0 636 822036 -62351 0
0 0 0 633 822669 -61718 0
0 0 0 629 823298 -61089 0
0 0 0 627 823925 -60462 0
0 0 0 618 824543 -59844 0
0 0 0 614 825157 -59230 0
0 0 0 611 825768 -58619 0
0 0 0 612 826380 -58007 0
0 0 0 619 826999 -57388 0
0 0 0 626 827625 -56762 0
0 0 0 653 828278 -56109 0
0 0 0 695 828973 -55414 0
0 0 0 831 829804 -54583 0
0 0 0 1034 830838 -53549 1
0 0 0 1096 831934 -52453 1
0 0 0 1115 833049 -51338 1
0 0 0 1071 834120 -50267 1
0 0 0 1042 835162 -49225 1
0 0 0 931 836093 -48294 0
0 0 0 873 836966 -47421 0
0 0 0 817 837783 -46604 0
0 0 0 767 838550 -45837 0
0 0 0 746 839296 -45091 0
0 0 0 720 840016 -44371 0
0 0 0 709 840725 -43662 0
0 0 0 698 841423 -42964 0
0 0 0 673 842096 -42291 0
0 0 0 654 842750 -41637 0
0 0 0 648 843398 -40989 0
0 0 0 659 844057 -40330 0
0 0 0 703 844760 -39627 0
0 0 0 769 845529 -38858 0
0 0 0 791 846320 -38067 0
0 0 0 848 847168 -37219 0
0 0 0 859 848027 -36360 0
0 0 0 860 848887 -35500 0
0 0 0 800 849687 -34700 0
0 0 0 750 850437 -33950 0
0 0 0 718 851155 -33232 0
0 0 0 700 851855 -32532 0
0 0 0 703 852558 -31829 0
0 0 0 718 853276 -31111 0
0 0 0 719 853995 -30392 0
0 0 0 699 854694 -29693 0
0 0 0 685 855379 -29008 0
0 0 0 676 856055 -28332 0
0 0 0 678 856733 -27654 0
0 0 0 697 857430 -26957 0
0 0 0 774 858204 -26183 0
0 0 0 886 859090 -25297 0
0 0 0 896 859986 -24401 0
0 0 0 901 860887 -23500 0
0 0 0 869 861756 -22631 0
0 0 0 836 862592 -21795 0
0 0 0 825 863417 -20970 0
0 0 0 829 864246 -20141 0
0 0 0 792 865038 -19349 0
0 0 0 760 865798 -18589 0
0 0 0 735 866533 -17854 0
0 0 0 725 867258 -17129 0
0 0 0 735 867993 -16394 0
0 0 0 760 868753 -15634 0
0 0 0 794 869547 -14840 0
0 0 0 871 870418 -13969 0
0 0 0 880 871298 -13089 0
0 0 0 851 872149 -12238 0
0 0 0 788 872937 -11450 0
0 0 0 745 873682 -10705 0
0 0 0 716 874398 -9989 0
0 0 0 705 875103 -9284 0
0 0 0 697 875800 -8587 0
0 0 0 699 876499 -7888 0
0 0 0 697 877196 -7191 0
0 0 0 697 877893 -6494 0
0 0 0 700 878593 -5794 0
0 0 0 716 879309 -5078 0
0 0 0 756 880065 -4322 0
0 0 0 780 880845 -3542 0
0 0 0 770 881615 -2772 0
0 0 0 743 882358 -2029 0
41 1 S102 709 883067 -1320 0
41 1 S102 684 883751 -636 0
41 2 S102 687 884438 51 0
41 2 S102 677 885115 728 0
41 2 S102 678 885793 1406 0
41 2 S102 677 886470 2083 0
41 2 S102 671 887141 2754 0
41 2 S102 658 887799 3412 0
41 2 S102 645 888444 4057 0
41 2 S102 630 889074 4687 0
41 2 S102 618 889692 5305 0
41 2 S102 609 890301 5914 0
41 2 S102 601 890902 6515 0
0 0 0 599 891501 -7657 0
0 0 0 594 892095 -7063 0
0 0 0 600 892695 -6463 0
0 0 0 609 893304 -5854 0
0 0 0 634 893938 -5220 0
0 0 0 669 894607 -4551 0
0 0 0 700 895307 -3851 0
0 0 0 721 896028 -3130 0
0 0 0 716 896744 -2414 0
42 1 S112 713 897457 -1701 0
42 1 S112 881 898338 -820 0
42 2 S112 1040 899378 220 1
42 2 S112 1082 900460 1302 1
42 2 S112 1033 901493 2335 1
42 2 S112 936 902429 3271 0
42 2 S112 888 903317 4159 0
42 2 S112 847 904164 5006 0
42 2 S112 809 904973 5815 0
42 2 S112 761 905734 6576 0
0 0 0 727 906461 -9657 0
0 0 0 721 907182 -8936 0
0 0 0 705 907887 -8231 0
0 0 0 694 908581 -7537 0
0 0 0 702 909283 -6835 0
0 0 0 698 909981 -6137 0
0 0 0 710 910691 -5427 0
0 0 0 732 911423 -4695 0
0 0 0 739 912162 -3956 0
0 0 0 739 912901 -3217 0
0 0 0 736 913637 -2481 0
43 1 S116 744 914381 -1737 0
43 1 S116 735 915116 -1002 0
43 1 S116 818 915934 -184 0
43 2 S116 904 916838 720 0
43 2 S116 949 917787 1669 0
43 2 S116 930 918717 2599 0
43 2 S116 886 919603 3485 0
43 2 S116 818 920421 4303 0
43 2 S116 776 921197 5079 0
43 2 S116 746 921943 5825 0
43 2 S116 722 922665 6547 0
0 0 0 710 923375 -7083 0
0 0 0 707 924082 -6376 0
0 0 0 709 924791 -5667 0
0 0 0 735 925526 -4932 0
0 0 0 740 926266 -4192 0
0 0 0 749 927015 -3443 0
0 0 0 756 927771 -2687 0
44 1 S102 764 928535 -1923 0
44 1 S102 785 929320 -1138 0
44 1 S102 821 930141 -317 0
44 2 S102 883 931024 566 0
44 2 S102 917 931941 1483 0
44 2 S102 893 932834 2376 0
44 2 S102 868 933702 3244 0
44 2 S102 827 934529 4071 0
44 2 S102 804 935333 4875 0
44 2 S102 773 936106 5648 0
44 2 S102 758 936864 6406 0
0 0 0 751 937615 -9969 0
0 0 0 751 938366 -9218 0
0 0 0 750 939116 -8468 0
0 0 0 749 939865 -7719 0
0 0 0 757 940622 -6962 0
0 0 0 752 941374 -6210 0
0 0 0 746 942120 -5464 0
0 0 0 748 942868 -4716 0
0 0 0 738 943606 -3978 0
0 0 0 733 944339 -3245 0
0 0 0 745 945084 -2500 0
45 1 S116 738 945822 -1762 0
45 1 S116 722 946544 -1040 0
45 1 S116 714 947258 -326 0
45 2 S116 705 947963 379 0
45 2 S116 698 948661 1077 0
45 2 S116 692 949353 1769 0
45 2 S116 679 950032 2448 0
45 2 S116 679 950711 3127 0
45 2 S116 679 951390 3806 0
45 2 S116 666 952056 4472 0
45 2 S116 658 952714 5130 0
45 2 S116 649 953363 5779 0
45 2 S116 637 954000 6416 0
0 0 0 631 954631 -12515 0
0 0 0 628 955259 -11887 0
0 0 0 624 955883 -11263 0
0 0 0 624 956507 -10639 0
0 0 0 633 957140 -10006 0
0 0 0 653 957793 -9353 0
0 0 0 686 958479 -8667 0
0 0 0 719 959198 -7948 0
0 0 0 771 959969 -7177 0
0 0 0 828 960797 -6349 0
0 0 0 935 961732 -5414 0
0 0 0 1076 962808 -4338 1
0 0 0 1093 963901 -3245 1
0 0 0 1023 964924 -2222 1
46 1 S102 968 965892 -1254 0
46 1 S102 882 966774 -372 0
46 2 S102 837 967611 465 0
46 2 S102 815 968426 1280 0
46 2 S102 787 969213 2067 0
46 2 S102 772 969985 2839 0
46 2 S102 773 970758 3612 0
46 2 S102 773 971531 4385 0
46 2 S102 756 972287 5141 0
46 2 S102 756 973043 5897 0
46 2 S102 764 973807 6661 0
0 0 0 772 974579 -10290 0
0 0 0 778 975357 -9512 0
0 0 0 786 976143 -8726 0
0 0 0 797 976940 -7929 0
0 0 0 815 977755 -7114 0
0 0 0 809 978564 -6305 0
0 0 0 780 979344 -5525 0
0 0 0 789 980133 -4736 0
0 0 0 769 980902 -3967 0
0 0 0 751 981653 -3216 0
0 0 0 750 982403 -2466 0
47 1 S112 746 983149 -1720 0
47 1 S112 742 983891 -978 0
47 1 S112 791 984682 -187 0
47 2 S112 842 985524 655 0
47 2 S112 857 986381 1512 0
47 2 S112 812 987193 2324 0
47 2 S112 779 987972 3103 0
47 2 S112 754 988726 3857 0
47 2 S112 749 989475 4606 0
47 2 S112 747 990222 5353 0
47 2 S112 752 990974 6105 0
47 2 S112 761 991735 6866 0
0 0 0 787 992522 -11577 0
0 0 0 789 993311 -10788 0
0 0 0 799 994110 -9989 0
0 0 0 805 994915 -9184 0
0 0 0 802 995717 -8382 0
0 0 0 784 996501 -7598 0
0 0 0 780 997281 -6818 0
0 0 0 756 998037 -6062 0
0 0 0 746 998783 -5316 0
0 0 0 728 999511 -4588 0
0 0 0 716 1000227 -3872 0
0 0 0 718 1000945 -3154 0
0 0 0 764 1001709 -2390 0
48 1 S116 835 1002544 -1555 0
48 1 S116 901 1003445 -654 0
48 2 S116 895 1004340 241 0
48 2 S116 868 1005208 1109 0
48 2 S116 813 1006021 1922 0
48 2 S116 786 1006807 2708 0
48 2 S116 780 1007587 3488 0
48 2 S116 787 1008374 4275 0
48 2 S116 776 1009150 5051 0
48 2 S116 754 1009904 5805 0
48 2 S116 743 1010647 6548 0
0 0 0 729 1011376 -7860 0
0 0 0 734 1012110 -7126 0
0 0 0 728 1012838 -6398 0
0 0 0 735 1013573 -5663 0
0 0 0 745 1014318 -4918 0
0 0 0 742 1015060 -4176 0
0 0 0 733 1015793 -3443 0
0 0 0 729 1016522 -2714 0
49 1 S112 735 1017257 -1979 0
49 1 S112 757 1018014 -1222 0
49 1 S112 770 1018784 -452 0
49 2 S112 800 1019584 348 0
49 2 S112 820 1020404 1168 0
49 2 S112 771 1021175 1939 0
49 2 S112 748 1021923 2687 0
49 2 S112 726 1022649 3413 0
49 2 S112 705 1023354 4118 0
49 2 S112 701 1024055 4819 0
49 2 S112 695 1024750 5514 0
49 2 S112 695 1025445 6209 0
49 2 S112 698 1026143 6907 0
0 0 0 694 1026837 -12342 0
0 0 0 686 1027523 -11656 0
0 0 0 680 1028203 -10976 0
0 0 0 695 1028898 -10281 0
0 0 0 745 1029643 -9536 0
0 0 0 840 1030483 -8696 0
0 0 0 866 1031349 -7830 0
0 0 0 876 1032225 -6954 0
0 0 0 876 1033101 -6078 0
0 0 0 927 1034028 -5151 0
0 0 0 913 1034941 -4238 0
0 0 0 869 1035810 -3369 0
0 0 0 812 1036622 -2557 0
50 1 S106 766 1037388 -1791 0
50 1 S106 733 1038121 -1058 0
50 1 S106 714 1038835 -344 0
50 2 S106 713 1039548 369 0
50 2 S106 731 1040279 1100 0
50 2 S106 740 1041019 1840 0
50 2 S106 730 1041749 2570 0
50 2 S106 710 1042459 3280 0
50 2 S106 688 1043147 3968 0
50 2 S106 669 1043816 4637 0
50 2 S106 673 1044489 5310 0
50 2 S106 702 1045191 6012 0
50 2 S106 774 1045965 6786 0
0 0 0 837 1046802 -7215 0
0 0 0 899 1047701 -6316 0
0 0 0 955 1048656 -5361 0
0 0 0 929 1049585 -4432 0
0 0 0 862 1050447 -3570 0
0 0 0 790 1051237 -2780 0
0 0 0 752 1051989 -2028 0
51 1 S112 721 1052710 -1307 0
51 1 S112 702 1053412 -605 0
51 2 S112 695 1054107 90 0
51 2 S112 696 1054803 786 0
51 2 S112 702 1055505 1488 0
51 2 S112 704 1056209 2192 0
51 2 S112 697 1056906 2889 0
51 2 S112 695 1057601 3584 0
51 2 S112 685 1058286 4269 0
51 2 S112 672 1058958 4941 0
51 2 S112 679 1059637 5620 0
51 2 S112 682 1060319 6302 0
51 2 S112 703 1061022 7005 0
0 0 0 740 1061762 -7656 0
0 0 0 786 1062548 -6870 0
0 0 0 819 1063367 -6051 0
0 0 0 820 1064187 -5231 0
0 0 0 801 1064988 -4430 0
0 0 0 776 1065764 -3654 0
0 0 0 762 1066526 -2892 0
0 0 0 753 1067279 -2139 0
52 1 S116 752 1068031 -1387 0
52 1 S116 769 1068800 -618 0
52 2 S116 798 1069598 180 0
52 2 S116 842 1070440 1022 0
52 2 S116 857 1071297 1879 0
52 2 S116 816 1072113 2695 0
52 2 S116 786 1072899 3481 0
52 2 S116 757 1073656 4238 0
52 2 S116 766 1074422 5004 0
52 2 S116 771 1075193 5775 0
52 2 S116 772 1075965 6547 0
0 0 0 771 1076736 -9708 0
0 0 0 775 1077511 -8933 0
0 0 0 766 1078277 -8167 0
0 0 0 804 1079081 -7363 0
0 0 0 807 1079888 -6556 0
0 0 0 770 1080658 -5786 0
0 0 0 732 1081390 -5054 0
0 0 0 710 1082100 -4344 0
0 0 0 717 1082817 -3627 0
0 0 0 715 1083532 -2912 0
0 0 0 739 1084271 -2173 0
53 1 S106 752 1085023 -1421 0
53 1 S106 743 1085766 -678 0
53 2 S106 735 1086501 57 0
53 2 S106 715 1087216 772 0
53 2 S106 701 1087917 1473 0
53 2 S106 689 1088606 2162 0
53 2 S106 683 1089289 2845 0
53 2 S106 692 1089981 3537 0
53 2 S106 709 1090690 4246 0
53 2 S106 724 1091414 4970 0
53 2 S106 729 1092143 5699 0
53 2 S106 764 1092907 6463 0
0 0 0 801 1093708 -6795 0
0 0 0 848 1094556 -5947 0
0 0 0 920 1095476 -5027 0
0 0 0 921 1096397 -4106 0
0 0 0 908 1097305 -3198 0
0 0 0 930 1098235 -2268 0
54 1 S102 880 1099115 -1388 0
54 1 S102 831 1099946 -557 0
54 2 S102 789 1100735 232 0
54 2 S102 762 1101497 994 0
54 2 S102 742 1102239 1736 0
54 2 S102 722 1102961 2458 0
54 2 S102 724 1103685 3182 0
54 2 S102 726 1104411 3908 0
54 2 S102 746 1105157 4654 0
54 2 S102 772 1105929 5426 0
54 2 S102 818 1106747 6244 0
0 0 0 813 1107560 -11627 0
0 0 0 811 1108371 -10816 0
0 0 0 814 1109185 -10002 0
0 0 0 813 1109998 -9189 0
0 0 0 788 1110786 -8401 0
0 0 0 753 1111539 -7648 0
0 0 0 735 1112274 -6913 0
0 0 0 723 1112997 -6190 0
0 0 0 722 1113719 -5468 0
0 0 0 723 1114442 -4745 0
0 0 0 736 1115178 -4009 0
0 0 0 744 1115922 -3265 0
0 0 0 766 1116688 -2499 0
55 1 S106 790 1117478 -1709 0
55 1 S106 817 1118295 -892 0
55 1 S106 795 1119090 -97 0
55 2 S106 787 1119877 690 0
55 2 S106 773 1120650 1463 0
55 2 S106 761 1121411 2224 0
55 2 S106 749 1122160 2973 0
55 2 S106 727 1122887 3700 0
55 2 S106 721 1123608 4421 0
55 2 S106 722 1124330 5143 0
55 2 S106 733 1125063 5876 0
55 2 S106 728 1125791 6604 0
0 0 0 725 1126516 -6878 0
0 0 0 751 1127267 -6127 0
0 0 0 782 1128049 -5345 0
0 0 0 780 1128829 -4565 0
0 0 0 747 1129576 -3818 0
0 0 0 736 1130312 -3082 0
0 0 0 763 1131075 -2319 0
56 1 S116 803 1131878 -1516 0
56 1 S116 826 1132704 -690 0
56 2 S116 796 1133500 106 0
56 2 S116 775 1134275 881 0
56 2 S116 781 1135056 1662 0
56 2 S116 775 1135831 2437 0
56 2 S116 757 1136588 3194 0
56 2 S116 717 1137305 3911 0
56 2 S116 691 1137996 4602 0
56 2 S116 671 1138667 5273 0
56 2 S116 662 1139329 5935 0
56 2 S116 666 1139995 6601 0
0 0 0 689 1140684 -7880 0
0 0 0 705 1141389 -7175 0
0 0 0 722 1142111 -6453 0
0 0 0 768 1142879 -5685 0
0 0 0 875 1143754 -4810 0
0 0 0 869 1144623 -3941 0
0 0 0 883 1145506 -3058 0
0 0 0 915 1146421 -2143 0
57 1 S106 1009 1147430 -1134 1
57 1 S106 981 1148411 -153 1
57 2 S106 891 1149302 738 0
57 2 S106 855 1150157 1593 0
57 2 S106 833 1150990 2426 0
57 2 S106 825 1151815 3251 0
57 2 S106 802 1152617 4053 0
57 2 S106 773 1153390 4826 0
57 2 S106 744 1154134 5570 0
57 2 S106 738 1154872 6308 0
0 0 0 737 1155609 -8920 0
0 0 0 754 1156363 -8166 0
0 0 0 822 1157185 -7344 0
0 0 0 862 1158047 -6482 0
0 0 0 835 1158882 -5647 0
0 0 0 847 1159729 -4800 0
0 0 0 870 1160599 -3930 0
0 0 0 870 1161469 -3060 0
0 0 0 853 1162322 -2207 0
58 1 S102 833 1163155 -1374 0
58 1 S102 821 1163976 -553 0
58 2 S102 821 1164797 268 0
58 2 S102 832 1165629 1100 0
58 2 S102 818 1166447 1918 0
58 2 S102 797 1167244 2715 0
58 2 S102 794 1168038 3509 0
58 2 S102 796 1168834 4305 0
58 2 S102 820 1169654 5125 0
58 2 S102 812 1170466 5937 0
58 2 S102 784 1171250 6721 0
0 0 0 760 1172010 -7406 0
0 0 0 756 1172766 -6650 0
0 0 0 765 1173531 -5885 0
0 0 0 772 1174303 -5113 0
0 0 0 768 1175071 -4345 0
0 0 0 758 1175829 -3587 0
0 0 0 749 1176578 -2838 0
0 0 0 744 1177322 -2094 0
59 1 S112 744 1178066 -1350 0
59 1 S112 737 1178803 -613 0
59 2 S112 714 1179517 101 0
59 2 S112 697 1180214 798 0
59 2 S112 671 1180885 1469 0
59 2 S112 713 1181598 2182 0
59 2 S112 702 1182300 2884 0
59 2 S112 711 1183011 3595 0
59 2 S112 713 1183724 4308 0
59 2 S112 704 1184428 5012 0
59 2 S112 690 1185118 5702 0
59 2 S112 678 1185796 6380 0
0 0 0 669 1186465 -10176 0
0 0 0 657 1187122 -9519 0
0 0 0 650 1187772 -8869 0
0 0 0 638 1188410 -8231 0
0 0 0 628 1189038 -7603 0
0 0 0 620 1189658 -6983 0
0 0 0 616 1190274 -6367 0
0 0 0 606 1190880 -5761 0
0 0 0 598 1191478 -5163 0
0 0 0 603 1192081 -4560 0
0 0 0 607 1192688 -3953 0
0 0 0 648 1193336 -3305 0
0 0 0 1283 1194619 -2022 1
60 1 S102 1085 1195704 -937 1
60 2 S102 1149 1196853 212 1
60 2 S102 1217 1198070 1429 1
60 2 S102 1140 1199210 2569 1
60 2 S102 1039 1200249 3608 1
60 2 S102 960 1201209 4568 0
60 2 S102 900 1202109 5468 0
60 2 S102 843 1202952 6311 0
0 0 0 807 1203759 -10986 0
0 0 0 770 1204529 -10216 0
0 0 0 746 1205275 -9470 0
0 0 0 729 1206004 -8741 0
0 0 0 710 1206714 -8031 0
0 0 0 699 1207413 -7332 0
0 0 0 702 1208115 -6630 0
0 0 0 710 1208825 -5920 0
0 0 0 728 1209553 -5192 0
0 0 0 741 1210294 -4451 0
0 0 0 746 1211040 -3705 0
0 0 0 740 1211780 -2965 0
0 0 0 748 1212528 -2217 0
61 1 S106 783 1213311 -1434 0
61 1 S106 835 1214146 -599 0
61 2 S106 881 1215027 282 0
61 2 S106 852 1215879 1134 0
61 2 S106 832 1216711 1966 0
61 2 S106 811 1217522 2777 0
61 2 S106 800 1218322 3577 0
61 2 S106 800 1219122 4377 0
61 2 S106 790 1219912 5167 0
61 2 S106 778 1220690 5945 0
61 2 S106 777 1221467 6722 0
0 0 0 798 1222265 -8610 0
0 0 0 801 1223066 -7809 0
0 0 0 785 1223851 -7024 0
0 0 0 794 1224645 -6230 0
0 0 0 839 1225484 -5391 0
0 0 0 844 1226328 -4547 0
0 0 0 826 1227154 -3721 0
0 0 0 819 1227973 -2902 0
0 0 0 806 1228779 -2096 0
62 1 S112 823 1229602 -1273 0
62 1 S112 834 1230436 -439 0
62 2 S112 834 1231270 395 0
62 2 S112 807 1232077 1202 0
62 2 S112 784 1232861 1986 0
62 2 S112 790 1233651 2776 0
62 2 S112 806 1234457 3582 0
62 2 S112 792 1235249 4374 0
62 2 S112 768 1236017 5142 0
62 2 S112 762 1236779 5904 0
62 2 S112 761 1237540 6665 0
0 0 0 765 1238305 -11834 0
0 0 0 794 1239099 -11040 0
0 0 0 797 1239896 -10243 0
0 0 0 788 1240684 -9455 0
0 0 0 774 1241458 -8681 0
0 0 0 761 1242219 -7920 0
0 0 0 738 1242957 -7182 0
0 0 0 715 1243672 -6467 0
0 0 0 696 1244368 -5771 0
0 0 0 682 1245050 -5089 0
0 0 0 688 1245738 -4401 0
0 0 0 705 1246443 -3696 0
0 0 0 781 1247224 -2915 0
0 0 0 879 1248103 -2036 0
63 1 S102 867 1248970 -1169 0
63 1 S102 829 1249799 -340 0
63 2 S102 802 1250601 462 0
63 2 S102 768 1251369 1230 0
63 2 S102 742 1252111 1972 0
63 2 S102 723 1252834 2695 0
63 2 S102 712 1253546 3407 0
63 2 S102 706 1254252 4113 0
63 2 S102 700 1254952 4813 0
63 2 S102 698 1255650 5511 0
63 2 S102 693 1256343 6204 0
63 2 S102 692 1257035 6896 0
0 0 0 698 1257733 -10162 0
0 0 0 723 1258456 -9439 0
0 0 0 750 1259206 -8689 0
0 0 0 770 1259976 -7919 0
0 0 0 804 1260780 -7115 0
0 0 0 795 1261575 -6320 0
0 0 0 796 1262371 -5524 0
0 0 0 810 1263181 -4714 0
0 0 0 807 1263988 -3907 0
0 0 0 816 1264804 -3091 0
0 0 0 799 1265603 -2292 0
64 1 S112 790 1266393 -1502 0
64 1 S112 776 1267169 -726 0
64 2 S112 762 1267931 36 0
64 2 S112 733 1268664 769 0
64 2 S112 715 1269379 1484 0
64 2 S112 698 1270077 2182 0
64 2 S112 693 1270770 2875 0
64 2 S112 700 1271470 3575 0
64 2 S112 710 1272180 4285 0
64 2 S112 718 1272898 5003 0
64 2 S112 723 1273621 5726 0
64 2 S112 728 1274349 6454 0
0 0 0 748 1275097 -8448 0
0 0 0 783 1275880 -7665 0
0 0 0 788 1276668 -6877 0
0 0 0 804 1277472 -6073 0
0 0 0 786 1278258 -5287 0
0 0 0 769 1279027 -4518 0
0 0 0 755 1279782 -3763 0
0 0 0 743 1280525 -3020 0
0 0 0 729 1281254 -2291 0
65 1 S106 712 1281966 -1579 0
65 1 S106 707 1282673 -872 0
65 1 S106 712 1283385 -160 0
65 2 S106 766 1284151 606 0
65 2 S106 826 1284977 1432 0
65 2 S106 831 1285808 2263 0
65 2 S106 810 1286618 3073 0
65 2 S106 791 1287409 3864 0
65 2 S106 774 1288183 4638 0
65 2 S106 762 1288945 5400 0
65 2 S106 756 1289701 6156 0
65 2 S106 742 1290443 6898 0
0 0 0 726 1291169 -7860 0
0 0 0 721 1291890 -7139 0
0 0 0 722 1292612 -6417 0
0 0 0 730 1293342 -5687 0
0 0 0 750 1294092 -4937 0
0 0 0 755 1294847 -4182 0
0 0 0 749 1295596 -3433 0
0 0 0 750 1296346 -2683 0
66 1 S116 755 1297101 -1928 0
66 1 S116 744 1297845 -1184 0
66 1 S116 719 1298564 -465 0
66 2 S116 707 1299271 242 0
66 2 S116 688 1299959 930 0
66 2 S116 713 1300672 1643 0
66 2 S116 717 1301389 2360 0
66 2 S116 727 1302116 3087 0
66 2 S116 755 1302871 3842 0
66 2 S116 747 1303618 4589 0
66 2 S116 724 1304342 5313 0
66 2 S116 699 1305041 6012 0
66 2 S116 677 1305718 6689 0
0 0 0 658 1306376 -10923 0
0 0 0 648 1307024 -10275 0
0 0 0 635 1307659 -9640 0
0 0 0 630 1308289 -9010 0
0 0 0 626 1308915 -8384 0
0 0 0 615 1309530 -7769 0
0 0 0 610 1310140 -7159 0
0 0 0 622 1310762 -6537 0
0 0 0 665 1311427 -5872 0
0 0 0 811 1312238 -5061 0
0 0 0 953 1313191 -4108 0
0 0 0 1012 1314203 -3096 1
0 0 0 1086 1315289 -2010 1
67 1 S102 1009 1316298 -1001 1
67 1 S102 923 1317221 -78 0
67 2 S102 839 1318060 761 0
67 2 S102 806 1318866 1567 0
67 2 S102 776 1319642 2343 0
67 2 S102 758 1320400 3101 0
67 2 S102 743 1321143 3844 0
67 2 S102 736 1321879 4580 0
67 2 S102 730 1322609 5310 0
67 2 S102 723 1323332 6033 0
67 2 S102 709 1324041 6742 0
0 0 0 694 1324735 -6158 0
0 0 0 695 1325430 -5463 0
0 0 0 735 1326165 -4728 0
0 0 0 773 1326938 -3955 0
0 0 0 796 1327734 -3159 0
0 0 0 763 1328497 -2396 0
68 1 S106 716 1329213 -1680 0
68 1 S106 720 1329933 -960 0
68 1 S106 728 1330661 -232 0
68 2 S106 741 1331402 509 0
68 2 S106 728 1332130 1237 0
68 2 S106 710 1332840 1947 0
68 2 S106 720 1333560 2667 0
68 2 S106 720 1334280 3387 0
68 2 S106 709 1334989 4096 0
68 2 S106 715 1335704 4811 0
68 2 S106 704 1336408 5515 0
68 2 S106 693 1337101 6208 0
68 2 S106 677 1337778 6885 0
0 0 0 660 1338438 -12017 0
0 0 0 645 1339083 -11372 0
0 0 0 629 1339712 -10743 0
0 0 0 625 1340337 -10118 0
0 0 0 623 1340960 -9495 0
0 0 0 628 1341588 -8867 0
0 0 0 633 1342221 -8234 0
0 0 0 644 1342865 -7590 0
0 0 0 669 1343534 -6921 0
0 0 0 726 1344260 -6195 0
0 0 0 860 1345120 -5335 0
0 0 0 1061 1346181 -4274 1
0 0 0 1100 1347281 -3174 1
0 0 0 1115 1348396 -2059 1
69 1 S102 1016 1349412 -1043 1
69 1 S102 960 1350372 -83 0
69 2 S102 937 1351309 854 0
69 2 S102 926 1352235 1780 0
69 2 S102 860 1353095 2640 0
69 2 S102 812 1353907 3452 0
69 2 S102 786 1354693 4238 0
69 2 S102 761 1355454 4999 0
69 2 S102 750 1356204 5749 0
69 2 S102 733 1356937 6482 0
0 0 0 728 1357665 -10231 0
0 0 0 762 1358427 -9469 0
0 0 0 792 1359219 -8677 0
0 0 0 832 1360051 -7845 0
0 0 0 869 1360920 -6976 0
0 0 0 844 1361764 -6132 0
0 0 0 797 1362561 -5335 0
0 0 0 767 1363328 -4568 0
0 0 0 750 1364078 -3818 0
0 0 0 762 1364840 -3056 0
0 0 0 756 1365596 -2300 0
70 1 S112 753 1366349 -1547 0
70 1 S112 767 1367116 -780 0
70 2 S112 781 1367897 1 0
70 2 S112 793 1368690 794 0
70 2 S112 783 1369473 1577 0
70 2 S112 779 1370252 2356 0
70 2 S112 800 1371052 3156 0
70 2 S112 815 1371867 3971 0
70 2 S112 810 1372677 4781 0
70 2 S112 805 1373482 5586 0
70 2 S112 793 1374275 6379 0
0 0 0 785 1375060 -12199 0
0 0 0 784 1375844 -11415 0
0 0 0 772 1376616 -10643 0
0 0 0 765 1377381 -9878 0
0 0 0 772 1378153 -9106 0
0 0 0 743 1378896 -8363 0
0 0 0 748 1379644 -7615 0
0 0 0 753 1380397 -6862 0
0 0 0 777 1381174 -6085 0
0 0 0 780 1381954 -5305 0
0 0 0 770 1382724 -4535 0
0 0 0 756 1383480 -3779 0
0 0 0 774 1384254 -3005 0
0 0 0 794 1385048 -2211 0
71 1 S116 801 1385849 -1410 0
71 1 S116 798 1386647 -612 0
71 2 S116 793 1387440 181 0
71 2 S116 782 1388222 963 0
71 2 S116 765 1388987 1728 0
71 2 S116 740 1389727 2468 0
71 2 S116 734 1390461 3202 0
71 2 S116 728 1391189 3930 0
71 2 S116 734 1391923 4664 0
71 2 S116 730 1392653 5394 0
71 2 S116 730 1393383 6124 0
71 2 S116 746 1394129 6870 0
0 0 0 771 1394900 -8440 0
0 0 0 771 1395671 -7669 0
0 0 0 761 1396432 -6908 0
0 0 0 738 1397170 -6170 0
0 0 0 732 1397902 -5438 0
0 0 0 734 1398636 -4704 0
0 0 0 717 1399353 -3987 0
0 0 0 701 1400054 -3286 0
0 0 0 699 1400753 -2587 0
72 1 S102 688 1401441 -1899 0
72 1 S102 654 1402095 -1245 0
72 1 S102 631 1402726 -614 0
72 2 S102 649 1403375 35 0
72 2 S102 648 1404023 683 0
72 2 S102 656 1404679 1339 0
72 2 S102 662 1405341 2001 0
72 2 S102 671 1406012 2672 0
72 2 S102 663 1406675 3335 0
72 2 S102 658 1407333 3993 0
72 2 S102 648 1407981 4641 0
72 2 S102 639 1408620 5280 0
72 2 S102 630 1409250 5910 0
72 2 S102 623 1409873 6533 0
0 0 0 620 1410493 -7917 0
0 0 0 634 1411127 -7283 0
0 0 0 664 1411791 -6619 0
0 0 0 773 1412564 -5846 0
0 0 0 914 1413478 -4932 0
0 0 0 1104 1414582 -3828 1
0 0 0 1099 1415681 -2729 1
73 1 S116 1100 1416781 -1629 1
73 1 S116 1011 1417792 -618 1
73 2 S116 964 1418756 346 0
73 2 S116 1030 1419786 1376 1
73 2 S116 1122 1420908 2498 1
73 2 S116 1026 1421934 3524 1
73 2 S116 938 1422872 4462 0
73 2 S116 879 1423751 5341 0
73 2 S116 868 1424619 6209 0
0 0 0 844 1425463 -9310 0
0 0 0 808 1426271 -8502 0
0 0 0 781 1427052 -7721 0
0 0 0 764 1427816 -6957 0
0 0 0 751 1428567 -6206 0
0 0 0 739 1429306 -5467 0
0 0 0 733 1430039 -4734 0
0 0 0 752 1430791 -3982 0
0 0 0 778 1431569 -3204 0
0 0 0 812 1432381 -2392 0
74 1 S106 912 1433293 -1480 0
74 1 S106 1043 1434336 -437 1
74 2 S106 1004 1435340 567 1
74 2 S106 937 1436277 1504 0
74 2 S106 864 1437141 2368 0
74 2 S106 819 1437960 3187 0
74 2 S106 786 1438746 3973 0
74 2 S106 764 1439510 4737 0
74 2 S106 744 1440254 5481 0
74 2 S106 734 1440988 6215 0
74 2 S106 730 1441718 6945 0
0 0 0 737 1442455 -7636 0
0 0 0 764 1443219 -6872 0
0 0 0 798 1444017 -6074 0
0 0 0 831 1444848 -5243 0
0 0 0 818 1445666 -4425 0
0 0 0 779 1446445 -3646 0
0 0 0 756 1447201 -2890 0
0 0 0 726 1447927 -2164 0
75 1 S112 705 1448632 -1459 0
75 1 S112 687 1449319 -772 0
75 1 S112 670 1449989 -102 0
75 2 S112 658 1450647 556 0
75 2 S112 687 1451334 1243 0
75 2 S112 708 1452042 1951 0
75 2 S112 753 1452795 2704 0
75 2 S112 789 1453584 3493 0
75 2 S112 788 1454372 4281 0
75 2 S112 763 1455135 5044 0
75 2 S112 747 1455882 5791 0
75 2 S112 730 1456612 6521 0
0 0 0 712 1457324 -8401 0
0 0 0 687 1458011 -7714 0
0 0 0 674 1458685 -7040 0
0 0 0 672 1459357 -6368 0
0 0 0 688 1460045 -5680 0
0 0 0 725 1460770 -4955 0
0 0 0 744 1461514 -4211 0
0 0 0 767 1462281 -3444 0
0 0 0 800 1463081 -2644 0
76 1 S116 821 1463902 -1823 0
76 1 S116 852 1464754 -971 0
76 1 S116 836 1465590 -135 0
76 2 S116 848 1466438 713 0
76 2 S116 833 1467271 1546 0
76 2 S116 804 1468075 2350 0
76 2 S116 791 1468866 3141 0
76 2 S116 764 1469630 3905 0
76 2 S116 746 1470376 4651 0
76 2 S116 731 1471107 5382 0
76 2 S116 721 1471828 6103 0
76 2 S116 724 1472552 6827 0
0 0 0 736 1473288 -7391 0
0 0 0 732 1474020 -6659 0
0 0 0 721 1474741 -5938 0
0 0 0 718 1475459 -5220 0
0 0 0 734 1476193 -4486 0
0 0 0 728 1476921 -3758 0
0 0 0 741 1477662 -3017 0
0 0 0 754 1478416 -2263 0
77 1 S106 772 1479188 -1491 0
77 1 S106 828 1480016 -663 0
77 2 S106 838 1480854 175 0
77 2 S106 813 1481667 988 0
77 2 S106 804 1482471 1792 0
77 2 S106 779 1483250 2571 0
77 2 S106 766 1484016 3337 0
77 2 S106 747 1484763 4084 0
77 2 S106 748 1485511 4832 0
77 2 S106 732 1486243 5564 0
77 2 S106 719 1486962 6283 0
77 2 S106 722 1487684 7005 0
0 0 0 724 1488408 -8965 0
0 0 0 730 1489138 -8235 0
0 0 0 734 1489872 -7501 0
0 0 0 741 1490613 -6760 0
0 0 0 722 1491335 -6038 0
0 0 0 725 1492060 -5313 0
0 0 0 716 1492776 -4597 0
0 0 0 729 1493505 -3868 0
0 0 0 736 1494241 -3132 0
0 0 0 729 1494970 -2403 0
78 1 S112 741 1495711 -1662 0
78 1 S112 778 1496489 -884 0
78 1 S112 829 1497318 -55 0
78 2 S112 833 1498151 778 0
78 2 S112 834 1498985 1612 0
78 2 S112 806 1499791 2418 0
78 2 S112 772 1500563 3190 0
78 2 S112 729 1501292 3919 0
78 2 S112 704 1501996 4623 0
78 2 S112 696 1502692 5319 0
78 2 S112 693 1503385 6012 0
78 2 S112 695 1504080 6707 0
0 0 0 707 1504787 -11950 0
0 0 0 721 1505508 -11229 0
0 0 0 735 1506243 -10494 0
0 0 0 745 1506988 -9749 0
0 0 0 785 1507773 -8964 0
0 0 0 786 1508559 -8178 0
0 0 0 779 1509338 -7399 0
0 0 0 760 1510098 -6639 0
0 0 0 750 1510848 -5889 0
0 0 0 752 1511600 -5137 0
0 0 0 765 1512365 -4372 0
0 0 0 769 1513134 -3603 0
0 0 0 759 1513893 -2844 0
0 0 0 750 1514643 -2094 0
79 1 S102 736 1515379 -1358 0
79 1 S102 729 1516108 -629 0
79 2 S102 721 1516829 92 0
79 2 S102 721 1517550 813 0
79 2 S102 720 1518270 1533 0
79 2 S102 710 1518980 2243 0
79 2 S102 701 1519681 2944 0
79 2 S102 692 1520373 3636 0
79 2 S102 693 1521066 4329 0
79 2 S102 710 1521776 5039 0
79 2 S102 762 1522538 5801 0
79 2 S102 877 1523415 6678 0
0 0 0 952 1524367 -9777 0
0 0 0 959 1525326 -8818 0
0 0 0 912 1526238 -7906 0
0 0 0 892 1527130 -7014 0
0 0 0 848 1527978 -6166 0
0 0 0 779 1528757 -5387 0
0 0 0 775 1529532 -4612 0
0 0 0 752 1530284 -3860 0
0 0 0 718 1531002 -3142 0
0 0 0 718 1531720 -2424 0
80 1 S116 708 1532428 -1716 0
80 1 S116 700 1533128 -1016 0
80 1 S116 706 1533834 -310 0
80 2 S116 691 1534525 381 0
80 2 S116 691 1535216 1072 0
80 2 S116 713 1535929 1785 0
80 2 S116 718 1536647 2503 0
80 2 S116 739 1537386 3242 0
80 2 S116 736 1538122 3978 0
80 2 S116 714 1538836 4692 0
80 2 S116 696 1539532 5388 0
80 2 S116 683 1540215 6071 0
80 2 S116 686 1540901 6757 0
