T_0149
BeatCount Mean SD BeatCountNoOutliers MeanNoOutliers SDNoOutliers
2535 606,672978303748 52,5836721854853 2491 603,865515857085 47,7523717305689

Trial TrialStatus Trialtype IBI AbsPosition RelPosition Outlier
0 0 0 483 820 -13972 0
0 0 0 485 1305 -13487 0
0 0 0 489 1794 -12998 0
0 0 0 487 2281 -12511 0
0 0 0 482 2763 -12029 0
0 0 0 477 3240 -11552 0
0 0 0 484 3724 -11068 0
0 0 0 502 4226 -10566 0
0 0 0 528 4754 -10038 0
0 0 0 560 5314 -9478 0
0 0 0 591 5905 -8887 0
0 0 0 617 6522 -8270 0
0 0 0 629 7151 -7641 0
0 0 0 606 7757 -7035 0
0 0 0 586 8343 -6449 0
0 0 0 582 8925 -5867 0
0 0 0 579 9504 -5288 0
0 0 0 585 10089 -4703 0
0 0 0 581 10670 -4122 0
0 0 0 567 11237 -3555 0
0 0 0 535 11772 -3020 0
0 0 0 534 12306 -2486 0
1 1 S112 541 12847 -1945 0
1 1 S112 560 13407 -1385 0
1 1 S112 608 14015 -777 0
1 1 S112 686 14701 -91 0
1 2 S112 747 15448 656 1
1 2 S112 671 16119 1327 0
1 2 S112 647 16766 1974 0
1 2 S112 629 17395 2603 0
1 2 S112 621 18016 3224 0
1 2 S112 611 18627 3835 0
1 2 S112 590 19217 4425 0
1 2 S112 595 19812 5020 0
1 2 S112 604 20416 5624 0
1 2 S112 625 21041 6249 0
1 2 S112 632 21673 6881 0
0 0 0 613 22286 -12235 0
0 0 0 624 22910 -11611 0
0 0 0 635 23545 -10976 0
0 0 0 633 24178 -10343 0
0 0 0 610 24788 -9733 0
0 0 0 607 25395 -9126 0
0 0 0 604 25999 -8522 0
0 0 0 619 26618 -7903 0
0 0 0 608 27226 -7295 0
0 0 0 544 27770 -6751 0
0 0 0 546 28316 -6205 0
0 0 0 522 28838 -5683 0
0 0 0 524 29362 -5159 0
0 0 0 510 29872 -4649 0
0 0 0 514 30386 -4135 0
0 0 0 527 30913 -3608 0
0 0 0 532 31445 -3076 0
0 0 0 526 31971 -2550 0
0 0 0 522 32493 -2028 0
2 1 S102 511 33004 -1517 0
2 1 S102 503 33507 -1014 0
2 1 S102 504 34011 -510 0
2 2 S102 515 34526 5 0
2 2 S102 530 35056 535 0
2 2 S102 564 35620 1099 0
2 2 S102 599 36219 1698 0
2 2 S102 602 36821 2300 0
2 2 S102 594 37415 2894 0
2 2 S102 597 38012 3491 0
2 2 S102 605 38617 4096 0
2 2 S102 605 39222 4701 0
2 2 S102 571 39793 5272 0
2 2 S102 584 40377 5856 0
2 2 S102 585 40962 6441 0
0 0 0 594 41556 -11035 0
0 0 0 593 42149 -10442 0
0 0 0 560 42709 -9882 0
0 0 0 587 43296 -9295 0
0 0 0 598 43894 -8697 0
0 0 0 619 44513 -8078 0
0 0 0 632 45145 -7446 0
0 0 0 609 45754 -6837 0
0 0 0 613 46367 -6224 0
0 0 0 610 46977 -5614 0
0 0 0 589 47566 -5025 0
0 0 0 570 48136 -4455 0
0 0 0 588 48724 -3867 0
0 0 0 596 49320 -3271 0
0 0 0 598 49918 -2673 0
0 0 0 569 50487 -2104 0
3 1 S116 610 51097 -1494 0
3 1 S116 623 51720 -871 0
3 1 S116 636 52356 -235 0
3 2 S116 619 52975 384 0
3 2 S116 603 53578 987 0
3 2 S116 614 54192 1601 0
3 2 S116 622 54814 2223 0
3 2 S116 612 55426 2835 0
3 2 S116 573 55999 3408 0
3 2 S116 592 56591 4000 0
3 2 S116 597 57188 4597 0
3 2 S116 618 57806 5215 0
3 2 S116 608 58414 5823 0
3 2 S116 633 59047 6456 0
0 0 0 653 59700 -12421 0
0 0 0 667 60367 -11754 0
0 0 0 653 61020 -11101 0
0 0 0 673 61693 -10428 0
0 0 0 694 62387 -9734 0
0 0 0 680 63067 -9054 0
0 0 0 644 63711 -8410 0
0 0 0 634 64345 -7776 0
0 0 0 634 64979 -7142 0
0 0 0 593 65572 -6549 0
0 0 0 613 66185 -5936 0
0 0 0 617 66802 -5319 0
0 0 0 628 67430 -4691 0
0 0 0 593 68023 -4098 0
0 0 0 603 68626 -3495 0
0 0 0 588 69214 -2907 0
0 0 0 582 69796 -2325 0
4 1 S106 550 70346 -1775 0
4 1 S106 525 70871 -1250 0
4 1 S106 510 71381 -740 0
4 1 S106 523 71904 -217 0
4 2 S106 531 72435 314 0
4 2 S106 560 72995 874 0
4 2 S106 596 73591 1470 0
4 2 S106 610 74201 2080 0
4 2 S106 630 74831 2710 0
4 2 S106 660 75491 3370 0
4 2 S106 686 76177 4056 0
4 2 S106 668 76845 4724 0
4 2 S106 641 77486 5365 0
4 2 S106 646 78132 6011 0
4 2 S106 650 78782 6661 0
0 0 0 631 79413 -8374 0
0 0 0 619 80032 -7755 0
0 0 0 622 80654 -7133 0
0 0 0 636 81290 -6497 0
0 0 0 632 81922 -5865 0
0 0 0 629 82551 -5236 0
0 0 0 634 83185 -4602 0
0 0 0 634 83819 -3968 0
0 0 0 607 84426 -3361 0
0 0 0 624 85050 -2737 0
0 0 0 634 85684 -2103 0
5 1 S116 642 86326 -1461 0
5 1 S116 630 86956 -831 0
5 1 S116 619 87575 -212 0
5 2 S116 626 88201 414 0
5 2 S116 648 88849 1062 0
5 2 S116 650 89499 1712 0
5 2 S116 628 90127 2340 0
5 2 S116 635 90762 2975 0
5 2 S116 642 91404 3617 0
5 2 S116 634 92038 4251 0
5 2 S116 608 92646 4859 0
5 2 S116 621 93267 5480 0
5 2 S116 630 93897 6110 0
5 2 S116 639 94536 6749 0
0 0 0 611 95147 -10246 0
0 0 0 624 95771 -9622 0
0 0 0 632 96403 -8990 0
0 0 0 640 97043 -8350 0
0 0 0 618 97661 -7732 0
0 0 0 634 98295 -7098 0
0 0 0 622 98917 -6476 0
0 0 0 623 99540 -5853 0
0 0 0 594 100134 -5259 0
0 0 0 606 100740 -4653 0
0 0 0 605 101345 -4048 0
0 0 0 604 101949 -3444 0
0 0 0 572 102521 -2872 0
0 0 0 607 103128 -2265 0
6 1 S106 612 103740 -1653 0
6 1 S106 628 104368 -1025 0
6 1 S106 606 104974 -419 0
6 2 S106 592 105566 173 0
6 2 S106 609 106175 782 0
6 2 S106 624 106799 1406 0
6 2 S106 632 107431 2038 0
6 2 S106 610 108041 2648 0
6 2 S106 584 108625 3232 0
6 2 S106 605 109230 3837 0
6 2 S106 617 109847 4454 0
6 2 S106 636 110483 5090 0
6 2 S106 623 111106 5713 0
6 2 S106 619 111725 6332 0
6 2 S106 634 112359 6966 0
0 0 0 644 113003 -10245 0
0 0 0 630 113633 -9615 0
0 0 0 638 114271 -8977 0
0 0 0 631 114902 -8346 0
0 0 0 624 115526 -7722 0
0 0 0 594 116120 -7128 0
0 0 0 617 116737 -6511 0
0 0 0 625 117362 -5886 0
0 0 0 628 117990 -5258 0
0 0 0 591 118581 -4667 0
0 0 0 602 119183 -4065 0
0 0 0 602 119785 -3463 0
0 0 0 609 120394 -2854 0
0 0 0 593 120987 -2261 0
7 1 S102 604 121591 -1657 0
7 1 S102 617 122208 -1040 0
7 1 S102 634 122842 -406 0
7 2 S102 635 123477 229 0
7 2 S102 604 124081 833 0
7 2 S102 606 124687 1439 0
7 2 S102 589 125276 2028 0
7 2 S102 572 125848 2600 0
7 2 S102 546 126394 3146 0
7 2 S102 545 126939 3691 0
7 2 S102 520 127459 4211 0
7 2 S102 518 127977 4729 0
7 2 S102 508 128485 5237 0
7 2 S102 502 128987 5739 0
7 2 S102 500 129487 6239 0
7 2 S102 507 129994 6746 0
0 0 0 532 130526 -8720 0
0 0 0 582 131108 -8138 0
0 0 0 678 131786 -7460 0
0 0 0 776 132562 -6684 1
0 0 0 702 133264 -5982 0
0 0 0 700 133964 -5282 0
0 0 0 688 134652 -4594 0
0 0 0 665 135317 -3929 0
0 0 0 622 135939 -3307 0
0 0 0 627 136566 -2680 0
0 0 0 629 137195 -2051 0
8 1 S112 644 137839 -1407 0
8 1 S112 639 138478 -768 0
8 1 S112 632 139110 -136 0
8 2 S112 640 139750 504 0
8 2 S112 661 140411 1165 0
8 2 S112 670 141081 1835 0
8 2 S112 635 141716 2470 0
8 2 S112 632 142348 3102 0
8 2 S112 636 142984 3738 0
8 2 S112 645 143629 4383 0
8 2 S112 630 144259 5013 0
8 2 S112 626 144885 5639 0
8 2 S112 646 145531 6285 0
8 2 S112 672 146203 6957 0
0 0 0 682 146885 -7448 0
0 0 0 654 147539 -6794 0
0 0 0 662 148201 -6132 0
0 0 0 673 148874 -5459 0
0 0 0 675 149549 -4784 0
0 0 0 628 150177 -4156 0
0 0 0 635 150812 -3521 0
0 0 0 646 151458 -2875 0
0 0 0 651 152109 -2224 0
9 1 S116 634 152743 -1590 0
9 1 S116 647 153390 -943 0
9 1 S116 662 154052 -281 0
9 2 S116 660 154712 379 0
9 2 S116 629 155341 1008 0
9 2 S116 639 155980 1647 0
9 2 S116 640 156620 2287 0
9 2 S116 643 157263 2930 0
9 2 S116 619 157882 3549 0
9 2 S116 640 158522 4189 0
9 2 S116 662 159184 4851 0
9 2 S116 685 159869 5536 0
9 2 S116 666 160535 6202 0
9 2 S116 672 161207 6874 0
0 0 0 676 161883 -12095 0
0 0 0 665 162548 -11430 0
0 0 0 629 163177 -10801 0
0 0 0 640 163817 -10161 0
0 0 0 649 164466 -9512 0
0 0 0 638 165104 -8874 0
0 0 0 609 165713 -8265 0
0 0 0 618 166331 -7647 0
0 0 0 630 166961 -7017 0
0 0 0 632 167593 -6385 0
0 0 0 617 168210 -5768 0
0 0 0 637 168847 -5131 0
0 0 0 644 169491 -4487 0
0 0 0 649 170140 -3838 0
0 0 0 626 170766 -3212 0
0 0 0 633 171399 -2579 0
10 1 S102 636 172035 -1943 0
10 1 S102 632 172667 -1311 0
10 1 S102 594 173261 -717 0
10 1 S102 609 173870 -108 0
10 2 S102 603 174473 495 0
10 2 S102 594 175067 1089 0
10 2 S102 576 175643 1665 0
10 2 S102 597 176240 2262 0
10 2 S102 619 176859 2881 0
10 2 S102 654 177513 3535 0
10 2 S102 658 178171 4193 0
10 2 S102 660 178831 4853 0
10 2 S102 685 179516 5538 0
10 2 S102 710 180226 6248 0
10 2 S102 692 180918 6940 0
0 0 0 660 181578 -12642 0
0 0 0 657 182235 -11985 0
0 0 0 655 182890 -11330 0
0 0 0 627 183517 -10703 0
0 0 0 623 184140 -10080 0
0 0 0 632 184772 -9448 0
0 0 0 639 185411 -8809 0
0 0 0 629 186040 -8180 0
0 0 0 619 186659 -7561 0
0 0 0 622 187281 -6939 0
0 0 0 610 187891 -6329 0
0 0 0 578 188469 -5751 0
0 0 0 562 189031 -5189 0
0 0 0 584 189615 -4605 0
0 0 0 578 190193 -4027 0
0 0 0 576 190769 -3451 0
0 0 0 547 191316 -2904 0
0 0 0 540 191856 -2364 0
11 1 S112 527 192383 -1837 0
11 1 S112 525 192908 -1312 0
11 1 S112 539 193447 -773 0
11 1 S112 564 194011 -209 0
11 2 S112 616 194627 407 0
11 2 S112 667 195294 1074 0
11 2 S112 645 195939 1719 0
11 2 S112 639 196578 2358 0
11 2 S112 645 197223 3003 0
11 2 S112 645 197868 3648 0
11 2 S112 625 198493 4273 0
11 2 S112 612 199105 4885 0
11 2 S112 617 199722 5502 0
11 2 S112 620 200342 6122 0
11 2 S112 612 200954 6734 0
0 0 0 593 201547 -8506 0
0 0 0 603 202150 -7903 0
0 0 0 608 202758 -7295 0
0 0 0 632 203390 -6663 0
0 0 0 617 204007 -6046 0
0 0 0 641 204648 -5405 0
0 0 0 664 205312 -4741 0
0 0 0 663 205975 -4078 0
0 0 0 634 206609 -3444 0
0 0 0 635 207244 -2809 0
0 0 0 635 207879 -2174 0
12 1 S116 631 208510 -1543 0
12 1 S116 600 209110 -943 0
12 1 S116 604 209714 -339 0
12 2 S116 611 210325 272 0
12 2 S116 619 210944 891 0
12 2 S116 616 211560 1507 0
12 2 S116 607 212167 2114 0
12 2 S116 618 212785 2732 0
12 2 S116 627 213412 3359 0
12 2 S116 613 214025 3972 0
12 2 S116 619 214644 4591 0
12 2 S116 644 215288 5235 0
12 2 S116 670 215958 5905 0
12 2 S116 663 216621 6568 0
0 0 0 634 217255 -11797 0
0 0 0 635 217890 -11162 0
0 0 0 641 218531 -10521 0
0 0 0 659 219190 -9862 0
0 0 0 628 219818 -9234 0
0 0 0 622 220440 -8612 0
0 0 0 622 221062 -7990 0
0 0 0 624 221686 -7366 0
0 0 0 589 222275 -6777 0
0 0 0 603 222878 -6174 0
0 0 0 604 223482 -5570 0
0 0 0 625 224107 -4945 0
0 0 0 630 224737 -4315 0
0 0 0 617 225354 -3698 0
0 0 0 622 225976 -3076 0
0 0 0 624 226600 -2452 0
13 1 S112 620 227220 -1832 0
13 1 S112 593 227813 -1239 0
13 1 S112 607 228420 -632 0
13 1 S112 605 229025 -27 0
13 2 S112 623 229648 596 0
13 2 S112 632 230280 1228 0
13 2 S112 624 230904 1852 0
13 2 S112 644 231548 2496 0
13 2 S112 662 232210 3158 0
13 2 S112 696 232906 3854 0
13 2 S112 672 233578 4526 0
13 2 S112 650 234228 5176 0
13 2 S112 655 234883 5831 0
13 2 S112 666 235549 6497 0
0 0 0 680 236229 -12385 0
0 0 0 634 236863 -11751 0
0 0 0 634 237497 -11117 0
0 0 0 638 238135 -10479 0
0 0 0 651 238786 -9828 0
0 0 0 653 239439 -9175 0
0 0 0 625 240064 -8550 0
0 0 0 629 240693 -7921 0
0 0 0 635 241328 -7286 0
0 0 0 635 241963 -6651 0
0 0 0 591 242554 -6060 0
0 0 0 572 243126 -5488 0
0 0 0 581 243707 -4907 0
0 0 0 606 244313 -4301 0
0 0 0 633 244946 -3668 0
0 0 0 676 245622 -2992 0
0 0 0 664 246286 -2328 0
14 1 S106 652 246938 -1676 0
14 1 S106 667 247605 -1009 0
14 1 S106 681 248286 -328 0
14 2 S106 674 248960 346 0
14 2 S106 640 249600 986 0
14 2 S106 636 250236 1622 0
14 2 S106 627 250863 2249 0
14 2 S106 626 251489 2875 0
14 2 S106 606 252095 3481 0
14 2 S106 606 252701 4087 0
14 2 S106 600 253301 4687 0
14 2 S106 617 253918 5304 0
14 2 S106 627 254545 5931 0
14 2 S106 609 255154 6540 0
0 0 0 635 255789 -11078 0
0 0 0 651 256440 -10427 0
0 0 0 667 257107 -9760 0
0 0 0 644 257751 -9116 0
0 0 0 641 258392 -8475 0
0 0 0 635 259027 -7840 0
0 0 0 619 259646 -7221 0
0 0 0 573 260219 -6648 0
0 0 0 576 260795 -6072 0
0 0 0 567 261362 -5505 0
0 0 0 554 261916 -4951 0
0 0 0 532 262448 -4419 0
0 0 0 514 262962 -3905 0
0 0 0 497 263459 -3408 0
0 0 0 487 263946 -2921 0
0 0 0 482 264428 -2439 0
15 1 S116 487 264915 -1952 0
15 1 S116 502 265417 -1450 0
15 1 S116 561 265978 -889 0
15 1 S116 738 266716 -151 0
15 2 S116 814 267530 663 1
15 2 S116 787 268317 1450 1
15 2 S116 762 269079 2212 1
15 2 S116 776 269855 2988 1
15 2 S116 780 270635 3768 1
15 2 S116 736 271371 4504 0
15 2 S116 675 272046 5179 0
15 2 S116 666 272712 5845 0
15 2 S116 664 273376 6509 0
0 0 0 647 274023 -11412 0
0 0 0 627 274650 -10785 0
0 0 0 633 275283 -10152 0
0 0 0 636 275919 -9516 0
0 0 0 641 276560 -8875 0
0 0 0 630 277190 -8245 0
0 0 0 633 277823 -7612 0
0 0 0 640 278463 -6972 0
0 0 0 634 279097 -6338 0
0 0 0 603 279700 -5735 0
0 0 0 608 280308 -5127 0
0 0 0 616 280924 -4511 0
0 0 0 621 281545 -3890 0
0 0 0 613 282158 -3277 0
0 0 0 601 282759 -2676 0
0 0 0 603 283362 -2073 0
16 1 S116 606 283968 -1467 0
16 1 S116 594 284562 -873 0
16 1 S116 574 285136 -299 0
16 2 S116 585 285721 286 0
16 2 S116 593 286314 879 0
16 2 S116 603 286917 1482 0
16 2 S116 591 287508 2073 0
16 2 S116 578 288086 2651 0
16 2 S116 587 288673 3238 0
16 2 S116 600 289273 3838 0
16 2 S116 614 289887 4452 0
16 2 S116 595 290482 5047 0
16 2 S116 596 291078 5643 0
16 2 S116 613 291691 6256 0
16 2 S116 628 292319 6884 0
0 0 0 655 292974 -9172 0
0 0 0 629 293603 -8543 0
0 0 0 634 294237 -7909 0
0 0 0 639 294876 -7270 0
0 0 0 643 295519 -6627 0
0 0 0 636 296155 -5991 0
0 0 0 613 296768 -5378 0
0 0 0 614 297382 -4764 0
0 0 0 622 298004 -4142 0
0 0 0 631 298635 -3511 0
0 0 0 611 299246 -2900 0
0 0 0 620 299866 -2280 0
17 1 S106 642 300508 -1638 0
17 1 S106 670 301178 -968 0
17 1 S106 651 301829 -317 0
17 2 S106 646 302475 329 0
17 2 S106 656 303131 985 0
17 2 S106 659 303790 1644 0
17 2 S106 646 304436 2290 0
17 2 S106 602 305038 2892 0
17 2 S106 598 305636 3490 0
17 2 S106 599 306235 4089 0
17 2 S106 615 306850 4704 0
17 2 S106 626 307476 5330 0
17 2 S106 610 308086 5940 0
17 2 S106 622 308708 6562 0
0 0 0 639 309347 -12527 0
0 0 0 655 310002 -11872 0
0 0 0 653 310655 -11219 0
0 0 0 643 311298 -10576 0
0 0 0 660 311958 -9916 0
0 0 0 670 312628 -9246 0
0 0 0 638 313266 -8608 0
0 0 0 615 313881 -7993 0
0 0 0 615 314496 -7378 0
0 0 0 625 315121 -6753 0
0 0 0 638 315759 -6115 0
0 0 0 612 316371 -5503 0
0 0 0 629 317000 -4874 0
0 0 0 631 317631 -4243 0
0 0 0 648 318279 -3595 0
0 0 0 628 318907 -2967 0
0 0 0 636 319543 -2331 0
18 1 S102 654 320197 -1677 0
18 1 S102 676 320873 -1001 0
18 1 S102 666 321539 -335 0
18 2 S102 667 322206 332 0
18 2 S102 663 322869 995 0
18 2 S102 664 323533 1659 0
18 2 S102 635 324168 2294 0
18 2 S102 644 324812 2938 0
18 2 S102 652 325464 3590 0
18 2 S102 656 326120 4246 0
18 2 S102 632 326752 4878 0
18 2 S102 623 327375 5501 0
18 2 S102 618 327993 6119 0
18 2 S102 628 328621 6747 0
0 0 0 623 329244 -9043 0
0 0 0 596 329840 -8447 0
0 0 0 614 330454 -7833 0
0 0 0 622 331076 -7211 0
0 0 0 639 331715 -6572 0
0 0 0 627 332342 -5945 0
0 0 0 627 332969 -5318 0
0 0 0 629 333598 -4689 0
0 0 0 620 334218 -4069 0
0 0 0 589 334807 -3480 0
0 0 0 583 335390 -2897 0
0 0 0 578 335968 -2319 0
19 1 S106 576 336544 -1743 0
19 1 S106 560 337104 -1183 0
19 1 S106 538 337642 -645 0
19 1 S106 541 338183 -104 0
19 2 S106 552 338735 448 0
19 2 S106 557 339292 1005 0
19 2 S106 543 339835 1548 0
19 2 S106 535 340370 2083 0
19 2 S106 524 340894 2607 0
19 2 S106 510 341404 3117 0
19 2 S106 514 341918 3631 0
19 2 S106 518 342436 4149 0
19 2 S106 537 342973 4686 0
19 2 S106 559 343532 5245 0
19 2 S106 600 344132 5845 0
19 2 S106 613 344745 6458 0
0 0 0 621 345366 -12500 0
0 0 0 637 346003 -11863 0
0 0 0 652 346655 -11211 0
0 0 0 662 347317 -10549 0
0 0 0 625 347942 -9924 0
0 0 0 625 348567 -9299 0
0 0 0 618 349185 -8681 0
0 0 0 609 349794 -8072 0
0 0 0 576 350370 -7496 0
0 0 0 581 350951 -6915 0
0 0 0 581 351532 -6334 0
0 0 0 590 352122 -5744 0
0 0 0 574 352696 -5170 0
0 0 0 571 353267 -4599 0
0 0 0 588 353855 -4011 0
0 0 0 615 354470 -3396 0
0 0 0 648 355118 -2748 0
0 0 0 643 355761 -2105 0
20 1 S112 651 356412 -1454 0
20 1 S112 662 357074 -792 0
20 1 S112 672 357746 -120 0
20 2 S112 635 358381 515 0
20 2 S112 623 359004 1138 0
20 2 S112 619 359623 1757 0
20 2 S112 619 360242 2376 0
20 2 S112 621 360863 2997 0
20 2 S112 597 361460 3594 0
20 2 S112 602 362062 4196 0
20 2 S112 611 362673 4807 0
20 2 S112 620 363293 5427 0
20 2 S112 630 363923 6057 0
20 2 S112 621 364544 6678 0
0 0 0 640 365184 -10935 0
0 0 0 654 365838 -10281 0
0 0 0 653 366491 -9628 0
0 0 0 620 367111 -9008 0
0 0 0 619 367730 -8389 0
0 0 0 618 368348 -7771 0
0 0 0 628 368976 -7143 0
0 0 0 613 369589 -6530 0
0 0 0 612 370201 -5918 0
0 0 0 616 370817 -5302 0
0 0 0 616 371433 -4686 0
0 0 0 591 372024 -4095 0
0 0 0 552 372576 -3543 0
0 0 0 562 373138 -2981 0
0 0 0 557 373695 -2424 0
21 1 S106 561 374256 -1863 0
21 1 S106 557 374813 -1306 0
21 1 S106 551 375364 -755 0
21 1 S106 566 375930 -189 0
21 2 S106 576 376506 387 0
21 2 S106 593 377099 980 0
21 2 S106 584 377683 1564 0
21 2 S106 583 378266 2147 0
21 2 S106 593 378859 2740 0
21 2 S106 603 379462 3343 0
21 2 S106 618 380080 3961 0
21 2 S106 588 380668 4549 0
21 2 S106 541 381209 5090 0
21 2 S106 522 381731 5612 0
21 2 S106 514 382245 6126 0
21 2 S106 520 382765 6646 0
0 0 0 542 383307 -12573 0
0 0 0 570 383877 -12003 0
0 0 0 647 384524 -11356 0
0 0 0 702 385226 -10654 0
0 0 0 724 385950 -9930 0
0 0 0 710 386660 -9220 0
0 0 0 676 387336 -8544 0
0 0 0 661 387997 -7883 0
0 0 0 639 388636 -7244 0
0 0 0 619 389255 -6625 0
0 0 0 592 389847 -6033 0
0 0 0 587 390434 -5446 0
0 0 0 580 391014 -4866 0
0 0 0 584 391598 -4282 0
0 0 0 573 392171 -3709 0
0 0 0 582 392753 -3127 0
0 0 0 590 393343 -2537 0
22 1 S116 610 393953 -1927 0
22 1 S116 634 394587 -1293 0
22 1 S116 631 395218 -662 0
22 1 S116 630 395848 -32 0
22 2 S116 651 396499 619 0
22 2 S116 653 397152 1272 0
22 2 S116 670 397822 1942 0
22 2 S116 643 398465 2585 0
22 2 S116 649 399114 3234 0
22 2 S116 645 399759 3879 0
22 2 S116 632 400391 4511 0
22 2 S116 618 401009 5129 0
22 2 S116 608 401617 5737 0
22 2 S116 619 402236 6356 0
22 2 S116 639 402875 6995 0
0 0 0 649 403524 -9896 0
0 0 0 636 404160 -9260 0
0 0 0 624 404784 -8636 0
0 0 0 624 405408 -8012 0
0 0 0 644 406052 -7368 0
0 0 0 644 406696 -6724 0
0 0 0 605 407301 -6119 0
0 0 0 604 407905 -5515 0
0 0 0 607 408512 -4908 0
0 0 0 611 409123 -4297 0
0 0 0 598 409721 -3699 0
0 0 0 591 410312 -3108 0
0 0 0 598 410910 -2510 0
23 1 S112 610 411520 -1900 0
23 1 S112 631 412151 -1269 0
23 1 S112 615 412766 -654 0
23 1 S112 622 413388 -32 0
23 2 S112 644 414032 612 0
23 2 S112 654 414686 1266 0
23 2 S112 657 415343 1923 0
23 2 S112 625 415968 2548 0
23 2 S112 626 416594 3174 0
23 2 S112 629 417223 3803 0
23 2 S112 633 417856 4436 0
23 2 S112 624 418480 5060 0
23 2 S112 616 419096 5676 0
23 2 S112 631 419727 6307 0
23 2 S112 655 420382 6962 0
0 0 0 681 421063 -9996 0
0 0 0 657 421720 -9339 0
0 0 0 671 422391 -8668 0
0 0 0 672 423063 -7996 0
0 0 0 666 423729 -7330 0
0 0 0 628 424357 -6702 0
0 0 0 620 424977 -6082 0
0 0 0 603 425580 -5479 0
0 0 0 580 426160 -4899 0
0 0 0 555 426715 -4344 0
0 0 0 529 427244 -3815 0
0 0 0 512 427756 -3303 0
0 0 0 502 428258 -2801 0
0 0 0 495 428753 -2306 0
24 1 S106 505 429258 -1801 0
24 1 S106 532 429790 -1269 0
24 1 S106 600 430390 -669 0
24 2 S106 754 431144 85 1
24 2 S106 756 431900 841 1
24 2 S106 730 432630 1571 0
24 2 S106 755 433385 2326 1
24 2 S106 774 434159 3100 1
24 2 S106 703 434862 3803 0
24 2 S106 657 435519 4460 0
24 2 S106 643 436162 5103 0
24 2 S106 635 436797 5738 0
24 2 S106 626 437423 6364 0
24 2 S106 590 438013 6954 0
0 0 0 597 438610 -8796 0
0 0 0 599 439209 -8197 0
0 0 0 609 439818 -7588 0
0 0 0 607 440425 -6981 0
0 0 0 573 440998 -6408 0
0 0 0 583 441581 -5825 0
0 0 0 584 442165 -5241 0
0 0 0 601 442766 -4640 0
0 0 0 587 443353 -4053 0
0 0 0 599 443952 -3454 0
0 0 0 617 444569 -2837 0
0 0 0 624 445193 -2213 0
25 1 S102 634 445827 -1579 0
25 1 S102 621 446448 -958 0
25 1 S102 618 447066 -340 0
25 2 S102 626 447692 286 0
25 2 S102 640 448332 926 0
25 2 S102 641 448973 1567 0
25 2 S102 617 449590 2184 0
25 2 S102 603 450193 2787 0
25 2 S102 599 450792 3386 0
25 2 S102 606 451398 3992 0
25 2 S102 619 452017 4611 0
25 2 S102 614 452631 5225 0
25 2 S102 604 453235 5829 0
25 2 S102 609 453844 6438 0
0 0 0 640 454484 -6914 0
0 0 0 670 455154 -6244 0
0 0 0 654 455808 -5590 0
0 0 0 650 456458 -4940 0
0 0 0 645 457103 -4295 0
0 0 0 641 457744 -3654 0
0 0 0 621 458365 -3033 0
0 0 0 606 458971 -2427 0
26 1 S116 605 459576 -1822 0
26 1 S116 612 460188 -1210 0
26 1 S116 618 460806 -592 0
26 2 S116 595 461401 3 0
26 2 S116 603 462004 606 0
26 2 S116 616 462620 1222 0
26 2 S116 628 463248 1850 0
26 2 S116 636 463884 2486 0
26 2 S116 619 464503 3105 0
26 2 S116 628 465131 3733 0
26 2 S116 631 465762 4364 0
26 2 S116 635 466397 4999 0
26 2 S116 606 467003 5605 0
26 2 S116 620 467623 6225 0
26 2 S116 634 468257 6859 0
0 0 0 650 468907 -8406 0
0 0 0 646 469553 -7760 0
0 0 0 635 470188 -7125 0
0 0 0 636 470824 -6489 0
0 0 0 650 471474 -5839 0
0 0 0 639 472113 -5200 0
0 0 0 614 472727 -4586 0
0 0 0 607 473334 -3979 0
0 0 0 601 473935 -3378 0
0 0 0 577 474512 -2801 0
0 0 0 569 475081 -2232 0
27 1 S106 565 475646 -1667 0
27 1 S106 556 476202 -1111 0
27 1 S106 551 476753 -560 0
27 1 S106 531 477284 -29 0
27 2 S106 524 477808 495 0
27 2 S106 510 478318 1005 0
27 2 S106 504 478822 1509 0
27 2 S106 507 479329 2016 0
27 2 S106 515 479844 2531 0
27 2 S106 543 480387 3074 0
27 2 S106 609 480996 3683 0
27 2 S106 661 481657 4344 0
27 2 S106 658 482315 5002 0
27 2 S106 679 482994 5681 0
27 2 S106 704 483698 6385 0
0 0 0 691 484389 -9519 0
0 0 0 648 485037 -8871 0
0 0 0 645 485682 -8226 0
0 0 0 634 486316 -7592 0
0 0 0 629 486945 -6963 0
0 0 0 609 487554 -6354 0
0 0 0 608 488162 -5746 0
0 0 0 623 488785 -5123 0
0 0 0 622 489407 -4501 0
0 0 0 605 490012 -3896 0
0 0 0 596 490608 -3300 0
0 0 0 567 491175 -2733 0
0 0 0 575 491750 -2158 0
28 1 S102 590 492340 -1568 0
28 1 S102 630 492970 -938 0
28 1 S102 654 493624 -284 0
28 2 S102 642 494266 358 0
28 2 S102 669 494935 1027 0
28 2 S102 686 495621 1713 0
28 2 S102 701 496322 2414 0
28 2 S102 665 496987 3079 0
28 2 S102 680 497667 3759 0
28 2 S102 686 498353 4445 0
28 2 S102 679 499032 5124 0
28 2 S102 644 499676 5768 0
28 2 S102 628 500304 6396 0
28 2 S102 618 500922 7014 0
0 0 0 623 501545 -10748 0
0 0 0 624 502169 -10124 0
0 0 0 611 502780 -9513 0
0 0 0 626 503406 -8887 0
0 0 0 634 504040 -8253 0
0 0 0 639 504679 -7614 0
0 0 0 623 505302 -6991 0
0 0 0 643 505945 -6348 0
0 0 0 660 506605 -5688 0
0 0 0 666 507271 -5022 0
0 0 0 636 507907 -4386 0
0 0 0 645 508552 -3741 0
0 0 0 653 509205 -3088 0
0 0 0 657 509862 -2431 0
29 1 S112 635 510497 -1796 0
29 1 S112 634 511131 -1162 0
29 1 S112 633 511764 -529 0
29 2 S112 635 512399 106 0
29 2 S112 628 513027 734 0
29 2 S112 605 513632 1339 0
29 2 S112 610 514242 1949 0
29 2 S112 626 514868 2575 0
29 2 S112 647 515515 3222 0
29 2 S112 637 516152 3859 0
29 2 S112 639 516791 4498 0
29 2 S112 658 517449 5156 0
29 2 S112 670 518119 5826 0
29 2 S112 660 518779 6486 0
0 0 0 643 519422 -8488 0
0 0 0 661 520083 -7827 0
0 0 0 672 520755 -7155 0
0 0 0 676 521431 -6479 0
0 0 0 642 522073 -5837 0
0 0 0 648 522721 -5189 0
0 0 0 647 523368 -4542 0
0 0 0 633 524001 -3909 0
0 0 0 602 524603 -3307 0
0 0 0 619 525222 -2688 0
0 0 0 623 525845 -2065 0
30 1 S112 641 526486 -1424 0
30 1 S112 616 527102 -808 0
30 1 S112 627 527729 -181 0
30 2 S112 634 528363 453 0
30 2 S112 643 529006 1096 0
30 2 S112 602 529608 1698 0
30 2 S112 558 530166 2256 0
30 2 S112 533 530699 2789 0
30 2 S112 515 531214 3304 0
30 2 S112 527 531741 3831 0
30 2 S112 530 532271 4361 0
30 2 S112 547 532818 4908 0
30 2 S112 596 533414 5504 0
30 2 S112 652 534066 6156 0
30 2 S112 709 534775 6865 0
0 0 0 690 535465 -8659 0
0 0 0 708 536173 -7951 0
0 0 0 712 536885 -7239 0
0 0 0 687 537572 -6552 0
0 0 0 640 538212 -5912 0
0 0 0 626 538838 -5286 0
0 0 0 627 539465 -4659 0
0 0 0 641 540106 -4018 0
0 0 0 638 540744 -3380 0
0 0 0 633 541377 -2747 0
0 0 0 596 541973 -2151 0
31 1 S106 596 542569 -1555 0
31 1 S106 590 543159 -965 0
31 1 S106 598 543757 -367 0
31 2 S106 602 544359 235 0
31 2 S106 587 544946 822 0
31 2 S106 601 545547 1423 0
31 2 S106 603 546150 2026 0
31 2 S106 619 546769 2645 0
31 2 S106 623 547392 3268 0
31 2 S106 614 548006 3882 0
31 2 S106 625 548631 4507 0
31 2 S106 640 549271 5147 0
31 2 S106 648 549919 5795 0
31 2 S106 638 550557 6433 0
0 0 0 642 551199 -9885 0
0 0 0 644 551843 -9241 0
0 0 0 644 552487 -8597 0
0 0 0 622 553109 -7975 0
0 0 0 624 553733 -7351 0
0 0 0 624 554357 -6727 0
0 0 0 618 554975 -6109 0
0 0 0 596 555571 -5513 0
0 0 0 608 556179 -4905 0
0 0 0 618 556797 -4287 0
0 0 0 639 557436 -3648 0
0 0 0 610 558046 -3038 0
0 0 0 611 558657 -2427 0
32 1 S102 626 559283 -1801 0
32 1 S102 650 559933 -1151 0
32 1 S102 660 560593 -491 0
32 2 S102 632 561225 141 0
32 2 S102 637 561862 778 0
32 2 S102 650 562512 1428 0
32 2 S102 663 563175 2091 0
32 2 S102 631 563806 2722 0
32 2 S102 629 564435 3351 0
32 2 S102 633 565068 3984 0
32 2 S102 643 565711 4627 0
32 2 S102 635 566346 5262 0
32 2 S102 620 566966 5882 0
32 2 S102 625 567591 6507 0
0 0 0 621 568212 -11854 0
0 0 0 628 568840 -11226 0
0 0 0 609 569449 -10617 0
0 0 0 636 570085 -9981 0
0 0 0 645 570730 -9336 0
0 0 0 659 571389 -8677 0
0 0 0 628 572017 -8049 0
0 0 0 636 572653 -7413 0
0 0 0 634 573287 -6779 0
0 0 0 628 573915 -6151 0
0 0 0 598 574513 -5553 0
0 0 0 608 575121 -4945 0
0 0 0 611 575732 -4334 0
0 0 0 625 576357 -3709 0
0 0 0 614 576971 -3095 0
0 0 0 622 577593 -2473 0
33 1 S112 641 578234 -1832 0
33 1 S112 662 578896 -1170 0
33 1 S112 650 579546 -520 0
33 2 S112 627 580173 107 0
33 2 S112 638 580811 745 0
33 2 S112 644 581455 1389 0
33 2 S112 639 582094 2028 0
33 2 S112 619 582713 2647 0
33 2 S112 629 583342 3276 0
33 2 S112 631 583973 3907 0
33 2 S112 628 584601 4535 0
33 2 S112 597 585198 5132 0
33 2 S112 613 585811 5745 0
33 2 S112 613 586424 6358 0
33 2 S112 620 587044 6978 0
0 0 0 597 587641 -12054 0
0 0 0 615 588256 -11439 0
0 0 0 619 588875 -10820 0
0 0 0 625 589500 -10195 0
0 0 0 597 590097 -9598 0
0 0 0 614 590711 -8984 0
0 0 0 602 591313 -8382 0
0 0 0 580 591893 -7802 0
0 0 0 551 592444 -7251 0
0 0 0 552 592996 -6699 0
0 0 0 541 593537 -6158 0
0 0 0 532 594069 -5626 0
0 0 0 535 594604 -5091 0
0 0 0 541 595145 -4550 0
0 0 0 533 595678 -4017 0
0 0 0 541 596219 -3476 0
0 0 0 557 596776 -2919 0
0 0 0 593 597369 -2326 0
34 1 S106 632 598001 -1694 0
34 1 S106 632 598633 -1062 0
34 1 S106 627 599260 -435 0
34 2 S106 634 599894 199 0
34 2 S106 652 600546 851 0
34 2 S106 644 601190 1495 0
34 2 S106 601 601791 2096 0
34 2 S106 604 602395 2700 0
34 2 S106 600 602995 3300 0
34 2 S106 599 603594 3899 0
34 2 S106 575 604169 4474 0
34 2 S106 576 604745 5050 0
34 2 S106 589 605334 5639 0
34 2 S106 603 605937 6242 0
34 2 S106 628 606565 6870 0
0 0 0 603 607168 -8541 0
0 0 0 620 607788 -7921 0
0 0 0 632 608420 -7289 0
0 0 0 649 609069 -6640 0
0 0 0 640 609709 -6000 0
0 0 0 623 610332 -5377 0
0 0 0 632 610964 -4745 0
0 0 0 639 611603 -4106 0
0 0 0 635 612238 -3471 0
0 0 0 611 612849 -2860 0
0 0 0 620 613469 -2240 0
35 1 S102 626 614095 -1614 0
35 1 S102 622 614717 -992 0
35 1 S102 605 615322 -387 0
35 2 S102 626 615948 239 0
35 2 S102 640 616588 879 0
35 2 S102 651 617239 1530 0
35 2 S102 636 617875 2166 0
35 2 S102 625 618500 2791 0
35 2 S102 627 619127 3418 0
35 2 S102 639 619766 4057 0
35 2 S102 651 620417 4708 0
35 2 S102 629 621046 5337 0
35 2 S102 636 621682 5973 0
35 2 S102 642 622324 6615 0
0 0 0 645 622969 -6550 0
0 0 0 622 623591 -5928 0
0 0 0 626 624217 -5302 0
0 0 0 629 624846 -4673 0
0 0 0 624 625470 -4049 0
0 0 0 592 626062 -3457 0
0 0 0 591 626653 -2866 0
0 0 0 600 627253 -2266 0
36 1 S106 612 627865 -1654 0
36 1 S106 633 628498 -1021 0
36 1 S106 633 629131 -388 0
36 2 S106 666 629797 278 0
36 2 S106 715 630512 993 0
36 2 S106 722 631234 1715 0
36 2 S106 673 631907 2388 0
36 2 S106 676 632583 3064 0
36 2 S106 673 633256 3737 0
36 2 S106 666 633922 4403 0
36 2 S106 637 634559 5040 0
36 2 S106 643 635202 5683 0
36 2 S106 645 635847 6328 0
36 2 S106 659 636506 6987 0
0 0 0 636 637142 -9768 0
0 0 0 648 637790 -9120 0
0 0 0 657 638447 -8463 0
0 0 0 672 639119 -7791 0
0 0 0 660 639779 -7131 0
0 0 0 650 640429 -6481 0
0 0 0 674 641103 -5807 0
0 0 0 703 641806 -5104 0
0 0 0 669 642475 -4435 0
0 0 0 678 643153 -3757 0
0 0 0 688 643841 -3069 0
0 0 0 696 644537 -2373 0
37 1 S116 663 645200 -1710 0
37 1 S116 665 645865 -1045 0
37 1 S116 670 646535 -375 0
37 2 S116 675 647210 300 0
37 2 S116 655 647865 955 0
37 2 S116 635 648500 1590 0
37 2 S116 647 649147 2237 0
37 2 S116 660 649807 2897 0
37 2 S116 669 650476 3566 0
37 2 S116 635 651111 4201 0
37 2 S116 646 651757 4847 0
37 2 S116 647 652404 5494 0
37 2 S116 653 653057 6147 0
37 2 S116 628 653685 6775 0
0 0 0 642 654327 -11913 0
0 0 0 660 654987 -11253 0
0 0 0 674 655661 -10579 0
0 0 0 649 656310 -9930 0
0 0 0 666 656976 -9264 0
0 0 0 653 657629 -8611 0
0 0 0 628 658257 -7983 0
0 0 0 605 658862 -7378 0
0 0 0 623 659485 -6755 0
0 0 0 630 660115 -6125 0
0 0 0 629 660744 -5496 0
0 0 0 602 661346 -4894 0
0 0 0 620 661966 -4274 0
0 0 0 632 662598 -3642 0
0 0 0 652 663250 -2990 0
0 0 0 629 663879 -2361 0
38 1 S102 646 664525 -1715 0
38 1 S102 660 665185 -1055 0
38 1 S102 695 665880 -360 0
38 2 S102 690 666570 330 0
38 2 S102 671 667241 1001 0
38 2 S102 672 667913 1673 0
38 2 S102 669 668582 2342 0
38 2 S102 621 669203 2963 0
38 2 S102 627 669830 3590 0
38 2 S102 629 670459 4219 0
38 2 S102 634 671093 4853 0
38 2 S102 604 671697 5457 0
38 2 S102 600 672297 6057 0
38 2 S102 608 672905 6665 0
0 0 0 618 673523 -10075 0
0 0 0 618 674141 -9457 0
0 0 0 597 674738 -8860 0
0 0 0 625 675363 -8235 0
0 0 0 631 675994 -7604 0
0 0 0 639 676633 -6965 0
0 0 0 606 677239 -6359 0
0 0 0 629 677868 -5730 0
0 0 0 639 678507 -5091 0
0 0 0 646 679153 -4445 0
0 0 0 618 679771 -3827 0
0 0 0 633 680404 -3194 0
0 0 0 643 681047 -2551 0
39 1 S116 625 681672 -1926 0
39 1 S116 571 682243 -1355 0
39 1 S116 548 682791 -807 0
39 1 S116 546 683337 -261 0
39 2 S116 539 683876 278 0
39 2 S116 529 684405 807 0
39 2 S116 525 684930 1332 0
39 2 S116 515 685445 1847 0
39 2 S116 504 685949 2351 0
39 2 S116 490 686439 2841 0
39 2 S116 485 686924 3326 0
39 2 S116 485 687409 3811 0
39 2 S116 483 687892 4294 0
39 2 S116 488 688380 4782 0
39 2 S116 506 688886 5288 0
39 2 S116 526 689412 5814 0
39 2 S116 511 689923 6325 0
39 2 S116 519 690442 6844 0
0 0 0 537 690979 -7540 0
0 0 0 568 691547 -6972 0
0 0 0 600 692147 -6372 0
0 0 0 631 692778 -5741 0
0 0 0 630 693408 -5111 0
0 0 0 603 694011 -4508 0
0 0 0 594 694605 -3914 0
0 0 0 606 695211 -3308 0
0 0 0 606 695817 -2702 0
0 0 0 575 696392 -2127 0
40 1 S112 564 696956 -1563 0
40 1 S112 568 697524 -995 0
40 1 S112 573 698097 -422 0
40 2 S112 595 698692 173 0
40 2 S112 599 699291 772 0
40 2 S112 610 699901 1382 0
40 2 S112 632 700533 2014 0
40 2 S112 653 701186 2667 0
40 2 S112 655 701841 3322 0
40 2 S112 637 702478 3959 0
40 2 S112 650 703128 4609 0
40 2 S112 672 703800 5281 0
40 2 S112 674 704474 5955 0
40 2 S112 630 705104 6585 0
0 0 0 624 705728 -188382 0
0 0 0 613 706341 -187769 0
0 0 0 608 706949 -187161 0
0 0 0 571 707520 -186590 0
0 0 0 578 708098 -186012 0
0 0 0 584 708682 -185428 0
0 0 0 597 709279 -184831 0
0 0 0 608 709887 -184223 0
0 0 0 600 710487 -183623 0
0 0 0 617 711104 -183006 0
0 0 0 639 711743 -182367 0
0 0 0 659 712402 -181708 0
0 0 0 629 713031 -181079 0
0 0 0 617 713648 -180462 0
0 0 0 601 714249 -179861 0
0 0 0 603 714852 -179258 0
0 0 0 580 715432 -178678 0
0 0 0 559 715991 -178119 0
0 0 0 576 716567 -177543 0
0 0 0 591 717158 -176952 0
0 0 0 609 717767 -176343 0
0 0 0 600 718367 -175743 0
0 0 0 549 718916 -175194 0
0 0 0 544 719460 -174650 0
0 0 0 537 719997 -174113 0
0 0 0 544 720541 -173569 0
0 0 0 555 721096 -173014 0
0 0 0 537 721633 -172477 0
0 0 0 559 722192 -171918 0
0 0 0 580 722772 -171338 0
0 0 0 589 723361 -170749 0
0 0 0 583 723944 -170166 0
0 0 0 547 724491 -169619 0
0 0 0 540 725031 -169079 0
0 0 0 536 725567 -168543 0
0 0 0 522 726089 -168021 0
0 0 0 529 726618 -167492 0
0 0 0 523 727141 -166969 0
0 0 0 535 727676 -166434 0
0 0 0 549 728225 -165885 0
0 0 0 536 728761 -165349 0
0 0 0 528 729289 -164821 0
0 0 0 509 729798 -164312 0
0 0 0 495 730293 -163817 0
0 0 0 482 730775 -163335 0
0 0 0 483 731258 -162852 0
0 0 0 488 731746 -162364 0
0 0 0 488 732234 -161876 0
0 0 0 494 732728 -161382 0
0 0 0 515 733243 -160867 0
0 0 0 534 733777 -160333 0
0 0 0 534 734311 -159799 0
0 0 0 524 734835 -159275 0
0 0 0 522 735357 -158753 0
0 0 0 514 735871 -158239 0
0 0 0 517 736388 -157722 0
0 0 0 512 736900 -157210 0
0 0 0 509 737409 -156701 0
0 0 0 505 737914 -156196 0
0 0 0 501 738415 -155695 0
0 0 0 490 738905 -155205 0
0 0 0 495 739400 -154710 0
0 0 0 495 739895 -154215 0
0 0 0 498 740393 -153717 0
0 0 0 520 740913 -153197 0
0 0 0 556 741469 -152641 0
0 0 0 553 742022 -152088 0
0 0 0 593 742615 -151495 0
0 0 0 615 743230 -150880 0
0 0 0 638 743868 -150242 0
0 0 0 618 744486 -149624 0
0 0 0 612 745098 -149012 0
0 0 0 614 745712 -148398 0
0 0 0 634 746346 -147764 0
0 0 0 632 746978 -147132 0
0 0 0 608 747586 -146524 0
0 0 0 569 748155 -145955 0
0 0 0 566 748721 -145389 0
0 0 0 575 749296 -144814 0
0 0 0 595 749891 -144219 0
0 0 0 583 750474 -143636 0
0 0 0 549 751023 -143087 0
0 0 0 540 751563 -142547 0
0 0 0 534 752097 -142013 0
0 0 0 527 752624 -141486 0
0 0 0 526 753150 -140960 0
0 0 0 549 753699 -140411 0
0 0 0 593 754292 -139818 0
0 0 0 653 754945 -139165 0
0 0 0 676 755621 -138489 0
0 0 0 659 756280 -137830 0
0 0 0 660 756940 -137170 0
0 0 0 652 757592 -136518 0
0 0 0 640 758232 -135878 0
0 0 0 605 758837 -135273 0
0 0 0 571 759408 -134702 0
0 0 0 568 759976 -134134 0
0 0 0 576 760552 -133558 0
0 0 0 604 761156 -132954 0
0 0 0 649 761805 -132305 0
0 0 0 692 762497 -131613 0
0 0 0 671 763168 -130942 0
0 0 0 660 763828 -130282 0
0 0 0 662 764490 -129620 0
0 0 0 668 765158 -128952 0
0 0 0 668 765826 -128284 0
0 0 0 633 766459 -127651 0
0 0 0 607 767066 -127044 0
0 0 0 600 767666 -126444 0
0 0 0 616 768282 -125828 0
0 0 0 633 768915 -125195 0
0 0 0 659 769574 -124536 0
0 0 0 656 770230 -123880 0
0 0 0 631 770861 -123249 0
0 0 0 629 771490 -122620 0
0 0 0 639 772129 -121981 0
0 0 0 633 772762 -121348 0
0 0 0 598 773360 -120750 0
0 0 0 592 773952 -120158 0
0 0 0 555 774507 -119603 0
0 0 0 519 775026 -119084 0
0 0 0 534 775560 -118550 0
0 0 0 517 776077 -118033 0
0 0 0 520 776597 -117513 0
0 0 0 532 777129 -116981 0
0 0 0 543 777672 -116438 0
0 0 0 546 778218 -115892 0
0 0 0 534 778752 -115358 0
0 0 0 531 779283 -114827 0
0 0 0 518 779801 -114309 0
0 0 0 503 780304 -113806 0
0 0 0 504 780808 -113302 0
0 0 0 507 781315 -112795 0
0 0 0 528 781843 -112267 0
0 0 0 550 782393 -111717 0
0 0 0 578 782971 -111139 0
0 0 0 609 783580 -110530 0
0 0 0 635 784215 -109895 0
0 0 0 646 784861 -109249 0
0 0 0 649 785510 -108600 0
0 0 0 625 786135 -107975 0
0 0 0 606 786741 -107369 0
0 0 0 585 787326 -106784 0
0 0 0 567 787893 -106217 0
0 0 0 560 788453 -105657 0
0 0 0 547 789000 -105110 0
0 0 0 561 789561 -104549 0
0 0 0 575 790136 -103974 0
0 0 0 629 790765 -103345 0
0 0 0 710 791475 -102635 0
0 0 0 758 792233 -101877 1
0 0 0 712 792945 -101165 0
0 0 0 610 793555 -100555 0
0 0 0 584 794139 -99971 0
0 0 0 569 794708 -99402 0
0 0 0 573 795281 -98829 0
0 0 0 589 795870 -98240 0
0 0 0 597 796467 -97643 0
0 0 0 598 797065 -97045 0
0 0 0 584 797649 -96461 0
0 0 0 613 798262 -95848 0
0 0 0 636 798898 -95212 0
0 0 0 682 799580 -94530 0
0 0 0 709 800289 -93821 0
0 0 0 671 800960 -93150 0
0 0 0 680 801640 -92470 0
0 0 0 682 802322 -91788 0
0 0 0 679 803001 -91109 0
0 0 0 651 803652 -90458 0
0 0 0 601 804253 -89857 0
0 0 0 622 804875 -89235 0
0 0 0 618 805493 -88617 0
0 0 0 626 806119 -87991 0
0 0 0 608 806727 -87383 0
0 0 0 568 807295 -86815 0
0 0 0 586 807881 -86229 0
0 0 0 591 808472 -85638 0
0 0 0 609 809081 -85029 0
0 0 0 612 809693 -84417 0
0 0 0 576 810269 -83841 0
0 0 0 589 810858 -83252 0
0 0 0 597 811455 -82655 0
0 0 0 611 812066 -82044 0
0 0 0 636 812702 -81408 0
0 0 0 609 813311 -80799 0
0 0 0 627 813938 -80172 0
0 0 0 628 814566 -79544 0
0 0 0 631 815197 -78913 0
0 0 0 640 815837 -78273 0
0 0 0 625 816462 -77648 0
0 0 0 629 817091 -77019 0
0 0 0 634 817725 -76385 0
0 0 0 625 818350 -75760 0
0 0 0 574 818924 -75186 0
0 0 0 560 819484 -74626 0
0 0 0 550 820034 -74076 0
0 0 0 562 820596 -73514 0
0 0 0 581 821177 -72933 0
0 0 0 594 821771 -72339 0
0 0 0 574 822345 -71765 0
0 0 0 608 822953 -71157 0
0 0 0 607 823560 -70550 0
0 0 0 620 824180 -69930 0
0 0 0 615 824795 -69315 0
0 0 0 572 825367 -68743 0
0 0 0 552 825919 -68191 0
0 0 0 531 826450 -67660 0
0 0 0 536 826986 -67124 0
0 0 0 541 827527 -66583 0
0 0 0 560 828087 -66023 0
0 0 0 570 828657 -65453 0
0 0 0 576 829233 -64877 0
0 0 0 561 829794 -64316 0
0 0 0 542 830336 -63774 0
0 0 0 554 830890 -63220 0
0 0 0 560 831450 -62660 0
0 0 0 566 832016 -62094 0
0 0 0 554 832570 -61540 0
0 0 0 541 833111 -60999 0
0 0 0 556 833667 -60443 0
0 0 0 558 834225 -59885 0
0 0 0 547 834772 -59338 0
0 0 0 533 835305 -58805 0
0 0 0 546 835851 -58259 0
0 0 0 545 836396 -57714 0
0 0 0 551 836947 -57163 0
0 0 0 529 837476 -56634 0
0 0 0 521 837997 -56113 0
0 0 0 519 838516 -55594 0
0 0 0 509 839025 -55085 0
0 0 0 505 839530 -54580 0
0 0 0 515 840045 -54065 0
0 0 0 529 840574 -53536 0
0 0 0 561 841135 -52975 0
0 0 0 622 841757 -52353 0
0 0 0 642 842399 -51711 0
0 0 0 674 843073 -51037 0
0 0 0 683 843756 -50354 0
0 0 0 691 844447 -49663 0
0 0 0 641 845088 -49022 0
0 0 0 640 845728 -48382 0
0 0 0 626 846354 -47756 0
0 0 0 614 846968 -47142 0
0 0 0 575 847543 -46567 0
0 0 0 576 848119 -45991 0
0 0 0 578 848697 -45413 0
0 0 0 576 849273 -44837 0
0 0 0 574 849847 -44263 0
0 0 0 542 850389 -43721 0
0 0 0 536 850925 -43185 0
0 0 0 545 851470 -42640 0
0 0 0 560 852030 -42080 0
0 0 0 580 852610 -41500 0
0 0 0 597 853207 -40903 0
0 0 0 588 853795 -40315 0
0 0 0 625 854420 -39690 0
0 0 0 649 855069 -39041 0
0 0 0 711 855780 -38330 0
0 0 0 736 856516 -37594 0
0 0 0 666 857182 -36928 0
0 0 0 634 857816 -36294 0
0 0 0 597 858413 -35697 0
0 0 0 580 858993 -35117 0
0 0 0 586 859579 -34531 0
0 0 0 560 860139 -33971 0
0 0 0 567 860706 -33404 0
0 0 0 577 861283 -32827 0
0 0 0 595 861878 -32232 0
0 0 0 605 862483 -31627 0
0 0 0 610 863093 -31017 0
0 0 0 594 863687 -30423 0
0 0 0 563 864250 -29860 0
0 0 0 527 864777 -29333 0
0 0 0 505 865282 -28828 0
0 0 0 507 865789 -28321 0
0 0 0 512 866301 -27809 0
0 0 0 526 866827 -27283 0
0 0 0 528 867355 -26755 0
0 0 0 545 867900 -26210 0
0 0 0 564 868464 -25646 0
0 0 0 569 869033 -25077 0
0 0 0 573 869606 -24504 0
0 0 0 604 870210 -23900 0
0 0 0 621 870831 -23279 0
0 0 0 632 871463 -22647 0
0 0 0 634 872097 -22013 0
0 0 0 622 872719 -21391 0
0 0 0 589 873308 -20802 0
0 0 0 595 873903 -20207 0
0 0 0 593 874496 -19614 0
0 0 0 581 875077 -19033 0
0 0 0 569 875646 -18464 0
0 0 0 565 876211 -17899 0
0 0 0 560 876771 -17339 0
0 0 0 547 877318 -16792 0
0 0 0 559 877877 -16233 0
0 0 0 555 878432 -15678 0
0 0 0 546 878978 -15132 0
0 0 0 531 879509 -14601 0
0 0 0 532 880041 -14069 0
0 0 0 536 880577 -13533 0
0 0 0 536 881113 -12997 0
0 0 0 549 881662 -12448 0
0 0 0 570 882232 -11878 0
0 0 0 587 882819 -11291 0
0 0 0 580 883399 -10711 0
0 0 0 613 884012 -10098 0
0 0 0 611 884623 -9487 0
0 0 0 618 885241 -8869 0
0 0 0 601 885842 -8268 0
0 0 0 593 886435 -7675 0
0 0 0 586 887021 -7089 0
0 0 0 578 887599 -6511 0
0 0 0 567 888166 -5944 0
0 0 0 553 888719 -5391 0
0 0 0 527 889246 -4864 0
0 0 0 517 889763 -4347 0
0 0 0 509 890272 -3838 0
0 0 0 516 890788 -3322 0
0 0 0 520 891308 -2802 0
0 0 0 540 891848 -2262 0
41 1 S102 567 892415 -1695 0
41 1 S102 599 893014 -1096 0
41 1 S102 622 893636 -474 0
41 2 S102 605 894241 131 0
41 2 S102 614 894855 745 0
41 2 S102 642 895497 1387 0
41 2 S102 634 896131 2021 0
41 2 S102 622 896753 2643 0
41 2 S102 591 897344 3234 0
41 2 S102 577 897921 3811 0
41 2 S102 574 898495 4385 0
41 2 S102 575 899070 4960 0
41 2 S102 576 899646 5536 0
41 2 S102 566 900212 6102 0
41 2 S102 552 900764 6654 0
0 0 0 548 901312 -7785 0
0 0 0 537 901849 -7248 0
0 0 0 529 902378 -6719 0
0 0 0 530 902908 -6189 0
0 0 0 548 903456 -5641 0
0 0 0 577 904033 -5064 0
0 0 0 610 904643 -4454 0
0 0 0 603 905246 -3851 0
0 0 0 579 905825 -3272 0
0 0 0 540 906365 -2732 0
0 0 0 549 906914 -2183 0
42 1 S112 538 907452 -1645 0
42 1 S112 588 908040 -1057 0
42 1 S112 589 908629 -468 0
42 2 S112 616 909245 148 0
42 2 S112 600 909845 748 0
42 2 S112 574 910419 1322 0
42 2 S112 552 910971 1874 0
42 2 S112 538 911509 2412 0
42 2 S112 532 912041 2944 0
42 2 S112 520 912561 3464 0
42 2 S112 511 913072 3975 0
42 2 S112 515 913587 4490 0
42 2 S112 524 914111 5014 0
42 2 S112 536 914647 5550 0
42 2 S112 555 915202 6105 0
42 2 S112 581 915783 6686 0
0 0 0 573 916356 -10149 0
0 0 0 586 916942 -9563 0
0 0 0 596 917538 -8967 0
0 0 0 618 918156 -8349 0
0 0 0 644 918800 -7705 0
0 0 0 651 919451 -7054 0
0 0 0 609 920060 -6445 0
0 0 0 617 920677 -5828 0
0 0 0 619 921296 -5209 0
0 0 0 628 921924 -4581 0
0 0 0 609 922533 -3972 0
0 0 0 566 923099 -3406 0
0 0 0 568 923667 -2838 0
0 0 0 563 924230 -2275 0
43 1 S116 582 924812 -1693 0
43 1 S116 597 925409 -1096 0
43 1 S116 593 926002 -503 0
43 2 S116 563 926565 60 0
43 2 S116 538 927103 598 0
43 2 S116 540 927643 1138 0
43 2 S116 549 928192 1687 0
43 2 S116 554 928746 2241 0
43 2 S116 528 929274 2769 0
43 2 S116 514 929788 3283 0
43 2 S116 506 930294 3789 0
43 2 S116 511 930805 4300 0
43 2 S116 511 931316 4811 0
43 2 S116 509 931825 5320 0
43 2 S116 523 932348 5843 0
43 2 S116 573 932921 6416 0
0 0 0 639 933560 -6738 0
0 0 0 682 934242 -6056 0
0 0 0 681 934923 -5375 0
0 0 0 651 935574 -4724 0
0 0 0 609 936183 -4115 0
0 0 0 571 936754 -3544 0
0 0 0 543 937297 -3001 0
0 0 0 524 937821 -2477 0
44 1 S102 503 938324 -1974 0
44 1 S102 490 938814 -1484 0
44 1 S102 481 939295 -1003 0
44 1 S102 478 939773 -525 0
44 1 S102 488 940261 -37 0
44 2 S102 523 940784 486 0
44 2 S102 686 941470 1172 0
44 2 S102 833 942303 2005 1
44 2 S102 804 943107 2809 1
44 2 S102 817 943924 3626 1
44 2 S102 798 944722 4424 1
44 2 S102 815 945537 5239 1
44 2 S102 827 946364 6066 1
44 2 S102 824 947188 6890 1
0 0 0 789 947977 -8385 1
0 0 0 762 948739 -7623 1
0 0 0 746 949485 -6877 1
0 0 0 731 950216 -6146 0
0 0 0 728 950944 -5418 0
0 0 0 711 951655 -4707 0
0 0 0 704 952359 -4003 0
0 0 0 716 953075 -3287 0
0 0 0 717 953792 -2570 0
45 1 S116 734 954526 -1836 0
45 1 S116 739 955265 -1097 0
45 1 S116 688 955953 -409 0
45 2 S116 652 956605 243 0
45 2 S116 613 957218 856 0
45 2 S116 604 957822 1460 0
45 2 S116 580 958402 2040 0
45 2 S116 550 958952 2590 0
45 2 S116 545 959497 3135 0
45 2 S116 542 960039 3677 0
45 2 S116 562 960601 4239 0
45 2 S116 597 961198 4836 0
45 2 S116 677 961875 5513 0
45 2 S116 830 962705 6343 1
0 0 0 814 963519 -12472 1
0 0 0 743 964262 -11729 1
0 0 0 699 964961 -11030 0
0 0 0 664 965625 -10366 0
0 0 0 657 966282 -9709 0
0 0 0 630 966912 -9079 0
0 0 0 592 967504 -8487 0
0 0 0 602 968106 -7885 0
0 0 0 607 968713 -7278 0
0 0 0 634 969347 -6644 0
0 0 0 638 969985 -6006 0
0 0 0 644 970629 -5362 0
0 0 0 670 971299 -4692 0
0 0 0 689 971988 -4003 0
0 0 0 673 972661 -3330 0
0 0 0 639 973300 -2691 0
0 0 0 632 973932 -2059 0
46 1 S102 634 974566 -1425 0
46 1 S102 639 975205 -786 0
46 1 S102 641 975846 -145 0
46 2 S102 615 976461 470 0
46 2 S102 625 977086 1095 0
46 2 S102 637 977723 1732 0
46 2 S102 651 978374 2383 0
46 2 S102 643 979017 3026 0
46 2 S102 619 979636 3645 0
46 2 S102 622 980258 4267 0
46 2 S102 632 980890 4899 0
46 2 S102 640 981530 5539 0
46 2 S102 625 982155 6164 0
46 2 S102 608 982763 6772 0
0 0 0 607 983370 -9150 0
0 0 0 614 983984 -8536 0
0 0 0 620 984604 -7916 0
0 0 0 594 985198 -7322 0
0 0 0 600 985798 -6722 0
0 0 0 611 986409 -6111 0
0 0 0 624 987033 -5487 0
0 0 0 619 987652 -4868 0
0 0 0 573 988225 -4295 0
0 0 0 587 988812 -3708 0
0 0 0 589 989401 -3119 0
0 0 0 595 989996 -2524 0
47 1 S112 586 990582 -1938 0
47 1 S112 572 991154 -1366 0
47 1 S112 583 991737 -783 0
47 1 S112 599 992336 -184 0
47 2 S112 612 992948 428 0
47 2 S112 608 993556 1036 0
47 2 S112 606 994162 1642 0
47 2 S112 627 994789 2269 0
47 2 S112 647 995436 2916 0
47 2 S112 646 996082 3562 0
47 2 S112 630 996712 4192 0
47 2 S112 657 997369 4849 0
47 2 S112 687 998056 5536 0
47 2 S112 690 998746 6226 0
47 2 S112 649 999395 6875 0
0 0 0 634 1000029 -11572 0
0 0 0 627 1000656 -10945 0
0 0 0 623 1001279 -10322 0
0 0 0 605 1001884 -9717 0
0 0 0 569 1002453 -9148 0
0 0 0 578 1003031 -8570 0
0 0 0 575 1003606 -7995 0
0 0 0 587 1004193 -7408 0
0 0 0 582 1004775 -6826 0
0 0 0 590 1005365 -6236 0
0 0 0 612 1005977 -5624 0
0 0 0 640 1006617 -4984 0
0 0 0 663 1007280 -4321 0
0 0 0 647 1007927 -3674 0
0 0 0 654 1008581 -3020 0
0 0 0 655 1009236 -2365 0
48 1 S116 648 1009884 -1717 0
48 1 S116 609 1010493 -1108 0
48 1 S116 595 1011088 -513 0
48 2 S116 588 1011676 75 0
48 2 S116 586 1012262 661 0
48 2 S116 568 1012830 1229 0
48 2 S116 537 1013367 1766 0
48 2 S116 516 1013883 2282 0
48 2 S116 505 1014388 2787 0
48 2 S116 500 1014888 3287 0
48 2 S116 511 1015399 3798 0
48 2 S116 527 1015926 4325 0
48 2 S116 567 1016493 4892 0
48 2 S116 637 1017130 5529 0
48 2 S116 605 1017735 6134 0
48 2 S116 530 1018265 6664 0
0 0 0 516 1018781 -6332 0
0 0 0 508 1019289 -5824 0
0 0 0 505 1019794 -5319 0
0 0 0 504 1020298 -4815 0
0 0 0 506 1020804 -4309 0
0 0 0 536 1021340 -3773 0
0 0 0 617 1021957 -3156 0
0 0 0 682 1022639 -2474 0
49 1 S112 666 1023305 -1808 0
49 1 S112 643 1023948 -1165 0
49 1 S112 603 1024551 -562 0
49 2 S112 565 1025116 3 0
49 2 S112 545 1025661 548 0
49 2 S112 525 1026186 1073 0
49 2 S112 508 1026694 1581 0
49 2 S112 502 1027196 2083 0
49 2 S112 500 1027696 2583 0
49 2 S112 506 1028202 3089 0
49 2 S112 522 1028724 3611 0
49 2 S112 548 1029272 4159 0
49 2 S112 575 1029847 4734 0
49 2 S112 597 1030444 5331 0
49 2 S112 609 1031053 5940 0
49 2 S112 619 1031672 6559 0
0 0 0 604 1032276 -11421 0
0 0 0 612 1032888 -10809 0
0 0 0 612 1033500 -10197 0
0 0 0 623 1034123 -9574 0
0 0 0 623 1034746 -8951 0
0 0 0 614 1035360 -8337 0
0 0 0 599 1035959 -7738 0
0 0 0 584 1036543 -7154 0
0 0 0 600 1037143 -6554 0
0 0 0 614 1037757 -5940 0
0 0 0 638 1038395 -5302 0
0 0 0 662 1039057 -4640 0
0 0 0 640 1039697 -4000 0
0 0 0 633 1040330 -3367 0
0 0 0 619 1040949 -2748 0
0 0 0 619 1041568 -2129 0
50 1 S106 613 1042181 -1516 0
50 1 S106 587 1042768 -929 0
50 1 S106 590 1043358 -339 0
50 2 S106 611 1043969 272 0
50 2 S106 675 1044644 947 0
50 2 S106 768 1045412 1715 1
50 2 S106 795 1046207 2510 1
50 2 S106 711 1046918 3221 0
50 2 S106 699 1047617 3920 0
50 2 S106 717 1048334 4637 0
50 2 S106 732 1049066 5369 0
50 2 S106 694 1049760 6063 0
50 2 S106 680 1050440 6743 0
0 0 0 663 1051103 -6470 0
0 0 0 648 1051751 -5822 0
0 0 0 616 1052367 -5206 0
0 0 0 610 1052977 -4596 0
0 0 0 602 1053579 -3994 0
0 0 0 582 1054161 -3412 0
0 0 0 598 1054759 -2814 0
0 0 0 561 1055320 -2253 0
51 1 S112 548 1055868 -1705 0
51 1 S112 539 1056407 -1166 0
51 1 S112 550 1056957 -616 0
51 1 S112 573 1057530 -43 0
51 2 S112 620 1058150 577 0
51 2 S112 678 1058828 1255 0
51 2 S112 698 1059526 1953 0
51 2 S112 699 1060225 2652 0
51 2 S112 703 1060928 3355 0
51 2 S112 695 1061623 4050 0
51 2 S112 666 1062289 4716 0
51 2 S112 625 1062914 5341 0
51 2 S112 607 1063521 5948 0
51 2 S112 605 1064126 6553 0
0 0 0 615 1064741 -7007 0
0 0 0 624 1065365 -6383 0
0 0 0 610 1065975 -5773 0
0 0 0 567 1066542 -5206 0
0 0 0 552 1067094 -4654 0
0 0 0 557 1067651 -4097 0
0 0 0 575 1068226 -3522 0
0 0 0 588 1068814 -2934 0
0 0 0 595 1069409 -2339 0
52 1 S116 578 1069987 -1761 0
52 1 S116 552 1070539 -1209 0
52 1 S116 528 1071067 -681 0
52 1 S116 514 1071581 -167 0
52 2 S116 500 1072081 333 0
52 2 S116 502 1072583 835 0
52 2 S116 506 1073089 1341 0
52 2 S116 531 1073620 1872 0
52 2 S116 621 1074241 2493 0
52 2 S116 801 1075042 3294 1
52 2 S116 803 1075845 4097 1
52 2 S116 754 1076599 4851 1
52 2 S116 770 1077369 5621 1
52 2 S116 769 1078138 6390 1
0 0 0 757 1078895 -9299 1
0 0 0 675 1079570 -8624 0
0 0 0 649 1080219 -7975 0
0 0 0 642 1080861 -7333 0
0 0 0 606 1081467 -6727 0
0 0 0 553 1082020 -6174 0
0 0 0 532 1082552 -5642 0
0 0 0 533 1083085 -5109 0
0 0 0 537 1083622 -4572 0
0 0 0 565 1084187 -4007 0
0 0 0 619 1084806 -3388 0
0 0 0 671 1085477 -2717 0
0 0 0 651 1086128 -2066 0
53 1 S106 639 1086767 -1427 0
53 1 S106 663 1087430 -764 0
53 1 S106 709 1088139 -55 0
53 2 S106 753 1088892 698 1
53 2 S106 727 1089619 1425 0
53 2 S106 657 1090276 2082 0
53 2 S106 651 1090927 2733 0
53 2 S106 631 1091558 3364 0
53 2 S106 614 1092172 3978 0
53 2 S106 577 1092749 4555 0
53 2 S106 577 1093326 5132 0
53 2 S106 580 1093906 5712 0
53 2 S106 591 1094497 6303 0
53 2 S106 607 1095104 6910 0
0 0 0 613 1095717 -7132 0
0 0 0 606 1096323 -6526 0
0 0 0 622 1096945 -5904 0
0 0 0 635 1097580 -5269 0
0 0 0 644 1098224 -4625 0
0 0 0 622 1098846 -4003 0
0 0 0 614 1099460 -3389 0
0 0 0 616 1100076 -2773 0
0 0 0 618 1100694 -2155 0
54 1 S102 616 1101310 -1539 0
54 1 S102 586 1101896 -953 0
54 1 S102 589 1102485 -364 0
54 2 S102 593 1103078 229 0
54 2 S102 608 1103686 837 0
54 2 S102 624 1104310 1461 0
54 2 S102 609 1104919 2070 0
54 2 S102 595 1105514 2665 0
54 2 S102 602 1106116 3267 0
54 2 S102 609 1106725 3876 0
54 2 S102 617 1107342 4493 0
54 2 S102 604 1107946 5097 0
54 2 S102 590 1108536 5687 0
54 2 S102 591 1109127 6278 0
54 2 S102 600 1109727 6878 0
0 0 0 601 1110328 -10691 0
0 0 0 586 1110914 -10105 0
0 0 0 599 1111513 -9506 0
0 0 0 601 1112114 -8905 0
0 0 0 599 1112713 -8306 0
0 0 0 583 1113296 -7723 0
0 0 0 555 1113851 -7168 0
0 0 0 568 1114419 -6600 0
0 0 0 569 1114988 -6031 0
0 0 0 563 1115551 -5468 0
0 0 0 524 1116075 -4944 0
0 0 0 507 1116582 -4437 0
0 0 0 503 1117085 -3934 0
0 0 0 499 1117584 -3435 0
0 0 0 495 1118079 -2940 0
0 0 0 494 1118573 -2446 0
55 1 S106 494 1119067 -1952 0
55 1 S106 502 1119569 -1450 0
55 1 S106 524 1120093 -926 0
55 1 S106 613 1120706 -313 0
55 2 S106 659 1121365 346 0
55 2 S106 702 1122067 1048 0
55 2 S106 710 1122777 1758 0
55 2 S106 680 1123457 2438 0
55 2 S106 641 1124098 3079 0
55 2 S106 598 1124696 3677 0
55 2 S106 561 1125257 4238 0
55 2 S106 537 1125794 4775 0
55 2 S106 517 1126311 5292 0
55 2 S106 498 1126809 5790 0
55 2 S106 487 1127296 6277 0
55 2 S106 479 1127775 6756 0
0 0 0 477 1128252 -5880 0
0 0 0 486 1128738 -5394 0
0 0 0 520 1129258 -4874 0
0 0 0 607 1129865 -4267 0
0 0 0 709 1130574 -3558 0
0 0 0 671 1131245 -2887 0
0 0 0 647 1131892 -2240 0
56 1 S116 659 1132551 -1581 0
56 1 S116 668 1133219 -913 0
56 1 S116 665 1133884 -248 0
56 2 S116 628 1134512 380 0
56 2 S116 628 1135140 1008 0
56 2 S116 631 1135771 1639 0
56 2 S116 647 1136418 2286 0
56 2 S116 650 1137068 2936 0
56 2 S116 656 1137724 3592 0
56 2 S116 645 1138369 4237 0
56 2 S116 601 1138970 4838 0
56 2 S116 563 1139533 5401 0
56 2 S116 563 1140096 5964 0
56 2 S116 571 1140667 6535 0
0 0 0 589 1141256 -6885 0
0 0 0 610 1141866 -6275 0
0 0 0 625 1142491 -5650 0
0 0 0 629 1143120 -5021 0
0 0 0 594 1143714 -4427 0
0 0 0 563 1144277 -3864 0
0 0 0 566 1144843 -3298 0
0 0 0 568 1145411 -2730 0
0 0 0 572 1145983 -2158 0
57 1 S106 573 1146556 -1585 0
57 1 S106 586 1147142 -999 0
57 1 S106 581 1147723 -418 0
57 2 S106 555 1148278 137 0
57 2 S106 552 1148830 689 0
57 2 S106 556 1149386 1245 0
57 2 S106 569 1149955 1814 0
57 2 S106 589 1150544 2403 0
57 2 S106 613 1151157 3016 0
57 2 S106 611 1151768 3627 0
57 2 S106 575 1152343 4202 0
57 2 S106 542 1152885 4744 0
57 2 S106 528 1153413 5272 0
57 2 S106 527 1153940 5799 0
57 2 S106 533 1154473 6332 0
57 2 S106 554 1155027 6886 0
0 0 0 598 1155625 -8149 0
0 0 0 661 1156286 -7488 0
0 0 0 688 1156974 -6800 0
0 0 0 676 1157650 -6124 0
0 0 0 630 1158280 -5494 0
0 0 0 602 1158882 -4892 0
0 0 0 599 1159481 -4293 0
0 0 0 597 1160078 -3696 0
0 0 0 601 1160679 -3095 0
0 0 0 598 1161277 -2497 0
58 1 S102 597 1161874 -1900 0
58 1 S102 591 1162465 -1309 0
58 1 S102 582 1163047 -727 0
58 1 S102 558 1163605 -169 0
58 2 S102 543 1164148 374 0
58 2 S102 545 1164693 919 0
58 2 S102 552 1165245 1471 0
58 2 S102 564 1165809 2035 0
58 2 S102 596 1166405 2631 0
58 2 S102 626 1167031 3257 0
58 2 S102 642 1167673 3899 0
58 2 S102 614 1168287 4513 0
58 2 S102 615 1168902 5128 0
58 2 S102 618 1169520 5746 0
58 2 S102 630 1170150 6376 0
58 2 S102 642 1170792 7018 0
0 0 0 637 1171429 -7797 0
0 0 0 626 1172055 -7171 0
0 0 0 592 1172647 -6579 0
0 0 0 599 1173246 -5980 0
0 0 0 592 1173838 -5388 0
0 0 0 590 1174428 -4798 0
0 0 0 581 1175009 -4217 0
0 0 0 576 1175585 -3641 0
0 0 0 549 1176134 -3092 0
0 0 0 555 1176689 -2537 0
59 1 S112 555 1177244 -1982 0
59 1 S112 561 1177805 -1421 0
59 1 S112 575 1178380 -846 0
59 1 S112 599 1178979 -247 0
59 2 S112 610 1179589 363 0
59 2 S112 600 1180189 963 0
59 2 S112 590 1180779 1553 0
59 2 S112 589 1181368 2142 0
59 2 S112 600 1181968 2742 0
59 2 S112 611 1182579 3353 0
59 2 S112 606 1183185 3959 0
59 2 S112 575 1183760 4534 0
59 2 S112 548 1184308 5082 0
59 2 S112 552 1184860 5634 0
59 2 S112 556 1185416 6190 0
59 2 S112 574 1185990 6764 0
0 0 0 612 1186602 -10031 0
0 0 0 638 1187240 -9393 0
0 0 0 655 1187895 -8738 0
0 0 0 613 1188508 -8125 0
0 0 0 620 1189128 -7505 0
0 0 0 635 1189763 -6870 0
0 0 0 629 1190392 -6241 0
0 0 0 629 1191021 -5612 0
0 0 0 614 1191635 -4998 0
0 0 0 592 1192227 -4406 0
0 0 0 596 1192823 -3810 0
0 0 0 604 1193427 -3206 0
0 0 0 604 1194031 -2602 0
0 0 0 600 1194631 -2002 0
60 1 S102 582 1195213 -1420 0
60 1 S102 562 1195775 -858 0
60 1 S102 572 1196347 -286 0
60 2 S102 574 1196921 288 0
60 2 S102 590 1197511 878 0
60 2 S102 607 1198118 1485 0
60 2 S102 603 1198721 2088 0
60 2 S102 576 1199297 2664 0
60 2 S102 587 1199884 3251 0
60 2 S102 587 1200471 3838 0
60 2 S102 600 1201071 4438 0
60 2 S102 608 1201679 5046 0
60 2 S102 613 1202292 5659 0
60 2 S102 581 1202873 6240 0
60 2 S102 587 1203460 6827 0
0 0 0 582 1204042 -12551 0
0 0 0 582 1204624 -11969 0
0 0 0 584 1205208 -11385 0
0 0 0 577 1205785 -10808 0
0 0 0 558 1206343 -10250 0
0 0 0 572 1206915 -9678 0
0 0 0 579 1207494 -9099 0
0 0 0 582 1208076 -8517 0
0 0 0 578 1208654 -7939 0
0 0 0 558 1209212 -7381 0
0 0 0 573 1209785 -6808 0
0 0 0 575 1210360 -6233 0
0 0 0 583 1210943 -5650 0
0 0 0 595 1211538 -5055 0
0 0 0 575 1212113 -4480 0
0 0 0 578 1212691 -3902 0
0 0 0 580 1213271 -3322 0
0 0 0 585 1213856 -2737 0
0 0 0 585 1214441 -2152 0
61 1 S106 562 1215003 -1590 0
61 1 S106 572 1215575 -1018 0
61 1 S106 568 1216143 -450 0
61 2 S106 585 1216728 135 0
61 2 S106 595 1217323 730 0
61 2 S106 573 1217896 1303 0
61 2 S106 578 1218474 1881 0
61 2 S106 584 1219058 2465 0
61 2 S106 599 1219657 3064 0
61 2 S106 605 1220262 3669 0
61 2 S106 581 1220843 4250 0
61 2 S106 587 1221430 4837 0
61 2 S106 586 1222016 5423 0
61 2 S106 595 1222611 6018 0
61 2 S106 594 1223205 6612 0
0 0 0 570 1223775 -7308 0
0 0 0 577 1224352 -6731 0
0 0 0 584 1224936 -6147 0
0 0 0 580 1225516 -5567 0
0 0 0 587 1226103 -4980 0
0 0 0 560 1226663 -4420 0
0 0 0 570 1227233 -3850 0
0 0 0 556 1227789 -3294 0
0 0 0 552 1228341 -2742 0
0 0 0 532 1228873 -2210 0
62 1 S112 518 1229391 -1692 0
62 1 S112 501 1229892 -1191 0
62 1 S112 488 1230380 -703 0
62 1 S112 476 1230856 -227 0
62 2 S112 470 1231326 243 1
62 2 S112 470 1231796 713 1
62 2 S112 484 1232280 1197 0
62 2 S112 544 1232824 1741 0
62 2 S112 745 1233569 2486 1
62 2 S112 792 1234361 3278 1
62 2 S112 755 1235116 4033 1
62 2 S112 752 1235868 4785 1
62 2 S112 752 1236620 5537 1
62 2 S112 757 1237377 6294 1
0 0 0 746 1238123 -11014 1
0 0 0 697 1238820 -10317 0
0 0 0 649 1239469 -9668 0
0 0 0 622 1240091 -9046 0
0 0 0 603 1240694 -8443 0
0 0 0 575 1241269 -7868 0
0 0 0 563 1241832 -7305 0
0 0 0 565 1242397 -6740 0
0 0 0 564 1242961 -6176 0
0 0 0 567 1243528 -5609 0
0 0 0 557 1244085 -5052 0
0 0 0 547 1244632 -4505 0
0 0 0 563 1245195 -3942 0
0 0 0 578 1245773 -3364 0
0 0 0 597 1246370 -2767 0
0 0 0 614 1246984 -2153 0
63 1 S102 605 1247589 -1548 0
63 1 S102 622 1248211 -926 0
63 1 S102 636 1248847 -290 0
63 2 S102 642 1249489 352 0
63 2 S102 637 1250126 989 0
63 2 S102 617 1250743 1606 0
63 2 S102 611 1251354 2217 0
63 2 S102 608 1251962 2825 0
63 2 S102 598 1252560 3423 0
63 2 S102 570 1253130 3993 0
63 2 S102 572 1253702 4565 0
63 2 S102 579 1254281 5144 0
63 2 S102 589 1254870 5733 0
63 2 S102 597 1255467 6330 0
63 2 S102 571 1256038 6901 0
0 0 0 590 1256628 -8076 0
0 0 0 595 1257223 -7481 0
0 0 0 628 1257851 -6853 0
0 0 0 635 1258486 -6218 0
0 0 0 614 1259100 -5604 0
0 0 0 607 1259707 -4997 0
0 0 0 602 1260309 -4395 0
0 0 0 606 1260915 -3789 0
0 0 0 611 1261526 -3178 0
0 0 0 587 1262113 -2591 0
64 1 S112 594 1262707 -1997 0
64 1 S112 593 1263300 -1404 0
64 1 S112 599 1263899 -805 0
64 1 S112 594 1264493 -211 0
64 2 S112 569 1265062 358 0
64 2 S112 584 1265646 942 0
64 2 S112 587 1266233 1529 0
64 2 S112 606 1266839 2135 0
64 2 S112 616 1267455 2751 0
64 2 S112 588 1268043 3339 0
64 2 S112 603 1268646 3942 0
64 2 S112 611 1269257 4553 0
64 2 S112 625 1269882 5178 0
64 2 S112 632 1270514 5810 0
64 2 S112 611 1271125 6421 0
64 2 S112 606 1271731 7027 0
0 0 0 597 1272328 -6898 0
0 0 0 602 1272930 -6296 0
0 0 0 598 1273528 -5698 0
0 0 0 565 1274093 -5133 0
0 0 0 562 1274655 -4571 0
0 0 0 560 1275215 -4011 0
0 0 0 569 1275784 -3442 0
0 0 0 574 1276358 -2868 0
0 0 0 569 1276927 -2299 0
65 1 S106 547 1277474 -1752 0
65 1 S106 531 1278005 -1221 0
65 1 S106 540 1278545 -681 0
65 1 S106 550 1279095 -131 0
65 2 S106 583 1279678 452 0
65 2 S106 624 1280302 1076 0
65 2 S106 627 1280929 1703 0
65 2 S106 630 1281559 2333 0
65 2 S106 636 1282195 2969 0
65 2 S106 645 1282840 3614 0
65 2 S106 641 1283481 4255 0
65 2 S106 608 1284089 4863 0
65 2 S106 594 1284683 5457 0
65 2 S106 592 1285275 6049 0
65 2 S106 579 1285854 6628 0
0 0 0 555 1286409 -7456 0
0 0 0 533 1286942 -6923 0
0 0 0 535 1287477 -6388 0
0 0 0 536 1288013 -5852 0
0 0 0 557 1288570 -5295 0
0 0 0 587 1289157 -4708 0
0 0 0 615 1289772 -4093 0
0 0 0 625 1290397 -3468 0
0 0 0 615 1291012 -2853 0
0 0 0 630 1291642 -2223 0
66 1 S116 644 1292286 -1579 0
66 1 S116 654 1292940 -925 0
66 1 S116 627 1293567 -298 0
66 2 S116 621 1294188 323 0
66 2 S116 619 1294807 942 0
66 2 S116 627 1295434 1569 0
66 2 S116 634 1296068 2203 0
66 2 S116 602 1296670 2805 0
66 2 S116 601 1297271 3406 0
66 2 S116 609 1297880 4015 0
66 2 S116 627 1298507 4642 0
66 2 S116 663 1299170 5305 0
66 2 S116 657 1299827 5962 0
66 2 S116 645 1300472 6607 0
0 0 0 666 1301138 -10980 0
0 0 0 659 1301797 -10321 0
0 0 0 645 1302442 -9676 0
0 0 0 623 1303065 -9053 0
0 0 0 590 1303655 -8463 0
0 0 0 595 1304250 -7868 0
0 0 0 599 1304849 -7269 0
0 0 0 622 1305471 -6647 0
0 0 0 652 1306123 -5995 0
0 0 0 633 1306756 -5362 0
0 0 0 607 1307363 -4755 0
0 0 0 613 1307976 -4142 0
0 0 0 625 1308601 -3517 0
0 0 0 643 1309244 -2874 0
0 0 0 644 1309888 -2230 0
67 1 S102 603 1310491 -1627 0
67 1 S102 615 1311106 -1012 0
67 1 S102 610 1311716 -402 0
67 2 S102 625 1312341 223 0
67 2 S102 635 1312976 858 0
67 2 S102 617 1313593 1475 0
67 2 S102 603 1314196 2078 0
67 2 S102 608 1314804 2686 0
67 2 S102 623 1315427 3309 0
67 2 S102 640 1316067 3949 0
67 2 S102 644 1316711 4593 0
67 2 S102 630 1317341 5223 0
67 2 S102 643 1317984 5866 0
67 2 S102 646 1318630 6512 0
0 0 0 652 1319282 -6530 0
0 0 0 626 1319908 -5904 0
0 0 0 615 1320523 -5289 0
0 0 0 606 1321129 -4683 0
0 0 0 600 1321729 -4083 0
0 0 0 586 1322315 -3497 0
0 0 0 546 1322861 -2951 0
0 0 0 528 1323389 -2423 0
68 1 S106 523 1323912 -1900 0
68 1 S106 525 1324437 -1375 0
68 1 S106 522 1324959 -853 0
68 1 S106 527 1325486 -326 0
68 2 S106 530 1326016 204 0
68 2 S106 522 1326538 726 0
68 2 S106 526 1327064 1252 0
68 2 S106 527 1327591 1779 0
68 2 S106 527 1328118 2306 0
68 2 S106 538 1328656 2844 0
68 2 S106 560 1329216 3404 0
68 2 S106 583 1329799 3987 0
68 2 S106 609 1330408 4596 0
68 2 S106 614 1331022 5210 0
68 2 S106 585 1331607 5795 0
68 2 S106 572 1332179 6367 0
68 2 S106 576 1332755 6943 0
0 0 0 571 1333326 -11053 0
0 0 0 575 1333901 -10478 0
0 0 0 579 1334480 -9899 0
0 0 0 554 1335034 -9345 0
0 0 0 555 1335589 -8790 0
0 0 0 552 1336141 -8238 0
0 0 0 557 1336698 -7681 0
0 0 0 571 1337269 -7110 0
0 0 0 586 1337855 -6524 0
0 0 0 577 1338432 -5947 0
0 0 0 586 1339018 -5361 0
0 0 0 606 1339624 -4755 0
0 0 0 634 1340258 -4121 0
0 0 0 658 1340916 -3463 0
0 0 0 647 1341563 -2816 0
0 0 0 631 1342194 -2185 0
69 1 S102 640 1342834 -1545 0
69 1 S102 655 1343489 -890 0
69 1 S102 662 1344151 -228 0
69 2 S102 634 1344785 406 0
69 2 S102 581 1345366 987 0
69 2 S102 568 1345934 1555 0
69 2 S102 565 1346499 2120 0
69 2 S102 579 1347078 2699 0
69 2 S102 595 1347673 3294 0
69 2 S102 618 1348291 3912 0
69 2 S102 623 1348914 4535 0
69 2 S102 613 1349527 5148 0
69 2 S102 616 1350143 5764 0
69 2 S102 622 1350765 6386 0
69 2 S102 628 1351393 7014 0
0 0 0 626 1352019 -8375 0
0 0 0 603 1352622 -7772 0
0 0 0 604 1353226 -7168 0
0 0 0 596 1353822 -6572 0
0 0 0 598 1354420 -5974 0
0 0 0 557 1354977 -5417 0
0 0 0 544 1355521 -4873 0
0 0 0 549 1356070 -4324 0
0 0 0 552 1356622 -3772 0
0 0 0 561 1357183 -3211 0
0 0 0 581 1357764 -2630 0
0 0 0 606 1358370 -2024 0
70 1 S112 587 1358957 -1437 0
70 1 S112 598 1359555 -839 0
70 1 S112 620 1360175 -219 0
70 2 S112 671 1360846 452 0
70 2 S112 726 1361572 1178 0
70 2 S112 710 1362282 1888 0
70 2 S112 652 1362934 2540 0
70 2 S112 641 1363575 3181 0
70 2 S112 634 1364209 3815 0
70 2 S112 627 1364836 4442 0
70 2 S112 611 1365447 5053 0
70 2 S112 587 1366034 5640 0
70 2 S112 597 1366631 6237 0
70 2 S112 600 1367231 6837 0
0 0 0 606 1367837 -12120 0
0 0 0 604 1368441 -11516 0
0 0 0 580 1369021 -10936 0
0 0 0 599 1369620 -10337 0
0 0 0 610 1370230 -9727 0
0 0 0 628 1370858 -9099 0
0 0 0 631 1371489 -8468 0
0 0 0 599 1372088 -7869 0
0 0 0 606 1372694 -7263 0
0 0 0 619 1373313 -6644 0
0 0 0 619 1373932 -6025 0
0 0 0 597 1374529 -5428 0
0 0 0 559 1375088 -4869 0
0 0 0 533 1375621 -4336 0
0 0 0 516 1376137 -3820 0
0 0 0 522 1376659 -3298 0
0 0 0 524 1377183 -2774 0
0 0 0 532 1377715 -2242 0
71 1 S116 548 1378263 -1694 0
71 1 S116 561 1378824 -1133 0
71 1 S116 544 1379368 -589 0
71 1 S116 533 1379901 -56 0
71 2 S116 534 1380435 478 0
71 2 S116 540 1380975 1018 0
71 2 S116 530 1381505 1548 0
71 2 S116 537 1382042 2085 0
71 2 S116 550 1382592 2635 0
71 2 S116 569 1383161 3204 0
71 2 S116 592 1383753 3796 0
71 2 S116 616 1384369 4412 0
71 2 S116 623 1384992 5035 0
71 2 S116 620 1385612 5655 0
71 2 S116 620 1386232 6275 0
71 2 S116 617 1386849 6892 0
0 0 0 618 1387467 -8935 0
0 0 0 583 1388050 -8352 0
0 0 0 573 1388623 -7779 0
0 0 0 577 1389200 -7202 0
0 0 0 591 1389791 -6611 0
0 0 0 613 1390404 -5998 0
0 0 0 641 1391045 -5357 0
0 0 0 652 1391697 -4705 0
0 0 0 673 1392370 -4032 0
0 0 0 689 1393059 -3343 0
0 0 0 687 1393746 -2656 0
72 1 S102 664 1394410 -1992 0
72 1 S102 645 1395055 -1347 0
72 1 S102 645 1395700 -702 0
72 1 S102 649 1396349 -53 0
72 2 S102 643 1396992 590 0
72 2 S102 627 1397619 1217 0
72 2 S102 630 1398249 1847 0
72 2 S102 631 1398880 2478 0
72 2 S102 639 1399519 3117 0
72 2 S102 637 1400156 3754 0
72 2 S102 611 1400767 4365 0
72 2 S102 615 1401382 4980 0
72 2 S102 623 1402005 5603 0
72 2 S102 642 1402647 6245 0
72 2 S102 658 1403305 6903 0
0 0 0 656 1403961 -7014 0
0 0 0 628 1404589 -6386 0
0 0 0 636 1405225 -5750 0
0 0 0 635 1405860 -5115 0
0 0 0 630 1406490 -4485 0
0 0 0 602 1407092 -3883 0
0 0 0 571 1407663 -3312 0
0 0 0 552 1408215 -2760 0
0 0 0 547 1408762 -2213 0
73 1 S116 549 1409311 -1664 0
73 1 S116 536 1409847 -1128 0
73 1 S116 536 1410383 -592 0
73 1 S116 536 1410919 -56 0
73 2 S116 560 1411479 504 0
73 2 S116 605 1412084 1109 0
73 2 S116 741 1412825 1850 0
73 2 S116 837 1413662 2687 1
73 2 S116 730 1414392 3417 0
73 2 S116 715 1415107 4132 0
73 2 S116 696 1415803 4828 0
73 2 S116 697 1416500 5525 0
73 2 S116 702 1417202 6227 0
73 2 S116 680 1417882 6907 0
0 0 0 635 1418517 -9302 0
0 0 0 628 1419145 -8674 0
0 0 0 616 1419761 -8058 0
0 0 0 615 1420376 -7443 0
0 0 0 607 1420983 -6836 0
0 0 0 573 1421556 -6263 0
0 0 0 574 1422130 -5689 0
0 0 0 574 1422704 -5115 0
0 0 0 588 1423292 -4527 0
0 0 0 613 1423905 -3914 0
0 0 0 649 1424554 -3265 0
0 0 0 641 1425195 -2624 0
74 1 S106 626 1425821 -1998 0
74 1 S106 646 1426467 -1352 0
74 1 S106 680 1427147 -672 0
74 2 S106 723 1427870 51 0
74 2 S106 728 1428598 779 0
74 2 S106 679 1429277 1458 0
74 2 S106 687 1429964 2145 0
74 2 S106 692 1430656 2837 0
74 2 S106 709 1431365 3546 0
74 2 S106 676 1432041 4222 0
74 2 S106 644 1432685 4866 0
74 2 S106 640 1433325 5506 0
74 2 S106 631 1433956 6137 0
74 2 S106 625 1434581 6762 0
0 0 0 609 1435190 -7433 0
0 0 0 596 1435786 -6837 0
0 0 0 614 1436400 -6223 0
0 0 0 621 1437021 -5602 0
0 0 0 634 1437655 -4968 0
0 0 0 621 1438276 -4347 0
0 0 0 592 1438868 -3755 0
0 0 0 606 1439474 -3149 0
0 0 0 611 1440085 -2538 0
75 1 S112 621 1440706 -1917 0
75 1 S112 624 1441330 -1293 0
75 1 S112 595 1441925 -698 0
75 1 S112 609 1442534 -89 0
75 2 S112 608 1443142 519 0
75 2 S112 630 1443772 1149 0
75 2 S112 636 1444408 1785 0
75 2 S112 624 1445032 2409 0
75 2 S112 638 1445670 3047 0
75 2 S112 666 1446336 3713 0
75 2 S112 679 1447015 4392 0
75 2 S112 655 1447670 5047 0
75 2 S112 644 1448314 5691 0
75 2 S112 652 1448966 6343 0
75 2 S112 659 1449625 7002 0
0 0 0 665 1450290 -7535 0
0 0 0 642 1450932 -6893 0
0 0 0 646 1451578 -6247 0
0 0 0 641 1452219 -5606 0
0 0 0 638 1452857 -4968 0
0 0 0 589 1453446 -4379 0
0 0 0 568 1454014 -3811 0
0 0 0 566 1454580 -3245 0
0 0 0 570 1455150 -2675 0
0 0 0 586 1455736 -2089 0
76 1 S116 599 1456335 -1490 0
76 1 S116 578 1456913 -912 0
76 1 S116 584 1457497 -328 0
76 2 S116 573 1458070 245 0
76 2 S116 565 1458635 810 0
76 2 S116 596 1459231 1406 0
76 2 S116 612 1459843 2018 0
76 2 S116 593 1460436 2611 0
76 2 S116 571 1461007 3182 0
76 2 S116 581 1461588 3763 0
76 2 S116 594 1462182 4357 0
76 2 S116 612 1462794 4969 0
76 2 S116 629 1463423 5598 0
76 2 S116 611 1464034 6209 0
76 2 S116 602 1464636 6811 0
0 0 0 606 1465242 -6194 0
0 0 0 602 1465844 -5592 0
0 0 0 593 1466437 -4999 0
0 0 0 556 1466993 -4443 0
0 0 0 564 1467557 -3879 0
0 0 0 564 1468121 -3315 0
0 0 0 579 1468700 -2736 0
0 0 0 594 1469294 -2142 0
77 1 S106 583 1469877 -1559 0
77 1 S106 614 1470491 -945 0
77 1 S106 627 1471118 -318 0
77 2 S106 655 1471773 337 0
77 2 S106 649 1472422 986 0
77 2 S106 636 1473058 1622 0
77 2 S106 643 1473701 2265 0
77 2 S106 652 1474353 2917 0
77 2 S106 654 1475007 3571 0
77 2 S106 612 1475619 4183 0
77 2 S106 617 1476236 4800 0
77 2 S106 613 1476849 5413 0
77 2 S106 611 1477460 6024 0
77 2 S106 595 1478055 6619 0
0 0 0 604 1478659 -9356 0
0 0 0 611 1479270 -8745 0
0 0 0 620 1479890 -8125 0
0 0 0 616 1480506 -7509 0
0 0 0 609 1481115 -6900 0
0 0 0 614 1481729 -6286 0
0 0 0 621 1482350 -5665 0
0 0 0 601 1482951 -5064 0
0 0 0 591 1483542 -4473 0
0 0 0 598 1484140 -3875 0
0 0 0 605 1484745 -3270 0
0 0 0 613 1485358 -2657 0
0 0 0 580 1485938 -2077 0
78 1 S112 593 1486531 -1484 0
78 1 S112 602 1487133 -882 0
78 1 S112 611 1487744 -271 0
78 2 S112 625 1488369 354 0
78 2 S112 604 1488973 958 0
78 2 S112 611 1489584 1569 0
78 2 S112 613 1490197 2182 0
78 2 S112 612 1490809 2794 0
78 2 S112 612 1491421 3406 0
78 2 S112 586 1492007 3992 0
78 2 S112 607 1492614 4599 0
78 2 S112 621 1493235 5220 0
78 2 S112 646 1493881 5866 0
78 2 S112 683 1494564 6549 0
0 0 0 672 1495236 -11164 0
0 0 0 679 1495915 -10485 0
0 0 0 665 1496580 -9820 0
0 0 0 650 1497230 -9170 0
0 0 0 598 1497828 -8572 0
0 0 0 582 1498410 -7990 0
0 0 0 581 1498991 -7409 0
0 0 0 582 1499573 -6827 0
0 0 0 583 1500156 -6244 0
0 0 0 555 1500711 -5689 0
0 0 0 580 1501291 -5109 0
0 0 0 579 1501870 -4530 0
0 0 0 603 1502473 -3927 0
0 0 0 613 1503086 -3314 0
0 0 0 595 1503681 -2719 0
0 0 0 617 1504298 -2102 0
79 1 S102 624 1504922 -1478 0
79 1 S102 631 1505553 -847 0
79 1 S102 602 1506155 -245 0
79 2 S102 552 1506707 307 0
79 2 S102 557 1507264 864 0
79 2 S102 549 1507813 1413 0
79 2 S102 550 1508363 1963 0
79 2 S102 549 1508912 2512 0
79 2 S102 524 1509436 3036 0
79 2 S102 523 1509959 3559 0
79 2 S102 530 1510489 4089 0
79 2 S102 536 1511025 4625 0
79 2 S102 540 1511565 5165 0
79 2 S102 548 1512113 5713 0
79 2 S102 537 1512650 6250 0
79 2 S102 542 1513192 6792 0
0 0 0 549 1513741 -8276 0
0 0 0 560 1514301 -7716 0
0 0 0 564 1514865 -7152 0
0 0 0 545 1515410 -6607 0
0 0 0 539 1515949 -6068 0
0 0 0 542 1516491 -5526 0
0 0 0 540 1517031 -4986 0
0 0 0 530 1517561 -4456 0
0 0 0 517 1518078 -3939 0
0 0 0 505 1518583 -3434 0
0 0 0 500 1519083 -2934 0
0 0 0 492 1519575 -2442 0
80 1 S116 498 1520073 -1944 0
80 1 S116 490 1520563 -1454 0
80 1 S116 522 1521085 -932 0
80 1 S116 552 1521637 -380 0
80 2 S116 603 1522240 223 0
80 2 S116 603 1522843 826 0
80 2 S116 584 1523427 1410 0
80 2 S116 573 1524000 1983 0
80 2 S116 556 1524556 2539 0
80 2 S116 534 1525090 3073 0
80 2 S116 522 1525612 3595 0
80 2 S116 505 1526117 4100 0
80 2 S116 496 1526613 4596 0
80 2 S116 496 1527109 5092 0
80 2 S116 500 1527609 5592 0
80 2 S116 511 1528120 6103 0
80 2 S116 544 1528664 6647 0
