T_0127
BeatCount Mean SD BeatCountNoOutliers MeanNoOutliers SDNoOutliers
1443 1004,2772002772 81,394082191118 1426 1006,01963534362 76,7493386461445

Trial TrialStatus Trialtype IBI AbsPosition RelPosition Outlier
0 0 0 945 1118 -14339 0
0 0 0 974 2092 -13365 0
0 0 0 961 3053 -12404 0
0 0 0 958 4011 -11446 0
0 0 0 862 4873 -10584 0
0 0 0 1009 5882 -9575 0
0 0 0 1017 6899 -8558 0
0 0 0 892 7791 -7666 0
0 0 0 924 8715 -6742 0
0 0 0 926 9641 -5816 0
0 0 0 915 10556 -4901 0
0 0 0 1002 11558 -3899 0
0 0 0 996 12554 -2903 0
0 0 0 900 13454 -2003 0
1 1 S112 973 14427 -1030 0
1 1 S112 1029 15456 -1 0
1 2 S112 974 16430 973 0
1 2 S112 946 17376 1919 0
1 2 S112 938 18314 2857 0
1 2 S112 937 19251 3794 0
1 2 S112 910 20161 4704 0
1 2 S112 822 20983 5526 0
1 2 S112 785 21768 6311 1
0 0 0 786 22554 -12781 1
0 0 0 778 23332 -12003 1
0 0 0 1015 24347 -10988 0
0 0 0 890 25237 -10098 0
0 0 0 1060 26297 -9038 0
0 0 0 1074 27371 -7964 0
0 0 0 948 28319 -7016 0
0 0 0 1044 29363 -5972 0
0 0 0 1087 30450 -4885 0
0 0 0 955 31405 -3930 0
0 0 0 1036 32441 -2894 0
2 1 S102 1108 33549 -1786 0
2 1 S102 1001 34550 -785 0
2 2 S102 1071 35621 286 0
2 2 S102 1156 36777 1442 0
2 2 S102 1057 37834 2499 0
2 2 S102 1049 38883 3548 0
2 2 S102 1150 40033 4698 0
2 2 S102 1066 41099 5764 0
2 2 S102 1007 42106 6771 0
0 0 0 1215 43321 -8062 1
0 0 0 1187 44508 -6875 0
0 0 0 970 45478 -5905 0
0 0 0 1097 46575 -4808 0
0 0 0 1141 47716 -3667 0
0 0 0 993 48709 -2674 0
3 1 S116 1010 49719 -1664 0
3 1 S116 1081 50800 -583 0
3 2 S116 968 51768 385 0
3 2 S116 1065 52833 1450 0
3 2 S116 1111 53944 2561 0
3 2 S116 1071 55015 3632 0
3 2 S116 976 55991 4608 0
3 2 S116 1066 57057 5674 0
3 2 S116 1088 58145 6762 0
0 0 0 952 59097 -10820 0
0 0 0 1062 60159 -9758 0
0 0 0 1059 61218 -8699 0
0 0 0 988 62206 -7711 0
0 0 0 1080 63286 -6631 0
0 0 0 1066 64352 -5565 0
0 0 0 1046 65398 -4519 0
0 0 0 1085 66483 -3434 0
0 0 0 978 67461 -2456 0
4 1 S106 961 68422 -1495 0
4 1 S106 1022 69444 -473 0
4 2 S106 1080 70524 607 0
4 2 S106 939 71463 1546 0
4 2 S106 1055 72518 2601 0
4 2 S106 1126 73644 3727 0
4 2 S106 1005 74649 4732 0
4 2 S106 1065 75714 5797 0
4 2 S106 1117 76831 6914 0
0 0 0 996 77827 -6729 0
0 0 0 1046 78873 -5683 0
0 0 0 1096 79969 -4587 0
0 0 0 958 80927 -3629 0
0 0 0 1016 81943 -2613 0
5 1 S116 1101 83044 -1512 0
5 1 S116 1192 84236 -320 0
5 2 S116 1004 85240 684 0
5 2 S116 1055 86295 1739 0
5 2 S116 1108 87403 2847 0
5 2 S116 1017 88420 3864 0
5 2 S116 987 89407 4851 0
5 2 S116 1088 90495 5939 0
0 0 0 1107 91602 -9549 0
0 0 0 1064 92666 -8485 0
0 0 0 1132 93798 -7353 0
0 0 0 1094 94892 -6259 0
0 0 0 956 95848 -5303 0
0 0 0 1111 96959 -4192 0
0 0 0 1159 98118 -3033 0
0 0 0 967 99085 -2066 0
6 1 S106 1064 100149 -1002 0
6 2 S106 1096 101245 94 0
6 2 S106 951 102196 1045 0
6 2 S106 1071 103267 2116 0
6 2 S106 1138 104405 3254 0
6 2 S106 1018 105423 4272 0
6 2 S106 1035 106458 5307 0
6 2 S106 1102 107560 6409 0
0 0 0 1058 108618 -11598 0
0 0 0 1035 109653 -10563 0
0 0 0 1084 110737 -9479 0
0 0 0 1099 111836 -8380 0
0 0 0 926 112762 -7454 0
0 0 0 1027 113789 -6427 0
0 0 0 1089 114878 -5338 0
0 0 0 1058 115936 -4280 0
0 0 0 923 116859 -3357 0
0 0 0 1005 117864 -2352 0
7 1 S102 1053 118917 -1299 0
7 1 S102 937 119854 -362 0
7 2 S102 1048 120902 686 0
7 2 S102 1149 122051 1835 0
7 2 S102 1054 123105 2889 0
7 2 S102 983 124088 3872 0
7 2 S102 1075 125163 4947 0
7 2 S102 1085 126248 6032 0
7 2 S102 929 127177 6961 0
0 0 0 961 128138 -7596 0
0 0 0 1013 129151 -6583 0
0 0 0 960 130111 -5623 0
0 0 0 941 131052 -4682 0
0 0 0 1095 132147 -3587 0
0 0 0 1084 133231 -2503 0
8 1 S112 936 134167 -1567 0
8 1 S112 1028 135195 -539 0
8 2 S112 1079 136274 540 0
8 2 S112 950 137224 1490 0
8 2 S112 998 138222 2488 0
8 2 S112 1057 139279 3545 0
8 2 S112 997 140276 4542 0
8 2 S112 946 141222 5488 0
8 2 S112 1077 142299 6565 0
0 0 0 1092 143391 -7296 0
0 0 0 929 144320 -6367 0
0 0 0 1031 145351 -5336 0
0 0 0 1060 146411 -4276 0
0 0 0 920 147331 -3356 0
0 0 0 1016 148347 -2340 0
9 1 S116 1052 149399 -1288 0
9 1 S116 991 150390 -297 0
9 2 S116 1004 151394 707 0
9 2 S116 1118 152512 1825 0
9 2 S116 1011 153523 2836 0
9 2 S116 1004 154527 3840 0
9 2 S116 1093 155620 4933 0
9 2 S116 1068 156688 6001 0
9 2 S116 936 157624 6937 0
0 0 0 1045 158669 -9906 0
0 0 0 1139 159808 -8767 0
0 0 0 955 160763 -7812 0
0 0 0 1056 161819 -6756 0
0 0 0 1104 162923 -5652 0
0 0 0 1084 164007 -4568 0
0 0 0 889 164896 -3679 0
0 0 0 906 165802 -2773 0
10 1 S102 890 166692 -1883 0
10 1 S102 873 167565 -1010 0
10 2 S102 1017 168582 7 0
10 2 S102 1094 169676 1101 0
10 2 S102 937 170613 2038 0
10 2 S102 1012 171625 3050 0
10 2 S102 1042 172667 4092 0
10 2 S102 1015 173682 5107 0
10 2 S102 885 174567 5992 0
10 2 S102 971 175538 6963 0
0 0 0 1044 176582 -8970 0
0 0 0 1046 177628 -7924 0
0 0 0 913 178541 -7011 0
0 0 0 1026 179567 -5985 0
0 0 0 1144 180711 -4841 0
0 0 0 1086 181797 -3755 0
0 0 0 935 182732 -2820 0
11 1 S112 1050 183782 -1770 0
11 1 S112 1126 184908 -644 0
11 2 S112 941 185849 297 0
11 2 S112 1064 186913 1361 0
11 2 S112 1132 188045 2493 0
11 2 S112 1029 189074 3522 0
11 2 S112 1021 190095 4543 0
11 2 S112 1097 191192 5640 0
11 2 S112 1053 192245 6693 0
0 0 0 965 193210 -6036 0
0 0 0 1106 194316 -4930 0
0 0 0 1098 195414 -3832 0
0 0 0 938 196352 -2894 0
12 1 S116 1040 197392 -1854 0
12 1 S116 1136 198528 -718 0
12 2 S116 995 199523 277 0
12 2 S116 954 200477 1231 0
12 2 S116 1094 201571 2325 0
12 2 S116 1175 202746 3500 0
12 2 S116 959 203705 4459 0
12 2 S116 1069 204774 5528 0
12 2 S116 1114 205888 6642 0
0 0 0 922 206810 -11169 0
0 0 0 1051 207861 -10118 0
0 0 0 1103 208964 -9015 0
0 0 0 933 209897 -8082 0
0 0 0 1083 210980 -6999 0
0 0 0 1203 212183 -5796 0
0 0 0 1003 213186 -4793 0
0 0 0 1079 214265 -3714 0
0 0 0 1096 215361 -2618 0
13 1 S112 1042 216403 -1576 0
13 1 S112 904 217307 -672 0
13 2 S112 993 218300 321 0
13 2 S112 1073 219373 1394 0
13 2 S112 1058 220431 2452 0
13 2 S112 1020 221451 3472 0
13 2 S112 1170 222621 4642 0
13 2 S112 1148 223769 5790 0
13 2 S112 981 224750 6771 0
0 0 0 1067 225817 -11393 0
0 0 0 1087 226904 -10306 0
0 0 0 959 227863 -9347 0
0 0 0 1049 228912 -8298 0
0 0 0 1089 230001 -7209 0
0 0 0 993 230994 -6216 0
0 0 0 975 231969 -5241 0
0 0 0 1112 233081 -4129 0
0 0 0 1166 234247 -2963 0
14 1 S106 973 235220 -1990 0
14 1 S106 1076 236296 -914 0
14 2 S106 1104 237400 190 0
14 2 S106 1139 238539 1329 0
14 2 S106 953 239492 2282 0
14 2 S106 1070 240562 3352 0
14 2 S106 1124 241686 4476 0
14 2 S106 1088 242774 5564 0
14 2 S106 982 243756 6546 0
0 0 0 1181 244937 -9117 0
0 0 0 1145 246082 -7972 0
0 0 0 1029 247111 -6943 0
0 0 0 896 248007 -6047 0
0 0 0 1001 249008 -5046 0
0 0 0 1100 250108 -3946 0
0 0 0 971 251079 -2975 0
15 1 S116 1046 252125 -1929 0
15 1 S116 1159 253284 -770 0
15 2 S116 1125 254409 355 0
15 2 S116 961 255370 1316 0
15 2 S116 1060 256430 2376 0
15 2 S116 1084 257514 3460 0
15 2 S116 983 258497 4443 0
15 2 S116 939 259436 5382 0
15 2 S116 1061 260497 6443 0
0 0 0 1117 261614 -9897 0
0 0 0 929 262543 -8968 0
0 0 0 1047 263590 -7921 0
0 0 0 1139 264729 -6782 0
0 0 0 893 265622 -5889 0
0 0 0 819 266441 -5070 0
0 0 0 867 267308 -4203 0
0 0 0 853 268161 -3350 0
0 0 0 1301 269462 -2049 1
16 1 S116 1081 270543 -968 0
16 2 S116 996 271539 28 0
16 2 S116 1041 272580 1069 0
16 2 S116 1002 273582 2071 0
16 2 S116 920 274502 2991 0
16 2 S116 895 275397 3886 0
16 2 S116 923 276320 4809 0
16 2 S116 953 277273 5762 0
16 2 S116 976 278249 6738 0
0 0 0 883 279132 -8360 0
0 0 0 947 280079 -7413 0
0 0 0 982 281061 -6431 0
0 0 0 941 282002 -5490 0
0 0 0 930 282932 -4560 0
0 0 0 1098 284030 -3462 0
0 0 0 1197 285227 -2265 0
17 1 S106 1052 286279 -1213 0
17 1 S106 1118 287397 -95 0
17 2 S106 1122 288519 1027 0
17 2 S106 1009 289528 2036 0
17 2 S106 1082 290610 3118 0
17 2 S106 1099 291709 4217 0
17 2 S106 957 292666 5174 0
17 2 S106 1047 293713 6221 0
0 0 0 1135 294848 -11196 0
0 0 0 1073 295921 -10123 0
0 0 0 1032 296953 -9091 0
0 0 0 1109 298062 -7982 0
0 0 0 961 299023 -7021 0
0 0 0 1088 300111 -5933 0
0 0 0 1152 301263 -4781 0
0 0 0 964 302227 -3817 0
0 0 0 1044 303271 -2773 0
18 1 S102 1086 304357 -1687 0
18 1 S102 926 305283 -761 0
18 2 S102 1046 306329 285 0
18 2 S102 1111 307440 1396 0
18 2 S102 1081 308521 2477 0
18 2 S102 1020 309541 3497 0
18 2 S102 1098 310639 4595 0
18 2 S102 1099 311738 5694 0
18 2 S102 957 312695 6651 0
0 0 0 980 313675 -5200 0
0 0 0 1013 314688 -4187 0
0 0 0 1048 315736 -3139 0
0 0 0 982 316718 -2157 0
19 1 S106 991 317709 -1166 0
19 1 S106 1111 318820 -55 0
19 2 S106 1075 319895 1020 0
19 2 S106 942 320837 1962 0
19 2 S106 946 321783 2908 0
19 2 S106 969 322752 3877 0
19 2 S106 966 323718 4843 0
19 2 S106 1013 324731 5856 0
19 2 S106 1161 325892 7017 0
0 0 0 1127 327019 -8700 0
0 0 0 910 327929 -7790 0
0 0 0 963 328892 -6827 0
0 0 0 919 329811 -5908 0
0 0 0 842 330653 -5066 0
0 0 0 887 331540 -4179 0
0 0 0 915 332455 -3264 0
0 0 0 954 333409 -2310 0
20 1 S112 902 334311 -1408 0
20 1 S112 1035 335346 -373 0
20 2 S112 993 336339 620 0
20 2 S112 884 337223 1504 0
20 2 S112 979 338202 2483 0
20 2 S112 988 339190 3471 0
20 2 S112 918 340108 4389 0
20 2 S112 958 341066 5347 0
20 2 S112 1007 342073 6354 0
0 0 0 1017 343090 -10185 0
0 0 0 884 343974 -9301 0
0 0 0 936 344910 -8365 0
0 0 0 1015 345925 -7350 0
0 0 0 952 346877 -6398 0
0 0 0 994 347871 -5404 0
0 0 0 1049 348920 -4355 0
0 0 0 939 349859 -3416 0
0 0 0 994 350853 -2422 0
21 1 S106 1046 351899 -1376 0
21 1 S106 1042 352941 -334 0
21 2 S106 941 353882 607 0
21 2 S106 1036 354918 1643 0
21 2 S106 1094 356012 2737 0
21 2 S106 953 356965 3690 0
21 2 S106 1070 358035 4760 0
21 2 S106 1173 359208 5933 0
0 0 0 1099 360307 -10359 0
0 0 0 1117 361424 -9242 0
0 0 0 1103 362527 -8139 0
0 0 0 952 363479 -7187 0
0 0 0 994 364473 -6193 0
0 0 0 1037 365510 -5156 0
0 0 0 964 366474 -4192 0
0 0 0 964 367438 -3228 0
0 0 0 1101 368539 -2127 0
22 1 S116 1067 369606 -1060 0
22 1 S116 991 370597 -69 0
22 2 S116 1099 371696 1030 0
22 2 S116 1093 372789 2123 0
22 2 S116 934 373723 3057 0
22 2 S116 1006 374729 4063 0
22 2 S116 1064 375793 5127 0
22 2 S116 949 376742 6076 0
22 2 S116 936 377678 7012 0
0 0 0 1052 378730 -8133 0
0 0 0 1054 379784 -7079 0
0 0 0 930 380714 -6149 0
0 0 0 1006 381720 -5143 0
0 0 0 931 382651 -4212 0
0 0 0 923 383574 -3289 0
0 0 0 926 384500 -2363 0
23 1 S112 877 385377 -1486 0
23 1 S112 831 386208 -655 0
23 2 S112 820 387028 165 0
23 2 S112 827 387855 992 0
23 2 S112 936 388791 1928 0
23 2 S112 1025 389816 2953 0
23 2 S112 911 390727 3864 0
23 2 S112 952 391679 4816 0
23 2 S112 990 392669 5806 0
23 2 S112 1060 393729 6866 0
0 0 0 947 394676 -8152 0
0 0 0 1010 395686 -7142 0
0 0 0 1066 396752 -6076 0
0 0 0 945 397697 -5131 0
0 0 0 1029 398726 -4102 0
0 0 0 1133 399859 -2969 0
24 1 S106 1025 400884 -1944 0
24 1 S106 1035 401919 -909 0
24 2 S106 1123 403042 214 0
24 2 S106 1008 404050 1222 0
24 2 S106 1072 405122 2294 0
24 2 S106 1093 406215 3387 0
24 2 S106 1052 407267 4439 0
24 2 S106 937 408204 5376 0
24 2 S106 1013 409217 6389 0
0 0 0 1089 410306 -7459 0
0 0 0 992 411298 -6467 0
0 0 0 1035 412333 -5432 0
0 0 0 1051 413384 -4381 0
0 0 0 1020 414404 -3361 0
0 0 0 905 415309 -2456 0
25 1 S102 968 416277 -1488 0
25 1 S102 1056 417333 -432 0
25 2 S102 1005 418338 573 0
25 2 S102 1033 419371 1606 0
25 2 S102 1088 420459 2694 0
25 2 S102 940 421399 3634 0
25 2 S102 983 422382 4617 0
25 2 S102 991 423373 5608 0
25 2 S102 958 424331 6566 0
0 0 0 903 425234 -5479 0
0 0 0 851 426085 -4628 0
0 0 0 949 427034 -3679 0
0 0 0 1050 428084 -2629 0
26 1 S116 948 429032 -1681 0
26 1 S116 1022 430054 -659 0
26 2 S116 1068 431122 409 0
26 2 S116 1103 432225 1512 0
26 2 S116 949 433174 2461 0
26 2 S116 980 434154 3441 0
26 2 S116 1038 435192 4479 0
26 2 S116 989 436181 5468 0
26 2 S116 948 437129 6416 0
0 0 0 1057 438186 -6353 0
0 0 0 1037 439223 -5316 0
0 0 0 1013 440236 -4303 0
0 0 0 1010 441246 -3293 0
0 0 0 912 442158 -2381 0
27 1 S106 907 443065 -1474 0
27 1 S106 922 443987 -552 0
27 2 S106 947 444934 395 0
27 2 S106 891 445825 1286 0
27 2 S106 1085 446910 2371 0
27 2 S106 1071 447981 3442 0
27 2 S106 971 448952 4413 0
27 2 S106 1105 450057 5518 0
27 2 S106 1074 451131 6592 0
0 0 0 1020 452151 -6845 0
0 0 0 1060 453211 -5785 0
0 0 0 932 454143 -4853 0
0 0 0 922 455065 -3931 0
0 0 0 918 455983 -3013 0
0 0 0 932 456915 -2081 0
28 1 S102 840 457755 -1241 0
28 1 S102 910 458665 -331 0
28 2 S102 953 459618 622 0
28 2 S102 886 460504 1508 0
28 2 S102 943 461447 2451 0
28 2 S102 979 462426 3430 0
28 2 S102 945 463371 4375 0
28 2 S102 992 464363 5367 0
28 2 S102 990 465353 6357 0
0 0 0 920 466273 -9699 0
0 0 0 945 467218 -8754 0
0 0 0 942 468160 -7812 0
0 0 0 890 469050 -6922 0
0 0 0 883 469933 -6039 0
0 0 0 941 470874 -5098 0
0 0 0 961 471835 -4137 0
0 0 0 872 472707 -3265 0
0 0 0 919 473626 -2346 0
29 1 S112 925 474551 -1421 0
29 1 S112 888 475439 -533 0
29 2 S112 887 476326 354 0
29 2 S112 935 477261 1289 0
29 2 S112 969 478230 2258 0
29 2 S112 887 479117 3145 0
29 2 S112 972 480089 4117 0
29 2 S112 1012 481101 5129 0
29 2 S112 946 482047 6075 0
0 0 0 1021 483068 -7841 0
0 0 0 1072 484140 -6769 0
0 0 0 955 485095 -5814 0
0 0 0 1018 486113 -4796 0
0 0 0 1038 487151 -3758 0
0 0 0 954 488105 -2804 0
30 1 S112 1031 489136 -1773 0
30 1 S112 1087 490223 -686 0
30 2 S112 951 491174 265 0
30 2 S112 1049 492223 1314 0
30 2 S112 1110 493333 2424 0
30 2 S112 1027 494360 3451 0
30 2 S112 1058 495418 4509 0
30 2 S112 1133 496551 5642 0
30 2 S112 1049 497600 6691 0
0 0 0 996 498596 -7781 0
0 0 0 1110 499706 -6671 0
0 0 0 1090 500796 -5581 0
0 0 0 971 501767 -4610 0
0 0 0 1052 502819 -3558 0
0 0 0 1094 503913 -2464 0
31 1 S106 980 504893 -1484 0
31 1 S106 941 505834 -543 0
31 2 S106 994 506828 451 0
31 2 S106 1022 507850 1473 0
31 2 S106 900 508750 2373 0
31 2 S106 1061 509811 3434 0
31 2 S106 1151 510962 4585 0
31 2 S106 1001 511963 5586 0
31 2 S106 1077 513040 6663 0
0 0 0 1125 514165 -7431 0
0 0 0 1000 515165 -6431 0
0 0 0 928 516093 -5503 0
0 0 0 979 517072 -4524 0
0 0 0 1060 518132 -3464 0
0 0 0 1050 519182 -2414 0
32 1 S102 932 520114 -1482 0
32 1 S102 1082 521196 -400 0
32 2 S102 1170 522366 770 0
32 2 S102 1066 523432 1836 0
32 2 S102 985 524417 2821 0
32 2 S102 1054 525471 3875 0
32 2 S102 1067 526538 4942 0
32 2 S102 953 527491 5895 0
32 2 S102 1011 528502 6906 0
0 0 0 1089 529591 -8981 0
0 0 0 1015 530606 -7966 0
0 0 0 897 531503 -7069 0
0 0 0 966 532469 -6103 0
0 0 0 983 533452 -5120 0
0 0 0 880 534332 -4240 0
0 0 0 935 535267 -3305 0
0 0 0 946 536213 -2359 0
33 1 S112 914 537127 -1445 0
33 1 S112 917 538044 -528 0
33 2 S112 960 539004 432 0
33 2 S112 992 539996 1424 0
33 2 S112 860 540856 2284 0
33 2 S112 941 541797 3225 0
33 2 S112 1011 542808 4236 0
33 2 S112 1018 543826 5254 0
33 2 S112 922 544748 6176 0
0 0 0 999 545747 -11774 0
0 0 0 1039 546786 -10735 0
0 0 0 933 547719 -9802 0
0 0 0 947 548666 -8855 0
0 0 0 966 549632 -7889 0
0 0 0 982 550614 -6907 0
0 0 0 876 551490 -6031 0
0 0 0 961 552451 -5070 0
0 0 0 1014 553465 -4056 0
0 0 0 1009 554474 -3047 0
0 0 0 882 555356 -2165 0
34 1 S106 953 556309 -1212 0
34 1 S106 998 557307 -214 0
34 2 S106 927 558234 713 0
34 2 S106 974 559208 1687 0
34 2 S106 1098 560306 2785 0
34 2 S106 1075 561381 3860 0
34 2 S106 959 562340 4819 0
34 2 S106 1022 563362 5841 0
34 2 S106 1029 564391 6870 0
0 0 0 976 565367 -7821 0
0 0 0 952 566319 -6869 0
0 0 0 1005 567324 -5864 0
0 0 0 1017 568341 -4847 0
0 0 0 911 569252 -3936 0
0 0 0 968 570220 -2968 0
35 1 S102 1031 571251 -1937 0
35 1 S102 995 572246 -942 0
35 1 S102 863 573109 -79 0
35 2 S102 926 574035 847 0
35 2 S102 946 574981 1793 0
35 2 S102 908 575889 2701 0
35 2 S102 985 576874 3686 0
35 2 S102 1142 578016 4828 0
35 2 S102 1114 579130 5942 0
35 2 S102 962 580092 6904 0
0 0 0 1039 581131 -5270 0
0 0 0 1049 582180 -4221 0
0 0 0 922 583102 -3299 0
0 0 0 813 583915 -2486 0
36 1 S106 780 584695 -1706 1
36 1 S106 860 585555 -846 0
36 1 S106 817 586372 -29 0
36 2 S106 1222 587594 1193 1
36 2 S106 1114 588708 2307 0
36 2 S106 1082 589790 3389 0
36 2 S106 1068 590858 4457 0
36 2 S106 1061 591919 5518 0
36 2 S106 1058 592977 6576 0
0 0 0 1056 594033 -7554 0
0 0 0 1005 595038 -6549 0
0 0 0 940 595978 -5609 0
0 0 0 887 596865 -4722 0
0 0 0 981 597846 -3741 0
0 0 0 974 598820 -2767 0
37 1 S116 1026 599846 -1741 0
37 1 S116 967 600813 -774 0
37 2 S116 1066 601879 292 0
37 2 S116 1047 602926 1339 0
37 2 S116 1020 603946 2359 0
37 2 S116 1083 605029 3442 0
37 2 S116 987 606016 4429 0
37 2 S116 1079 607095 5508 0
37 2 S116 1017 608112 6525 0
0 0 0 962 609074 -10351 0
0 0 0 893 609967 -9458 0
0 0 0 968 610935 -8490 0
0 0 0 985 611920 -7505 0
0 0 0 1002 612922 -6503 0
0 0 0 1139 614061 -5364 0
0 0 0 1109 615170 -4255 0
0 0 0 1059 616229 -3196 0
0 0 0 1038 617267 -2158 0
38 1 S102 975 618242 -1183 0
38 1 S102 923 619165 -260 0
38 2 S102 948 620113 688 0
38 2 S102 935 621048 1623 0
38 2 S102 910 621958 2533 0
38 2 S102 982 622940 3515 0
38 2 S102 1011 623951 4526 0
38 2 S102 961 624912 5487 0
38 2 S102 904 625816 6391 0
0 0 0 986 626802 -7477 0
0 0 0 976 627778 -6501 0
0 0 0 880 628658 -5621 0
0 0 0 948 629606 -4673 0
0 0 0 934 630540 -3739 0
0 0 0 872 631412 -2867 0
39 1 S116 941 632353 -1926 0
39 1 S116 927 633280 -999 0
39 1 S116 857 634137 -142 0
39 2 S116 933 635070 791 0
39 2 S116 971 636041 1762 0
39 2 S116 912 636953 2674 0
39 2 S116 1025 637978 3699 0
39 2 S116 1002 638980 4701 0
39 2 S116 1016 639996 5717 0
39 2 S116 1021 641017 6738 0
0 0 0 947 641964 -6108 0
0 0 0 1018 642982 -5090 0
0 0 0 999 643981 -4091 0
0 0 0 924 644905 -3167 0
0 0 0 1004 645909 -2163 0
40 1 S112 954 646863 -1209 0
40 1 S112 1070 647933 -139 0
40 2 S112 1060 648993 921 0
40 2 S112 1020 650013 1941 0
40 2 S112 1086 651099 3027 0
40 2 S112 979 652078 4006 0
40 2 S112 1049 653127 5055 0
40 2 S112 1106 654233 6161 0
0 0 0 1044 655277 -187857 0
0 0 0 1099 656376 -186758 0
0 0 0 1042 657418 -185716 0
0 0 0 1063 658481 -184653 0
0 0 0 1044 659525 -183609 0
0 0 0 961 660486 -182648 0
0 0 0 835 661321 -181813 0
0 0 0 894 662215 -180919 0
0 0 0 964 663179 -179955 0
0 0 0 1066 664245 -178889 0
0 0 0 833 665078 -178056 0
0 0 0 846 665924 -177210 0
0 0 0 856 666780 -176354 0
0 0 0 1014 667794 -175340 0
0 0 0 1001 668795 -174339 0
0 0 0 917 669712 -173422 0
0 0 0 986 670698 -172436 0
0 0 0 1008 671706 -171428 0
0 0 0 960 672666 -170468 0
0 0 0 886 673552 -169582 0
0 0 0 810 674362 -168772 0
0 0 0 794 675156 -167978 1
0 0 0 745 675901 -167233 1
0 0 0 722 676623 -166511 1
0 0 0 728 677351 -165783 1
0 0 0 715 678066 -165068 1
0 0 0 692 678758 -164376 1
0 0 0 684 679442 -163692 1
0 0 0 670 680112 -163022 1
0 0 0 742 680854 -162280 1
0 0 0 967 681821 -161313 0
0 0 0 934 682755 -160379 0
0 0 0 965 683720 -159414 0
0 0 0 879 684599 -158535 0
0 0 0 903 685502 -157632 0
0 0 0 995 686497 -156637 0
0 0 0 1054 687551 -155583 0
0 0 0 1050 688601 -154533 0
0 0 0 1056 689657 -153477 0
0 0 0 1073 690730 -152404 0
0 0 0 953 691683 -151451 0
0 0 0 899 692582 -150552 0
0 0 0 979 693561 -149573 0
0 0 0 1164 694725 -148409 0
0 0 0 1031 695756 -147378 0
0 0 0 1183 696939 -146195 0
0 0 0 1114 698053 -145081 0
0 0 0 1061 699114 -144020 0
0 0 0 1141 700255 -142879 0
0 0 0 1177 701432 -141702 0
0 0 0 1123 702555 -140579 0
0 0 0 936 703491 -139643 0
0 0 0 988 704479 -138655 0
0 0 0 987 705466 -137668 0
0 0 0 967 706433 -136701 0
0 0 0 859 707292 -135842 0
0 0 0 846 708138 -134996 0
0 0 0 948 709086 -134048 0
0 0 0 1161 710247 -132887 0
0 0 0 1104 711351 -131783 0
0 0 0 948 712299 -130835 0
0 0 0 997 713296 -129838 0
0 0 0 1118 714414 -128720 0
0 0 0 1110 715524 -127610 0
0 0 0 984 716508 -126626 0
0 0 0 1018 717526 -125608 0
0 0 0 1061 718587 -124547 0
0 0 0 1073 719660 -123474 0
0 0 0 926 720586 -122548 0
0 0 0 950 721536 -121598 0
0 0 0 974 722510 -120624 0
0 0 0 1040 723550 -119584 0
0 0 0 924 724474 -118660 0
0 0 0 907 725381 -117753 0
0 0 0 931 726312 -116822 0
0 0 0 971 727283 -115851 0
0 0 0 900 728183 -114951 0
0 0 0 976 729159 -113975 0
0 0 0 1096 730255 -112879 0
0 0 0 1110 731365 -111769 0
0 0 0 932 732297 -110837 0
0 0 0 989 733286 -109848 0
0 0 0 1004 734290 -108844 0
0 0 0 920 735210 -107924 0
0 0 0 967 736177 -106957 0
0 0 0 1028 737205 -105929 0
0 0 0 1012 738217 -104917 0
0 0 0 872 739089 -104045 0
0 0 0 914 740003 -103131 0
0 0 0 892 740895 -102239 0
0 0 0 867 741762 -101372 0
0 0 0 935 742697 -100437 0
0 0 0 1153 743850 -99284 0
0 0 0 986 744836 -98298 0
0 0 0 974 745810 -97324 0
0 0 0 1111 746921 -96213 0
0 0 0 1071 747992 -95142 0
0 0 0 975 748967 -94167 0
0 0 0 1050 750017 -93117 0
0 0 0 1071 751088 -92046 0
0 0 0 917 752005 -91129 0
0 0 0 970 752975 -90159 0
0 0 0 1069 754044 -89090 0
0 0 0 1105 755149 -87985 0
0 0 0 1024 756173 -86961 0
0 0 0 1001 757174 -85960 0
0 0 0 1044 758218 -84916 0
0 0 0 1099 759317 -83817 0
0 0 0 973 760290 -82844 0
0 0 0 1035 761325 -81809 0
0 0 0 1059 762384 -80750 0
0 0 0 1064 763448 -79686 0
0 0 0 1007 764455 -78679 0
0 0 0 1069 765524 -77610 0
0 0 0 1082 766606 -76528 0
0 0 0 1002 767608 -75526 0
0 0 0 874 768482 -74652 0
0 0 0 877 769359 -73775 0
0 0 0 933 770292 -72842 0
0 0 0 1018 771310 -71824 0
0 0 0 953 772263 -70871 0
0 0 0 1020 773283 -69851 0
0 0 0 1065 774348 -68786 0
0 0 0 999 775347 -67787 0
0 0 0 925 776272 -66862 0
0 0 0 988 777260 -65874 0
0 0 0 983 778243 -64891 0
0 0 0 867 779110 -64024 0
0 0 0 894 780004 -63130 0
0 0 0 894 780898 -62236 0
0 0 0 831 781729 -61405 0
0 0 0 854 782583 -60551 0
0 0 0 908 783491 -59643 0
0 0 0 901 784392 -58742 0
0 0 0 895 785287 -57847 0
0 0 0 978 786265 -56869 0
0 0 0 960 787225 -55909 0
0 0 0 917 788142 -54992 0
0 0 0 985 789127 -54007 0
0 0 0 953 790080 -53054 0
0 0 0 893 790973 -52161 0
0 0 0 919 791892 -51242 0
0 0 0 932 792824 -50310 0
0 0 0 889 793713 -49421 0
0 0 0 918 794631 -48503 0
0 0 0 988 795619 -47515 0
0 0 0 958 796577 -46557 0
0 0 0 926 797503 -45631 0
0 0 0 1027 798530 -44604 0
0 0 0 1023 799553 -43581 0
0 0 0 930 800483 -42651 0
0 0 0 1015 801498 -41636 0
0 0 0 999 802497 -40637 0
0 0 0 912 803409 -39725 0
0 0 0 940 804349 -38785 0
0 0 0 974 805323 -37811 0
0 0 0 954 806277 -36857 0
0 0 0 913 807190 -35944 0
0 0 0 1031 808221 -34913 0
0 0 0 1049 809270 -33864 0
0 0 0 977 810247 -32887 0
0 0 0 983 811230 -31904 0
0 0 0 1061 812291 -30843 0
0 0 0 974 813265 -29869 0
0 0 0 951 814216 -28918 0
0 0 0 1004 815220 -27914 0
0 0 0 986 816206 -26928 0
0 0 0 917 817123 -26011 0
0 0 0 1029 818152 -24982 0
0 0 0 1038 819190 -23944 0
0 0 0 938 820128 -23006 0
0 0 0 1020 821148 -21986 0
0 0 0 1029 822177 -20957 0
0 0 0 918 823095 -20039 0
0 0 0 967 824062 -19072 0
0 0 0 971 825033 -18101 0
0 0 0 914 825947 -17187 0
0 0 0 901 826848 -16286 0
0 0 0 982 827830 -15304 0
0 0 0 1003 828833 -14301 0
0 0 0 930 829763 -13371 0
0 0 0 1003 830766 -12368 0
0 0 0 1034 831800 -11334 0
0 0 0 941 832741 -10393 0
0 0 0 984 833725 -9409 0
0 0 0 991 834716 -8418 0
0 0 0 921 835637 -7497 0
0 0 0 914 836551 -6583 0
0 0 0 968 837519 -5615 0
0 0 0 968 838487 -4647 0
0 0 0 889 839376 -3758 0
0 0 0 903 840279 -2855 0
41 1 S102 894 841173 -1961 0
41 1 S102 837 842010 -1124 0
41 1 S102 852 842862 -272 0
41 2 S102 831 843693 559 0
41 2 S102 848 844541 1407 0
41 2 S102 1046 845587 2453 0
41 2 S102 896 846483 3349 0
41 2 S102 951 847434 4300 0
41 2 S102 1004 848438 5304 0
41 2 S102 1089 849527 6393 0
0 0 0 989 850516 -5416 0
0 0 0 1023 851539 -4393 0
0 0 0 1013 852552 -3380 0
0 0 0 926 853478 -2454 0
42 1 S112 991 854469 -1463 0
42 1 S112 1077 855546 -386 0
42 2 S112 970 856516 584 0
42 2 S112 1020 857536 1604 0
42 2 S112 1108 858644 2712 0
42 2 S112 1076 859720 3788 0
42 2 S112 1053 860773 4841 0
42 2 S112 1136 861909 5977 0
42 2 S112 1026 862935 7003 0
0 0 0 1081 864016 -7251 0
0 0 0 1072 865088 -6179 0
0 0 0 920 866008 -5259 0
0 0 0 949 866957 -4310 0
0 0 0 943 867900 -3367 0
0 0 0 892 868792 -2475 0
43 1 S116 930 869722 -1545 0
43 1 S116 1010 870732 -535 0
43 2 S116 1044 871776 509 0
43 2 S116 981 872757 1490 0
43 2 S116 1084 873841 2574 0
43 2 S116 1088 874929 3662 0
43 2 S116 1020 875949 4682 0
43 2 S116 1078 877027 5760 0
43 2 S116 1053 878080 6813 0
0 0 0 1003 879083 -6027 0
0 0 0 1057 880140 -4970 0
0 0 0 1025 881165 -3945 0
0 0 0 940 882105 -3005 0
44 1 S102 1027 883132 -1978 0
44 1 S102 1080 884212 -898 0
44 2 S102 999 885211 101 0
44 2 S102 1046 886257 1147 0
44 2 S102 1135 887392 2282 0
44 2 S102 1106 888498 3388 0
44 2 S102 993 889491 4381 0
44 2 S102 1076 890567 5457 0
44 2 S102 1128 891695 6585 0
0 0 0 1057 892752 -7279 0
0 0 0 1074 893826 -6205 0
0 0 0 1100 894926 -5105 0
0 0 0 992 895918 -4113 0
0 0 0 1054 896972 -3059 0
45 1 S116 1093 898065 -1966 0
45 1 S116 1026 899091 -940 0
45 2 S116 1071 900162 131 0
45 2 S116 1073 901235 1204 0
45 2 S116 964 902199 2168 0
45 2 S116 1002 903201 3170 0
45 2 S116 1072 904273 4242 0
45 2 S116 1000 905273 5242 0
45 2 S116 1041 906314 6283 0
0 0 0 1095 907409 -10510 0
0 0 0 957 908366 -9553 0
0 0 0 1017 909383 -8536 0
0 0 0 988 910371 -7548 0
0 0 0 881 911252 -6667 0
0 0 0 956 912208 -5711 0
0 0 0 1020 913228 -4691 0
0 0 0 990 914218 -3701 0
0 0 0 968 915186 -2733 0
46 1 S102 1080 916266 -1653 0
46 1 S102 1113 917379 -540 0
46 2 S102 987 918366 447 0
46 2 S102 1044 919410 1491 0
46 2 S102 1062 920472 2553 0
46 2 S102 955 921427 3508 0
46 2 S102 1010 922437 4518 0
46 2 S102 1108 923545 5626 0
46 2 S102 1110 924655 6736 0
0 0 0 1041 925696 -7011 0
0 0 0 1045 926741 -5966 0
0 0 0 954 927695 -5012 0
0 0 0 891 928586 -4121 0
0 0 0 1020 929606 -3101 0
47 1 S112 1118 930724 -1983 0
47 1 S112 1070 931794 -913 0
47 2 S112 1130 932924 217 0
47 2 S112 1081 934005 1298 0
47 2 S112 961 934966 2259 0
47 2 S112 1028 935994 3287 0
47 2 S112 1050 937044 4337 0
47 2 S112 1006 938050 5343 0
47 2 S112 1016 939066 6359 0
0 0 0 1081 940147 -9752 0
0 0 0 1040 941187 -8712 0
0 0 0 1059 942246 -7653 0
0 0 0 984 943230 -6669 0
0 0 0 1108 944338 -5561 0
0 0 0 1096 945434 -4465 0
0 0 0 993 946427 -3472 0
0 0 0 937 947364 -2535 0
48 1 S116 1026 948390 -1509 0
48 1 S116 1136 949526 -373 0
48 2 S116 992 950518 619 0
48 2 S116 1076 951594 1695 0
48 2 S116 1095 952689 2790 0
48 2 S116 1064 953753 3854 0
48 2 S116 1049 954802 4903 0
48 2 S116 924 955726 5827 0
48 2 S116 937 956663 6764 0
0 0 0 1062 957725 -7343 0
0 0 0 1041 958766 -6302 0
0 0 0 969 959735 -5333 0
0 0 0 1075 960810 -4258 0
0 0 0 1057 961867 -3201 0
0 0 0 1023 962890 -2178 0
49 1 S112 1137 964027 -1041 0
49 2 S112 1128 965155 87 0
49 2 S112 1000 966155 1087 0
49 2 S112 1005 967160 2092 0
49 2 S112 1066 968226 3158 0
49 2 S112 974 969200 4132 0
49 2 S112 1013 970213 5145 0
49 2 S112 1071 971284 6216 0
0 0 0 977 972261 -12087 0
0 0 0 1045 973306 -11042 0
0 0 0 1082 974388 -9960 0
0 0 0 978 975366 -8982 0
0 0 0 1050 976416 -7932 0
0 0 0 1049 977465 -6883 0
0 0 0 950 978415 -5933 0
0 0 0 984 979399 -4949 0
0 0 0 1066 980465 -3883 0
0 0 0 1065 981530 -2818 0
50 1 S106 1022 982552 -1796 0
50 1 S106 1110 983662 -686 0
50 2 S106 1097 984759 411 0
50 2 S106 967 985726 1378 0
50 2 S106 1011 986737 2389 0
50 2 S106 1039 987776 3428 0
50 2 S106 1047 988823 4475 0
50 2 S106 1059 989882 5534 0
50 2 S106 917 990799 6451 0
0 0 0 1017 991816 -5464 0
0 0 0 1062 992878 -4402 0
0 0 0 1093 993971 -3309 0
0 0 0 944 994915 -2365 0
51 1 S112 1102 996017 -1263 0
51 1 S112 1184 997201 -79 0
51 2 S112 1012 998213 933 0
51 2 S112 1062 999275 1995 0
51 2 S112 1136 1000411 3131 0
51 2 S112 973 1001384 4104 0
51 2 S112 1021 1002405 5125 0
51 2 S112 1114 1003519 6239 0
0 0 0 997 1004516 -5728 0
0 0 0 983 1005499 -4745 0
0 0 0 1024 1006523 -3721 0
0 0 0 956 1007479 -2765 0
52 1 S116 857 1008336 -1908 0
52 1 S116 899 1009235 -1009 0
52 1 S116 860 1010095 -149 0
52 2 S116 900 1010995 751 0
52 2 S116 938 1011933 1689 0
52 2 S116 875 1012808 2564 0
52 2 S116 951 1013759 3515 0
52 2 S116 937 1014696 4452 0
52 2 S116 919 1015615 5371 0
52 2 S116 836 1016451 6207 0
0 0 0 879 1017330 -9094 0
0 0 0 927 1018257 -8167 0
0 0 0 954 1019211 -7213 0
0 0 0 893 1020104 -6320 0
0 0 0 964 1021068 -5356 0
0 0 0 984 1022052 -4372 0
0 0 0 903 1022955 -3469 0
0 0 0 920 1023875 -2549 0
53 1 S106 935 1024810 -1614 0
53 1 S106 927 1025737 -687 0
53 2 S106 921 1026658 234 0
53 2 S106 980 1027638 1214 0
53 2 S106 989 1028627 2203 0
53 2 S106 902 1029529 3105 0
53 2 S106 957 1030486 4062 0
53 2 S106 970 1031456 5032 0
53 2 S106 905 1032361 5937 0
53 2 S106 890 1033251 6827 0
0 0 0 913 1034164 -5059 0
0 0 0 894 1035058 -4165 0
0 0 0 850 1035908 -3315 0
0 0 0 899 1036807 -2416 0
54 1 S102 961 1037768 -1455 0
54 1 S102 1001 1038769 -454 0
54 2 S102 895 1039664 441 0
54 2 S102 909 1040573 1350 0
54 2 S102 947 1041520 2297 0
54 2 S102 903 1042423 3200 0
54 2 S102 895 1043318 4095 0
54 2 S102 956 1044274 5051 0
54 2 S102 969 1045243 6020 0
54 2 S102 892 1046135 6912 0
0 0 0 975 1047110 -8890 0
0 0 0 945 1048055 -7945 0
0 0 0 889 1048944 -7056 0
0 0 0 906 1049850 -6150 0
0 0 0 944 1050794 -5206 0
0 0 0 950 1051744 -4256 0
0 0 0 889 1052633 -3367 0
0 0 0 952 1053585 -2415 0
55 1 S106 963 1054548 -1452 0
55 1 S106 918 1055466 -534 0
55 2 S106 947 1056413 413 0
55 2 S106 993 1057406 1406 0
55 2 S106 1002 1058408 2408 0
55 2 S106 902 1059310 3310 0
55 2 S106 954 1060264 4264 0
55 2 S106 964 1061228 5228 0
55 2 S106 924 1062152 6152 0
0 0 0 930 1063082 -5833 0
0 0 0 1000 1064082 -4833 0
0 0 0 1009 1065091 -3824 0
0 0 0 928 1066019 -2896 0
56 1 S116 972 1066991 -1924 0
56 1 S116 1016 1068007 -908 0
56 2 S116 1039 1069046 131 0
56 2 S116 912 1069958 1043 0
56 2 S116 983 1070941 2026 0
56 2 S116 1009 1071950 3035 0
56 2 S116 955 1072905 3990 0
56 2 S116 1042 1073947 5032 0
56 2 S116 1137 1075084 6169 0
0 0 0 1000 1076084 -6574 0
0 0 0 1084 1077168 -5490 0
0 0 0 1023 1078191 -4467 0
0 0 0 915 1079106 -3552 0
0 0 0 1000 1080106 -2552 0
57 1 S106 953 1081059 -1599 0
57 1 S106 914 1081973 -685 0
57 2 S106 887 1082860 202 0
57 2 S106 867 1083727 1069 0
57 2 S106 904 1084631 1973 0
57 2 S106 1073 1085704 3046 0
57 2 S106 961 1086665 4007 0
57 2 S106 1030 1087695 5037 0
57 2 S106 1036 1088731 6073 0
0 0 0 1022 1089753 -7776 0
0 0 0 911 1090664 -6865 0
0 0 0 967 1091631 -5898 0
0 0 0 1003 1092634 -4895 0
0 0 0 1028 1093662 -3867 0
0 0 0 942 1094604 -2925 0
58 1 S102 1081 1095685 -1844 0
58 1 S102 1138 1096823 -706 0
58 2 S102 1002 1097825 296 0
58 2 S102 1022 1098847 1318 0
58 2 S102 1094 1099941 2412 0
58 2 S102 1119 1101060 3531 0
58 2 S102 962 1102022 4493 0
58 2 S102 1065 1103087 5558 0
58 2 S102 1160 1104247 6718 0
0 0 0 1115 1105362 -5314 0
0 0 0 937 1106299 -4377 0
0 0 0 996 1107295 -3381 0
0 0 0 1063 1108358 -2318 0
59 1 S112 1076 1109434 -1242 0
59 1 S112 944 1110378 -298 0
59 2 S112 1034 1111412 736 0
59 2 S112 1097 1112509 1833 0
59 2 S112 963 1113472 2796 0
59 2 S112 1026 1114498 3822 0
59 2 S112 1117 1115615 4939 0
59 2 S112 1002 1116617 5941 0
59 2 S112 1029 1117646 6970 0
0 0 0 1075 1118721 -8169 0
0 0 0 1018 1119739 -7151 0
0 0 0 966 1120705 -6185 0
0 0 0 968 1121673 -5217 0
0 0 0 994 1122667 -4223 0
0 0 0 871 1123538 -3352 0
0 0 0 981 1124519 -2371 0
60 1 S102 1052 1125571 -1319 0
60 1 S102 1020 1126591 -299 0
60 2 S102 915 1127506 616 0
60 2 S102 1004 1128510 1620 0
60 2 S102 1015 1129525 2635 0
60 2 S102 932 1130457 3567 0
60 2 S102 954 1131411 4521 0
60 2 S102 1014 1132425 5535 0
60 2 S102 1059 1133484 6594 0
0 0 0 968 1134452 -9215 0
0 0 0 1024 1135476 -8191 0
0 0 0 991 1136467 -7200 0
0 0 0 907 1137374 -6293 0
0 0 0 917 1138291 -5376 0
0 0 0 1023 1139314 -4353 0
0 0 0 1062 1140376 -3291 0
0 0 0 954 1141330 -2337 0
61 1 S106 981 1142311 -1356 0
61 1 S106 1053 1143364 -303 0
61 2 S106 1062 1144426 759 0
61 2 S106 941 1145367 1700 0
61 2 S106 1041 1146408 2741 0
61 2 S106 1087 1147495 3828 0
61 2 S106 1116 1148611 4944 0
61 2 S106 992 1149603 5936 0
0 0 0 1098 1150701 -5996 0
0 0 0 1123 1151824 -4873 0
0 0 0 1037 1152861 -3836 0
0 0 0 911 1153772 -2925 0
62 1 S112 994 1154766 -1931 0
62 1 S112 1091 1155857 -840 0
62 2 S112 1109 1156966 269 0
62 2 S112 941 1157907 1210 0
62 2 S112 1035 1158942 2245 0
62 2 S112 1105 1160047 3350 0
62 2 S112 964 1161011 4314 0
62 2 S112 1054 1162065 5368 0
62 2 S112 1176 1163241 6544 0
0 0 0 1001 1164242 -10841 0
0 0 0 1075 1165317 -9766 0
0 0 0 1081 1166398 -8685 0
0 0 0 954 1167352 -7731 0
0 0 0 1033 1168385 -6698 0
0 0 0 1021 1169406 -5677 0
0 0 0 929 1170335 -4748 0
0 0 0 1059 1171394 -3689 0
0 0 0 1098 1172492 -2591 0
63 1 S102 996 1173488 -1595 0
63 1 S102 1008 1174496 -587 0
63 2 S102 1087 1175583 500 0
63 2 S102 1127 1176710 1627 0
63 2 S102 1034 1177744 2661 0
63 2 S102 994 1178738 3655 0
63 2 S102 1094 1179832 4749 0
63 2 S102 1122 1180954 5871 0
63 2 S102 1057 1182011 6928 0
0 0 0 1019 1183030 -7123 0
0 0 0 1034 1184064 -6089 0
0 0 0 1063 1185127 -5026 0
0 0 0 1053 1186180 -3973 0
0 0 0 950 1187130 -3023 0
64 1 S112 1032 1188162 -1991 0
64 1 S112 1131 1189293 -860 0
64 2 S112 1084 1190377 224 0
64 2 S112 934 1191311 1158 0
64 2 S112 1038 1192349 2196 0
64 2 S112 1075 1193424 3271 0
64 2 S112 971 1194395 4242 0
64 2 S112 1047 1195442 5289 0
64 2 S112 1108 1196550 6397 0
0 0 0 1050 1197600 -6164 0
0 0 0 962 1198562 -5202 0
0 0 0 988 1199550 -4214 0
0 0 0 959 1200509 -3255 0
0 0 0 849 1201358 -2406 0
65 1 S106 861 1202219 -1545 0
65 1 S106 863 1203082 -682 0
65 2 S106 848 1203930 166 0
65 2 S106 889 1204819 1055 0
65 2 S106 964 1205783 2019 0
65 2 S106 940 1206723 2959 0
65 2 S106 985 1207708 3944 0
65 2 S106 967 1208675 4911 0
65 2 S106 878 1209553 5789 0
65 2 S106 919 1210472 6708 0
0 0 0 918 1211390 -5222 0
0 0 0 906 1212296 -4316 0
0 0 0 912 1213208 -3404 0
0 0 0 863 1214071 -2541 0
66 1 S116 951 1215022 -1590 0
66 1 S116 1058 1216080 -532 0
66 2 S116 1086 1217166 554 0
66 2 S116 953 1218119 1507 0
66 2 S116 1062 1219181 2569 0
66 2 S116 1050 1220231 3619 0
66 2 S116 1026 1221257 4645 0
66 2 S116 1140 1222397 5785 0
66 2 S116 1080 1223477 6865 0
0 0 0 985 1224462 -10287 0
0 0 0 1057 1225519 -9230 0
0 0 0 1027 1226546 -8203 0
0 0 0 883 1227429 -7320 0
0 0 0 960 1228389 -6360 0
0 0 0 1021 1229410 -5339 0
0 0 0 913 1230323 -4426 0
0 0 0 975 1231298 -3451 0
0 0 0 1169 1232467 -2282 0
67 1 S102 1229 1233696 -1053 1
67 2 S102 1149 1234845 96 0
67 2 S102 1197 1236042 1293 0
67 2 S102 1060 1237102 2353 0
67 2 S102 1126 1238228 3479 0
67 2 S102 1132 1239360 4611 0
67 2 S102 906 1240266 5517 0
67 2 S102 965 1241231 6482 0
0 0 0 972 1242203 -5593 0
0 0 0 955 1243158 -4638 0
0 0 0 973 1244131 -3665 0
0 0 0 1135 1245266 -2530 0
68 1 S106 1040 1246306 -1490 0
68 1 S106 1025 1247331 -465 0
68 2 S106 1136 1248467 671 0
68 2 S106 1058 1249525 1729 0
68 2 S106 1062 1250587 2791 0
68 2 S106 1106 1251693 3897 0
68 2 S106 1007 1252700 4904 0
68 2 S106 1030 1253730 5934 0
68 2 S106 1071 1254801 7005 0
0 0 0 1048 1255849 -9105 0
0 0 0 1019 1256868 -8086 0
0 0 0 1038 1257906 -7048 0
0 0 0 1054 1258960 -5994 0
0 0 0 1017 1259977 -4977 0
0 0 0 1035 1261012 -3942 0
0 0 0 1015 1262027 -2927 0
0 0 0 906 1262933 -2021 0
69 1 S102 960 1263893 -1061 0
69 1 S102 969 1264862 -92 0
69 2 S102 960 1265822 868 0
69 2 S102 927 1266749 1795 0
69 2 S102 1033 1267782 2828 0
69 2 S102 1032 1268814 3860 0
69 2 S102 936 1269750 4796 0
69 2 S102 997 1270747 5793 0
69 2 S102 1000 1271747 6793 0
0 0 0 932 1272679 -7229 0
0 0 0 945 1273624 -6284 0
0 0 0 955 1274579 -5329 0
0 0 0 899 1275478 -4430 0
0 0 0 911 1276389 -3519 0
0 0 0 981 1277370 -2538 0
70 1 S112 1000 1278370 -1538 0
70 1 S112 928 1279298 -610 0
70 2 S112 1006 1280304 396 0
70 2 S112 1039 1281343 1435 0
70 2 S112 940 1282283 2375 0
70 2 S112 1025 1283308 3400 0
70 2 S112 1044 1284352 4444 0
70 2 S112 953 1285305 5397 0
70 2 S112 1049 1286354 6446 0
0 0 0 1069 1287423 -9843 0
0 0 0 963 1288386 -8880 0
0 0 0 1003 1289389 -7877 0
0 0 0 1080 1290469 -6797 0
0 0 0 972 1291441 -5825 0
0 0 0 1055 1292496 -4770 0
0 0 0 1120 1293616 -3650 0
0 0 0 1031 1294647 -2619 0
71 1 S116 1075 1295722 -1544 0
71 1 S116 1168 1296890 -376 0
71 2 S116 1071 1297961 695 0
71 2 S116 1045 1299006 1740 0
71 2 S116 1044 1300050 2784 0
71 2 S116 949 1300999 3733 0
71 2 S116 1024 1302023 4757 0
71 2 S116 1010 1303033 5767 0
71 2 S116 988 1304021 6755 0
0 0 0 852 1304873 -8872 0
0 0 0 915 1305788 -7957 0
0 0 0 919 1306707 -7038 0
0 0 0 903 1307610 -6135 0
0 0 0 890 1308500 -5245 0
0 0 0 1011 1309511 -4234 0
0 0 0 906 1310417 -3328 0
0 0 0 949 1311366 -2379 0
72 1 S102 993 1312359 -1386 0
72 1 S102 1038 1313397 -348 0
72 2 S102 954 1314351 606 0
72 2 S102 1028 1315379 1634 0
72 2 S102 1050 1316429 2684 0
72 2 S102 1070 1317499 3754 0
72 2 S102 957 1318456 4711 0
72 2 S102 984 1319440 5695 0
72 2 S102 1111 1320551 6806 0
0 0 0 1060 1321611 -5363 0
0 0 0 1108 1322719 -4255 0
0 0 0 1164 1323883 -3091 0
0 0 0 991 1324874 -2100 0
73 1 S116 1109 1325983 -991 0
73 2 S116 1172 1327155 181 0
73 2 S116 1005 1328160 1186 0
73 2 S116 1097 1329257 2283 0
73 2 S116 1136 1330393 3419 0
73 2 S116 1043 1331436 4462 0
73 2 S116 1117 1332553 5579 0
73 2 S116 1178 1333731 6757 0
0 0 0 1003 1334734 -8570 0
0 0 0 1020 1335754 -7550 0
0 0 0 1131 1336885 -6419 0
0 0 0 1078 1337963 -5341 0
0 0 0 993 1338956 -4348 0
0 0 0 1160 1340116 -3188 0
0 0 0 1173 1341289 -2015 0
74 1 S106 1002 1342291 -1013 0
74 2 S106 1077 1343368 64 0
74 2 S106 1185 1344553 1249 0
74 2 S106 1050 1345603 2299 0
74 2 S106 1109 1346712 3408 0
74 2 S106 1191 1347903 4599 0
74 2 S106 1103 1349006 5702 0
74 2 S106 1089 1350095 6791 0
0 0 0 1148 1351243 -5406 0
0 0 0 1133 1352376 -4273 0
0 0 0 1028 1353404 -3245 0
0 0 0 964 1354368 -2281 0
75 1 S112 1035 1355403 -1246 0
75 1 S112 1136 1356539 -110 0
75 2 S112 959 1357498 849 0
75 2 S112 1010 1358508 1859 0
75 2 S112 1130 1359638 2989 0
75 2 S112 1013 1360651 4002 0
75 2 S112 1099 1361750 5101 0
75 2 S112 1131 1362881 6232 0
0 0 0 1027 1363908 -7430 0
0 0 0 971 1364879 -6459 0
0 0 0 1014 1365893 -5445 0
0 0 0 1009 1366902 -4436 0
0 0 0 935 1367837 -3501 0
0 0 0 1057 1368894 -2444 0
76 1 S116 1096 1369990 -1348 0
76 1 S116 971 1370961 -377 0
76 2 S116 1027 1371988 650 0
76 2 S116 1100 1373088 1750 0
76 2 S116 1014 1374102 2764 0
76 2 S116 1015 1375117 3779 0
76 2 S116 1119 1376236 4898 0
76 2 S116 1110 1377346 6008 0
76 2 S116 947 1378293 6955 0
0 0 0 1084 1379377 -5721 0
0 0 0 1101 1380478 -4620 0
0 0 0 934 1381412 -3686 0
0 0 0 1006 1382418 -2680 0
77 1 S106 1108 1383526 -1572 0
77 1 S106 1115 1384641 -457 0
77 2 S106 978 1385619 521 0
77 2 S106 1113 1386732 1634 0
77 2 S106 1101 1387833 2735 0
77 2 S106 1020 1388853 3755 0
77 2 S106 1016 1389869 4771 0
77 2 S106 1101 1390970 5872 0
77 2 S106 1118 1392088 6990 0
0 0 0 1015 1393103 -8026 0
0 0 0 1042 1394145 -6984 0
0 0 0 1075 1395220 -5909 0
0 0 0 1055 1396275 -4854 0
0 0 0 958 1397233 -3896 0
0 0 0 869 1398102 -3027 0
0 0 0 913 1399015 -2114 0
78 1 S112 955 1399970 -1159 0
78 1 S112 962 1400932 -197 0
78 2 S112 1000 1401932 803 0
78 2 S112 1198 1403130 2001 0
78 2 S112 1039 1404169 3040 0
78 2 S112 1076 1405245 4116 0
78 2 S112 1122 1406367 5238 0
78 2 S112 999 1407366 6237 0
0 0 0 1025 1408391 -10626 0
0 0 0 1061 1409452 -9565 0
0 0 0 974 1410426 -8591 0
0 0 0 841 1411267 -7750 0
0 0 0 807 1412074 -6943 0
0 0 0 845 1412919 -6098 0
0 0 0 820 1413739 -5278 0
0 0 0 1007 1414746 -4271 0
0 0 0 1041 1415787 -3230 0
0 0 0 1067 1416854 -2163 0
79 1 S102 1071 1417925 -1092 0
79 2 S102 1095 1419020 3 0
79 2 S102 1069 1420089 1072 0
79 2 S102 1024 1421113 2096 0
79 2 S102 1000 1422113 3096 0
79 2 S102 969 1423082 4065 0
79 2 S102 960 1424042 5025 0
79 2 S102 885 1424927 5910 0
79 2 S102 934 1425861 6844 0
0 0 0 954 1426815 -7206 0
0 0 0 949 1427764 -6257 0
0 0 0 918 1428682 -5339 0
0 0 0 1066 1429748 -4273 0
0 0 0 952 1430700 -3321 0
0 0 0 1071 1431771 -2250 0
80 1 S116 1097 1432868 -1153 0
80 1 S116 961 1433829 -192 0
80 2 S116 1014 1434843 822 0
80 2 S116 1065 1435908 1887 0
80 2 S116 956 1436864 2843 0
80 2 S116 997 1437861 3840 0
80 2 S116 1065 1438926 4905 0
80 2 S116 973 1439899 5878 0
80 2 S116 1031 1440930 6909 0
