T_0130
BeatCount Mean SD BeatCountNoOutliers MeanNoOutliers SDNoOutliers
1314 1212,52054794521 81,2663197984957 1286 1219,26516329705 67,552017764585

Trial TrialStatus Trialtype IBI AbsPosition RelPosition Outlier
0 0 0 1205 1679 -15071 0
0 0 0 1145 2824 -13926 0
0 0 0 1188 4012 -12738 0
0 0 0 1192 5204 -11546 0
0 0 0 1147 6351 -10399 0
0 0 0 1191 7542 -9208 0
0 0 0 1110 8652 -8098 0
0 0 0 1144 9796 -6954 0
0 0 0 1146 10942 -5808 0
0 0 0 1067 12009 -4741 0
0 0 0 1141 13150 -3600 0
0 0 0 1053 14203 -2547 0
1 1 S112 1147 15350 -1400 0
1 1 S112 1126 16476 -274 0
1 2 S112 1193 17669 919 0
1 2 S112 1236 18905 2155 0
1 2 S112 1117 20022 3272 0
1 2 S112 1193 21215 4465 0
1 2 S112 1102 22317 5567 0
1 2 S112 1180 23497 6747 0
0 0 0 1176 24673 -10777 0
0 0 0 1094 25767 -9683 0
0 0 0 1106 26873 -8577 0
0 0 0 974 27847 -7603 1
0 0 0 1183 29030 -6420 0
0 0 0 1088 30118 -5332 0
0 0 0 1236 31354 -4096 0
0 0 0 1143 32497 -2953 0
2 1 S102 1160 33657 -1793 0
2 1 S102 1160 34817 -633 0
2 2 S102 1136 35953 503 0
2 2 S102 1202 37155 1705 0
2 2 S102 1098 38253 2803 0
2 2 S102 1237 39490 4040 0
2 2 S102 1120 40610 5160 0
2 2 S102 1221 41831 6381 0
0 0 0 1184 43015 -9047 0
0 0 0 1240 44255 -7807 0
0 0 0 1190 45445 -6617 0
0 0 0 1111 46556 -5506 0
0 0 0 1252 47808 -4254 0
0 0 0 1116 48924 -3138 0
3 1 S116 1232 50156 -1906 0
3 1 S116 1132 51288 -774 0
3 2 S116 1277 52565 503 0
3 2 S116 1278 53843 1781 0
3 2 S116 1241 55084 3022 0
3 2 S116 1262 56346 4284 0
3 2 S116 1162 57508 5446 0
3 2 S116 1247 58755 6693 0
0 0 0 1217 59972 -10956 0
0 0 0 1226 61198 -9730 0
0 0 0 1200 62398 -8530 0
0 0 0 1079 63477 -7451 0
0 0 0 1236 64713 -6215 0
0 0 0 1217 65930 -4998 0
0 0 0 1302 67232 -3696 0
0 0 0 1179 68411 -2517 0
4 1 S106 1280 69691 -1237 0
4 1 S106 1214 70905 -23 0
4 2 S106 1278 72183 1255 0
4 2 S106 1231 73414 2486 0
4 2 S106 1268 74682 3754 0
4 2 S106 1279 75961 5033 0
4 2 S106 1254 77215 6287 0
0 0 0 1277 78492 -7274 0
0 0 0 1281 79773 -5993 0
0 0 0 1242 81015 -4751 0
0 0 0 1127 82142 -3624 0
0 0 0 1244 83386 -2380 0
5 1 S116 1119 84505 -1261 0
5 2 S116 1299 85804 38 0
5 2 S116 1204 87008 1242 0
5 2 S116 1321 88329 2563 0
5 2 S116 1247 89576 3810 0
5 2 S116 1273 90849 5083 0
5 2 S116 1274 92123 6357 0
0 0 0 1250 93373 -10927 0
0 0 0 1236 94609 -9691 0
0 0 0 1145 95754 -8546 0
0 0 0 1245 96999 -7301 0
0 0 0 1070 98069 -6231 0
0 0 0 1165 99234 -5066 0
0 0 0 1223 100457 -3843 0
0 0 0 1221 101678 -2622 0
6 1 S106 1272 102950 -1350 0
6 1 S106 1180 104130 -170 0
6 2 S106 1255 105385 1085 0
6 2 S106 1142 106527 2227 0
6 2 S106 1279 107806 3506 0
6 2 S106 1207 109013 4713 0
6 2 S106 1287 110300 6000 0
0 0 0 1287 111587 -12027 0
0 0 0 1290 112877 -10737 0
0 0 0 1312 114189 -9425 0
0 0 0 1226 115415 -8199 0
0 0 0 1294 116709 -6905 0
0 0 0 1188 117897 -5717 0
0 0 0 1309 119206 -4408 0
0 0 0 1218 120424 -3190 0
7 1 S102 1275 121699 -1915 0
7 1 S102 1172 122871 -743 0
7 2 S102 1286 124157 543 0
7 2 S102 1264 125421 1807 0
7 2 S102 1296 126717 3103 0
7 2 S102 1284 128001 4387 0
7 2 S102 1259 129260 5646 0
7 2 S102 1275 130535 6921 0
0 0 0 1210 131745 -8829 0
0 0 0 1213 132958 -7616 0
0 0 0 1089 134047 -6527 0
0 0 0 1183 135230 -5344 0
0 0 0 1143 136373 -4201 0
0 0 0 1215 137588 -2986 0
8 1 S112 1263 138851 -1723 0
8 1 S112 1260 140111 -463 0
8 2 S112 1277 141388 814 0
8 2 S112 1165 142553 1979 0
8 2 S112 1236 143789 3215 0
8 2 S112 1151 144940 4366 0
8 2 S112 1264 146204 5630 0
8 2 S112 1271 147475 6901 0
0 0 0 1298 148773 -7153 0
0 0 0 1302 150075 -5851 0
0 0 0 1217 151292 -4634 0
0 0 0 1248 152540 -3386 0
0 0 0 1156 153696 -2230 0
9 1 S116 1223 154919 -1007 0
9 2 S116 1098 156017 91 0
9 2 S116 1223 157240 1314 0
9 2 S116 1168 158408 2482 0
9 2 S116 1241 159649 3723 0
9 2 S116 1244 160893 4967 0
9 2 S116 1215 162108 6182 0
0 0 0 1265 163373 -12082 0
0 0 0 1131 164504 -10951 0
0 0 0 1234 165738 -9717 0
0 0 0 1173 166911 -8544 0
0 0 0 1215 168126 -7329 0
0 0 0 1210 169336 -6119 0
0 0 0 1153 170489 -4966 0
0 0 0 1295 171784 -3671 0
0 0 0 1116 172900 -2555 0
10 1 S102 1254 174154 -1301 0
10 1 S102 1177 175331 -124 0
10 2 S102 1257 176588 1133 0
10 2 S102 1265 177853 2398 0
10 2 S102 1283 179136 3681 0
10 2 S102 1297 180433 4978 0
10 2 S102 1210 181643 6188 0
0 0 0 1279 182922 -13140 0
0 0 0 1148 184070 -11992 0
0 0 0 1293 185363 -10699 0
0 0 0 1223 186586 -9476 0
0 0 0 1248 187834 -8228 0
0 0 0 1162 188996 -7066 0
0 0 0 1263 190259 -5803 0
0 0 0 1218 191477 -4585 0
0 0 0 1257 192734 -3328 0
0 0 0 1229 193963 -2099 0
11 1 S112 1236 195199 -863 0
11 2 S112 1233 196432 370 0
11 2 S112 1201 197633 1571 0
11 2 S112 1293 198926 2864 0
11 2 S112 1200 200126 4064 0
11 2 S112 1261 201387 5325 0
11 2 S112 1204 202591 6529 0
0 0 0 1241 203832 -7996 0
0 0 0 1236 205068 -6760 0
0 0 0 1214 206282 -5546 0
0 0 0 1172 207454 -4374 0
0 0 0 1047 208501 -3327 0
0 0 0 1178 209679 -2149 0
12 1 S116 1114 210793 -1035 0
12 2 S116 1254 212047 219 0
12 2 S116 1226 213273 1445 0
12 2 S116 1276 214549 2721 0
12 2 S116 1267 215816 3988 0
12 2 S116 1211 217027 5199 0
12 2 S116 1243 218270 6442 0
0 0 0 1205 219475 -11219 0
0 0 0 1278 220753 -9941 0
0 0 0 1160 221913 -8781 0
0 0 0 1151 223064 -7630 0
0 0 0 1243 224307 -6387 0
0 0 0 1155 225462 -5232 0
0 0 0 1281 226743 -3951 0
0 0 0 1140 227883 -2811 0
13 1 S112 1219 229102 -1592 0
13 1 S112 1157 230259 -435 0
13 2 S112 1254 231513 819 0
13 2 S112 1254 232767 2073 0
13 2 S112 1242 234009 3315 0
13 2 S112 1289 235298 4604 0
13 2 S112 1195 236493 5799 0
0 0 0 1285 237778 -12562 0
0 0 0 1204 238982 -11358 0
0 0 0 1279 240261 -10079 0
0 0 0 1191 241452 -8888 0
0 0 0 1258 242710 -7630 0
0 0 0 1205 243915 -6425 0
0 0 0 1256 245171 -5169 0
0 0 0 1199 246370 -3970 0
0 0 0 1201 247571 -2769 0
14 1 S106 1245 248816 -1524 0
14 1 S106 1232 250048 -292 0
14 2 S106 1306 251354 1014 0
14 2 S106 1170 252524 2184 0
14 2 S106 1298 253822 3482 0
14 2 S106 1208 255030 4690 0
14 2 S106 1273 256303 5963 0
0 0 0 1218 257521 -12282 0
0 0 0 1286 258807 -10996 0
0 0 0 1127 259934 -9869 0
0 0 0 1184 261118 -8685 0
0 0 0 1237 262355 -7448 0
0 0 0 1118 263473 -6330 0
0 0 0 1010 264483 -5320 0
0 0 0 1157 265640 -4163 0
0 0 0 1138 266778 -3025 0
15 1 S116 1143 267921 -1882 0
15 1 S116 1199 269120 -683 0
15 2 S116 1088 270208 405 0
15 2 S116 1176 271384 1581 0
15 2 S116 1198 272582 2779 0
15 2 S116 1268 273850 4047 0
15 2 S116 1305 275155 5352 0
15 2 S116 1263 276418 6615 0
0 0 0 1294 277712 -9929 0
0 0 0 1218 278930 -8711 0
0 0 0 1282 280212 -7429 0
0 0 0 1147 281359 -6282 0
0 0 0 1275 282634 -5007 0
0 0 0 1191 283825 -3816 0
0 0 0 1299 285124 -2517 0
16 1 S116 1232 286356 -1285 0
16 1 S116 1281 287637 -4 0
16 2 S116 1275 288912 1271 0
16 2 S116 1260 290172 2531 0
16 2 S116 1302 291474 3833 0
16 2 S116 1171 292645 5004 0
16 2 S116 1296 293941 6300 0
0 0 0 1213 295154 -10276 0
0 0 0 1280 296434 -8996 0
0 0 0 1241 297675 -7755 0
0 0 0 1277 298952 -6478 0
0 0 0 1144 300096 -5334 0
0 0 0 1307 301403 -4027 0
0 0 0 1214 302617 -2813 0
17 1 S106 1280 303897 -1533 0
17 1 S106 1270 305167 -263 0
17 2 S106 1247 306414 984 0
17 2 S106 1266 307680 2250 0
17 2 S106 1157 308837 3407 0
17 2 S106 1294 310131 4701 0
17 2 S106 1162 311293 5863 0
0 0 0 1290 312583 -11630 0
0 0 0 1208 313791 -10422 0
0 0 0 1276 315067 -9146 0
0 0 0 1185 316252 -7961 0
0 0 0 1180 317432 -6781 0
0 0 0 1235 318667 -5546 0
0 0 0 1219 319886 -4327 0
0 0 0 1258 321144 -3069 0
18 1 S102 1164 322308 -1905 0
18 1 S102 1315 323623 -590 0
18 2 S102 1206 324829 616 0
18 2 S102 1300 326129 1916 0
18 2 S102 1263 327392 3179 0
18 2 S102 1278 328670 4457 0
18 2 S102 1318 329988 5775 0
0 0 0 1266 331254 -8029 0
0 0 0 1307 332561 -6722 0
0 0 0 1187 333748 -5535 0
0 0 0 1215 334963 -4320 0
0 0 0 1123 336086 -3197 0
19 1 S106 1260 337346 -1937 0
19 1 S106 1191 338537 -746 0
19 2 S106 1264 339801 518 0
19 2 S106 1309 341110 1827 0
19 2 S106 1263 342373 3090 0
19 2 S106 1315 343688 4405 0
19 2 S106 1221 344909 5626 0
19 2 S106 1308 346217 6934 0
0 0 0 1217 347434 -10085 0
0 0 0 1273 348707 -8812 0
0 0 0 1164 349871 -7648 0
0 0 0 1131 351002 -6517 0
0 0 0 1268 352270 -5249 0
0 0 0 1168 353438 -4081 0
0 0 0 1221 354659 -2860 0
20 1 S112 1195 355854 -1665 0
20 1 S112 1195 357049 -470 0
20 2 S112 1266 358315 796 0
20 2 S112 1182 359497 1978 0
20 2 S112 1285 360782 3263 0
20 2 S112 1187 361969 4450 0
20 2 S112 1245 363214 5695 0
20 2 S112 1257 364471 6952 0
0 0 0 1241 365712 -9098 0
0 0 0 1222 366934 -7876 0
0 0 0 1109 368043 -6767 0
0 0 0 1132 369175 -5635 0
0 0 0 984 370159 -4651 1
0 0 0 1204 371363 -3447 0
0 0 0 1079 372442 -2368 0
21 1 S106 1146 373588 -1222 0
21 2 S106 1278 374866 56 0
21 2 S106 1261 376127 1317 0
21 2 S106 1245 377372 2562 0
21 2 S106 1179 378551 3741 0
21 2 S106 1273 379824 5014 0
21 2 S106 1220 381044 6234 0
0 0 0 1303 382347 -11727 0
0 0 0 1243 383590 -10484 0
0 0 0 1358 384948 -9126 0
0 0 0 1190 386138 -7936 0
0 0 0 1287 387425 -6649 0
0 0 0 1266 388691 -5383 0
0 0 0 1298 389989 -4085 0
0 0 0 1263 391252 -2822 0
22 1 S116 1242 392494 -1580 0
22 1 S116 1293 393787 -287 0
22 2 S116 1145 394932 858 0
22 2 S116 1303 396235 2161 0
22 2 S116 1239 397474 3400 0
22 2 S116 1291 398765 4691 0
22 2 S116 1273 400038 5964 0
0 0 0 1180 401218 -10363 0
0 0 0 1287 402505 -9076 0
0 0 0 1116 403621 -7960 0
0 0 0 1225 404846 -6735 0
0 0 0 1020 405866 -5715 0
0 0 0 1110 406976 -4605 0
0 0 0 1284 408260 -3321 0
0 0 0 1265 409525 -2056 0
23 1 S112 1298 410823 -758 0
23 2 S112 1198 412021 440 0
23 2 S112 1316 413337 1756 0
23 2 S112 1186 414523 2942 0
23 2 S112 1249 415772 4191 0
23 2 S112 1235 417007 5426 0
23 2 S112 1202 418209 6628 0
0 0 0 1360 419569 -9353 0
0 0 0 1192 420761 -8161 0
0 0 0 1330 422091 -6831 0
0 0 0 1203 423294 -5628 0
0 0 0 1289 424583 -4339 0
0 0 0 1294 425877 -3045 0
24 1 S106 1321 427198 -1724 0
24 1 S106 1312 428510 -412 0
24 2 S106 1244 429754 832 0
24 2 S106 1313 431067 2145 0
24 2 S106 1213 432280 3358 0
24 2 S106 1298 433578 4656 0
24 2 S106 1154 434732 5810 0
24 2 S106 1200 435932 7010 0
0 0 0 1316 437248 -9562 0
0 0 0 1240 438488 -8322 0
0 0 0 1313 439801 -7009 0
0 0 0 1176 440977 -5833 0
0 0 0 1271 442248 -4562 0
0 0 0 1262 443510 -3300 0
25 1 S102 1315 444825 -1985 0
25 1 S102 1292 446117 -693 0
25 2 S102 1270 447387 577 0
25 2 S102 1294 448681 1871 0
25 2 S102 1175 449856 3046 0
25 2 S102 1260 451116 4306 0
25 2 S102 1307 452423 5613 0
25 2 S102 1226 453649 6839 0
0 0 0 1261 454910 -7716 0
0 0 0 1190 456100 -6526 0
0 0 0 1245 457345 -5281 0
0 0 0 1213 458558 -4068 0
0 0 0 1127 459685 -2941 0
26 1 S116 1248 460933 -1693 0
26 1 S116 1183 462116 -510 0
26 2 S116 1279 463395 769 0
26 2 S116 1218 464613 1987 0
26 2 S116 1256 465869 3243 0
26 2 S116 1248 467117 4491 0
26 2 S116 1219 468336 5710 0
26 2 S116 1247 469583 6957 0
0 0 0 1133 470716 -8057 0
0 0 0 1188 471904 -6869 0
0 0 0 1158 473062 -5711 0
0 0 0 1128 474190 -4583 0
0 0 0 1137 475327 -3446 0
0 0 0 1144 476471 -2302 0
27 1 S106 1302 477773 -1000 0
27 2 S106 1256 479029 256 0
27 2 S106 1280 480309 1536 0
27 2 S106 1202 481511 2738 0
27 2 S106 1313 482824 4051 0
27 2 S106 1214 484038 5265 0
27 2 S106 1311 485349 6576 0
0 0 0 1298 486647 -7445 0
0 0 0 1286 487933 -6159 0
0 0 0 1320 489253 -4839 0
0 0 0 1057 490310 -3782 0
0 0 0 951 491261 -2831 1
28 1 S102 1318 492579 -1513 0
28 1 S102 1249 493828 -264 0
28 2 S102 1303 495131 1039 0
28 2 S102 1199 496330 2238 0
28 2 S102 1247 497577 3485 0
28 2 S102 1206 498783 4691 0
28 2 S102 1184 499967 5875 0
0 0 0 1257 501224 -11469 0
0 0 0 1145 502369 -10324 0
0 0 0 1292 503661 -9032 0
0 0 0 1205 504866 -7827 0
0 0 0 1272 506138 -6555 0
0 0 0 1261 507399 -5294 0
0 0 0 1282 508681 -4012 0
0 0 0 1279 509960 -2733 0
29 1 S112 1269 511229 -1464 0
29 1 S112 1315 512544 -149 0
29 2 S112 1225 513769 1076 0
29 2 S112 1297 515066 2373 0
29 2 S112 1259 516325 3632 0
29 2 S112 1238 517563 4870 0
29 2 S112 1279 518842 6149 0
0 0 0 1189 520031 -8179 0
0 0 0 1239 521270 -6940 0
0 0 0 1167 522437 -5773 0
0 0 0 1194 523631 -4579 0
0 0 0 1130 524761 -3449 0
0 0 0 1175 525936 -2274 0
30 1 S112 1292 527228 -982 0
30 2 S112 1181 528409 199 0
30 2 S112 1230 529639 1429 0
30 2 S112 1189 530828 2618 0
30 2 S112 1240 532068 3858 0
30 2 S112 1303 533371 5161 0
30 2 S112 1222 534593 6383 0
0 0 0 1312 535905 -9845 0
0 0 0 1164 537069 -8681 0
0 0 0 1282 538351 -7399 0
0 0 0 1131 539482 -6268 0
0 0 0 1167 540649 -5101 0
0 0 0 1309 541958 -3792 0
0 0 0 1250 543208 -2542 0
31 1 S106 1316 544524 -1226 0
31 2 S106 1247 545771 21 0
31 2 S106 1269 547040 1290 0
31 2 S106 1232 548272 2522 0
31 2 S106 1240 549512 3762 0
31 2 S106 1295 550807 5057 0
31 2 S106 1210 552017 6267 0
0 0 0 1290 553307 -10331 0
0 0 0 1186 554493 -9145 0
0 0 0 1259 555752 -7886 0
0 0 0 1207 556959 -6679 0
0 0 0 1156 558115 -5523 0
0 0 0 1222 559337 -4301 0
0 0 0 1139 560476 -3162 0
32 1 S102 1225 561701 -1937 0
32 1 S102 1145 562846 -792 0
32 2 S102 1162 564008 370 0
32 2 S102 1190 565198 1560 0
32 2 S102 1098 566296 2658 0
32 2 S102 1269 567565 3927 0
32 2 S102 1202 568767 5129 0
32 2 S102 1273 570040 6402 0
0 0 0 1171 571211 -11824 0
0 0 0 1251 572462 -10573 0
0 0 0 1206 573668 -9367 0
0 0 0 1236 574904 -8131 0
0 0 0 1196 576100 -6935 0
0 0 0 1185 577285 -5750 0
0 0 0 1253 578538 -4497 0
0 0 0 1159 579697 -3338 0
0 0 0 1242 580939 -2096 0
33 1 S112 1146 582085 -950 0
33 2 S112 1274 583359 324 0
33 2 S112 1278 584637 1602 0
33 2 S112 1266 585903 2868 0
33 2 S112 1308 587211 4176 0
33 2 S112 1200 588411 5376 0
33 2 S112 1312 589723 6688 0
0 0 0 1195 590918 -11978 0
0 0 0 1241 592159 -10737 0
0 0 0 1159 593318 -9578 0
0 0 0 1182 594500 -8396 0
0 0 0 1114 595614 -7282 0
0 0 0 1140 596754 -6142 0
0 0 0 1322 598076 -4820 0
0 0 0 1207 599283 -3613 0
0 0 0 1312 600595 -2301 0
34 1 S106 1203 601798 -1098 0
34 2 S106 1275 603073 177 0
34 2 S106 1246 604319 1423 0
34 2 S106 1201 605520 2624 0
34 2 S106 1323 606843 3947 0
34 2 S106 1197 608040 5144 0
34 2 S106 1330 609370 6474 0
0 0 0 1296 610666 -9421 0
0 0 0 1368 612034 -8053 0
0 0 0 1260 613294 -6793 0
0 0 0 1333 614627 -5460 0
0 0 0 1262 615889 -4198 0
0 0 0 1281 617170 -2917 0
35 1 S102 1273 618443 -1644 0
35 1 S102 1172 619615 -472 0
35 2 S102 1287 620902 815 0
35 2 S102 1163 622065 1978 0
35 2 S102 1287 623352 3265 0
35 2 S102 1251 624603 4516 0
35 2 S102 1275 625878 5791 0
0 0 0 1309 627187 -8600 0
0 0 0 1193 628380 -7407 0
0 0 0 1285 629665 -6122 0
0 0 0 1153 630818 -4969 0
0 0 0 1217 632035 -3752 0
0 0 0 1192 633227 -2560 0
36 1 S106 1255 634482 -1305 0
36 1 S106 1300 635782 -5 0
36 2 S106 1272 637054 1267 0
36 2 S106 1288 638342 2555 0
36 2 S106 1158 639500 3713 0
36 2 S106 1273 640773 4986 0
36 2 S106 1202 641975 6188 0
0 0 0 1279 643254 -9824 0
0 0 0 1273 644527 -8551 0
0 0 0 1234 645761 -7317 0
0 0 0 1220 646981 -6097 0
0 0 0 1128 648109 -4969 0
0 0 0 1230 649339 -3739 0
0 0 0 1072 650411 -2667 0
37 1 S116 1178 651589 -1489 0
37 1 S116 1134 652723 -355 0
37 2 S116 1147 653870 792 0
37 2 S116 1175 655045 1967 0
37 2 S116 1083 656128 3050 0
37 2 S116 1239 657367 4289 0
37 2 S116 1268 658635 5557 0
37 2 S116 1239 659874 6796 0
0 0 0 1319 661193 -11415 0
0 0 0 1219 662412 -10196 0
0 0 0 1332 663744 -8864 0
0 0 0 1106 664850 -7758 0
0 0 0 1322 666172 -6436 0
0 0 0 1225 667397 -5211 0
0 0 0 1258 668655 -3953 0
0 0 0 1303 669958 -2650 0
38 1 S102 1140 671098 -1510 0
38 1 S102 1266 672364 -244 0
38 2 S102 1198 673562 954 0
38 2 S102 1279 674841 2233 0
38 2 S102 1288 676129 3521 0
38 2 S102 1270 677399 4791 0
38 2 S102 1303 678702 6094 0
0 0 0 1178 679880 -11296 0
0 0 0 1274 681154 -10022 0
0 0 0 1202 682356 -8820 0
0 0 0 1294 683650 -7526 0
0 0 0 1198 684848 -6328 0
0 0 0 1271 686119 -5057 0
0 0 0 1312 687431 -3745 0
0 0 0 1243 688674 -2502 0
39 1 S116 1281 689955 -1221 0
39 1 S116 1164 691119 -57 0
39 2 S116 1267 692386 1210 0
39 2 S116 1306 693692 2516 0
39 2 S116 1234 694926 3750 0
39 2 S116 1324 696250 5074 0
39 2 S116 1207 697457 6281 0
0 0 0 1299 698756 -7307 0
0 0 0 1158 699914 -6149 0
0 0 0 1226 701140 -4923 0
0 0 0 1193 702333 -3730 0
0 0 0 1145 703478 -2585 0
40 1 S112 1314 704792 -1271 0
40 1 S112 1157 705949 -114 0
40 2 S112 1274 707223 1160 0
40 2 S112 1226 708449 2386 0
40 2 S112 1204 709653 3590 0
40 2 S112 1316 710969 4906 0
40 2 S112 1185 712154 6091 0
0 0 0 1259 713413 -188607 0
0 0 0 1203 714616 -187404 0
0 0 0 1289 715905 -186115 0
0 0 0 1246 717151 -184869 0
0 0 0 1186 718337 -183683 0
0 0 0 1251 719588 -182432 0
0 0 0 1023 720611 -181409 0
0 0 0 1071 721682 -180338 0
0 0 0 1073 722755 -179265 0
0 0 0 889 723644 -178376 1
0 0 0 828 724472 -177548 1
0 0 0 795 725267 -176753 1
0 0 0 828 726095 -175925 1
0 0 0 818 726913 -175107 1
0 0 0 836 727749 -174271 1
0 0 0 882 728631 -173389 1
0 0 0 891 729522 -172498 1
0 0 0 912 730434 -171586 1
0 0 0 1084 731518 -170502 0
0 0 0 1164 732682 -169338 0
0 0 0 1192 733874 -168146 0
0 0 0 1283 735157 -166863 0
0 0 0 1170 736327 -165693 0
0 0 0 1247 737574 -164446 0
0 0 0 1179 738753 -163267 0
0 0 0 1247 740000 -162020 0
0 0 0 1228 741228 -160792 0
0 0 0 1198 742426 -159594 0
0 0 0 1248 743674 -158346 0
0 0 0 979 744653 -157367 1
0 0 0 809 745462 -156558 1
0 0 0 1007 746469 -155551 0
0 0 0 1265 747734 -154286 0
0 0 0 1301 749035 -152985 0
0 0 0 1261 750296 -151724 0
0 0 0 1231 751527 -150493 0
0 0 0 1259 752786 -149234 0
0 0 0 1239 754025 -147995 0
0 0 0 1272 755297 -146723 0
0 0 0 1270 756567 -145453 0
0 0 0 1296 757863 -144157 0
0 0 0 1322 759185 -142835 0
0 0 0 1273 760458 -141562 0
0 0 0 1272 761730 -140290 0
0 0 0 1297 763027 -138993 0
0 0 0 1226 764253 -137767 0
0 0 0 1268 765521 -136499 0
0 0 0 1288 766809 -135211 0
0 0 0 1298 768107 -133913 0
0 0 0 1256 769363 -132657 0
0 0 0 1300 770663 -131357 0
0 0 0 1187 771850 -130170 0
0 0 0 1179 773029 -128991 0
0 0 0 1208 774237 -127783 0
0 0 0 1183 775420 -126600 0
0 0 0 1191 776611 -125409 0
0 0 0 1073 777684 -124336 0
0 0 0 1103 778787 -123233 0
0 0 0 1118 779905 -122115 0
0 0 0 1020 780925 -121095 0
0 0 0 1147 782072 -119948 0
0 0 0 1173 783245 -118775 0
0 0 0 1097 784342 -117678 0
0 0 0 1191 785533 -116487 0
0 0 0 1048 786581 -115439 0
0 0 0 1139 787720 -114300 0
0 0 0 1076 788796 -113224 0
0 0 0 1071 789867 -112153 0
0 0 0 1203 791070 -110950 0
0 0 0 1030 792100 -109920 0
0 0 0 1141 793241 -108779 0
0 0 0 1064 794305 -107715 0
0 0 0 1123 795428 -106592 0
0 0 0 1153 796581 -105439 0
0 0 0 1084 797665 -104355 0
0 0 0 1213 798878 -103142 0
0 0 0 1065 799943 -102077 0
0 0 0 1199 801142 -100878 0
0 0 0 1140 802282 -99738 0
0 0 0 1225 803507 -98513 0
0 0 0 1128 804635 -97385 0
0 0 0 1194 805829 -96191 0
0 0 0 1199 807028 -94992 0
0 0 0 1254 808282 -93738 0
0 0 0 1252 809534 -92486 0
0 0 0 1232 810766 -91254 0
0 0 0 1224 811990 -90030 0
0 0 0 1218 813208 -88812 0
0 0 0 1240 814448 -87572 0
0 0 0 1101 815549 -86471 0
0 0 0 1201 816750 -85270 0
0 0 0 1189 817939 -84081 0
0 0 0 1227 819166 -82854 0
0 0 0 1253 820419 -81601 0
0 0 0 1153 821572 -80448 0
0 0 0 1261 822833 -79187 0
0 0 0 1216 824049 -77971 0
0 0 0 1253 825302 -76718 0
0 0 0 1195 826497 -75523 0
0 0 0 1235 827732 -74288 0
0 0 0 1243 828975 -73045 0
0 0 0 1180 830155 -71865 0
0 0 0 1214 831369 -70651 0
0 0 0 1119 832488 -69532 0
0 0 0 1180 833668 -68352 0
0 0 0 1136 834804 -67216 0
0 0 0 1120 835924 -66096 0
0 0 0 1200 837124 -64896 0
0 0 0 1139 838263 -63757 0
0 0 0 1224 839487 -62533 0
0 0 0 1252 840739 -61281 0
0 0 0 1246 841985 -60035 0
0 0 0 1285 843270 -58750 0
0 0 0 1189 844459 -57561 0
0 0 0 1243 845702 -56318 0
0 0 0 1121 846823 -55197 0
0 0 0 1212 848035 -53985 0
0 0 0 1230 849265 -52755 0
0 0 0 1197 850462 -51558 0
0 0 0 1273 851735 -50285 0
0 0 0 1199 852934 -49086 0
0 0 0 1246 854180 -47840 0
0 0 0 1147 855327 -46693 0
0 0 0 1189 856516 -45504 0
0 0 0 1225 857741 -44279 0
0 0 0 1160 858901 -43119 0
0 0 0 1267 860168 -41852 0
0 0 0 1211 861379 -40641 0
0 0 0 1260 862639 -39381 0
0 0 0 1171 863810 -38210 0
0 0 0 1225 865035 -36985 0
0 0 0 1190 866225 -35795 0
0 0 0 1237 867462 -34558 0
0 0 0 1165 868627 -33393 0
0 0 0 1136 869763 -32257 0
0 0 0 1232 870995 -31025 0
0 0 0 1154 872149 -29871 0
0 0 0 1242 873391 -28629 0
0 0 0 1178 874569 -27451 0
0 0 0 1262 875831 -26189 0
0 0 0 1191 877022 -24998 0
0 0 0 1137 878159 -23861 0
0 0 0 1240 879399 -22621 0
0 0 0 1132 880531 -21489 0
0 0 0 1265 881796 -20224 0
0 0 0 1250 883046 -18974 0
0 0 0 1263 884309 -17711 0
0 0 0 1300 885609 -16411 0
0 0 0 1147 886756 -15264 0
0 0 0 1260 888016 -14004 0
0 0 0 1166 889182 -12838 0
0 0 0 1257 890439 -11581 0
0 0 0 1186 891625 -10395 0
0 0 0 1211 892836 -9184 0
0 0 0 1023 893859 -8161 0
0 0 0 872 894731 -7289 1
0 0 0 876 895607 -6413 1
0 0 0 980 896587 -5433 1
0 0 0 1144 897731 -4289 0
0 0 0 1006 898737 -3283 0
0 0 0 1075 899812 -2208 0
41 1 S102 1002 900814 -1206 1
41 1 S102 1003 901817 -203 0
41 2 S102 1035 902852 832 0
41 2 S102 1006 903858 1838 0
41 2 S102 991 904849 2829 1
41 2 S102 1132 905981 3961 0
41 2 S102 1142 907123 5103 0
41 2 S102 1247 908370 6350 0
0 0 0 1300 909670 -8646 0
0 0 0 1312 910982 -7334 0
0 0 0 1378 912360 -5956 0
0 0 0 1306 913666 -4650 0
0 0 0 1338 915004 -3312 0
0 0 0 1267 916271 -2045 0
42 1 S112 1313 917584 -732 0
42 2 S112 1225 918809 493 0
42 2 S112 1306 920115 1799 0
42 2 S112 1267 921382 3066 0
42 2 S112 1334 922716 4400 0
42 2 S112 1317 924033 5717 0
42 2 S112 1274 925307 6991 0
0 0 0 1302 926609 -9098 0
0 0 0 1200 927809 -7898 0
0 0 0 1232 929041 -6666 0
0 0 0 1139 930180 -5527 0
0 0 0 1270 931450 -4257 0
0 0 0 1261 932711 -2996 0
43 1 S116 1242 933953 -1754 0
43 1 S116 1282 935235 -472 0
43 2 S116 1235 936470 763 0
43 2 S116 1292 937762 2055 0
43 2 S116 1255 939017 3310 0
43 2 S116 1256 940273 4566 0
43 2 S116 1310 941583 5876 0
0 0 0 1282 942865 -8326 0
0 0 0 1271 944136 -7055 0
0 0 0 1151 945287 -5904 0
0 0 0 1224 946511 -4680 0
0 0 0 1118 947629 -3562 0
0 0 0 1193 948822 -2369 0
44 1 S102 1297 950119 -1072 0
44 2 S102 1232 951351 160 0
44 2 S102 1314 952665 1474 0
44 2 S102 1167 953832 2641 0
44 2 S102 1276 955108 3917 0
44 2 S102 1176 956284 5093 0
44 2 S102 1216 957500 6309 0
0 0 0 1204 958704 -10126 0
0 0 0 1203 959907 -8923 0
0 0 0 1266 961173 -7657 0
0 0 0 1128 962301 -6529 0
0 0 0 1170 963471 -5359 0
0 0 0 1125 964596 -4234 0
0 0 0 1197 965793 -3037 0
45 1 S116 1239 967032 -1798 0
45 1 S116 1250 968282 -548 0
45 2 S116 1298 969580 750 0
45 2 S116 1174 970754 1924 0
45 2 S116 1259 972013 3183 0
45 2 S116 1247 973260 4430 0
45 2 S116 1137 974397 5567 0
45 2 S116 1272 975669 6839 0
0 0 0 1192 976861 -10803 0
0 0 0 1273 978134 -9530 0
0 0 0 1213 979347 -8317 0
0 0 0 1140 980487 -7177 0
0 0 0 1231 981718 -5946 0
0 0 0 1117 982835 -4829 0
0 0 0 1256 984091 -3573 0
0 0 0 1186 985277 -2387 0
46 1 S102 1245 986522 -1142 0
46 2 S102 1267 987789 125 0
46 2 S102 1221 989010 1346 0
46 2 S102 1282 990292 2628 0
46 2 S102 1223 991515 3851 0
46 2 S102 1295 992810 5146 0
46 2 S102 1218 994028 6364 0
0 0 0 1257 995285 -10863 0
0 0 0 1258 996543 -9605 0
0 0 0 1243 997786 -8362 0
0 0 0 1268 999054 -7094 0
0 0 0 1191 1000245 -5903 0
0 0 0 1235 1001480 -4668 0
0 0 0 1160 1002640 -3508 0
0 0 0 1231 1003871 -2277 0
47 1 S112 1142 1005013 -1135 0
47 2 S112 1226 1006239 91 0
47 2 S112 1218 1007457 1309 0
47 2 S112 1290 1008747 2599 0
47 2 S112 1353 1010100 3952 0
47 2 S112 1287 1011387 5239 0
47 2 S112 1301 1012688 6540 0
0 0 0 1243 1013931 -11813 0
0 0 0 1171 1015102 -10642 0
0 0 0 1166 1016268 -9476 0
0 0 0 1054 1017322 -8422 0
0 0 0 1093 1018415 -7329 0
0 0 0 1100 1019515 -6229 0
0 0 0 1225 1020740 -5004 0
0 0 0 1273 1022013 -3731 0
0 0 0 1249 1023262 -2482 0
48 1 S116 1291 1024553 -1191 0
48 2 S116 1261 1025814 70 0
48 2 S116 1334 1027148 1404 0
48 2 S116 1195 1028343 2599 0
48 2 S116 1207 1029550 3806 0
48 2 S116 1342 1030892 5148 0
48 2 S116 1258 1032150 6406 0
0 0 0 1332 1033482 -8327 0
0 0 0 1234 1034716 -7093 0
0 0 0 1288 1036004 -5805 0
0 0 0 1173 1037177 -4632 0
0 0 0 1278 1038455 -3354 0
0 0 0 1252 1039707 -2102 0
49 1 S112 1275 1040982 -827 0
49 2 S112 1279 1042261 452 0
49 2 S112 1234 1043495 1686 0
49 2 S112 1284 1044779 2970 0
49 2 S112 1172 1045951 4142 0
49 2 S112 1251 1047202 5393 0
49 2 S112 1195 1048397 6588 0
0 0 0 1238 1049635 -12781 0
0 0 0 1227 1050862 -11554 0
0 0 0 1166 1052028 -10388 0
0 0 0 1236 1053264 -9152 0
0 0 0 1076 1054340 -8076 0
0 0 0 1185 1055525 -6891 0
0 0 0 1160 1056685 -5731 0
0 0 0 1275 1057960 -4456 0
0 0 0 1266 1059226 -3190 0
50 1 S106 1262 1060488 -1928 0
50 1 S106 1308 1061796 -620 0
50 2 S106 1202 1062998 582 0
50 2 S106 1258 1064256 1840 0
50 2 S106 1165 1065421 3005 0
50 2 S106 1252 1066673 4257 0
50 2 S106 1240 1067913 5497 0
50 2 S106 1273 1069186 6770 0
0 0 0 1281 1070467 -8345 0
0 0 0 1174 1071641 -7171 0
0 0 0 1264 1072905 -5907 0
0 0 0 1168 1074073 -4739 0
0 0 0 1144 1075217 -3595 0
0 0 0 1189 1076406 -2406 0
51 1 S112 1196 1077602 -1210 0
51 2 S112 1237 1078839 27 0
51 2 S112 1181 1080020 1208 0
51 2 S112 1226 1081246 2434 0
51 2 S112 1164 1082410 3598 0
51 2 S112 1204 1083614 4802 0
51 2 S112 1226 1084840 6028 0
0 0 0 1260 1086100 -8693 0
0 0 0 1281 1087381 -7412 0
0 0 0 1194 1088575 -6218 0
0 0 0 1281 1089856 -4937 0
0 0 0 1074 1090930 -3863 0
0 0 0 1193 1092123 -2670 0
52 1 S116 1246 1093369 -1424 0
52 1 S116 1268 1094637 -156 0
52 2 S116 1281 1095918 1125 0
52 2 S116 1135 1097053 2260 0
52 2 S116 1146 1098199 3406 0
52 2 S116 1253 1099452 4659 0
52 2 S116 1164 1100616 5823 0
52 2 S116 1161 1101777 6984 0
0 0 0 1184 1102961 -9422 0
0 0 0 1147 1104108 -8275 0
0 0 0 1028 1105136 -7247 0
0 0 0 1022 1106158 -6225 0
0 0 0 1032 1107190 -5193 0
0 0 0 908 1108098 -4285 1
0 0 0 1011 1109109 -3274 0
0 0 0 1223 1110332 -2051 0
53 1 S106 1199 1111531 -852 0
53 2 S106 1290 1112821 438 0
53 2 S106 1191 1114012 1629 0
53 2 S106 1226 1115238 2855 0
53 2 S106 1226 1116464 4081 0
53 2 S106 1194 1117658 5275 0
53 2 S106 1234 1118892 6509 0
0 0 0 1150 1120042 -7444 0
0 0 0 1275 1121317 -6169 0
0 0 0 1203 1122520 -4966 0
0 0 0 1181 1123701 -3785 0
0 0 0 1221 1124922 -2564 0
54 1 S102 1111 1126033 -1453 0
54 1 S102 1289 1127322 -164 0
54 2 S102 1201 1128523 1037 0
54 2 S102 1275 1129798 2312 0
54 2 S102 1132 1130930 3444 0
54 2 S102 1231 1132161 4675 0
54 2 S102 1271 1133432 5946 0
0 0 0 1254 1134686 -12644 0
0 0 0 1273 1135959 -11371 0
0 0 0 1227 1137186 -10144 0
0 0 0 1300 1138486 -8844 0
0 0 0 1150 1139636 -7694 0
0 0 0 1253 1140889 -6441 0
0 0 0 1183 1142072 -5258 0
0 0 0 1236 1143308 -4022 0
0 0 0 1232 1144540 -2790 0
55 1 S106 1212 1145752 -1578 0
55 1 S106 1248 1147000 -330 0
55 2 S106 1183 1148183 853 0
55 2 S106 1232 1149415 2085 0
55 2 S106 1171 1150586 3256 0
55 2 S106 1136 1151722 4392 0
55 2 S106 1288 1153010 5680 0
55 2 S106 1215 1154225 6895 0
0 0 0 1305 1155530 -7997 0
0 0 0 1224 1156754 -6773 0
0 0 0 1294 1158048 -5479 0
0 0 0 1248 1159296 -4231 0
0 0 0 1104 1160400 -3127 0
56 1 S116 1260 1161660 -1867 0
56 1 S116 1184 1162844 -683 0
56 2 S116 1246 1164090 563 0
56 2 S116 1195 1165285 1758 0
56 2 S116 1136 1166421 2894 0
56 2 S116 1240 1167661 4134 0
56 2 S116 1101 1168762 5235 0
56 2 S116 1131 1169893 6366 0
0 0 0 1246 1171139 -8701 0
0 0 0 1153 1172292 -7548 0
0 0 0 1239 1173531 -6309 0
0 0 0 1184 1174715 -5125 0
0 0 0 1168 1175883 -3957 0
0 0 0 1171 1177054 -2786 0
57 1 S106 1102 1178156 -1684 0
57 1 S106 1223 1179379 -461 0
57 2 S106 1115 1180494 654 0
57 2 S106 1244 1181738 1898 0
57 2 S106 1161 1182899 3059 0
57 2 S106 1068 1183967 4127 0
57 2 S106 1247 1185214 5374 0
57 2 S106 1196 1186410 6570 0
0 0 0 1280 1187690 -10436 0
0 0 0 1291 1188981 -9145 0
0 0 0 1244 1190225 -7901 0
0 0 0 1279 1191504 -6622 0
0 0 0 1136 1192640 -5486 0
0 0 0 1257 1193897 -4229 0
0 0 0 1222 1195119 -3007 0
58 1 S102 1304 1196423 -1703 0
58 1 S102 1287 1197710 -416 0
58 2 S102 1235 1198945 819 0
58 2 S102 1285 1200230 2104 0
58 2 S102 1162 1201392 3266 0
58 2 S102 1306 1202698 4572 0
58 2 S102 1279 1203977 5851 0
0 0 0 1317 1205294 -7952 0
0 0 0 1266 1206560 -6686 0
0 0 0 1253 1207813 -5433 0
0 0 0 1174 1208987 -4259 0
0 0 0 1069 1210056 -3190 0
0 0 0 1163 1211219 -2027 0
59 1 S112 1131 1212350 -896 0
59 2 S112 1193 1213543 297 0
59 2 S112 1293 1214836 1590 0
59 2 S112 1163 1215999 2753 0
59 2 S112 1200 1217199 3953 0
59 2 S112 1208 1218407 5161 0
59 2 S112 1267 1219674 6428 0
0 0 0 1303 1220977 -9858 0
0 0 0 1209 1222186 -8649 0
0 0 0 1266 1223452 -7383 0
0 0 0 1132 1224584 -6251 0
0 0 0 1144 1225728 -5107 0
0 0 0 1256 1226984 -3851 0
0 0 0 1190 1228174 -2661 0
60 1 S102 1282 1229456 -1379 0
60 1 S102 1184 1230640 -195 0
60 2 S102 1273 1231913 1078 0
60 2 S102 1278 1233191 2356 0
60 2 S102 1254 1234445 3610 0
60 2 S102 1290 1235735 4900 0
60 2 S102 1192 1236927 6092 0
0 0 0 1297 1238224 -12406 0
0 0 0 1234 1239458 -11172 0
0 0 0 1248 1240706 -9924 0
0 0 0 1279 1241985 -8645 0
0 0 0 1087 1243072 -7558 0
0 0 0 1244 1244316 -6314 0
0 0 0 1165 1245481 -5149 0
0 0 0 1226 1246707 -3923 0
0 0 0 1157 1247864 -2766 0
61 1 S106 1139 1249003 -1627 0
61 1 S106 1196 1250199 -431 0
61 2 S106 1107 1251306 676 0
61 2 S106 1215 1252521 1891 0
61 2 S106 1250 1253771 3141 0
61 2 S106 1162 1254933 4303 0
61 2 S106 1249 1256182 5552 0
61 2 S106 1176 1257358 6728 0
0 0 0 1245 1258603 -7959 0
0 0 0 1242 1259845 -6717 0
0 0 0 1019 1260864 -5698 0
0 0 0 1220 1262084 -4478 0
0 0 0 1217 1263301 -3261 0
0 0 0 1196 1264497 -2065 0
62 1 S112 1262 1265759 -803 0
62 2 S112 1152 1266911 349 0
62 2 S112 1208 1268119 1557 0
62 2 S112 1203 1269322 2760 0
62 2 S112 1167 1270489 3927 0
62 2 S112 1226 1271715 5153 0
62 2 S112 1137 1272852 6290 0
0 0 0 1231 1274083 -11693 0
0 0 0 1185 1275268 -10508 0
0 0 0 1204 1276472 -9304 0
0 0 0 1246 1277718 -8058 0
0 0 0 1159 1278877 -6899 0
0 0 0 1273 1280150 -5626 0
0 0 0 1231 1281381 -4395 0
0 0 0 1260 1282641 -3135 0
63 1 S102 1314 1283955 -1821 0
63 1 S102 1244 1285199 -577 0
63 2 S102 1293 1286492 716 0
63 2 S102 1205 1287697 1921 0
63 2 S102 1288 1288985 3209 0
63 2 S102 1335 1290320 4544 0
63 2 S102 1220 1291540 5764 0
0 0 0 1315 1292855 -9964 0
0 0 0 1246 1294101 -8718 0
0 0 0 1238 1295339 -7480 0
0 0 0 1257 1296596 -6223 0
0 0 0 1135 1297731 -5088 0
0 0 0 1278 1299009 -3810 0
0 0 0 1207 1300216 -2603 0
64 1 S112 1228 1301444 -1375 0
64 1 S112 1261 1302705 -114 0
64 2 S112 1169 1303874 1055 0
64 2 S112 1222 1305096 2277 0
64 2 S112 1226 1306322 3503 0
64 2 S112 1242 1307564 4745 0
64 2 S112 1243 1308807 5988 0
0 0 0 1238 1310045 -8987 0
0 0 0 1287 1311332 -7700 0
0 0 0 1136 1312468 -6564 0
0 0 0 1267 1313735 -5297 0
0 0 0 1108 1314843 -4189 0
0 0 0 1065 1315908 -3124 0
65 1 S106 1278 1317186 -1846 0
65 1 S106 1165 1318351 -681 0
65 2 S106 1243 1319594 562 0
65 2 S106 1219 1320813 1781 0
65 2 S106 1146 1321959 2927 0
65 2 S106 1212 1323171 4139 0
65 2 S106 1088 1324259 5227 0
65 2 S106 1201 1325460 6428 0
0 0 0 1199 1326659 -8139 0
0 0 0 1229 1327888 -6910 0
0 0 0 1290 1329178 -5620 0
0 0 0 1113 1330291 -4507 0
0 0 0 1221 1331512 -3286 0
0 0 0 1094 1332606 -2192 0
66 1 S116 1241 1333847 -951 0
66 2 S116 1220 1335067 269 0
66 2 S116 1213 1336280 1482 0
66 2 S116 1250 1337530 2732 0
66 2 S116 1035 1338565 3767 0
66 2 S116 1117 1339682 4884 0
66 2 S116 1256 1340938 6140 0
0 0 0 1094 1342032 -12147 0
0 0 0 1203 1343235 -10944 0
0 0 0 1190 1344425 -9754 0
0 0 0 1210 1345635 -8544 0
0 0 0 1155 1346790 -7389 0
0 0 0 1009 1347799 -6380 0
0 0 0 1200 1348999 -5180 0
0 0 0 1226 1350225 -3954 0
0 0 0 1208 1351433 -2746 0
67 1 S102 1306 1352739 -1440 0
67 1 S102 1196 1353935 -244 0
67 2 S102 1262 1355197 1018 0
67 2 S102 1247 1356444 2265 0
67 2 S102 1243 1357687 3508 0
67 2 S102 1341 1359028 4849 0
67 2 S102 1195 1360223 6044 0
0 0 0 1277 1361500 -7864 0
0 0 0 1273 1362773 -6591 0
0 0 0 1208 1363981 -5383 0
0 0 0 1276 1365257 -4107 0
0 0 0 1097 1366354 -3010 0
68 1 S106 1303 1367657 -1707 0
68 1 S106 1270 1368927 -437 0
68 2 S106 1223 1370150 786 0
68 2 S106 1304 1371454 2090 0
68 2 S106 1154 1372608 3244 0
68 2 S106 1306 1373914 4550 0
68 2 S106 1188 1375102 5738 0
68 2 S106 1257 1376359 6995 0
0 0 0 1255 1377614 -10501 0
0 0 0 1216 1378830 -9285 0
0 0 0 1199 1380029 -8086 0
0 0 0 1137 1381166 -6949 0
0 0 0 1209 1382375 -5740 0
0 0 0 1284 1383659 -4456 0
0 0 0 1143 1384802 -3313 0
0 0 0 1266 1386068 -2047 0
69 1 S102 1260 1387328 -787 0
69 2 S102 1279 1388607 492 0
69 2 S102 1227 1389834 1719 0
69 2 S102 990 1390824 2709 1
69 2 S102 1214 1392038 3923 0
69 2 S102 1310 1393348 5233 0
69 2 S102 1322 1394670 6555 0
0 0 0 1210 1395880 -9576 0
0 0 0 1219 1397099 -8357 0
0 0 0 1168 1398267 -7189 0
0 0 0 1093 1399360 -6096 0
0 0 0 1171 1400531 -4925 0
0 0 0 1098 1401629 -3827 0
0 0 0 1195 1402824 -2632 0
70 1 S112 1249 1404073 -1383 0
70 1 S112 1284 1405357 -99 0
70 2 S112 1335 1406692 1236 0
70 2 S112 1186 1407878 2422 0
70 2 S112 1299 1409177 3721 0
70 2 S112 1242 1410419 4963 0
70 2 S112 1278 1411697 6241 0
0 0 0 1293 1412990 -12094 0
0 0 0 1172 1414162 -10922 0
0 0 0 1263 1415425 -9659 0
0 0 0 1103 1416528 -8556 0
0 0 0 1248 1417776 -7308 0
0 0 0 1207 1418983 -6101 0
0 0 0 1299 1420282 -4802 0
0 0 0 1306 1421588 -3496 0
0 0 0 1173 1422761 -2323 0
71 1 S116 1261 1424022 -1062 0
71 2 S116 1161 1425183 99 0
71 2 S116 1181 1426364 1280 0
71 2 S116 1252 1427616 2532 0
71 2 S116 1101 1428717 3633 0
71 2 S116 1130 1429847 4763 0
71 2 S116 1241 1431088 6004 0
0 0 0 1117 1432205 -9773 0
0 0 0 1310 1433515 -8463 0
0 0 0 1241 1434756 -7222 0
0 0 0 1261 1436017 -5961 0
0 0 0 1292 1437309 -4669 0
0 0 0 1221 1438530 -3448 0
0 0 0 1261 1439791 -2187 0
72 1 S102 1175 1440966 -1012 0
72 2 S102 1158 1442124 146 0
72 2 S102 1236 1443360 1382 0
72 2 S102 1103 1444463 2485 0
72 2 S102 1173 1445636 3658 0
72 2 S102 1206 1446842 4864 0
72 2 S102 1335 1448177 6199 0
0 0 0 1335 1449512 -8331 0
0 0 0 1193 1450705 -7138 0
0 0 0 1244 1451949 -5894 0
0 0 0 1161 1453110 -4733 0
0 0 0 1193 1454303 -3540 0
0 0 0 1288 1455591 -2252 0
73 1 S116 1163 1456754 -1089 0
73 2 S116 1250 1458004 161 0
73 2 S116 1203 1459207 1364 0
73 2 S116 1284 1460491 2648 0
73 2 S116 1203 1461694 3851 0
73 2 S116 1220 1462914 5071 0
73 2 S116 1267 1464181 6338 0
0 0 0 1194 1465375 -11086 0
0 0 0 1209 1466584 -9877 0
0 0 0 1081 1467665 -8796 0
0 0 0 1191 1468856 -7605 0
0 0 0 1201 1470057 -6404 0
0 0 0 1048 1471105 -5356 0
0 0 0 1271 1472376 -4085 0
0 0 0 1109 1473485 -2976 0
74 1 S106 1244 1474729 -1732 0
74 1 S106 1220 1475949 -512 0
74 2 S106 1253 1477202 741 0
74 2 S106 1235 1478437 1976 0
74 2 S106 1217 1479654 3193 0
74 2 S106 1276 1480930 4469 0
74 2 S106 1224 1482154 5693 0
74 2 S106 1289 1483443 6982 0
0 0 0 1317 1484760 -7251 0
0 0 0 1206 1485966 -6045 0
0 0 0 1290 1487256 -4755 0
0 0 0 1181 1488437 -3574 0
0 0 0 1253 1489690 -2321 0
75 1 S112 1247 1490937 -1074 0
75 2 S112 1196 1492133 122 0
75 2 S112 1274 1493407 1396 0
75 2 S112 1161 1494568 2557 0
75 2 S112 1295 1495863 3852 0
75 2 S112 1251 1497114 5103 0
75 2 S112 1238 1498352 6341 0
0 0 0 1248 1499600 -7332 0
0 0 0 1091 1500691 -6241 0
0 0 0 1152 1501843 -5089 0
0 0 0 1047 1502890 -4042 0
0 0 0 1045 1503935 -2997 0
76 1 S116 1221 1505156 -1776 0
76 1 S116 987 1506143 -789 1
76 2 S116 1287 1507430 498 0
76 2 S116 1113 1508543 1611 0
76 2 S116 1262 1509805 2873 0
76 2 S116 1132 1510937 4005 0
76 2 S116 1246 1512183 5251 0
76 2 S116 1266 1513449 6517 0
0 0 0 1170 1514619 -8096 0
0 0 0 1293 1515912 -6803 0
0 0 0 1222 1517134 -5581 0
0 0 0 1274 1518408 -4307 0
0 0 0 1269 1519677 -3038 0
77 1 S106 1281 1520958 -1757 0
77 1 S106 1354 1522312 -403 0
77 2 S106 1222 1523534 819 0
77 2 S106 1289 1524823 2108 0
77 2 S106 1210 1526033 3318 0
77 2 S106 1368 1527401 4686 0
77 2 S106 1269 1528670 5955 0
0 0 0 1243 1529913 -9032 0
0 0 0 1344 1531257 -7688 0
0 0 0 1206 1532463 -6482 0
0 0 0 1246 1533709 -5236 0
0 0 0 1274 1534983 -3962 0
0 0 0 1328 1536311 -2634 0
78 1 S112 1349 1537660 -1285 0
78 1 S112 1196 1538856 -89 0
78 2 S112 1289 1540145 1200 0
78 2 S112 1098 1541243 2298 0
78 2 S112 1087 1542330 3385 0
78 2 S112 1255 1543585 4640 0
78 2 S112 1348 1544933 5988 0
0 0 0 1213 1546146 -13422 0
0 0 0 1254 1547400 -12168 0
0 0 0 1190 1548590 -10978 0
0 0 0 1238 1549828 -9740 0
0 0 0 1279 1551107 -8461 0
0 0 0 1093 1552200 -7368 0
0 0 0 1233 1553433 -6135 0
0 0 0 1289 1554722 -4846 0
0 0 0 1274 1555996 -3572 0
0 0 0 1294 1557290 -2278 0
79 1 S102 1209 1558499 -1069 0
79 2 S102 1254 1559753 185 0
79 2 S102 1251 1561004 1436 0
79 2 S102 1211 1562215 2647 0
79 2 S102 1318 1563533 3965 0
79 2 S102 1197 1564730 5162 0
79 2 S102 1282 1566012 6444 0
0 0 0 1217 1567229 -9365 0
0 0 0 1248 1568477 -8117 0
0 0 0 1236 1569713 -6881 0
0 0 0 1082 1570795 -5799 0
0 0 0 1235 1572030 -4564 0
0 0 0 1133 1573163 -3431 0
0 0 0 1230 1574393 -2201 0
80 1 S116 1261 1575654 -940 0
80 2 S116 1284 1576938 344 0
80 2 S116 1290 1578228 1634 0
80 2 S116 1070 1579298 2704 0
80 2 S116 1058 1580356 3762 0
80 2 S116 1102 1581458 4864 0
80 2 S116 1132 1582590 5996 0
