T_0124
BeatCount Mean SD BeatCountNoOutliers MeanNoOutliers SDNoOutliers
1909 772,085908852803 36,8682701704415 1893 772,175382989963 35,7777888233897

Trial TrialStatus Trialtype IBI AbsPosition RelPosition Outlier
0 0 0 751 1289 -14744 0
0 0 0 761 2050 -13983 0
0 0 0 775 2825 -13208 0
0 0 0 783 3608 -12425 0
0 0 0 800 4408 -11625 0
0 0 0 818 5226 -10807 0
0 0 0 830 6056 -9977 0
0 0 0 830 6886 -9147 0
0 0 0 797 7683 -8350 0
0 0 0 777 8460 -7573 0
0 0 0 761 9221 -6812 0
0 0 0 760 9981 -6052 0
0 0 0 762 10743 -5290 0
0 0 0 759 11502 -4531 0
0 0 0 777 12279 -3754 0
0 0 0 787 13066 -2967 0
0 0 0 794 13860 -2173 0
1 1 S112 803 14663 -1370 0
1 1 S112 812 15475 -558 0
1 2 S112 814 16289 256 0
1 2 S112 809 17098 1065 0
1 2 S112 803 17901 1868 0
1 2 S112 797 18698 2665 0
1 2 S112 802 19500 3467 0
1 2 S112 812 20312 4279 0
1 2 S112 823 21135 5102 0
1 2 S112 827 21962 5929 0
1 2 S112 823 22785 6752 0
0 0 0 816 23601 -10983 0
0 0 0 826 24427 -10157 0
0 0 0 835 25262 -9322 0
0 0 0 838 26100 -8484 0
0 0 0 835 26935 -7649 0
0 0 0 810 27745 -6839 0
0 0 0 816 28561 -6023 0
0 0 0 807 29368 -5216 0
0 0 0 806 30174 -4410 0
0 0 0 811 30985 -3599 0
0 0 0 801 31786 -2798 0
2 1 S102 800 32586 -1998 0
2 1 S102 807 33393 -1191 0
2 1 S102 813 34206 -378 0
2 2 S102 821 35027 443 0
2 2 S102 815 35842 1258 0
2 2 S102 818 36660 2076 0
2 2 S102 822 37482 2898 0
2 2 S102 830 38312 3728 0
2 2 S102 832 39144 4560 0
2 2 S102 829 39973 5389 0
2 2 S102 823 40796 6212 0
0 0 0 822 41618 -9146 0
0 0 0 823 42441 -8323 0
0 0 0 831 43272 -7492 0
0 0 0 829 44101 -6663 0
0 0 0 822 44923 -5841 0
0 0 0 805 45728 -5036 0
0 0 0 786 46514 -4250 0
0 0 0 786 47300 -3464 0
0 0 0 786 48086 -2678 0
3 1 S116 791 48877 -1887 0
3 1 S116 785 49662 -1102 0
3 1 S116 768 50430 -334 0
3 2 S116 781 51211 447 0
3 2 S116 787 51998 1234 0
3 2 S116 786 52784 2020 0
3 2 S116 784 53568 2804 0
3 2 S116 786 54354 3590 0
3 2 S116 794 55148 4384 0
3 2 S116 803 55951 5187 0
3 2 S116 814 56765 6001 0
3 2 S116 810 57575 6811 0
0 0 0 801 58376 -11271 0
0 0 0 800 59176 -10471 0
0 0 0 803 59979 -9668 0
0 0 0 805 60784 -8863 0
0 0 0 804 61588 -8059 0
0 0 0 794 62382 -7265 0
0 0 0 785 63167 -6480 0
0 0 0 785 63952 -5695 0
0 0 0 783 64735 -4912 0
0 0 0 785 65520 -4127 0
0 0 0 779 66299 -3348 0
0 0 0 780 67079 -2568 0
4 1 S106 780 67859 -1788 0
4 1 S106 785 68644 -1003 0
4 1 S106 783 69427 -220 0
4 2 S106 781 70208 561 0
4 2 S106 787 70995 1348 0
4 2 S106 789 71784 2137 0
4 2 S106 801 72585 2938 0
4 2 S106 807 73392 3745 0
4 2 S106 809 74201 4554 0
4 2 S106 802 75003 5356 0
4 2 S106 798 75801 6154 0
4 2 S106 796 76597 6950 0
0 0 0 798 77395 -7770 0
0 0 0 800 78195 -6970 0
0 0 0 798 78993 -6172 0
0 0 0 795 79788 -5377 0
0 0 0 800 80588 -4577 0
0 0 0 795 81383 -3782 0
0 0 0 795 82178 -2987 0
0 0 0 786 82964 -2201 0
5 1 S116 781 83745 -1420 0
5 1 S116 782 84527 -638 0
5 2 S116 780 85307 142 0
5 2 S116 779 86086 921 0
5 2 S116 783 86869 1704 0
5 2 S116 785 87654 2489 0
5 2 S116 800 88454 3289 0
5 2 S116 817 89271 4106 0
5 2 S116 819 90090 4925 0
5 2 S116 810 90900 5735 0
5 2 S116 789 91689 6524 0
0 0 0 781 92470 -8245 0
0 0 0 784 93254 -7461 0
0 0 0 783 94037 -6678 0
0 0 0 773 94810 -5905 0
0 0 0 763 95573 -5142 0
0 0 0 772 96345 -4370 0
0 0 0 767 97112 -3603 0
0 0 0 779 97891 -2824 0
0 0 0 776 98667 -2048 0
6 1 S106 776 99443 -1272 0
6 1 S106 781 100224 -491 0
6 2 S106 788 101012 297 0
6 2 S106 800 101812 1097 0
6 2 S106 804 102616 1901 0
6 2 S106 805 103421 2706 0
6 2 S106 812 104233 3518 0
6 2 S106 815 105048 4333 0
6 2 S106 817 105865 5150 0
6 2 S106 821 106686 5971 0
6 2 S106 814 107500 6785 0
0 0 0 809 108309 -10758 0
0 0 0 806 109115 -9952 0
0 0 0 808 109923 -9144 0
0 0 0 804 110727 -8340 0
0 0 0 800 111527 -7540 0
0 0 0 785 112312 -6755 0
0 0 0 783 113095 -5972 0
0 0 0 785 113880 -5187 0
0 0 0 786 114666 -4401 0
0 0 0 785 115451 -3616 0
0 0 0 791 116242 -2825 0
0 0 0 799 117041 -2026 0
7 1 S102 808 117849 -1218 0
7 1 S102 798 118647 -420 0
7 2 S102 795 119442 375 0
7 2 S102 794 120236 1169 0
7 2 S102 799 121035 1968 0
7 2 S102 804 121839 2772 0
7 2 S102 810 122649 3582 0
7 2 S102 810 123459 4392 0
7 2 S102 802 124261 5194 0
7 2 S102 800 125061 5994 0
7 2 S102 798 125859 6792 0
0 0 0 800 126659 -7976 0
0 0 0 812 127471 -7164 0
0 0 0 813 128284 -6351 0
0 0 0 797 129081 -5554 0
0 0 0 780 129861 -4774 0
0 0 0 761 130622 -4013 0
0 0 0 758 131380 -3255 0
0 0 0 754 132134 -2501 0
8 1 S112 751 132885 -1750 0
8 1 S112 755 133640 -995 0
8 1 S112 770 134410 -225 0
8 2 S112 784 135194 559 0
8 2 S112 801 135995 1360 0
8 2 S112 818 136813 2178 0
8 2 S112 816 137629 2994 0
8 2 S112 815 138444 3809 0
8 2 S112 811 139255 4620 0
8 2 S112 812 140067 5432 0
8 2 S112 813 140880 6245 0
0 0 0 803 141683 -7176 0
0 0 0 796 142479 -6380 0
0 0 0 792 143271 -5588 0
0 0 0 789 144060 -4799 0
0 0 0 784 144844 -4015 0
0 0 0 771 145615 -3244 0
0 0 0 759 146374 -2485 0
9 1 S116 757 147131 -1728 0
9 1 S116 761 147892 -967 0
9 1 S116 766 148658 -201 0
9 2 S116 767 149425 566 0
9 2 S116 748 150173 1314 0
9 2 S116 775 150948 2089 0
9 2 S116 781 151729 2870 0
9 2 S116 794 152523 3664 0
9 2 S116 799 153322 4463 0
9 2 S116 809 154131 5272 0
9 2 S116 802 154933 6074 0
9 2 S116 802 155735 6876 0
0 0 0 796 156531 -9768 0
0 0 0 800 157331 -8968 0
0 0 0 793 158124 -8175 0
0 0 0 785 158909 -7390 0
0 0 0 784 159693 -6606 0
0 0 0 789 160482 -5817 0
0 0 0 795 161277 -5022 0
0 0 0 801 162078 -4221 0
0 0 0 798 162876 -3423 0
0 0 0 796 163672 -2627 0
10 1 S102 797 164469 -1830 0
10 1 S102 794 165263 -1036 0
10 1 S102 785 166048 -251 0
10 2 S102 783 166831 532 0
10 2 S102 801 167632 1333 0
10 2 S102 805 168437 2138 0
10 2 S102 814 169251 2952 0
10 2 S102 814 170065 3766 0
10 2 S102 815 170880 4581 0
10 2 S102 818 171698 5399 0
10 2 S102 816 172514 6215 0
10 2 S102 811 173325 7026 0
0 0 0 812 174137 -10166 0
0 0 0 810 174947 -9356 0
0 0 0 803 175750 -8553 0
0 0 0 784 176534 -7769 0
0 0 0 779 177313 -6990 0
0 0 0 776 178089 -6214 0
0 0 0 779 178868 -5435 0
0 0 0 785 179653 -4650 0
0 0 0 788 180441 -3862 0
0 0 0 794 181235 -3068 0
0 0 0 805 182040 -2263 0
11 1 S112 802 182842 -1461 0
11 1 S112 798 183640 -663 0
11 2 S112 791 184431 128 0
11 2 S112 787 185218 915 0
11 2 S112 790 186008 1705 0
11 2 S112 796 186804 2501 0
11 2 S112 800 187604 3301 0
11 2 S112 798 188402 4099 0
11 2 S112 801 189203 4900 0
11 2 S112 800 190003 5700 0
11 2 S112 802 190805 6502 0
0 0 0 794 191599 -6183 0
0 0 0 799 192398 -5384 0
0 0 0 797 193195 -4587 0
0 0 0 780 193975 -3807 0
0 0 0 760 194735 -3047 0
0 0 0 746 195481 -2301 0
12 1 S116 736 196217 -1565 0
12 1 S116 728 196945 -837 0
12 1 S116 718 197663 -119 0
12 2 S116 736 198399 617 0
12 2 S116 755 199154 1372 0
12 2 S116 771 199925 2143 0
12 2 S116 795 200720 2938 0
12 2 S116 814 201534 3752 0
12 2 S116 836 202370 4588 0
12 2 S116 840 203210 5428 0
12 2 S116 840 204050 6268 0
0 0 0 840 204890 -10465 0
0 0 0 829 205719 -9636 0
0 0 0 821 206540 -8815 0
0 0 0 802 207342 -8013 0
0 0 0 777 208119 -7236 0
0 0 0 763 208882 -6473 0
0 0 0 764 209646 -5709 0
0 0 0 767 210413 -4942 0
0 0 0 774 211187 -4168 0
0 0 0 777 211964 -3391 0
0 0 0 782 212746 -2609 0
13 1 S112 794 213540 -1815 0
13 1 S112 798 214338 -1017 0
13 1 S112 804 215142 -213 0
13 2 S112 812 215954 599 0
13 2 S112 816 216770 1415 0
13 2 S112 822 217592 2237 0
13 2 S112 819 218411 3056 0
13 2 S112 815 219226 3871 0
13 2 S112 815 220041 4686 0
13 2 S112 815 220856 5501 0
13 2 S112 818 221674 6319 0
0 0 0 815 222489 -10240 0
0 0 0 806 223295 -9434 0
0 0 0 795 224090 -8639 0
0 0 0 799 224889 -7840 0
0 0 0 788 225677 -7052 0
0 0 0 771 226448 -6281 0
0 0 0 761 227209 -5520 0
0 0 0 757 227966 -4763 0
0 0 0 768 228734 -3995 0
0 0 0 781 229515 -3214 0
0 0 0 799 230314 -2415 0
14 1 S106 815 231129 -1600 0
14 1 S106 818 231947 -782 0
14 2 S106 821 232768 39 0
14 2 S106 831 233599 870 0
14 2 S106 837 234436 1707 0
14 2 S106 847 235283 2554 0
14 2 S106 850 236133 3404 0
14 2 S106 835 236968 4239 0
14 2 S106 827 237795 5066 0
14 2 S106 822 238617 5888 0
14 2 S106 822 239439 6710 0
0 0 0 819 240258 -10143 0
0 0 0 824 241082 -9319 0
0 0 0 822 241904 -8497 0
0 0 0 818 242722 -7679 0
0 0 0 798 243520 -6881 0
0 0 0 785 244305 -6096 0
0 0 0 778 245083 -5318 0
0 0 0 775 245858 -4543 0
0 0 0 782 246640 -3761 0
0 0 0 794 247434 -2967 0
0 0 0 798 248232 -2169 0
15 1 S116 807 249039 -1362 0
15 1 S116 819 249858 -543 0
15 2 S116 825 250683 282 0
15 2 S116 829 251512 1111 0
15 2 S116 823 252335 1934 0
15 2 S116 823 253158 2757 0
15 2 S116 828 253986 3585 0
15 2 S116 827 254813 4412 0
15 2 S116 822 255635 5234 0
15 2 S116 813 256448 6047 0
15 2 S116 803 257251 6850 0
0 0 0 804 258055 -7914 0
0 0 0 801 258856 -7113 0
0 0 0 805 259661 -6308 0
0 0 0 796 260457 -5512 0
0 0 0 784 261241 -4728 0
0 0 0 783 262024 -3945 0
0 0 0 787 262811 -3158 0
0 0 0 787 263598 -2371 0
16 1 S116 791 264389 -1580 0
16 1 S116 782 265171 -798 0
16 1 S116 771 265942 -27 0
16 2 S116 769 266711 742 0
16 2 S116 771 267482 1513 0
16 2 S116 751 268233 2264 0
16 2 S116 765 268998 3029 0
16 2 S116 771 269769 3800 0
16 2 S116 772 270541 4572 0
16 2 S116 772 271313 5344 0
16 2 S116 773 272086 6117 0
16 2 S116 780 272866 6897 0
0 0 0 785 273651 -7752 0
0 0 0 790 274441 -6962 0
0 0 0 790 275231 -6172 0
0 0 0 783 276014 -5389 0
0 0 0 779 276793 -4610 0
0 0 0 774 277567 -3836 0
0 0 0 780 278347 -3056 0
0 0 0 780 279127 -2276 0
17 1 S106 782 279909 -1494 0
17 1 S106 788 280697 -706 0
17 2 S106 798 281495 92 0
17 2 S106 807 282302 899 0
17 2 S106 814 283116 1713 0
17 2 S106 819 283935 2532 0
17 2 S106 816 284751 3348 0
17 2 S106 805 285556 4153 0
17 2 S106 806 286362 4959 0
17 2 S106 803 287165 5762 0
17 2 S106 803 287968 6565 0
0 0 0 808 288776 -10217 0
0 0 0 815 289591 -9402 0
0 0 0 813 290404 -8589 0
0 0 0 809 291213 -7780 0
0 0 0 792 292005 -6988 0
0 0 0 784 292789 -6204 0
0 0 0 777 293566 -5427 0
0 0 0 779 294345 -4648 0
0 0 0 794 295139 -3854 0
0 0 0 803 295942 -3051 0
0 0 0 811 296753 -2240 0
18 1 S102 812 297565 -1428 0
18 1 S102 805 298370 -623 0
18 2 S102 800 299170 177 0
18 2 S102 785 299955 962 0
18 2 S102 777 300732 1739 0
18 2 S102 774 301506 2513 0
18 2 S102 779 302285 3292 0
18 2 S102 781 303066 4073 0
18 2 S102 782 303848 4855 0
18 2 S102 783 304631 5638 0
18 2 S102 785 305416 6423 0
0 0 0 785 306201 -6751 0
0 0 0 791 306992 -5960 0
0 0 0 811 307803 -5149 0
0 0 0 808 308611 -4341 0
0 0 0 792 309403 -3549 0
0 0 0 781 310184 -2768 0
0 0 0 759 310943 -2009 0
19 1 S106 748 311691 -1261 0
19 1 S106 755 312446 -506 0
19 2 S106 748 313194 242 0
19 2 S106 745 313939 987 0
19 2 S106 735 314674 1722 0
19 2 S106 751 315425 2473 0
19 2 S106 765 316190 3238 0
19 2 S106 770 316960 4008 0
19 2 S106 786 317746 4794 0
19 2 S106 801 318547 5595 0
19 2 S106 807 319354 6402 0
0 0 0 803 320157 -11164 0
0 0 0 804 320961 -10360 0
0 0 0 800 321761 -9560 0
0 0 0 795 322556 -8765 0
0 0 0 784 323340 -7981 0
0 0 0 762 324102 -7219 0
0 0 0 751 324853 -6468 0
0 0 0 744 325597 -5724 0
0 0 0 750 326347 -4974 0
0 0 0 776 327123 -4198 0
0 0 0 793 327916 -3405 0
0 0 0 833 328749 -2572 0
20 1 S112 821 329570 -1751 0
20 1 S112 809 330379 -942 0
20 1 S112 799 331178 -143 0
20 2 S112 793 331971 650 0
20 2 S112 793 332764 1443 0
20 2 S112 798 333562 2241 0
20 2 S112 803 334365 3044 0
20 2 S112 813 335178 3857 0
20 2 S112 820 335998 4677 0
20 2 S112 818 336816 5495 0
20 2 S112 815 337631 6310 0
0 0 0 811 338442 -8960 0
0 0 0 810 339252 -8150 0
0 0 0 806 340058 -7344 0
0 0 0 804 340862 -6540 0
0 0 0 793 341655 -5747 0
0 0 0 783 342438 -4964 0
0 0 0 774 343212 -4190 0
0 0 0 769 343981 -3421 0
0 0 0 783 344764 -2638 0
21 1 S106 797 345561 -1841 0
21 1 S106 819 346380 -1022 0
21 1 S106 824 347204 -198 0
21 2 S106 824 348028 626 0
21 2 S106 819 348847 1445 0
21 2 S106 803 349650 2248 0
21 2 S106 778 350428 3026 0
21 2 S106 761 351189 3787 0
21 2 S106 742 351931 4529 0
21 2 S106 726 352657 5255 0
21 2 S106 711 353368 5966 0
21 2 S106 701 354069 6667 0
0 0 0 713 354782 -10160 0
0 0 0 768 355550 -9392 0
0 0 0 813 356363 -8579 0
0 0 0 822 357185 -7757 0
0 0 0 819 358004 -6938 0
0 0 0 826 358830 -6112 0
0 0 0 827 359657 -5285 0
0 0 0 808 360465 -4477 0
0 0 0 781 361246 -3696 0
0 0 0 756 362002 -2940 0
0 0 0 760 362762 -2180 0
22 1 S116 757 363519 -1423 0
22 1 S116 777 364296 -646 0
22 2 S116 791 365087 145 0
22 2 S116 811 365898 956 0
22 2 S116 836 366734 1792 0
22 2 S116 859 367593 2651 0
22 2 S116 873 368466 3524 1
22 2 S116 879 369345 4403 1
22 2 S116 872 370217 5275 1
22 2 S116 858 371075 6133 0
22 2 S116 856 371931 6989 0
0 0 0 854 372785 -9083 0
0 0 0 848 373633 -8235 0
0 0 0 859 374492 -7376 0
0 0 0 854 375346 -6522 0
0 0 0 835 376181 -5687 0
0 0 0 814 376995 -4873 0
0 0 0 809 377804 -4064 0
0 0 0 809 378613 -3255 0
0 0 0 811 379424 -2444 0
23 1 S112 803 380227 -1641 0
23 1 S112 800 381027 -841 0
23 1 S112 805 381832 -36 0
23 2 S112 810 382642 774 0
23 2 S112 820 383462 1594 0
23 2 S112 811 384273 2405 0
23 2 S112 817 385090 3222 0
23 2 S112 830 385920 4052 0
23 2 S112 844 386764 4896 0
23 2 S112 855 387619 5751 0
23 2 S112 859 388478 6610 0
0 0 0 853 389331 -8088 0
0 0 0 832 390163 -7256 0
0 0 0 823 390986 -6433 0
0 0 0 812 391798 -5621 0
0 0 0 796 392594 -4825 0
0 0 0 781 393375 -4044 0
0 0 0 765 394140 -3279 0
0 0 0 770 394910 -2509 0
24 1 S106 782 395692 -1727 0
24 1 S106 793 396485 -934 0
24 1 S106 814 397299 -120 0
24 2 S106 824 398123 704 0
24 2 S106 826 398949 1530 0
24 2 S106 837 399786 2367 0
24 2 S106 840 400626 3207 0
24 2 S106 839 401465 4046 0
24 2 S106 822 402287 4868 0
24 2 S106 803 403090 5671 0
24 2 S106 791 403881 6462 0
0 0 0 779 404660 -8690 0
0 0 0 785 405445 -7905 0
0 0 0 788 406233 -7117 0
0 0 0 788 407021 -6329 0
0 0 0 772 407793 -5557 0
0 0 0 755 408548 -4802 0
0 0 0 738 409286 -4064 0
0 0 0 721 410007 -3343 0
0 0 0 706 410713 -2637 0
25 1 S102 693 411406 -1944 0
25 1 S102 679 412085 -1265 0
25 1 S102 670 412755 -595 1
25 2 S102 667 413422 72 1
25 2 S102 688 414110 760 0
25 2 S102 721 414831 1481 0
25 2 S102 722 415553 2203 0
25 2 S102 737 416290 2940 0
25 2 S102 786 417076 3726 0
25 2 S102 817 417893 4543 0
25 2 S102 819 418712 5362 0
25 2 S102 819 419531 6181 0
25 2 S102 815 420346 6996 0
0 0 0 820 421166 -6624 0
0 0 0 822 421988 -5802 0
0 0 0 821 422809 -4981 0
0 0 0 814 423623 -4167 0
0 0 0 802 424425 -3365 0
0 0 0 768 425193 -2597 0
26 1 S116 772 425965 -1825 0
26 1 S116 769 426734 -1056 0
26 1 S116 764 427498 -292 0
26 2 S116 768 428266 476 0
26 2 S116 787 429053 1263 0
26 2 S116 813 429866 2076 0
26 2 S116 842 430708 2918 0
26 2 S116 868 431576 3786 1
26 2 S116 886 432462 4672 1
26 2 S116 892 433354 5564 1
26 2 S116 877 434231 6441 1
0 0 0 846 435077 -6424 0
0 0 0 824 435901 -5600 0
0 0 0 813 436714 -4787 0
0 0 0 790 437504 -3997 0
0 0 0 788 438292 -3209 0
0 0 0 776 439068 -2433 0
27 1 S106 771 439839 -1662 0
27 1 S106 781 440620 -881 0
27 1 S106 795 441415 -86 0
27 2 S106 805 442220 719 0
27 2 S106 818 443038 1537 0
27 2 S106 816 443854 2353 0
27 2 S106 816 444670 3169 0
27 2 S106 819 445489 3988 0
27 2 S106 817 446306 4805 0
27 2 S106 814 447120 5619 0
27 2 S106 813 447933 6432 0
0 0 0 798 448731 -7425 0
0 0 0 789 449520 -6636 0
0 0 0 791 450311 -5845 0
0 0 0 798 451109 -5047 0
0 0 0 795 451904 -4252 0
0 0 0 784 452688 -3468 0
0 0 0 778 453466 -2690 0
28 1 S102 764 454230 -1926 0
28 1 S102 762 454992 -1164 0
28 1 S102 763 455755 -401 0
28 2 S102 762 456517 361 0
28 2 S102 764 457281 1125 0
28 2 S102 772 458053 1897 0
28 2 S102 780 458833 2677 0
28 2 S102 788 459621 3465 0
28 2 S102 795 460416 4260 0
28 2 S102 803 461219 5063 0
28 2 S102 792 462011 5855 0
28 2 S102 777 462788 6632 0
0 0 0 752 463540 -10222 0
0 0 0 730 464270 -9492 0
0 0 0 713 464983 -8779 0
0 0 0 699 465682 -8080 0
0 0 0 688 466370 -7392 0
0 0 0 680 467050 -6712 0
0 0 0 680 467730 -6032 0
0 0 0 683 468413 -5349 0
0 0 0 694 469107 -4655 0
0 0 0 692 469799 -3963 0
0 0 0 726 470525 -3237 0
0 0 0 759 471284 -2478 0
29 1 S112 747 472031 -1731 0
29 1 S112 756 472787 -975 0
29 1 S112 758 473545 -217 0
29 2 S112 765 474310 548 0
29 2 S112 786 475096 1334 0
29 2 S112 799 475895 2133 0
29 2 S112 817 476712 2950 0
29 2 S112 821 477533 3771 0
29 2 S112 810 478343 4581 0
29 2 S112 811 479154 5392 0
29 2 S112 812 479966 6204 0
29 2 S112 809 480775 7013 0
0 0 0 812 481587 -5952 0
0 0 0 818 482405 -5134 0
0 0 0 822 483227 -4312 0
0 0 0 823 484050 -3489 0
0 0 0 818 484868 -2671 0
30 1 S112 815 485683 -1856 0
30 1 S112 799 486482 -1057 0
30 1 S112 781 487263 -276 0
30 2 S112 771 488034 495 0
30 2 S112 774 488808 1269 0
30 2 S112 788 489596 2057 0
30 2 S112 793 490389 2850 0
30 2 S112 796 491185 3646 0
30 2 S112 799 491984 4445 0
30 2 S112 799 492783 5244 0
30 2 S112 792 493575 6036 0
30 2 S112 786 494361 6822 0
0 0 0 766 495127 -9736 0
0 0 0 752 495879 -8984 0
0 0 0 736 496615 -8248 0
0 0 0 723 497338 -7525 0
0 0 0 707 498045 -6818 0
0 0 0 696 498741 -6122 0
0 0 0 691 499432 -5431 0
0 0 0 690 500122 -4741 0
0 0 0 701 500823 -4040 0
0 0 0 740 501563 -3300 0
0 0 0 752 502315 -2548 0
31 1 S106 753 503068 -1795 0
31 1 S106 751 503819 -1044 0
31 1 S106 763 504582 -281 0
31 2 S106 757 505339 476 0
31 2 S106 756 506095 1232 0
31 2 S106 744 506839 1976 0
31 2 S106 731 507570 2707 0
31 2 S106 724 508294 3431 0
31 2 S106 735 509029 4166 0
31 2 S106 754 509783 4920 0
31 2 S106 773 510556 5693 0
31 2 S106 780 511336 6473 0
0 0 0 765 512101 -8943 0
0 0 0 772 512873 -8171 0
0 0 0 770 513643 -7401 0
0 0 0 773 514416 -6628 0
0 0 0 762 515178 -5866 0
0 0 0 747 515925 -5119 0
0 0 0 737 516662 -4382 0
0 0 0 730 517392 -3652 0
0 0 0 735 518127 -2917 0
0 0 0 739 518866 -2178 0
32 1 S102 751 519617 -1427 0
32 1 S102 745 520362 -682 0
32 2 S102 753 521115 71 0
32 2 S102 759 521874 830 0
32 2 S102 768 522642 1598 0
32 2 S102 772 523414 2370 0
32 2 S102 785 524199 3155 0
32 2 S102 793 524992 3948 0
32 2 S102 784 525776 4732 0
32 2 S102 775 526551 5507 0
32 2 S102 767 527318 6274 0
0 0 0 770 528088 -10811 0
0 0 0 768 528856 -10043 0
0 0 0 772 529628 -9271 0
0 0 0 778 530406 -8493 0
0 0 0 773 531179 -7720 0
0 0 0 774 531953 -6946 0
0 0 0 771 532724 -6175 0
0 0 0 767 533491 -5408 0
0 0 0 767 534258 -4641 0
0 0 0 767 535025 -3874 0
0 0 0 763 535788 -3111 0
0 0 0 762 536550 -2349 0
33 1 S112 763 537313 -1586 0
33 1 S112 751 538064 -835 0
33 1 S112 749 538813 -86 0
33 2 S112 745 539558 659 0
33 2 S112 761 540319 1420 0
33 2 S112 770 541089 2190 0
33 2 S112 788 541877 2978 0
33 2 S112 799 542676 3777 0
33 2 S112 816 543492 4593 0
33 2 S112 813 544305 5406 0
33 2 S112 812 545117 6218 0
0 0 0 811 545928 -10743 0
0 0 0 803 546731 -9940 0
0 0 0 793 547524 -9147 0
0 0 0 786 548310 -8361 0
0 0 0 760 549070 -7601 0
0 0 0 743 549813 -6858 0
0 0 0 740 550553 -6118 0
0 0 0 749 551302 -5369 0
0 0 0 754 552056 -4615 0
0 0 0 756 552812 -3859 0
0 0 0 763 553575 -3096 0
0 0 0 772 554347 -2324 0
34 1 S106 790 555137 -1534 0
34 1 S106 806 555943 -728 0
34 2 S106 818 556761 90 0
34 2 S106 804 557565 894 0
34 2 S106 799 558364 1693 0
34 2 S106 797 559161 2490 0
34 2 S106 790 559951 3280 0
34 2 S106 783 560734 4063 0
34 2 S106 770 561504 4833 0
34 2 S106 764 562268 5597 0
34 2 S106 766 563034 6363 0
0 0 0 764 563798 -8987 0
0 0 0 751 564549 -8236 0
0 0 0 742 565291 -7494 0
0 0 0 733 566024 -6761 0
0 0 0 720 566744 -6041 0
0 0 0 709 567453 -5332 0
0 0 0 699 568152 -4633 0
0 0 0 689 568841 -3944 0
0 0 0 676 569517 -3268 1
0 0 0 679 570196 -2589 0
35 1 S102 677 570873 -1912 0
35 1 S102 707 571580 -1205 0
35 1 S102 761 572341 -444 0
35 2 S102 780 573121 336 0
35 2 S102 788 573909 1124 0
35 2 S102 809 574718 1933 0
35 2 S102 818 575536 2751 0
35 2 S102 819 576355 3570 0
35 2 S102 808 577163 4378 0
35 2 S102 782 577945 5160 0
35 2 S102 766 578711 5926 0
35 2 S102 770 579481 6696 0
0 0 0 770 580251 -7189 0
0 0 0 763 581014 -6426 0
0 0 0 774 581788 -5652 0
0 0 0 783 582571 -4869 0
0 0 0 797 583368 -4072 0
0 0 0 802 584170 -3270 0
0 0 0 800 584970 -2470 0
36 1 S106 794 585764 -1676 0
36 1 S106 788 586552 -888 0
36 1 S106 794 587346 -94 0
36 2 S106 811 588157 717 0
36 2 S106 819 588976 1536 0
36 2 S106 814 589790 2350 0
36 2 S106 812 590602 3162 0
36 2 S106 821 591423 3983 0
36 2 S106 818 592241 4801 0
36 2 S106 820 593061 5621 0
36 2 S106 813 593874 6434 0
0 0 0 795 594669 -8653 0
0 0 0 793 595462 -7860 0
0 0 0 790 596252 -7070 0
0 0 0 789 597041 -6281 0
0 0 0 798 597839 -5483 0
0 0 0 799 598638 -4684 0
0 0 0 794 599432 -3890 0
0 0 0 794 600226 -3096 0
0 0 0 784 601010 -2312 0
37 1 S116 775 601785 -1537 0
37 1 S116 753 602538 -784 0
37 1 S116 747 603285 -37 0
37 2 S116 737 604022 700 0
37 2 S116 736 604758 1436 0
37 2 S116 751 605509 2187 0
37 2 S116 766 606275 2953 0
37 2 S116 765 607040 3718 0
37 2 S116 771 607811 4489 0
37 2 S116 782 608593 5271 0
37 2 S116 790 609383 6061 0
37 2 S116 805 610188 6866 0
0 0 0 804 610992 -10086 0
0 0 0 793 611785 -9293 0
0 0 0 797 612582 -8496 0
0 0 0 788 613370 -7708 0
0 0 0 774 614144 -6934 0
0 0 0 769 614913 -6165 0
0 0 0 752 615665 -5413 0
0 0 0 739 616404 -4674 0
0 0 0 729 617133 -3945 0
0 0 0 715 617848 -3230 0
0 0 0 704 618552 -2526 0
38 1 S102 692 619244 -1834 0
38 1 S102 685 619929 -1149 0
38 1 S102 678 620607 -471 0
38 2 S102 682 621289 211 0
38 2 S102 716 622005 927 0
38 2 S102 760 622765 1687 0
38 2 S102 782 623547 2469 0
38 2 S102 779 624326 3248 0
38 2 S102 781 625107 4029 0
38 2 S102 799 625906 4828 0
38 2 S102 808 626714 5636 0
38 2 S102 813 627527 6449 0
0 0 0 818 628345 -8200 0
0 0 0 816 629161 -7384 0
0 0 0 803 629964 -6581 0
0 0 0 778 630742 -5803 0
0 0 0 746 631488 -5057 0
0 0 0 737 632225 -4320 0
0 0 0 731 632956 -3589 0
0 0 0 731 633687 -2858 0
0 0 0 751 634438 -2107 0
39 1 S116 752 635190 -1355 0
39 1 S116 733 635923 -622 0
39 2 S116 742 636665 120 0
39 2 S116 745 637410 865 0
39 2 S116 752 638162 1617 0
39 2 S116 772 638934 2389 0
39 2 S116 790 639724 3179 0
39 2 S116 806 640530 3985 0
39 2 S116 825 641355 4810 0
39 2 S116 834 642189 5644 0
39 2 S116 829 643018 6473 0
0 0 0 821 643839 -7461 0
0 0 0 815 644654 -6646 0
0 0 0 803 645457 -5843 0
0 0 0 795 646252 -5048 0
0 0 0 782 647034 -4266 0
0 0 0 749 647783 -3517 0
0 0 0 734 648517 -2783 0
0 0 0 723 649240 -2060 0
40 1 S112 711 649951 -1349 0
40 1 S112 715 650666 -634 0
40 2 S112 740 651406 106 0
40 2 S112 771 652177 877 0
40 2 S112 792 652969 1669 0
40 2 S112 813 653782 2482 0
40 2 S112 807 654589 3289 0
40 2 S112 790 655379 4079 0
40 2 S112 763 656142 4842 0
40 2 S112 748 656890 5590 0
40 2 S112 731 657621 6321 0
0 0 0 715 658336 -187313 0
0 0 0 703 659039 -186610 0
0 0 0 692 659731 -185918 0
0 0 0 699 660430 -185219 0
0 0 0 749 661179 -184470 0
0 0 0 783 661962 -183687 0
0 0 0 796 662758 -182891 0
0 0 0 793 663551 -182098 0
0 0 0 800 664351 -181298 0
0 0 0 800 665151 -180498 0
0 0 0 799 665950 -179699 0
0 0 0 800 666750 -178899 0
0 0 0 801 667551 -178098 0
0 0 0 800 668351 -177298 0
0 0 0 794 669145 -176504 0
0 0 0 791 669936 -175713 0
0 0 0 779 670715 -174934 0
0 0 0 765 671480 -174169 0
0 0 0 762 672242 -173407 0
0 0 0 735 672977 -172672 0
0 0 0 720 673697 -171952 0
0 0 0 713 674410 -171239 0
0 0 0 707 675117 -170532 0
0 0 0 703 675820 -169829 0
0 0 0 704 676524 -169125 0
0 0 0 708 677232 -168417 0
0 0 0 718 677950 -167699 0
0 0 0 732 678682 -166967 0
0 0 0 739 679421 -166228 0
0 0 0 754 680175 -165474 0
0 0 0 754 680929 -164720 0
0 0 0 749 681678 -163971 0
0 0 0 743 682421 -163228 0
0 0 0 742 683163 -162486 0
0 0 0 738 683901 -161748 0
0 0 0 725 684626 -161023 0
0 0 0 727 685353 -160296 0
0 0 0 730 686083 -159566 0
0 0 0 726 686809 -158840 0
0 0 0 747 687556 -158093 0
0 0 0 760 688316 -157333 0
0 0 0 767 689083 -156566 0
0 0 0 785 689868 -155781 0
0 0 0 792 690660 -154989 0
0 0 0 790 691450 -154199 0
0 0 0 787 692237 -153412 0
0 0 0 787 693024 -152625 0
0 0 0 785 693809 -151840 0
0 0 0 785 694594 -151055 0
0 0 0 773 695367 -150282 0
0 0 0 759 696126 -149523 0
0 0 0 742 696868 -148781 0
0 0 0 737 697605 -148044 0
0 0 0 727 698332 -147317 0
0 0 0 720 699052 -146597 0
0 0 0 709 699761 -145888 0
0 0 0 702 700463 -145186 0
0 0 0 695 701158 -144491 0
0 0 0 690 701848 -143801 0
0 0 0 707 702555 -143094 0
0 0 0 715 703270 -142379 0
0 0 0 722 703992 -141657 0
0 0 0 728 704720 -140929 0
0 0 0 731 705451 -140198 0
0 0 0 728 706179 -139470 0
0 0 0 731 706910 -138739 0
0 0 0 720 707630 -138019 0
0 0 0 712 708342 -137307 0
0 0 0 714 709056 -136593 0
0 0 0 717 709773 -135876 0
0 0 0 726 710499 -135150 0
0 0 0 739 711238 -134411 0
0 0 0 751 711989 -133660 0
0 0 0 755 712744 -132905 0
0 0 0 747 713491 -132158 0
0 0 0 748 714239 -131410 0
0 0 0 741 714980 -130669 0
0 0 0 737 715717 -129932 0
0 0 0 736 716453 -129196 0
0 0 0 740 717193 -128456 0
0 0 0 745 717938 -127711 0
0 0 0 754 718692 -126957 0
0 0 0 763 719455 -126194 0
0 0 0 776 720231 -125418 0
0 0 0 787 721018 -124631 0
0 0 0 793 721811 -123838 0
0 0 0 799 722610 -123039 0
0 0 0 800 723410 -122239 0
0 0 0 787 724197 -121452 0
0 0 0 770 724967 -120682 0
0 0 0 757 725724 -119925 0
0 0 0 756 726480 -119169 0
0 0 0 757 727237 -118412 0
0 0 0 756 727993 -117656 0
0 0 0 759 728752 -116897 0
0 0 0 765 729517 -116132 0
0 0 0 768 730285 -115364 0
0 0 0 770 731055 -114594 0
0 0 0 775 731830 -113819 0
0 0 0 772 732602 -113047 0
0 0 0 769 733371 -112278 0
0 0 0 758 734129 -111520 0
0 0 0 757 734886 -110763 0
0 0 0 754 735640 -110009 0
0 0 0 757 736397 -109252 0
0 0 0 759 737156 -108493 0
0 0 0 762 737918 -107731 0
0 0 0 770 738688 -106961 0
0 0 0 776 739464 -106185 0
0 0 0 778 740242 -105407 0
0 0 0 780 741022 -104627 0
0 0 0 773 741795 -103854 0
0 0 0 770 742565 -103084 0
0 0 0 761 743326 -102323 0
0 0 0 754 744080 -101569 0
0 0 0 747 744827 -100822 0
0 0 0 747 745574 -100075 0
0 0 0 752 746326 -99323 0
0 0 0 748 747074 -98575 0
0 0 0 741 747815 -97834 0
0 0 0 731 748546 -97103 0
0 0 0 722 749268 -96381 0
0 0 0 713 749981 -95668 0
0 0 0 705 750686 -94963 0
0 0 0 696 751382 -94267 0
0 0 0 689 752071 -93578 0
0 0 0 686 752757 -92892 0
0 0 0 678 753435 -92214 0
0 0 0 681 754116 -91533 0
0 0 0 682 754798 -90851 0
0 0 0 707 755505 -90144 0
0 0 0 729 756234 -89415 0
0 0 0 756 756990 -88659 0
0 0 0 767 757757 -87892 0
0 0 0 780 758537 -87112 0
0 0 0 786 759323 -86326 0
0 0 0 784 760107 -85542 0
0 0 0 777 760884 -84765 0
0 0 0 771 761655 -83994 0
0 0 0 765 762420 -83229 0
0 0 0 756 763176 -82473 0
0 0 0 743 763919 -81730 0
0 0 0 732 764651 -80998 0
0 0 0 724 765375 -80274 0
0 0 0 711 766086 -79563 0
0 0 0 707 766793 -78856 0
0 0 0 703 767496 -78153 0
0 0 0 700 768196 -77453 0
0 0 0 696 768892 -76757 0
0 0 0 706 769598 -76051 0
0 0 0 717 770315 -75334 0
0 0 0 729 771044 -74605 0
0 0 0 748 771792 -73857 0
0 0 0 761 772553 -73096 0
0 0 0 769 773322 -72327 0
0 0 0 776 774098 -71551 0
0 0 0 779 774877 -70772 0
0 0 0 776 775653 -69996 0
0 0 0 772 776425 -69224 0
0 0 0 761 777186 -68463 0
0 0 0 757 777943 -67706 0
0 0 0 751 778694 -66955 0
0 0 0 749 779443 -66206 0
0 0 0 738 780181 -65468 0
0 0 0 742 780923 -64726 0
0 0 0 743 781666 -63983 0
0 0 0 739 782405 -63244 0
0 0 0 729 783134 -62515 0
0 0 0 724 783858 -61791 0
0 0 0 707 784565 -61084 0
0 0 0 702 785267 -60382 0
0 0 0 707 785974 -59675 0
0 0 0 706 786680 -58969 0
0 0 0 712 787392 -58257 0
0 0 0 723 788115 -57534 0
0 0 0 737 788852 -56797 0
0 0 0 737 789589 -56060 0
0 0 0 740 790329 -55320 0
0 0 0 731 791060 -54589 0
0 0 0 721 791781 -53868 0
0 0 0 725 792506 -53143 0
0 0 0 716 793222 -52427 0
0 0 0 717 793939 -51710 0
0 0 0 721 794660 -50989 0
0 0 0 723 795383 -50266 0
0 0 0 729 796112 -49537 0
0 0 0 727 796839 -48810 0
0 0 0 725 797564 -48085 0
0 0 0 723 798287 -47362 0
0 0 0 721 799008 -46641 0
0 0 0 711 799719 -45930 0
0 0 0 713 800432 -45217 0
0 0 0 706 801138 -44511 0
0 0 0 700 801838 -43811 0
0 0 0 690 802528 -43121 0
0 0 0 681 803209 -42440 0
0 0 0 669 803878 -41771 1
0 0 0 669 804547 -41102 1
0 0 0 668 805215 -40434 1
0 0 0 668 805883 -39766 1
0 0 0 681 806564 -39085 0
0 0 0 700 807264 -38385 0
0 0 0 728 807992 -37657 0
0 0 0 735 808727 -36922 0
0 0 0 748 809475 -36174 0
0 0 0 761 810236 -35413 0
0 0 0 767 811003 -34646 0
0 0 0 774 811777 -33872 0
0 0 0 774 812551 -33098 0
0 0 0 766 813317 -32332 0
0 0 0 758 814075 -31574 0
0 0 0 754 814829 -30820 0
0 0 0 760 815589 -30060 0
0 0 0 762 816351 -29298 0
0 0 0 763 817114 -28535 0
0 0 0 767 817881 -27768 0
0 0 0 764 818645 -27004 0
0 0 0 762 819407 -26242 0
0 0 0 753 820160 -25489 0
0 0 0 752 820912 -24737 0
0 0 0 745 821657 -23992 0
0 0 0 736 822393 -23256 0
0 0 0 728 823121 -22528 0
0 0 0 719 823840 -21809 0
0 0 0 717 824557 -21092 0
0 0 0 718 825275 -20374 0
0 0 0 717 825992 -19657 0
0 0 0 726 826718 -18931 0
0 0 0 728 827446 -18203 0
0 0 0 734 828180 -17469 0
0 0 0 739 828919 -16730 0
0 0 0 740 829659 -15990 0
0 0 0 744 830403 -15246 0
0 0 0 744 831147 -14502 0
0 0 0 742 831889 -13760 0
0 0 0 735 832624 -13025 0
0 0 0 734 833358 -12291 0
0 0 0 731 834089 -11560 0
0 0 0 731 834820 -10829 0
0 0 0 734 835554 -10095 0
0 0 0 740 836294 -9355 0
0 0 0 737 837031 -8618 0
0 0 0 737 837768 -7881 0
0 0 0 734 838502 -7147 0
0 0 0 734 839236 -6413 0
0 0 0 731 839967 -5682 0
0 0 0 726 840693 -4956 0
0 0 0 725 841418 -4231 0
0 0 0 719 842137 -3512 0
0 0 0 714 842851 -2798 0
0 0 0 716 843567 -2082 0
41 1 S102 719 844286 -1363 0
41 1 S102 730 845016 -633 0
41 2 S102 746 845762 113 0
41 2 S102 759 846521 872 0
41 2 S102 768 847289 1640 0
41 2 S102 769 848058 2409 0
41 2 S102 766 848824 3175 0
41 2 S102 769 849593 3944 0
41 2 S102 796 850389 4740 0
41 2 S102 795 851184 5535 0
41 2 S102 801 851985 6336 0
0 0 0 815 852800 -7786 0
0 0 0 822 853622 -6964 0
0 0 0 808 854430 -6156 0
0 0 0 840 855270 -5316 0
0 0 0 806 856076 -4510 0
0 0 0 796 856872 -3714 0
0 0 0 785 857657 -2929 0
0 0 0 757 858414 -2172 0
42 1 S112 743 859157 -1429 0
42 1 S112 729 859886 -700 0
42 2 S112 723 860609 23 0
42 2 S112 737 861346 760 0
42 2 S112 772 862118 1532 0
42 2 S112 822 862940 2354 0
42 2 S112 852 863792 3206 0
42 2 S112 827 864619 4033 0
42 2 S112 808 865427 4841 0
42 2 S112 818 866245 5659 0
42 2 S112 821 867066 6480 0
0 0 0 823 867889 -9557 0
0 0 0 825 868714 -8732 0
0 0 0 805 869519 -7927 0
0 0 0 794 870313 -7133 0
0 0 0 787 871100 -6346 0
0 0 0 778 871878 -5568 0
0 0 0 763 872641 -4805 0
0 0 0 753 873394 -4052 0
0 0 0 747 874141 -3305 0
0 0 0 748 874889 -2557 0
43 1 S116 742 875631 -1815 0
43 1 S116 729 876360 -1086 0
43 1 S116 714 877074 -372 0
43 2 S116 717 877791 345 0
43 2 S116 719 878510 1064 0
43 2 S116 722 879232 1786 0
43 2 S116 719 879951 2505 0
43 2 S116 734 880685 3239 0
43 2 S116 745 881430 3984 0
43 2 S116 756 882186 4740 0
43 2 S116 764 882950 5504 0
43 2 S116 770 883720 6274 0
43 2 S116 755 884475 7029 0
0 0 0 754 885229 -6607 0
0 0 0 751 885980 -5856 0
0 0 0 751 886731 -5105 0
0 0 0 749 887480 -4356 0
0 0 0 734 888214 -3622 0
0 0 0 737 888951 -2885 0
0 0 0 736 889687 -2149 0
44 1 S102 745 890432 -1404 0
44 1 S102 750 891182 -654 0
44 2 S102 749 891931 95 0
44 2 S102 754 892685 849 0
44 2 S102 757 893442 1606 0
44 2 S102 759 894201 2365 0
44 2 S102 761 894962 3126 0
44 2 S102 752 895714 3878 0
44 2 S102 746 896460 4624 0
44 2 S102 742 897202 5366 0
44 2 S102 741 897943 6107 0
44 2 S102 740 898683 6847 0
0 0 0 734 899417 -7754 0
0 0 0 732 900149 -7022 0
0 0 0 722 900871 -6300 0
0 0 0 713 901584 -5587 0
0 0 0 702 902286 -4885 0
0 0 0 694 902980 -4191 0
0 0 0 683 903663 -3508 0
0 0 0 679 904342 -2829 0
0 0 0 681 905023 -2148 0
45 1 S116 681 905704 -1467 0
45 1 S116 701 906405 -766 0
45 1 S116 727 907132 -39 0
45 2 S116 733 907865 694 0
45 2 S116 749 908614 1443 0
45 2 S116 760 909374 2203 0
45 2 S116 778 910152 2981 0
45 2 S116 787 910939 3768 0
45 2 S116 795 911734 4563 0
45 2 S116 786 912520 5349 0
45 2 S116 776 913296 6125 0
45 2 S116 764 914060 6889 0
0 0 0 758 914818 -11170 0
0 0 0 768 915586 -10402 0
0 0 0 772 916358 -9630 0
0 0 0 783 917141 -8847 0
0 0 0 779 917920 -8068 0
0 0 0 771 918691 -7297 0
0 0 0 761 919452 -6536 0
0 0 0 753 920205 -5783 0
0 0 0 764 920969 -5019 0
0 0 0 762 921731 -4257 0
0 0 0 769 922500 -3488 0
0 0 0 775 923275 -2713 0
46 1 S102 776 924051 -1937 0
46 1 S102 779 924830 -1158 0
46 1 S102 771 925601 -387 0
46 2 S102 763 926364 376 0
46 2 S102 748 927112 1124 0
46 2 S102 743 927855 1867 0
46 2 S102 741 928596 2608 0
46 2 S102 739 929335 3347 0
46 2 S102 748 930083 4095 0
46 2 S102 754 930837 4849 0
46 2 S102 754 931591 5603 0
46 2 S102 766 932357 6369 0
0 0 0 768 933125 -8745 0
0 0 0 770 933895 -7975 0
0 0 0 767 934662 -7208 0
0 0 0 758 935420 -6450 0
0 0 0 746 936166 -5704 0
0 0 0 737 936903 -4967 0
0 0 0 726 937629 -4241 0
0 0 0 717 938346 -3524 0
0 0 0 710 939056 -2814 0
0 0 0 708 939764 -2106 0
47 1 S112 712 940476 -1394 0
47 1 S112 712 941188 -682 0
47 2 S112 725 941913 43 0
47 2 S112 731 942644 774 0
47 2 S112 739 943383 1513 0
47 2 S112 742 944125 2255 0
47 2 S112 753 944878 3008 0
47 2 S112 769 945647 3777 0
47 2 S112 793 946440 4570 0
47 2 S112 808 947248 5378 0
47 2 S112 826 948074 6204 0
0 0 0 836 948910 -11610 0
0 0 0 837 949747 -10773 0
0 0 0 837 950584 -9936 0
0 0 0 831 951415 -9105 0
0 0 0 811 952226 -8294 0
0 0 0 799 953025 -7495 0
0 0 0 784 953809 -6711 0
0 0 0 778 954587 -5933 0
0 0 0 772 955359 -5161 0
0 0 0 774 956133 -4387 0
0 0 0 776 956909 -3611 0
0 0 0 788 957697 -2823 0
0 0 0 792 958489 -2031 0
48 1 S116 799 959288 -1232 0
48 1 S116 791 960079 -441 0
48 2 S116 787 960866 346 0
48 2 S116 780 961646 1126 0
48 2 S116 783 962429 1909 0
48 2 S116 774 963203 2683 0
48 2 S116 777 963980 3460 0
48 2 S116 782 964762 4242 0
48 2 S116 785 965547 5027 0
48 2 S116 784 966331 5811 0
48 2 S116 790 967121 6601 0
0 0 0 788 967909 -6338 0
0 0 0 781 968690 -5557 0
0 0 0 774 969464 -4783 0
0 0 0 767 970231 -4016 0
0 0 0 756 970987 -3260 0
0 0 0 745 971732 -2515 0
49 1 S112 736 972468 -1779 0
49 1 S112 729 973197 -1050 0
49 1 S112 732 973929 -318 0
49 2 S112 737 974666 419 0
49 2 S112 743 975409 1162 0
49 2 S112 748 976157 1910 0
49 2 S112 746 976903 2656 0
49 2 S112 742 977645 3398 0
49 2 S112 747 978392 4145 0
49 2 S112 751 979143 4896 0
49 2 S112 754 979897 5650 0
49 2 S112 748 980645 6398 0
0 0 0 746 981391 -10711 0
0 0 0 748 982139 -9963 0
0 0 0 745 982884 -9218 0
0 0 0 750 983634 -8468 0
0 0 0 751 984385 -7717 0
0 0 0 747 985132 -6970 0
0 0 0 744 985876 -6226 0
0 0 0 745 986621 -5481 0
0 0 0 747 987368 -4734 0
0 0 0 752 988120 -3982 0
0 0 0 759 988879 -3223 0
0 0 0 765 989644 -2458 0
50 1 S106 772 990416 -1686 0
50 1 S106 766 991182 -920 0
50 1 S106 753 991935 -167 0
50 2 S106 733 992668 566 0
50 2 S106 720 993388 1286 0
50 2 S106 709 994097 1995 0
50 2 S106 703 994800 2698 0
50 2 S106 695 995495 3393 0
50 2 S106 691 996186 4084 0
50 2 S106 686 996872 4770 0
50 2 S106 687 997559 5457 0
50 2 S106 701 998260 6158 0
50 2 S106 710 998970 6868 0
0 0 0 722 999692 -5805 0
0 0 0 732 1000424 -5073 0
0 0 0 731 1001155 -4342 0
0 0 0 736 1001891 -3606 0
0 0 0 712 1002603 -2894 0
0 0 0 716 1003319 -2178 0
51 1 S112 715 1004034 -1463 0
51 1 S112 710 1004744 -753 0
51 1 S112 708 1005452 -45 0
51 2 S112 711 1006163 666 0
51 2 S112 731 1006894 1397 0
51 2 S112 747 1007641 2144 0
51 2 S112 776 1008417 2920 0
51 2 S112 800 1009217 3720 0
51 2 S112 810 1010027 4530 0
51 2 S112 824 1010851 5354 0
51 2 S112 808 1011659 6162 0
51 2 S112 798 1012457 6960 0
0 0 0 782 1013239 -5985 0
0 0 0 764 1014003 -5221 0
0 0 0 759 1014762 -4462 0
0 0 0 752 1015514 -3710 0
0 0 0 756 1016270 -2954 0
0 0 0 755 1017025 -2199 0
52 1 S116 744 1017769 -1455 0
52 1 S116 747 1018516 -708 0
52 2 S116 747 1019263 39 0
52 2 S116 750 1020013 789 0
52 2 S116 751 1020764 1540 0
52 2 S116 767 1021531 2307 0
52 2 S116 777 1022308 3084 0
52 2 S116 792 1023100 3876 0
52 2 S116 807 1023907 4683 0
52 2 S116 804 1024711 5487 0
52 2 S116 810 1025521 6297 0
0 0 0 805 1026326 -9013 0
0 0 0 798 1027124 -8215 0
0 0 0 792 1027916 -7423 0
0 0 0 785 1028701 -6638 0
0 0 0 772 1029473 -5866 0
0 0 0 753 1030226 -5113 0
0 0 0 743 1030969 -4370 0
0 0 0 734 1031703 -3636 0
0 0 0 726 1032429 -2910 0
0 0 0 717 1033146 -2193 0
53 1 S106 714 1033860 -1479 0
53 1 S106 719 1034579 -760 0
53 1 S106 721 1035300 -39 0
53 2 S106 728 1036028 689 0
53 2 S106 747 1036775 1436 0
53 2 S106 763 1037538 2199 0
53 2 S106 768 1038306 2967 0
53 2 S106 781 1039087 3748 0
53 2 S106 783 1039870 4531 0
53 2 S106 784 1040654 5315 0
53 2 S106 787 1041441 6102 0
53 2 S106 784 1042225 6886 0
0 0 0 779 1043004 -6493 0
0 0 0 772 1043776 -5721 0
0 0 0 770 1044546 -4951 0
0 0 0 763 1045309 -4188 0
0 0 0 757 1046066 -3431 0
0 0 0 754 1046820 -2677 0
54 1 S102 751 1047571 -1926 0
54 1 S102 752 1048323 -1174 0
54 1 S102 757 1049080 -417 0
54 2 S102 764 1049844 347 0
54 2 S102 773 1050617 1120 0
54 2 S102 778 1051395 1898 0
54 2 S102 770 1052165 2668 0
54 2 S102 764 1052929 3432 0
54 2 S102 757 1053686 4189 0
54 2 S102 744 1054430 4933 0
54 2 S102 726 1055156 5659 0
54 2 S102 717 1055873 6376 0
0 0 0 713 1056586 -11196 0
0 0 0 704 1057290 -10492 0
0 0 0 714 1058004 -9778 0
0 0 0 732 1058736 -9046 0
0 0 0 739 1059475 -8307 0
0 0 0 750 1060225 -7557 0
0 0 0 756 1060981 -6801 0
0 0 0 756 1061737 -6045 0
0 0 0 748 1062485 -5297 0
0 0 0 746 1063231 -4551 0
0 0 0 739 1063970 -3812 0
0 0 0 742 1064712 -3070 0
0 0 0 742 1065454 -2328 0
55 1 S106 742 1066196 -1586 0
55 1 S106 752 1066948 -834 0
55 1 S106 765 1067713 -69 0
55 2 S106 772 1068485 703 0
55 2 S106 786 1069271 1489 0
55 2 S106 790 1070061 2279 0
55 2 S106 791 1070852 3070 0
55 2 S106 789 1071641 3859 0
55 2 S106 786 1072427 4645 0
55 2 S106 781 1073208 5426 0
55 2 S106 782 1073990 6208 0
55 2 S106 785 1074775 6993 0
0 0 0 781 1075556 -5688 0
0 0 0 783 1076339 -4905 0
0 0 0 777 1077116 -4128 0
0 0 0 766 1077882 -3362 0
0 0 0 758 1078640 -2604 0
56 1 S116 753 1079393 -1851 0
56 1 S116 749 1080142 -1102 0
56 1 S116 749 1080891 -353 0
56 2 S116 751 1081642 398 0
56 2 S116 757 1082399 1155 0
56 2 S116 769 1083168 1924 0
56 2 S116 774 1083942 2698 0
56 2 S116 785 1084727 3483 0
56 2 S116 798 1085525 4281 0
56 2 S116 805 1086330 5086 0
56 2 S116 803 1087133 5889 0
56 2 S116 793 1087926 6682 0
0 0 0 788 1088714 -6904 0
0 0 0 784 1089498 -6120 0
0 0 0 780 1090278 -5340 0
0 0 0 776 1091054 -4564 0
0 0 0 768 1091822 -3796 0
0 0 0 760 1092582 -3036 0
0 0 0 754 1093336 -2282 0
57 1 S106 749 1094085 -1533 0
57 1 S106 752 1094837 -781 0
57 1 S106 755 1095592 -26 0
57 2 S106 762 1096354 736 0
57 2 S106 771 1097125 1507 0
57 2 S106 771 1097896 2278 0
57 2 S106 769 1098665 3047 0
57 2 S106 769 1099434 3816 0
57 2 S106 767 1100201 4583 0
57 2 S106 767 1100968 5350 0
57 2 S106 764 1101732 6114 0
57 2 S106 759 1102491 6873 0
0 0 0 752 1103243 -8074 0
0 0 0 746 1103989 -7328 0
0 0 0 746 1104735 -6582 0
0 0 0 743 1105478 -5839 0
0 0 0 742 1106220 -5097 0
0 0 0 739 1106959 -4358 0
0 0 0 735 1107694 -3623 0
0 0 0 732 1108426 -2891 0
0 0 0 725 1109151 -2166 0
58 1 S102 715 1109866 -1451 0
58 1 S102 702 1110568 -749 0
58 1 S102 688 1111256 -61 0
58 2 S102 681 1111937 620 0
58 2 S102 676 1112613 1296 1
58 2 S102 674 1113287 1970 1
58 2 S102 678 1113965 2648 0
58 2 S102 699 1114664 3347 0
58 2 S102 723 1115387 4070 0
58 2 S102 736 1116123 4806 0
58 2 S102 757 1116880 5563 0
58 2 S102 786 1117666 6349 0
0 0 0 809 1118475 -6851 0
0 0 0 827 1119302 -6024 0
0 0 0 832 1120134 -5192 0
0 0 0 823 1120957 -4369 0
0 0 0 805 1121762 -3564 0
0 0 0 787 1122549 -2777 0
0 0 0 761 1123310 -2016 0
59 1 S112 739 1124049 -1277 0
59 1 S112 726 1124775 -551 0
59 2 S112 729 1125504 178 0
59 2 S112 721 1126225 899 0
59 2 S112 715 1126940 1614 0
59 2 S112 713 1127653 2327 0
59 2 S112 710 1128363 3037 0
59 2 S112 712 1129075 3749 0
59 2 S112 716 1129791 4465 0
59 2 S112 715 1130506 5180 0
59 2 S112 717 1131223 5897 0
59 2 S112 720 1131943 6617 0
0 0 0 722 1132665 -8195 0
0 0 0 723 1133388 -7472 0
0 0 0 720 1134108 -6752 0
0 0 0 716 1134824 -6036 0
0 0 0 703 1135527 -5333 0
0 0 0 700 1136227 -4633 0
0 0 0 697 1136924 -3936 0
0 0 0 700 1137624 -3236 0
0 0 0 708 1138332 -2528 0
60 1 S102 730 1139062 -1798 0
60 1 S102 743 1139805 -1055 0
60 1 S102 762 1140567 -293 0
60 2 S102 779 1141346 486 0
60 2 S102 790 1142136 1276 0
60 2 S102 795 1142931 2071 0
60 2 S102 794 1143725 2865 0
60 2 S102 785 1144510 3650 0
60 2 S102 778 1145288 4428 0
60 2 S102 774 1146062 5202 0
60 2 S102 767 1146829 5969 0
60 2 S102 772 1147601 6741 0
0 0 0 774 1148375 -9892 0
0 0 0 778 1149153 -9114 0
0 0 0 781 1149934 -8333 0
0 0 0 783 1150717 -7550 0
0 0 0 778 1151495 -6772 0
0 0 0 773 1152268 -5999 0
0 0 0 757 1153025 -5242 0
0 0 0 743 1153768 -4499 0
0 0 0 730 1154498 -3769 0
0 0 0 719 1155217 -3050 0
0 0 0 712 1155929 -2338 0
61 1 S106 709 1156638 -1629 0
61 1 S106 704 1157342 -925 0
61 1 S106 713 1158055 -212 0
61 2 S106 707 1158762 495 0
61 2 S106 703 1159465 1198 0
61 2 S106 701 1160166 1899 0
61 2 S106 700 1160866 2599 0
61 2 S106 698 1161564 3297 0
61 2 S106 711 1162275 4008 0
61 2 S106 732 1163007 4740 0
61 2 S106 741 1163748 5481 0
61 2 S106 753 1164501 6234 0
61 2 S106 760 1165261 6994 0
0 0 0 765 1166026 -5852 0
0 0 0 779 1166805 -5073 0
0 0 0 782 1167587 -4291 0
0 0 0 783 1168370 -3508 0
0 0 0 772 1169142 -2736 0
62 1 S112 759 1169901 -1977 0
62 1 S112 748 1170649 -1229 0
62 1 S112 735 1171384 -494 0
62 2 S112 738 1172122 244 0
62 2 S112 741 1172863 985 0
62 2 S112 744 1173607 1729 0
62 2 S112 753 1174360 2482 0
62 2 S112 764 1175124 3246 0
62 2 S112 777 1175901 4023 0
62 2 S112 789 1176690 4812 0
62 2 S112 806 1177496 5618 0
62 2 S112 814 1178310 6432 0
0 0 0 815 1179125 -10973 0
0 0 0 801 1179926 -10172 0
0 0 0 800 1180726 -9372 0
0 0 0 794 1181520 -8578 0
0 0 0 784 1182304 -7794 0
0 0 0 776 1183080 -7018 0
0 0 0 765 1183845 -6253 0
0 0 0 761 1184606 -5492 0
0 0 0 758 1185364 -4734 0
0 0 0 756 1186120 -3978 0
0 0 0 766 1186886 -3212 0
0 0 0 779 1187665 -2433 0
63 1 S102 791 1188456 -1642 0
63 1 S102 797 1189253 -845 0
63 1 S102 799 1190052 -46 0
63 2 S102 788 1190840 742 0
63 2 S102 772 1191612 1514 0
63 2 S102 763 1192375 2277 0
63 2 S102 746 1193121 3023 0
63 2 S102 733 1193854 3756 0
63 2 S102 740 1194594 4496 0
63 2 S102 741 1195335 5237 0
63 2 S102 758 1196093 5995 0
63 2 S102 788 1196881 6783 0
0 0 0 805 1197686 -9902 0
0 0 0 811 1198497 -9091 0
0 0 0 816 1199313 -8275 0
0 0 0 822 1200135 -7453 0
0 0 0 826 1200961 -6627 0
0 0 0 821 1201782 -5806 0
0 0 0 815 1202597 -4991 0
0 0 0 801 1203398 -4190 0
0 0 0 787 1204185 -3403 0
0 0 0 779 1204964 -2624 0
64 1 S112 766 1205730 -1858 0
64 1 S112 756 1206486 -1102 0
64 1 S112 747 1207233 -355 0
64 2 S112 747 1207980 392 0
64 2 S112 747 1208727 1139 0
64 2 S112 753 1209480 1892 0
64 2 S112 762 1210242 2654 0
64 2 S112 769 1211011 3423 0
64 2 S112 781 1211792 4204 0
64 2 S112 793 1212585 4997 0
64 2 S112 800 1213385 5797 0
64 2 S112 807 1214192 6604 0
0 0 0 807 1214999 -6913 0
0 0 0 802 1215801 -6111 0
0 0 0 800 1216601 -5311 0
0 0 0 783 1217384 -4528 0
0 0 0 769 1218153 -3759 0
0 0 0 759 1218912 -3000 0
0 0 0 744 1219656 -2256 0
65 1 S106 726 1220382 -1530 0
65 1 S106 726 1221108 -804 0
65 1 S106 728 1221836 -76 0
65 2 S106 736 1222572 660 0
65 2 S106 755 1223327 1415 0
65 2 S106 767 1224094 2182 0
65 2 S106 782 1224876 2964 0
65 2 S106 794 1225670 3758 0
65 2 S106 805 1226475 4563 0
65 2 S106 802 1227277 5365 0
65 2 S106 795 1228072 6160 0
65 2 S106 793 1228865 6953 0
0 0 0 789 1229654 -5537 0
0 0 0 788 1230442 -4749 0
0 0 0 788 1231230 -3961 0
0 0 0 786 1232016 -3175 0
0 0 0 774 1232790 -2401 0
66 1 S116 762 1233552 -1639 0
66 1 S116 759 1234311 -880 0
66 1 S116 750 1235061 -130 0
66 2 S116 742 1235803 612 0
66 2 S116 736 1236539 1348 0
66 2 S116 736 1237275 2084 0
66 2 S116 742 1238017 2826 0
66 2 S116 743 1238760 3569 0
66 2 S116 736 1239496 4305 0
66 2 S116 728 1240224 5033 0
66 2 S116 718 1240942 5751 0
66 2 S116 716 1241658 6467 0
0 0 0 720 1242378 -10767 0
0 0 0 718 1243096 -10049 0
0 0 0 741 1243837 -9308 0
0 0 0 755 1244592 -8553 0
0 0 0 748 1245340 -7805 0
0 0 0 746 1246086 -7059 0
0 0 0 737 1246823 -6322 0
0 0 0 727 1247550 -5595 0
0 0 0 725 1248275 -4870 0
0 0 0 730 1249005 -4140 0
0 0 0 737 1249742 -3403 0
0 0 0 755 1250497 -2648 0
67 1 S102 771 1251268 -1877 0
67 1 S102 785 1252053 -1092 0
67 1 S102 800 1252853 -292 0
67 2 S102 815 1253668 523 0
67 2 S102 829 1254497 1352 0
67 2 S102 836 1255333 2188 0
67 2 S102 839 1256172 3027 0
67 2 S102 831 1257003 3858 0
67 2 S102 818 1257821 4676 0
67 2 S102 806 1258627 5482 0
67 2 S102 799 1259426 6281 0
0 0 0 792 1260218 -6737 0
0 0 0 794 1261012 -5943 0
0 0 0 797 1261809 -5146 0
0 0 0 801 1262610 -4345 0
0 0 0 798 1263408 -3547 0
0 0 0 789 1264197 -2758 0
68 1 S106 793 1264990 -1965 0
68 1 S106 793 1265783 -1172 0
68 1 S106 794 1266577 -378 0
68 2 S106 791 1267368 413 0
68 2 S106 787 1268155 1200 0
68 2 S106 778 1268933 1978 0
68 2 S106 772 1269705 2750 0
68 2 S106 770 1270475 3520 0
68 2 S106 768 1271243 4288 0
68 2 S106 770 1272013 5058 0
68 2 S106 777 1272790 5835 0
68 2 S106 784 1273574 6619 0
0 0 0 782 1274356 -10637 0
0 0 0 775 1275131 -9862 0
0 0 0 777 1275908 -9085 0
0 0 0 769 1276677 -8316 0
0 0 0 755 1277432 -7561 0
0 0 0 739 1278171 -6822 0
0 0 0 724 1278895 -6098 0
0 0 0 718 1279613 -5380 0
0 0 0 722 1280335 -4658 0
0 0 0 730 1281065 -3928 0
0 0 0 729 1281794 -3199 0
0 0 0 740 1282534 -2459 0
69 1 S102 740 1283274 -1719 0
69 1 S102 747 1284021 -972 0
69 1 S102 754 1284775 -218 0
69 2 S102 754 1285529 536 0
69 2 S102 762 1286291 1298 0
69 2 S102 763 1287054 2061 0
69 2 S102 758 1287812 2819 0
69 2 S102 762 1288574 3581 0
69 2 S102 761 1289335 4342 0
69 2 S102 759 1290094 5101 0
69 2 S102 759 1290853 5860 0
69 2 S102 761 1291614 6621 0
0 0 0 762 1292376 -8913 0
0 0 0 765 1293141 -8148 0
0 0 0 774 1293915 -7374 0
0 0 0 777 1294692 -6597 0
0 0 0 777 1295469 -5820 0
0 0 0 766 1296235 -5054 0
0 0 0 763 1296998 -4291 0
0 0 0 762 1297760 -3529 0
0 0 0 774 1298534 -2755 0
70 1 S112 776 1299310 -1979 0
70 1 S112 781 1300091 -1198 0
70 1 S112 784 1300875 -414 0
70 2 S112 783 1301658 369 0
70 2 S112 784 1302442 1153 0
70 2 S112 787 1303229 1940 0
70 2 S112 787 1304016 2727 0
70 2 S112 791 1304807 3518 0
70 2 S112 791 1305598 4309 0
70 2 S112 783 1306381 5092 0
70 2 S112 785 1307166 5877 0
70 2 S112 782 1307948 6659 0
0 0 0 788 1308736 -10740 0
0 0 0 790 1309526 -9950 0
0 0 0 794 1310320 -9156 0
0 0 0 794 1311114 -8362 0
0 0 0 789 1311903 -7573 0
0 0 0 772 1312675 -6801 0
0 0 0 761 1313436 -6040 0
0 0 0 749 1314185 -5291 0
0 0 0 749 1314934 -4542 0
0 0 0 757 1315691 -3785 0
0 0 0 775 1316466 -3010 0
0 0 0 803 1317269 -2207 0
71 1 S116 832 1318101 -1375 0
71 1 S116 845 1318946 -530 0
71 2 S116 842 1319788 312 0
71 2 S116 844 1320632 1156 0
71 2 S116 829 1321461 1985 0
71 2 S116 807 1322268 2792 0
71 2 S116 792 1323060 3584 0
71 2 S116 779 1323839 4363 0
71 2 S116 772 1324611 5135 0
71 2 S116 774 1325385 5909 0
71 2 S116 791 1326176 6700 0
0 0 0 806 1326982 -8127 0
0 0 0 818 1327800 -7309 0
0 0 0 811 1328611 -6498 0
0 0 0 790 1329401 -5708 0
0 0 0 770 1330171 -4938 0
0 0 0 760 1330931 -4178 0
0 0 0 739 1331670 -3439 0
0 0 0 722 1332392 -2717 0
72 1 S102 732 1333124 -1985 0
72 1 S102 755 1333879 -1230 0
72 1 S102 774 1334653 -456 0
72 2 S102 783 1335436 327 0
72 2 S102 786 1336222 1113 0
72 2 S102 792 1337014 1905 0
72 2 S102 777 1337791 2682 0
72 2 S102 772 1338563 3454 0
72 2 S102 764 1339327 4218 0
72 2 S102 762 1340089 4980 0
72 2 S102 765 1340854 5745 0
72 2 S102 770 1341624 6515 0
0 0 0 781 1342405 -6514 0
0 0 0 795 1343200 -5719 0
0 0 0 800 1344000 -4919 0
0 0 0 799 1344799 -4120 0
0 0 0 800 1345599 -3320 0
0 0 0 782 1346381 -2538 0
73 1 S116 769 1347150 -1769 0
73 1 S116 754 1347904 -1015 0
73 1 S116 751 1348655 -264 0
73 2 S116 750 1349405 486 0
73 2 S116 763 1350168 1249 0
73 2 S116 771 1350939 2020 0
73 2 S116 779 1351718 2799 0
73 2 S116 787 1352505 3586 0
73 2 S116 800 1353305 4386 0
73 2 S116 815 1354120 5201 0
73 2 S116 830 1354950 6031 0
73 2 S116 848 1355798 6879 0
0 0 0 863 1356661 -8007 0
0 0 0 854 1357515 -7153 0
0 0 0 847 1358362 -6306 0
0 0 0 817 1359179 -5489 0
0 0 0 807 1359986 -4682 0
0 0 0 792 1360778 -3890 0
0 0 0 769 1361547 -3121 0
0 0 0 769 1362316 -2352 0
74 1 S106 769 1363085 -1583 0
74 1 S106 768 1363853 -815 0
74 1 S106 773 1364626 -42 0
74 2 S106 785 1365411 743 0
74 2 S106 804 1366215 1547 0
74 2 S106 821 1367036 2368 0
74 2 S106 828 1367864 3196 0
74 2 S106 814 1368678 4010 0
74 2 S106 808 1369486 4818 0
74 2 S106 810 1370296 5628 0
74 2 S106 806 1371102 6434 0
0 0 0 806 1371908 -6139 0
0 0 0 801 1372709 -5338 0
0 0 0 801 1373510 -4537 0
0 0 0 793 1374303 -3744 0
0 0 0 780 1375083 -2964 0
0 0 0 768 1375851 -2196 0
75 1 S112 745 1376596 -1451 0
75 1 S112 745 1377341 -706 0
75 2 S112 745 1378086 39 0
75 2 S112 742 1378828 781 0
75 2 S112 742 1379570 1523 0
75 2 S112 757 1380327 2280 0
75 2 S112 766 1381093 3046 0
75 2 S112 771 1381864 3817 0
75 2 S112 779 1382643 4596 0
75 2 S112 790 1383433 5386 0
75 2 S112 790 1384223 6176 0
75 2 S112 789 1385012 6965 0
0 0 0 786 1385798 -5860 0
0 0 0 775 1386573 -5085 0
0 0 0 760 1387333 -4325 0
0 0 0 733 1388066 -3592 0
0 0 0 733 1388799 -2859 0
0 0 0 719 1389518 -2140 0
76 1 S116 719 1390237 -1421 0
76 1 S116 729 1390966 -692 0
76 2 S116 746 1391712 54 0
76 2 S116 773 1392485 827 0
76 2 S116 813 1393298 1640 0
76 2 S116 835 1394133 2475 0
76 2 S116 828 1394961 3303 0
76 2 S116 827 1395788 4130 0
76 2 S116 823 1396611 4953 0
76 2 S116 819 1397430 5772 0
76 2 S116 818 1398248 6590 0
0 0 0 815 1399063 -6338 0
0 0 0 801 1399864 -5537 0
0 0 0 794 1400658 -4743 0
0 0 0 794 1401452 -3949 0
0 0 0 790 1402242 -3159 0
0 0 0 770 1403012 -2389 0
77 1 S106 751 1403763 -1638 0
77 1 S106 742 1404505 -896 0
77 1 S106 739 1405244 -157 0
77 2 S106 730 1405974 573 0
77 2 S106 738 1406712 1311 0
77 2 S106 765 1407477 2076 0
77 2 S106 788 1408265 2864 0
77 2 S106 818 1409083 3682 0
77 2 S106 820 1409903 4502 0
77 2 S106 817 1410720 5319 0
77 2 S106 822 1411542 6141 0
77 2 S106 823 1412365 6964 0
0 0 0 826 1413191 -8308 0
0 0 0 834 1414025 -7474 0
0 0 0 833 1414858 -6641 0
0 0 0 813 1415671 -5828 0
0 0 0 806 1416477 -5022 0
0 0 0 802 1417279 -4220 0
0 0 0 797 1418076 -3423 0
0 0 0 798 1418874 -2625 0
78 1 S112 802 1419676 -1823 0
78 1 S112 812 1420488 -1011 0
78 1 S112 816 1421304 -195 0
78 2 S112 814 1422118 619 0
78 2 S112 825 1422943 1444 0
78 2 S112 814 1423757 2258 0
78 2 S112 834 1424591 3092 0
78 2 S112 831 1425422 3923 0
78 2 S112 817 1426239 4740 0
78 2 S112 823 1427062 5563 0
78 2 S112 791 1427853 6354 0
0 0 0 766 1428619 -11166 0
0 0 0 745 1429364 -10421 0
0 0 0 724 1430088 -9697 0
0 0 0 711 1430799 -8986 0
0 0 0 716 1431515 -8270 0
0 0 0 713 1432228 -7557 0
0 0 0 717 1432945 -6840 0
0 0 0 729 1433674 -6111 0
0 0 0 731 1434405 -5380 0
0 0 0 730 1435135 -4650 0
0 0 0 726 1435861 -3924 0
0 0 0 744 1436605 -3180 0
0 0 0 760 1437365 -2420 0
79 1 S102 784 1438149 -1636 0
79 1 S102 812 1438961 -824 0
79 2 S102 829 1439790 5 0
79 2 S102 832 1440622 837 0
79 2 S102 803 1441425 1640 0
79 2 S102 788 1442213 2428 0
79 2 S102 778 1442991 3206 0
79 2 S102 780 1443771 3986 0
79 2 S102 777 1444548 4763 0
79 2 S102 782 1445330 5545 0
79 2 S102 777 1446107 6322 0
0 0 0 788 1446895 -8855 0
0 0 0 795 1447690 -8060 0
0 0 0 803 1448493 -7257 0
0 0 0 804 1449297 -6453 0
0 0 0 783 1450080 -5670 0
0 0 0 772 1450852 -4898 0
0 0 0 759 1451611 -4139 0
0 0 0 759 1452370 -3380 0
0 0 0 777 1453147 -2603 0
80 1 S116 787 1453934 -1816 0
80 1 S116 810 1454744 -1006 0
80 1 S116 817 1455561 -189 0
80 2 S116 822 1456383 633 0
80 2 S116 812 1457195 1445 0
80 2 S116 804 1457999 2249 0
80 2 S116 798 1458797 3047 0
80 2 S116 802 1459599 3849 0
80 2 S116 799 1460398 4648 0
80 2 S116 797 1461195 5445 0
80 2 S116 787 1461982 6232 0
80 2 S116 791 1462773 7023 0
