T_0139
BeatCount Mean SD BeatCountNoOutliers MeanNoOutliers SDNoOutliers
1821 828,267435475014 50,1580948893106 1799 829,222345747638 47,3870150097527

Trial TrialStatus Trialtype IBI AbsPosition RelPosition Outlier
0 0 0 714 815 -14861 0
0 0 0 741 1556 -14120 0
0 0 0 757 2313 -13363 0
0 0 0 812 3125 -12551 0
0 0 0 838 3963 -11713 0
0 0 0 842 4805 -10871 0
0 0 0 805 5610 -10066 0
0 0 0 833 6443 -9233 0
0 0 0 813 7256 -8420 0
0 0 0 807 8063 -7613 0
0 0 0 785 8848 -6828 0
0 0 0 748 9596 -6080 0
0 0 0 769 10365 -5311 0
0 0 0 763 11128 -4548 0
0 0 0 759 11887 -3789 0
0 0 0 757 12644 -3032 0
0 0 0 738 13382 -2294 0
1 1 S112 712 14094 -1582 0
1 1 S112 695 14789 -887 1
1 1 S112 728 15517 -159 0
1 2 S112 754 16271 595 0
1 2 S112 784 17055 1379 0
1 2 S112 810 17865 2189 0
1 2 S112 805 18670 2994 0
1 2 S112 787 19457 3781 0
1 2 S112 773 20230 4554 0
1 2 S112 755 20985 5309 0
1 2 S112 744 21729 6053 0
1 2 S112 729 22458 6782 0
0 0 0 718 23176 -12262 0
0 0 0 709 23885 -11553 0
0 0 0 693 24578 -10860 1
0 0 0 704 25282 -10156 0
0 0 0 723 26005 -9433 0
0 0 0 719 26724 -8714 0
0 0 0 718 27442 -7996 0
0 0 0 670 28112 -7326 1
0 0 0 663 28775 -6663 1
0 0 0 793 29568 -5870 0
0 0 0 809 30377 -5061 0
0 0 0 859 31236 -4202 0
0 0 0 854 32090 -3348 0
0 0 0 840 32930 -2508 0
2 1 S102 805 33735 -1703 0
2 1 S102 745 34480 -958 0
2 1 S102 764 35244 -194 0
2 2 S102 766 36010 572 0
2 2 S102 771 36781 1343 0
2 2 S102 772 37553 2115 0
2 2 S102 775 38328 2890 0
2 2 S102 772 39100 3662 0
2 2 S102 768 39868 4430 0
2 2 S102 753 40621 5183 0
2 2 S102 750 41371 5933 0
2 2 S102 759 42130 6692 0
0 0 0 774 42904 -9742 0
0 0 0 798 43702 -8944 0
0 0 0 817 44519 -8127 0
0 0 0 834 45353 -7293 0
0 0 0 824 46177 -6469 0
0 0 0 798 46975 -5671 0
0 0 0 756 47731 -4915 0
0 0 0 781 48512 -4134 0
0 0 0 792 49304 -3342 0
0 0 0 789 50093 -2553 0
3 1 S116 804 50897 -1749 0
3 1 S116 788 51685 -961 0
3 1 S116 748 52433 -213 0
3 2 S116 770 53203 557 0
3 2 S116 777 53980 1334 0
3 2 S116 789 54769 2123 0
3 2 S116 805 55574 2928 0
3 2 S116 797 56371 3725 0
3 2 S116 792 57163 4517 0
3 2 S116 766 57929 5283 0
3 2 S116 778 58707 6061 0
3 2 S116 793 59500 6854 0
0 0 0 808 60308 -10674 0
0 0 0 807 61115 -9867 0
0 0 0 818 61933 -9049 0
0 0 0 776 62709 -8273 0
0 0 0 724 63433 -7549 0
0 0 0 747 64180 -6802 0
0 0 0 747 64927 -6055 0
0 0 0 762 65689 -5293 0
0 0 0 779 66468 -4514 0
0 0 0 787 67255 -3727 0
0 0 0 753 68008 -2974 0
0 0 0 729 68737 -2245 0
4 1 S106 776 69513 -1469 0
4 1 S106 808 70321 -661 0
4 2 S106 849 71170 188 0
4 2 S106 854 72024 1042 0
4 2 S106 845 72869 1887 0
4 2 S106 814 73683 2701 0
4 2 S106 765 74448 3466 0
4 2 S106 735 75183 4201 0
4 2 S106 750 75933 4951 0
4 2 S106 762 76695 5713 0
4 2 S106 784 77479 6497 0
0 0 0 792 78271 -7714 0
0 0 0 803 79074 -6911 0
0 0 0 796 79870 -6115 0
0 0 0 787 80657 -5328 0
0 0 0 784 81441 -4544 0
0 0 0 780 82221 -3764 0
0 0 0 798 83019 -2966 0
0 0 0 811 83830 -2155 0
5 1 S116 803 84633 -1352 0
5 1 S116 761 85394 -591 0
5 2 S116 754 86148 163 0
5 2 S116 788 86936 951 0
5 2 S116 809 87745 1760 0
5 2 S116 831 88576 2591 0
5 2 S116 833 89409 3424 0
5 2 S116 824 90233 4248 0
5 2 S116 782 91015 5030 0
5 2 S116 741 91756 5771 0
5 2 S116 768 92524 6539 0
0 0 0 776 93300 -9115 0
0 0 0 797 94097 -8318 0
0 0 0 811 94908 -7507 0
0 0 0 823 95731 -6684 0
0 0 0 812 96543 -5872 0
0 0 0 803 97346 -5069 0
0 0 0 793 98139 -4276 0
0 0 0 780 98919 -3496 0
0 0 0 742 99661 -2754 0
6 1 S106 758 100419 -1996 0
6 1 S106 766 101185 -1230 0
6 1 S106 790 101975 -440 0
6 2 S106 819 102794 379 0
6 2 S106 835 103629 1214 0
6 2 S106 820 104449 2034 0
6 2 S106 764 105213 2798 0
6 2 S106 805 106018 3603 0
6 2 S106 833 106851 4436 0
6 2 S106 835 107686 5271 0
6 2 S106 829 108515 6100 0
6 2 S106 823 109338 6923 0
0 0 0 808 110146 -11035 0
0 0 0 800 110946 -10235 0
0 0 0 791 111737 -9444 0
0 0 0 774 112511 -8670 0
0 0 0 741 113252 -7929 0
0 0 0 711 113963 -7218 0
0 0 0 731 114694 -6487 0
0 0 0 753 115447 -5734 0
0 0 0 821 116268 -4913 0
0 0 0 867 117135 -4046 0
0 0 0 875 118010 -3171 0
0 0 0 883 118893 -2288 0
7 1 S102 827 119720 -1461 0
7 1 S102 811 120531 -650 0
7 2 S102 818 121349 168 0
7 2 S102 818 122167 986 0
7 2 S102 826 122993 1812 0
7 2 S102 820 123813 2632 0
7 2 S102 807 124620 3439 0
7 2 S102 800 125420 4239 0
7 2 S102 792 126212 5031 0
7 2 S102 765 126977 5796 0
7 2 S102 747 127724 6543 0
0 0 0 770 128494 -10725 0
0 0 0 788 129282 -9937 0
0 0 0 835 130117 -9102 0
0 0 0 847 130964 -8255 0
0 0 0 861 131825 -7394 0
0 0 0 855 132680 -6539 0
0 0 0 832 133512 -5707 0
0 0 0 788 134300 -4919 0
0 0 0 798 135098 -4121 0
0 0 0 801 135899 -3320 0
0 0 0 806 136705 -2514 0
8 1 S112 810 137515 -1704 0
8 1 S112 806 138321 -898 0
8 1 S112 798 139119 -100 0
8 2 S112 757 139876 657 0
8 2 S112 774 140650 1431 0
8 2 S112 814 141464 2245 0
8 2 S112 850 142314 3095 0
8 2 S112 882 143196 3977 0
8 2 S112 873 144069 4850 0
8 2 S112 871 144940 5721 0
8 2 S112 866 145806 6587 0
0 0 0 851 146657 -7764 0
0 0 0 827 147484 -6937 0
0 0 0 814 148298 -6123 0
0 0 0 785 149083 -5338 0
0 0 0 771 149854 -4567 0
0 0 0 768 150622 -3799 0
0 0 0 772 151394 -3027 0
0 0 0 787 152181 -2240 0
9 1 S116 815 152996 -1425 0
9 1 S116 794 153790 -631 0
9 2 S116 784 154574 153 0
9 2 S116 820 155394 973 0
9 2 S116 828 156222 1801 0
9 2 S116 836 157058 2637 0
9 2 S116 832 157890 3469 0
9 2 S116 813 158703 4282 0
9 2 S116 772 159475 5054 0
9 2 S116 787 160262 5841 0
9 2 S116 791 161053 6632 0
0 0 0 808 161861 -13167 0
0 0 0 827 162688 -12340 0
0 0 0 831 163519 -11509 0
0 0 0 838 164357 -10671 0
0 0 0 832 165189 -9839 0
0 0 0 817 166006 -9022 0
0 0 0 801 166807 -8221 0
0 0 0 801 167608 -7420 0
0 0 0 813 168421 -6607 0
0 0 0 823 169244 -5784 0
0 0 0 807 170051 -4977 0
0 0 0 801 170852 -4176 0
0 0 0 822 171674 -3354 0
0 0 0 836 172510 -2518 0
10 1 S102 833 173343 -1685 0
10 1 S102 833 174176 -852 0
10 1 S102 806 174982 -46 0
10 2 S102 783 175765 737 0
10 2 S102 801 176566 1538 0
10 2 S102 811 177377 2349 0
10 2 S102 817 178194 3166 0
10 2 S102 817 179011 3983 0
10 2 S102 787 179798 4770 0
10 2 S102 801 180599 5571 0
10 2 S102 813 181412 6384 0
0 0 0 834 182246 -10968 0
0 0 0 849 183095 -10119 0
0 0 0 851 183946 -9268 0
0 0 0 832 184778 -8436 0
0 0 0 757 185535 -7679 0
0 0 0 720 186255 -6959 0
0 0 0 677 186932 -6282 1
0 0 0 750 187682 -5532 0
0 0 0 781 188463 -4751 0
0 0 0 807 189270 -3944 0
0 0 0 841 190111 -3103 0
0 0 0 835 190946 -2268 0
11 1 S112 834 191780 -1434 0
11 1 S112 829 192609 -605 0
11 2 S112 814 193423 209 0
11 2 S112 788 194211 997 0
11 2 S112 747 194958 1744 0
11 2 S112 767 195725 2511 0
11 2 S112 779 196504 3290 0
11 2 S112 809 197313 4099 0
11 2 S112 850 198163 4949 0
11 2 S112 847 199010 5796 0
11 2 S112 857 199867 6653 0
0 0 0 849 200716 -6888 0
0 0 0 848 201564 -6040 0
0 0 0 846 202410 -5194 0
0 0 0 819 203229 -4375 0
0 0 0 776 204005 -3599 0
0 0 0 782 204787 -2817 0
0 0 0 774 205561 -2043 0
12 1 S116 775 206336 -1268 0
12 1 S116 781 207117 -487 0
12 2 S116 788 207905 301 0
12 2 S116 797 208702 1098 0
12 2 S116 812 209514 1910 0
12 2 S116 816 210330 2726 0
12 2 S116 809 211139 3535 0
12 2 S116 782 211921 4317 0
12 2 S116 784 212705 5101 0
12 2 S116 782 213487 5883 0
12 2 S116 799 214286 6682 0
0 0 0 810 215096 -11458 0
0 0 0 813 215909 -10645 0
0 0 0 825 216734 -9820 0
0 0 0 836 217570 -8984 0
0 0 0 823 218393 -8161 0
0 0 0 818 219211 -7343 0
0 0 0 783 219994 -6560 0
0 0 0 780 220774 -5780 0
0 0 0 779 221553 -5001 0
0 0 0 783 222336 -4218 0
0 0 0 778 223114 -3440 0
0 0 0 779 223893 -2661 0
13 1 S112 761 224654 -1900 0
13 1 S112 773 225427 -1127 0
13 1 S112 782 226209 -345 0
13 2 S112 798 227007 453 0
13 2 S112 817 227824 1270 0
13 2 S112 827 228651 2097 0
13 2 S112 821 229472 2918 0
13 2 S112 811 230283 3729 0
13 2 S112 766 231049 4495 0
13 2 S112 774 231823 5269 0
13 2 S112 786 232609 6055 0
13 2 S112 806 233415 6861 0
0 0 0 826 234241 -11361 0
0 0 0 836 235077 -10525 0
0 0 0 848 235925 -9677 0
0 0 0 796 236721 -8881 0
0 0 0 797 237518 -8084 0
0 0 0 801 238319 -7283 0
0 0 0 807 239126 -6476 0
0 0 0 801 239927 -5675 0
0 0 0 797 240724 -4878 0
0 0 0 757 241481 -4121 0
0 0 0 770 242251 -3351 0
0 0 0 779 243030 -2572 0
14 1 S106 794 243824 -1778 0
14 1 S106 811 244635 -967 0
14 1 S106 823 245458 -144 0
14 2 S106 779 246237 635 0
14 2 S106 814 247051 1449 0
14 2 S106 833 247884 2282 0
14 2 S106 844 248728 3126 0
14 2 S106 849 249577 3975 0
14 2 S106 816 250393 4791 0
14 2 S106 781 251174 5572 0
14 2 S106 804 251978 6376 0
0 0 0 802 252780 -11125 0
0 0 0 816 253596 -10309 0
0 0 0 822 254418 -9487 0
0 0 0 809 255227 -8678 0
0 0 0 787 256014 -7891 0
0 0 0 761 256775 -7130 0
0 0 0 779 257554 -6351 0
0 0 0 785 258339 -5566 0
0 0 0 803 259142 -4763 0
0 0 0 820 259962 -3943 0
0 0 0 803 260765 -3140 0
0 0 0 748 261513 -2392 0
15 1 S116 773 262286 -1619 0
15 1 S116 780 263066 -839 0
15 1 S116 791 263857 -48 0
15 2 S116 803 264660 755 0
15 2 S116 820 265480 1575 0
15 2 S116 822 266302 2397 0
15 2 S116 813 267115 3210 0
15 2 S116 784 267899 3994 0
15 2 S116 764 268663 4758 0
15 2 S116 780 269443 5538 0
15 2 S116 788 270231 6326 0
0 0 0 806 271037 -9032 0
0 0 0 808 271845 -8224 0
0 0 0 805 272650 -7419 0
0 0 0 792 273442 -6627 0
0 0 0 748 274190 -5879 0
0 0 0 753 274943 -5126 0
0 0 0 761 275704 -4365 0
0 0 0 749 276453 -3616 0
0 0 0 732 277185 -2884 0
0 0 0 700 277885 -2184 0
16 1 S116 693 278578 -1491 1
16 1 S116 720 279298 -771 0
16 1 S116 663 279961 -108 1
16 2 S116 721 280682 613 0
16 2 S116 744 281426 1357 0
16 2 S116 774 282200 2131 0
16 2 S116 796 282996 2927 0
16 2 S116 799 283795 3726 0
16 2 S116 790 284585 4516 0
16 2 S116 754 285339 5270 0
16 2 S116 766 286105 6036 0
16 2 S116 780 286885 6816 0
0 0 0 799 287684 -8781 0
0 0 0 826 288510 -7955 0
0 0 0 851 289361 -7104 0
0 0 0 827 290188 -6277 0
0 0 0 776 290964 -5501 0
0 0 0 775 291739 -4726 0
0 0 0 784 292523 -3942 0
0 0 0 797 293320 -3145 0
0 0 0 806 294126 -2339 0
17 1 S106 811 294937 -1528 0
17 1 S106 803 295740 -725 0
17 2 S106 788 296528 63 0
17 2 S106 806 297334 869 0
17 2 S106 816 298150 1685 0
17 2 S106 832 298982 2517 0
17 2 S106 835 299817 3352 0
17 2 S106 837 300654 4189 0
17 2 S106 805 301459 4994 0
17 2 S106 756 302215 5750 0
17 2 S106 783 302998 6533 0
0 0 0 797 303795 -11851 0
0 0 0 812 304607 -11039 0
0 0 0 836 305443 -10203 0
0 0 0 853 306296 -9350 0
0 0 0 841 307137 -8509 0
0 0 0 799 307936 -7710 0
0 0 0 778 308714 -6932 0
0 0 0 783 309497 -6149 0
0 0 0 791 310288 -5358 0
0 0 0 791 311079 -4567 0
0 0 0 804 311883 -3763 0
0 0 0 802 312685 -2961 0
0 0 0 778 313463 -2183 0
18 1 S102 772 314235 -1411 0
18 1 S102 786 315021 -625 0
18 2 S102 792 315813 167 0
18 2 S102 810 316623 977 0
18 2 S102 823 317446 1800 0
18 2 S102 800 318246 2600 0
18 2 S102 806 319052 3406 0
18 2 S102 810 319862 4216 0
18 2 S102 820 320682 5036 0
18 2 S102 822 321504 5858 0
18 2 S102 812 322316 6670 0
0 0 0 776 323092 -6795 0
0 0 0 782 323874 -6013 0
0 0 0 788 324662 -5225 0
0 0 0 783 325445 -4442 0
0 0 0 786 326231 -3656 0
0 0 0 779 327010 -2877 0
0 0 0 752 327762 -2125 0
19 1 S106 782 328544 -1343 0
19 1 S106 800 329344 -543 0
19 2 S106 818 330162 275 0
19 2 S106 820 330982 1095 0
19 2 S106 815 331797 1910 0
19 2 S106 782 332579 2692 0
19 2 S106 780 333359 3472 0
19 2 S106 787 334146 4259 0
19 2 S106 797 334943 5056 0
19 2 S106 812 335755 5868 0
19 2 S106 816 336571 6684 0
0 0 0 824 337395 -11590 0
0 0 0 808 338203 -10782 0
0 0 0 783 338986 -9999 0
0 0 0 803 339789 -9196 0
0 0 0 790 340579 -8406 0
0 0 0 793 341372 -7613 0
0 0 0 805 342177 -6808 0
0 0 0 777 342954 -6031 0
0 0 0 785 343739 -5246 0
0 0 0 804 344543 -4442 0
0 0 0 823 345366 -3619 0
0 0 0 819 346185 -2800 0
20 1 S112 818 347003 -1982 0
20 1 S112 769 347772 -1213 0
20 1 S112 764 348536 -449 0
20 2 S112 770 349306 321 0
20 2 S112 774 350080 1095 0
20 2 S112 787 350867 1882 0
20 2 S112 806 351673 2688 0
20 2 S112 811 352484 3499 0
20 2 S112 816 353300 4315 0
20 2 S112 795 354095 5110 0
20 2 S112 761 354856 5871 0
20 2 S112 778 355634 6649 0
0 0 0 790 356424 -8808 0
0 0 0 803 357227 -8005 0
0 0 0 814 358041 -7191 0
0 0 0 798 358839 -6393 0
0 0 0 773 359612 -5620 0
0 0 0 751 360363 -4869 0
0 0 0 770 361133 -4099 0
0 0 0 772 361905 -3327 0
0 0 0 779 362684 -2548 0
21 1 S106 781 363465 -1767 0
21 1 S106 775 364240 -992 0
21 1 S106 748 364988 -244 0
21 2 S106 727 365715 483 0
21 2 S106 744 366459 1227 0
21 2 S106 751 367210 1978 0
21 2 S106 776 367986 2754 0
21 2 S106 801 368787 3555 0
21 2 S106 819 369606 4374 0
21 2 S106 803 370409 5177 0
21 2 S106 804 371213 5981 0
21 2 S106 830 372043 6811 0
0 0 0 852 372895 -9943 0
0 0 0 850 373745 -9093 0
0 0 0 816 374561 -8277 0
0 0 0 765 375326 -7512 0
0 0 0 783 376109 -6729 0
0 0 0 786 376895 -5943 0
0 0 0 789 377684 -5154 0
0 0 0 792 378476 -4362 0
0 0 0 777 379253 -3585 0
0 0 0 741 379994 -2844 0
0 0 0 780 380774 -2064 0
22 1 S116 793 381567 -1271 0
22 1 S116 826 382393 -445 0
22 2 S116 858 383251 413 0
22 2 S116 857 384108 1270 0
22 2 S116 855 384963 2125 0
22 2 S116 844 385807 2969 0
22 2 S116 784 386591 3753 0
22 2 S116 801 387392 4554 0
22 2 S116 795 388187 5349 0
22 2 S116 786 388973 6135 0
22 2 S116 777 389750 6912 0
0 0 0 740 390490 -9789 0
0 0 0 717 391207 -9072 0
0 0 0 731 391938 -8341 0
0 0 0 753 392691 -7588 0
0 0 0 740 393431 -6848 0
0 0 0 685 394116 -6163 1
0 0 0 657 394773 -5506 1
0 0 0 678 395451 -4828 1
0 0 0 716 396167 -4112 0
0 0 0 683 396850 -3429 1
0 0 0 664 397514 -2765 1
0 0 0 677 398191 -2088 1
23 1 S112 724 398915 -1364 0
23 1 S112 731 399646 -633 0
23 2 S112 699 400345 66 0
23 2 S112 757 401102 823 0
23 2 S112 780 401882 1603 0
23 2 S112 806 402688 2409 0
23 2 S112 827 403515 3236 0
23 2 S112 833 404348 4069 0
23 2 S112 828 405176 4897 0
23 2 S112 771 405947 5668 0
23 2 S112 789 406736 6457 0
0 0 0 804 407540 -9367 0
0 0 0 834 408374 -8533 0
0 0 0 859 409233 -7674 0
0 0 0 866 410099 -6808 0
0 0 0 802 410901 -6006 0
0 0 0 774 411675 -5232 0
0 0 0 793 412468 -4439 0
0 0 0 804 413272 -3635 0
0 0 0 816 414088 -2819 0
0 0 0 810 414898 -2009 0
24 1 S106 771 415669 -1238 0
24 1 S106 781 416450 -457 0
24 2 S106 786 417236 329 0
24 2 S106 802 418038 1131 0
24 2 S106 838 418876 1969 0
24 2 S106 843 419719 2812 0
24 2 S106 808 420527 3620 0
24 2 S106 788 421315 4408 0
24 2 S106 817 422132 5225 0
24 2 S106 837 422969 6062 0
24 2 S106 856 423825 6918 0
0 0 0 864 424689 -8166 0
0 0 0 859 425548 -7307 0
0 0 0 830 426378 -6477 0
0 0 0 765 427143 -5712 0
0 0 0 761 427904 -4951 0
0 0 0 769 428673 -4182 0
0 0 0 781 429454 -3401 0
0 0 0 817 430271 -2584 0
25 1 S102 800 431071 -1784 0
25 1 S102 817 431888 -967 0
25 1 S102 840 432728 -127 0
25 2 S102 869 433597 742 0
25 2 S102 811 434408 1553 0
25 2 S102 801 435209 2354 0
25 2 S102 791 436000 3145 0
25 2 S102 754 436754 3899 0
25 2 S102 733 437487 4632 0
25 2 S102 737 438224 5369 0
25 2 S102 753 438977 6122 0
25 2 S102 768 439745 6890 0
0 0 0 773 440518 -6197 0
0 0 0 776 441294 -5421 0
0 0 0 772 442066 -4649 0
0 0 0 725 442791 -3924 0
0 0 0 707 443498 -3217 0
0 0 0 715 444213 -2502 0
26 1 S116 757 444970 -1745 0
26 1 S116 845 445815 -900 0
26 2 S116 945 446760 45 0
26 2 S116 946 447706 991 0
26 2 S116 923 448629 1914 0
26 2 S116 909 449538 2823 0
26 2 S116 870 450408 3693 0
26 2 S116 797 451205 4490 0
26 2 S116 815 452020 5305 0
26 2 S116 819 452839 6124 0
26 2 S116 837 453676 6961 0
0 0 0 853 454529 -7255 0
0 0 0 866 455395 -6389 0
0 0 0 859 456254 -5530 0
0 0 0 809 457063 -4721 0
0 0 0 828 457891 -3893 0
0 0 0 839 458730 -3054 0
0 0 0 851 459581 -2203 0
27 1 S106 839 460420 -1364 0
27 1 S106 806 461226 -558 0
27 2 S106 848 462074 290 0
27 2 S106 866 462940 1156 0
27 2 S106 877 463817 2033 0
27 2 S106 864 464681 2897 0
27 2 S106 853 465534 3750 0
27 2 S106 807 466341 4557 0
27 2 S106 806 467147 5363 0
27 2 S106 820 467967 6183 0
27 2 S106 841 468808 7024 0
0 0 0 864 469672 -6254 0
0 0 0 882 470554 -5372 0
0 0 0 870 471424 -4502 0
0 0 0 821 472245 -3681 0
0 0 0 811 473056 -2870 0
0 0 0 820 473876 -2050 0
28 1 S102 832 474708 -1218 0
28 1 S102 846 475554 -372 0
28 2 S102 825 476379 453 0
28 2 S102 801 477180 1254 0
28 2 S102 824 478004 2078 0
28 2 S102 842 478846 2920 0
28 2 S102 859 479705 3779 0
28 2 S102 854 480559 4633 0
28 2 S102 839 481398 5472 0
28 2 S102 805 482203 6277 0
0 0 0 819 483022 -11289 0
0 0 0 825 483847 -10464 0
0 0 0 847 484694 -9617 0
0 0 0 858 485552 -8759 0
0 0 0 857 486409 -7902 0
0 0 0 841 487250 -7061 0
0 0 0 838 488088 -6223 0
0 0 0 847 488935 -5376 0
0 0 0 851 489786 -4525 0
0 0 0 853 490639 -3672 0
0 0 0 833 491472 -2839 0
0 0 0 797 492269 -2042 0
29 1 S112 820 493089 -1222 0
29 1 S112 823 493912 -399 0
29 2 S112 840 494752 441 0
29 2 S112 855 495607 1296 0
29 2 S112 857 496464 2153 0
29 2 S112 849 497313 3002 0
29 2 S112 802 498115 3804 0
29 2 S112 803 498918 4607 0
29 2 S112 816 499734 5423 0
29 2 S112 847 500581 6270 0
0 0 0 874 501455 -7180 0
0 0 0 882 502337 -6298 0
0 0 0 881 503218 -5417 0
0 0 0 808 504026 -4609 0
0 0 0 807 504833 -3802 0
0 0 0 803 505636 -2999 0
0 0 0 806 506442 -2193 0
30 1 S112 810 507252 -1383 0
30 1 S112 797 508049 -586 0
30 2 S112 760 508809 174 0
30 2 S112 784 509593 958 0
30 2 S112 794 510387 1752 0
30 2 S112 812 511199 2564 0
30 2 S112 831 512030 3395 0
30 2 S112 826 512856 4221 0
30 2 S112 785 513641 5006 0
30 2 S112 809 514450 5815 0
30 2 S112 827 515277 6642 0
0 0 0 854 516131 -9198 0
0 0 0 856 516987 -8342 0
0 0 0 860 517847 -7482 0
0 0 0 834 518681 -6648 0
0 0 0 777 519458 -5871 0
0 0 0 772 520230 -5099 0
0 0 0 777 521007 -4322 0
0 0 0 792 521799 -3530 0
0 0 0 809 522608 -2721 0
31 1 S106 821 523429 -1900 0
31 1 S106 809 524238 -1091 0
31 1 S106 771 525009 -320 0
31 2 S106 794 525803 474 0
31 2 S106 809 526612 1283 0
31 2 S106 813 527425 2096 0
31 2 S106 823 528248 2919 0
31 2 S106 804 529052 3723 0
31 2 S106 790 529842 4513 0
31 2 S106 820 530662 5333 0
31 2 S106 841 531503 6174 0
31 2 S106 855 532358 7029 0
0 0 0 818 533176 -8682 0
0 0 0 832 534008 -7850 0
0 0 0 848 534856 -7002 0
0 0 0 843 535699 -6159 0
0 0 0 830 536529 -5329 0
0 0 0 823 537352 -4506 0
0 0 0 781 538133 -3725 0
0 0 0 794 538927 -2931 0
0 0 0 797 539724 -2134 0
32 1 S102 813 540537 -1321 0
32 1 S102 826 541363 -495 0
32 2 S102 801 542164 306 0
32 2 S102 809 542973 1115 0
32 2 S102 826 543799 1941 0
32 2 S102 844 544643 2785 0
32 2 S102 849 545492 3634 0
32 2 S102 842 546334 4476 0
32 2 S102 832 547166 5308 0
32 2 S102 821 547987 6129 0
32 2 S102 781 548768 6910 0
0 0 0 800 549568 -11305 0
0 0 0 810 550378 -10495 0
0 0 0 826 551204 -9669 0
0 0 0 840 552044 -8829 0
0 0 0 825 552869 -8004 0
0 0 0 777 553646 -7227 0
0 0 0 802 554448 -6425 0
0 0 0 813 555261 -5612 0
0 0 0 830 556091 -4782 0
0 0 0 832 556923 -3950 0
0 0 0 808 557731 -3142 0
0 0 0 780 558511 -2362 0
33 1 S112 802 559313 -1560 0
33 1 S112 801 560114 -759 0
33 2 S112 814 560928 55 0
33 2 S112 823 561751 878 0
33 2 S112 826 562577 1704 0
33 2 S112 819 563396 2523 0
33 2 S112 789 564185 3312 0
33 2 S112 809 564994 4121 0
33 2 S112 814 565808 4935 0
33 2 S112 841 566649 5776 0
33 2 S112 852 567501 6628 0
0 0 0 849 568350 -11439 0
0 0 0 827 569177 -10612 0
0 0 0 798 569975 -9814 0
0 0 0 819 570794 -8995 0
0 0 0 808 571602 -8187 0
0 0 0 810 572412 -7377 0
0 0 0 811 573223 -6566 0
0 0 0 797 574020 -5769 0
0 0 0 753 574773 -5016 0
0 0 0 773 575546 -4243 0
0 0 0 780 576326 -3463 0
0 0 0 808 577134 -2655 0
34 1 S106 827 577961 -1828 0
34 1 S106 810 578771 -1018 0
34 1 S106 767 579538 -251 0
34 2 S106 807 580345 556 0
34 2 S106 829 581174 1385 0
34 2 S106 848 582022 2233 0
34 2 S106 846 582868 3079 0
34 2 S106 794 583662 3873 0
34 2 S106 817 584479 4690 0
34 2 S106 819 585298 5509 0
34 2 S106 820 586118 6329 0
0 0 0 818 586936 -8636 0
0 0 0 813 587749 -7823 0
0 0 0 799 588548 -7024 0
0 0 0 751 589299 -6273 0
0 0 0 760 590059 -5513 0
0 0 0 767 590826 -4746 0
0 0 0 802 591628 -3944 0
0 0 0 838 592466 -3106 0
0 0 0 862 593328 -2244 0
35 1 S102 867 594195 -1377 0
35 1 S102 854 595049 -523 0
35 2 S102 794 595843 271 0
35 2 S102 815 596658 1086 0
35 2 S102 819 597477 1905 0
35 2 S102 828 598305 2733 0
35 2 S102 830 599135 3563 0
35 2 S102 823 599958 4386 0
35 2 S102 798 600756 5184 0
35 2 S102 800 601556 5984 0
35 2 S102 808 602364 6792 0
0 0 0 820 603184 -7242 0
0 0 0 835 604019 -6407 0
0 0 0 846 604865 -5561 0
0 0 0 812 605677 -4749 0
0 0 0 817 606494 -3932 0
0 0 0 824 607318 -3108 0
0 0 0 821 608139 -2287 0
36 1 S106 820 608959 -1467 0
36 1 S106 795 609754 -672 0
36 2 S106 778 610532 106 0
36 2 S106 795 611327 901 0
36 2 S106 815 612142 1716 0
36 2 S106 832 612974 2548 0
36 2 S106 843 613817 3391 0
36 2 S106 825 614642 4216 0
36 2 S106 812 615454 5028 0
36 2 S106 821 616275 5849 0
36 2 S106 834 617109 6683 0
0 0 0 842 617951 -8921 0
0 0 0 834 618785 -8087 0
0 0 0 833 619618 -7254 0
0 0 0 814 620432 -6440 0
0 0 0 781 621213 -5659 0
0 0 0 754 621967 -4905 0
0 0 0 768 622735 -4137 0
0 0 0 778 623513 -3359 0
0 0 0 794 624307 -2565 0
37 1 S116 804 625111 -1761 0
37 1 S116 812 625923 -949 0
37 1 S116 776 626699 -173 0
37 2 S116 784 627483 611 0
37 2 S116 800 628283 1411 0
37 2 S116 804 629087 2215 0
37 2 S116 811 629898 3026 0
37 2 S116 812 630710 3838 0
37 2 S116 796 631506 4634 0
37 2 S116 753 632259 5387 0
37 2 S116 784 633043 6171 0
37 2 S116 799 633842 6970 0
0 0 0 828 634670 -10504 0
0 0 0 837 635507 -9667 0
0 0 0 838 636345 -8829 0
0 0 0 802 637147 -8027 0
0 0 0 797 637944 -7230 0
0 0 0 795 638739 -6435 0
0 0 0 799 639538 -5636 0
0 0 0 798 640336 -4838 0
0 0 0 787 641123 -4051 0
0 0 0 752 641875 -3299 0
0 0 0 768 642643 -2531 0
38 1 S102 779 643422 -1752 0
38 1 S102 798 644220 -954 0
38 1 S102 812 645032 -142 0
38 2 S102 815 645847 673 0
38 2 S102 787 646634 1460 0
38 2 S102 799 647433 2259 0
38 2 S102 809 648242 3068 0
38 2 S102 823 649065 3891 0
38 2 S102 818 649883 4709 0
38 2 S102 819 650702 5528 0
38 2 S102 800 651502 6328 0
0 0 0 764 652266 -10647 0
0 0 0 780 653046 -9867 0
0 0 0 780 653826 -9087 0
0 0 0 808 654634 -8279 0
0 0 0 831 655465 -7448 0
0 0 0 833 656298 -6615 0
0 0 0 780 657078 -5835 0
0 0 0 725 657803 -5110 0
0 0 0 680 658483 -4430 1
0 0 0 748 659231 -3682 0
0 0 0 761 659992 -2921 0
0 0 0 808 660800 -2113 0
39 1 S116 834 661634 -1279 0
39 1 S116 817 662451 -462 0
39 2 S116 806 663257 344 0
39 2 S116 795 664052 1139 0
39 2 S116 785 664837 1924 0
39 2 S116 774 665611 2698 0
39 2 S116 764 666375 3462 0
39 2 S116 750 667125 4212 0
39 2 S116 738 667863 4950 0
39 2 S116 714 668577 5664 0
39 2 S116 723 669300 6387 0
0 0 0 748 670048 -7985 0
0 0 0 772 670820 -7213 0
0 0 0 829 671649 -6384 0
0 0 0 853 672502 -5531 0
0 0 0 864 673366 -4667 0
0 0 0 858 674224 -3809 0
0 0 0 842 675066 -2967 0
0 0 0 808 675874 -2159 0
40 1 S112 822 676696 -1337 0
40 1 S112 819 677515 -518 0
40 2 S112 806 678321 288 0
40 2 S112 807 679128 1095 0
40 2 S112 794 679922 1889 0
40 2 S112 790 680712 2679 0
40 2 S112 780 681492 3459 0
40 2 S112 779 682271 4238 0
40 2 S112 756 683027 4994 0
40 2 S112 768 683795 5762 0
40 2 S112 783 684578 6545 0
0 0 0 814 685392 -187769 0
0 0 0 839 686231 -186930 0
0 0 0 874 687105 -186056 0
0 0 0 868 687973 -185188 0
0 0 0 858 688831 -184330 0
0 0 0 821 689652 -183509 0
0 0 0 819 690471 -182690 0
0 0 0 815 691286 -181875 0
0 0 0 817 692103 -181058 0
0 0 0 817 692920 -180241 0
0 0 0 779 693699 -179462 0
0 0 0 735 694434 -178727 0
0 0 0 768 695202 -177959 0
0 0 0 768 695970 -177191 0
0 0 0 788 696758 -176403 0
0 0 0 808 697566 -175595 0
0 0 0 799 698365 -174796 0
0 0 0 753 699118 -174043 0
0 0 0 736 699854 -173307 0
0 0 0 779 700633 -172528 0
0 0 0 804 701437 -171724 0
0 0 0 839 702276 -170885 0
0 0 0 847 703123 -170038 0
0 0 0 833 703956 -169205 0
0 0 0 796 704752 -168409 0
0 0 0 747 705499 -167662 0
0 0 0 745 706244 -166917 0
0 0 0 774 707018 -166143 0
0 0 0 801 707819 -165342 0
0 0 0 842 708661 -164500 0
0 0 0 855 709516 -163645 0
0 0 0 859 710375 -162786 0
0 0 0 849 711224 -161937 0
0 0 0 815 712039 -161122 0
0 0 0 767 712806 -160355 0
0 0 0 779 713585 -159576 0
0 0 0 804 714389 -158772 0
0 0 0 847 715236 -157925 0
0 0 0 878 716114 -157047 0
0 0 0 887 717001 -156160 0
0 0 0 877 717878 -155283 0
0 0 0 839 718717 -154444 0
0 0 0 777 719494 -153667 0
0 0 0 765 720259 -152902 0
0 0 0 791 721050 -152111 0
0 0 0 809 721859 -151302 0
0 0 0 829 722688 -150473 0
0 0 0 841 723529 -149632 0
0 0 0 830 724359 -148802 0
0 0 0 781 725140 -148021 0
0 0 0 776 725916 -147245 0
0 0 0 796 726712 -146449 0
0 0 0 807 727519 -145642 0
0 0 0 821 728340 -144821 0
0 0 0 831 729171 -143990 0
0 0 0 832 730003 -143158 0
0 0 0 786 730789 -142372 0
0 0 0 772 731561 -141600 0
0 0 0 788 732349 -140812 0
0 0 0 805 733154 -140007 0
0 0 0 823 733977 -139184 0
0 0 0 858 734835 -138326 0
0 0 0 855 735690 -137471 0
0 0 0 838 736528 -136633 0
0 0 0 783 737311 -135850 0
0 0 0 780 738091 -135070 0
0 0 0 799 738890 -134271 0
0 0 0 810 739700 -133461 0
0 0 0 841 740541 -132620 0
0 0 0 859 741400 -131761 0
0 0 0 862 742262 -130899 0
0 0 0 842 743104 -130057 0
0 0 0 817 743921 -129240 0
0 0 0 829 744750 -128411 0
0 0 0 842 745592 -127569 0
0 0 0 848 746440 -126721 0
0 0 0 837 747277 -125884 0
0 0 0 808 748085 -125076 0
0 0 0 825 748910 -124251 0
0 0 0 834 749744 -123417 0
0 0 0 835 750579 -122582 0
0 0 0 832 751411 -121750 0
0 0 0 822 752233 -120928 0
0 0 0 791 753024 -120137 0
0 0 0 749 753773 -119388 0
0 0 0 753 754526 -118635 0
0 0 0 773 755299 -117862 0
0 0 0 792 756091 -117070 0
0 0 0 855 756946 -116215 0
0 0 0 877 757823 -115338 0
0 0 0 877 758700 -114461 0
0 0 0 859 759559 -113602 0
0 0 0 833 760392 -112769 0
0 0 0 765 761157 -112004 0
0 0 0 758 761915 -111246 0
0 0 0 768 762683 -110478 0
0 0 0 777 763460 -109701 0
0 0 0 801 764261 -108900 0
0 0 0 825 765086 -108075 0
0 0 0 827 765913 -107248 0
0 0 0 822 766735 -106426 0
0 0 0 818 767553 -105608 0
0 0 0 798 768351 -104810 0
0 0 0 799 769150 -104011 0
0 0 0 784 769934 -103227 0
0 0 0 779 770713 -102448 0
0 0 0 777 771490 -101671 0
0 0 0 771 772261 -100900 0
0 0 0 773 773034 -100127 0
0 0 0 777 773811 -99350 0
0 0 0 745 774556 -98605 0
0 0 0 731 775287 -97874 0
0 0 0 773 776060 -97101 0
0 0 0 801 776861 -96300 0
0 0 0 857 777718 -95443 0
0 0 0 878 778596 -94565 0
0 0 0 878 779474 -93687 0
0 0 0 864 780338 -92823 0
0 0 0 844 781182 -91979 0
0 0 0 805 781987 -91174 0
0 0 0 749 782736 -90425 0
0 0 0 768 783504 -89657 0
0 0 0 763 784267 -88894 0
0 0 0 770 785037 -88124 0
0 0 0 780 785817 -87344 0
0 0 0 793 786610 -86551 0
0 0 0 794 787404 -85757 0
0 0 0 789 788193 -84968 0
0 0 0 788 788981 -84180 0
0 0 0 778 789759 -83402 0
0 0 0 744 790503 -82658 0
0 0 0 756 791259 -81902 0
0 0 0 775 792034 -81127 0
0 0 0 829 792863 -80298 0
0 0 0 865 793728 -79433 0
0 0 0 888 794616 -78545 0
0 0 0 887 795503 -77658 0
0 0 0 857 796360 -76801 0
0 0 0 826 797186 -75975 0
0 0 0 812 797998 -75163 0
0 0 0 813 798811 -74350 0
0 0 0 825 799636 -73525 0
0 0 0 831 800467 -72694 0
0 0 0 838 801305 -71856 0
0 0 0 842 802147 -71014 0
0 0 0 832 802979 -70182 0
0 0 0 827 803806 -69355 0
0 0 0 797 804603 -68558 0
0 0 0 767 805370 -67791 0
0 0 0 789 806159 -67002 0
0 0 0 782 806941 -66220 0
0 0 0 810 807751 -65410 0
0 0 0 867 808618 -64543 0
0 0 0 922 809540 -63621 0
0 0 0 940 810480 -62681 0
0 0 0 934 811414 -61747 0
0 0 0 897 812311 -60850 0
0 0 0 861 813172 -59989 0
0 0 0 788 813960 -59201 0
0 0 0 790 814750 -58411 0
0 0 0 777 815527 -57634 0
0 0 0 781 816308 -56853 0
0 0 0 790 817098 -56063 0
0 0 0 798 817896 -55265 0
0 0 0 782 818678 -54483 0
0 0 0 754 819432 -53729 0
0 0 0 791 820223 -52938 0
0 0 0 818 821041 -52120 0
0 0 0 860 821901 -51260 0
0 0 0 874 822775 -50386 0
0 0 0 860 823635 -49526 0
0 0 0 836 824471 -48690 0
0 0 0 829 825300 -47861 0
0 0 0 832 826132 -47029 0
0 0 0 851 826983 -46178 0
0 0 0 859 827842 -45319 0
0 0 0 859 828701 -44460 0
0 0 0 837 829538 -43623 0
0 0 0 785 830323 -42838 0
0 0 0 799 831122 -42039 0
0 0 0 815 831937 -41224 0
0 0 0 850 832787 -40374 0
0 0 0 863 833650 -39511 0
0 0 0 857 834507 -38654 0
0 0 0 836 835343 -37818 0
0 0 0 797 836140 -37021 0
0 0 0 774 836914 -36247 0
0 0 0 769 837683 -35478 0
0 0 0 781 838464 -34697 0
0 0 0 790 839254 -33907 0
0 0 0 753 840007 -33154 0
0 0 0 792 840799 -32362 0
0 0 0 851 841650 -31511 0
0 0 0 901 842551 -30610 0
0 0 0 853 843404 -29757 0
0 0 0 857 844261 -28900 0
0 0 0 856 845117 -28044 0
0 0 0 852 845969 -27192 0
0 0 0 792 846761 -26400 0
0 0 0 799 847560 -25601 0
0 0 0 786 848346 -24815 0
0 0 0 780 849126 -24035 0
0 0 0 776 849902 -23259 0
0 0 0 744 850646 -22515 0
0 0 0 733 851379 -21782 0
0 0 0 763 852142 -21019 0
0 0 0 780 852922 -20239 0
0 0 0 834 853756 -19405 0
0 0 0 856 854612 -18549 0
0 0 0 870 855482 -17679 0
0 0 0 842 856324 -16837 0
0 0 0 861 857185 -15976 0
0 0 0 868 858053 -15108 0
0 0 0 882 858935 -14226 0
0 0 0 867 859802 -13359 0
0 0 0 807 860609 -12552 0
0 0 0 833 861442 -11719 0
0 0 0 846 862288 -10873 0
0 0 0 857 863145 -10016 0
0 0 0 843 863988 -9173 0
0 0 0 829 864817 -8344 0
0 0 0 843 865660 -7501 0
0 0 0 855 866515 -6646 0
0 0 0 859 867374 -5787 0
0 0 0 852 868226 -4935 0
0 0 0 836 869062 -4099 0
0 0 0 848 869910 -3251 0
0 0 0 848 870758 -2403 0
41 1 S102 858 871616 -1545 0
41 1 S102 876 872492 -669 0
41 2 S102 909 873401 240 0
41 2 S102 882 874283 1122 0
41 2 S102 812 875095 1934 0
41 2 S102 824 875919 2758 0
41 2 S102 821 876740 3579 0
41 2 S102 837 877577 4416 0
41 2 S102 864 878441 5280 0
41 2 S102 850 879291 6130 0
41 2 S102 833 880124 6963 0
0 0 0 864 880988 -6960 0
0 0 0 885 881873 -6075 0
0 0 0 897 882770 -5178 0
0 0 0 859 883629 -4319 0
0 0 0 810 884439 -3509 0
0 0 0 810 885249 -2699 0
42 1 S112 843 886092 -1856 0
42 1 S112 902 886994 -954 0
42 1 S112 947 887941 -7 0
42 2 S112 932 888873 925 0
42 2 S112 911 889784 1836 0
42 2 S112 869 890653 2705 0
42 2 S112 878 891531 3583 0
42 2 S112 897 892428 4480 0
42 2 S112 912 893340 5392 0
42 2 S112 924 894264 6316 0
0 0 0 917 895181 -8600 0
0 0 0 872 896053 -7728 0
0 0 0 905 896958 -6823 0
0 0 0 894 897852 -5929 0
0 0 0 898 898750 -5031 0
0 0 0 865 899615 -4166 0
0 0 0 812 900427 -3354 0
0 0 0 848 901275 -2506 0
43 1 S116 855 902130 -1651 0
43 1 S116 880 903010 -771 0
43 2 S116 882 903892 111 0
43 2 S116 871 904763 982 0
43 2 S116 839 905602 1821 0
43 2 S116 866 906468 2687 0
43 2 S116 885 907353 3572 0
43 2 S116 899 908252 4471 0
43 2 S116 910 909162 5381 0
43 2 S116 893 910055 6274 0
0 0 0 843 910898 -6908 0
0 0 0 862 911760 -6046 0
0 0 0 884 912644 -5162 0
0 0 0 877 913521 -4285 0
0 0 0 876 914397 -3409 0
0 0 0 828 915225 -2581 0
44 1 S102 867 916092 -1714 0
44 1 S102 867 916959 -847 0
44 2 S102 888 917847 41 0
44 2 S102 890 918737 931 0
44 2 S102 842 919579 1773 0
44 2 S102 871 920450 2644 0
44 2 S102 906 921356 3550 0
44 2 S102 919 922275 4469 0
44 2 S102 925 923200 5394 0
44 2 S102 910 924110 6304 0
0 0 0 839 924949 -10148 0
0 0 0 851 925800 -9297 0
0 0 0 870 926670 -8427 0
0 0 0 919 927589 -7508 0
0 0 0 918 928507 -6590 0
0 0 0 905 929412 -5685 0
0 0 0 861 930273 -4824 0
0 0 0 881 931154 -3943 0
0 0 0 888 932042 -3055 0
0 0 0 903 932945 -2152 0
45 1 S116 903 933848 -1249 0
45 1 S116 839 934687 -410 0
45 2 S116 846 935533 436 0
45 2 S116 866 936399 1302 0
45 2 S116 898 937297 2200 0
45 2 S116 911 938208 3111 0
45 2 S116 901 939109 4012 0
45 2 S116 855 939964 4867 0
45 2 S116 849 940813 5716 0
45 2 S116 868 941681 6584 0
0 0 0 882 942563 -10373 0
0 0 0 891 943454 -9482 0
0 0 0 892 944346 -8590 0
0 0 0 818 945164 -7772 0
0 0 0 843 946007 -6929 0
0 0 0 857 946864 -6072 0
0 0 0 873 947737 -5199 0
0 0 0 876 948613 -4323 0
0 0 0 878 949491 -3445 0
0 0 0 851 950342 -2594 0
46 1 S102 816 951158 -1778 0
46 1 S102 841 951999 -937 0
46 1 S102 857 952856 -80 0
46 2 S102 879 953735 799 0
46 2 S102 897 954632 1696 0
46 2 S102 885 955517 2581 0
46 2 S102 832 956349 3413 0
46 2 S102 857 957206 4270 0
46 2 S102 874 958080 5144 0
46 2 S102 887 958967 6031 0
46 2 S102 906 959873 6937 0
0 0 0 894 960767 -9792 0
0 0 0 850 961617 -8942 0
0 0 0 880 962497 -8062 0
0 0 0 918 963415 -7144 0
0 0 0 902 964317 -6242 0
0 0 0 894 965211 -5348 0
0 0 0 867 966078 -4481 0
0 0 0 852 966930 -3629 0
0 0 0 860 967790 -2769 0
47 1 S112 863 968653 -1906 0
47 1 S112 877 969530 -1029 0
47 1 S112 868 970398 -161 0
47 2 S112 814 971212 653 0
47 2 S112 838 972050 1491 0
47 2 S112 856 972906 2347 0
47 2 S112 887 973793 3234 0
47 2 S112 902 974695 4136 0
47 2 S112 950 975645 5086 0
47 2 S112 949 976594 6035 0
47 2 S112 932 977526 6967 0
0 0 0 922 978448 -11325 0
0 0 0 875 979323 -10450 0
0 0 0 860 980183 -9590 0
0 0 0 855 981038 -8735 0
0 0 0 845 981883 -7890 0
0 0 0 841 982724 -7049 0
0 0 0 817 983541 -6232 0
0 0 0 813 984354 -5419 0
0 0 0 842 985196 -4577 0
0 0 0 900 986096 -3677 0
0 0 0 930 987026 -2747 0
48 1 S116 869 987895 -1878 0
48 1 S116 894 988789 -984 0
48 1 S116 908 989697 -76 0
48 2 S116 915 990612 839 0
48 2 S116 915 991527 1754 0
48 2 S116 889 992416 2643 0
48 2 S116 861 993277 3504 0
48 2 S116 865 994142 4369 0
48 2 S116 876 995018 5245 0
48 2 S116 894 995912 6139 0
0 0 0 893 996805 -6794 0
0 0 0 836 997641 -5958 0
0 0 0 879 998520 -5079 0
0 0 0 867 999387 -4212 0
0 0 0 845 1000232 -3367 0
0 0 0 874 1001106 -2493 0
49 1 S112 916 1002022 -1577 0
49 1 S112 946 1002968 -631 0
49 2 S112 937 1003905 306 0
49 2 S112 895 1004800 1201 0
49 2 S112 887 1005687 2088 0
49 2 S112 880 1006567 2968 0
49 2 S112 889 1007456 3857 0
49 2 S112 877 1008333 4734 0
49 2 S112 844 1009177 5578 0
49 2 S112 866 1010043 6444 0
0 0 0 891 1010934 -11614 0
0 0 0 926 1011860 -10688 0
0 0 0 938 1012798 -9750 0
0 0 0 933 1013731 -8817 0
0 0 0 849 1014580 -7968 0
0 0 0 859 1015439 -7109 0
0 0 0 862 1016301 -6247 0
0 0 0 874 1017175 -5373 0
0 0 0 875 1018050 -4498 0
0 0 0 856 1018906 -3642 0
0 0 0 829 1019735 -2813 0
50 1 S106 851 1020586 -1962 0
50 1 S106 866 1021452 -1096 0
50 1 S106 847 1022299 -249 0
50 2 S106 862 1023161 613 0
50 2 S106 883 1024044 1496 0
50 2 S106 904 1024948 2400 0
50 2 S106 908 1025856 3308 0
50 2 S106 868 1026724 4176 0
50 2 S106 819 1027543 4995 0
50 2 S106 850 1028393 5845 0
50 2 S106 871 1029264 6716 0
0 0 0 910 1030174 -6267 0
0 0 0 906 1031080 -5361 0
0 0 0 892 1031972 -4469 0
0 0 0 830 1032802 -3639 0
0 0 0 843 1033645 -2796 0
51 1 S112 854 1034499 -1942 0
51 1 S112 862 1035361 -1080 0
51 1 S112 867 1036228 -213 0
51 2 S112 827 1037055 614 0
51 2 S112 859 1037914 1473 0
51 2 S112 893 1038807 2366 0
51 2 S112 926 1039733 3292 0
51 2 S112 927 1040660 4219 0
51 2 S112 913 1041573 5132 0
51 2 S112 871 1042444 6003 0
51 2 S112 867 1043311 6870 0
0 0 0 870 1044181 -6899 0
0 0 0 869 1045050 -6030 0
0 0 0 892 1045942 -5138 0
0 0 0 870 1046812 -4268 0
0 0 0 837 1047649 -3431 0
0 0 0 847 1048496 -2584 0
52 1 S116 876 1049372 -1708 0
52 1 S116 903 1050275 -805 0
52 2 S116 912 1051187 107 0
52 2 S116 891 1052078 998 0
52 2 S116 861 1052939 1859 0
52 2 S116 855 1053794 2714 0
52 2 S116 856 1054650 3570 0
52 2 S116 863 1055513 4433 0
52 2 S116 875 1056388 5308 0
52 2 S116 879 1057267 6187 0
0 0 0 852 1058119 -8561 0
0 0 0 849 1058968 -7712 0
0 0 0 856 1059824 -6856 0
0 0 0 861 1060685 -5995 0
0 0 0 896 1061581 -5099 0
0 0 0 878 1062459 -4221 0
0 0 0 823 1063282 -3398 0
0 0 0 860 1064142 -2538 0
53 1 S106 876 1065018 -1662 0
53 1 S106 897 1065915 -765 0
53 2 S106 889 1066804 124 0
53 2 S106 863 1067667 987 0
53 2 S106 829 1068496 1816 0
53 2 S106 841 1069337 2657 0
53 2 S106 858 1070195 3515 0
53 2 S106 878 1071073 4393 0
53 2 S106 889 1071962 5282 0
53 2 S106 876 1072838 6158 0
53 2 S106 841 1073679 6999 0
0 0 0 875 1074554 -5737 0
0 0 0 898 1075452 -4839 0
0 0 0 887 1076339 -3952 0
0 0 0 890 1077229 -3062 0
0 0 0 882 1078111 -2180 0
54 1 S102 833 1078944 -1347 0
54 1 S102 846 1079790 -501 0
54 2 S102 862 1080652 361 0
54 2 S102 859 1081511 1220 0
54 2 S102 811 1082322 2031 0
54 2 S102 815 1083137 2846 0
54 2 S102 870 1084007 3716 0
54 2 S102 926 1084933 4642 0
54 2 S102 972 1085905 5614 1
54 2 S102 957 1086862 6571 0
0 0 0 926 1087788 -10921 0
0 0 0 875 1088663 -10046 0
0 0 0 878 1089541 -9168 0
0 0 0 854 1090395 -8314 0
0 0 0 842 1091237 -7472 0
0 0 0 813 1092050 -6659 0
0 0 0 780 1092830 -5879 0
0 0 0 751 1093581 -5128 0
0 0 0 755 1094336 -4373 0
0 0 0 788 1095124 -3585 0
0 0 0 808 1095932 -2777 0
55 1 S106 801 1096733 -1976 0
55 1 S106 863 1097596 -1113 0
55 1 S106 901 1098497 -212 0
55 2 S106 911 1099408 699 0
55 2 S106 903 1100311 1602 0
55 2 S106 889 1101200 2491 0
55 2 S106 852 1102052 3343 0
55 2 S106 845 1102897 4188 0
55 2 S106 859 1103756 5047 0
55 2 S106 886 1104642 5933 0
55 2 S106 911 1105553 6844 0
0 0 0 917 1106470 -6729 0
0 0 0 922 1107392 -5807 0
0 0 0 903 1108295 -4904 0
0 0 0 868 1109163 -4036 0
0 0 0 885 1110048 -3151 0
0 0 0 912 1110960 -2239 0
56 1 S116 913 1111873 -1326 0
56 1 S116 930 1112803 -396 0
56 2 S116 930 1113733 534 0
56 2 S116 909 1114642 1443 0
56 2 S116 889 1115531 2332 0
56 2 S116 910 1116441 3242 0
56 2 S116 923 1117364 4165 0
56 2 S116 950 1118314 5115 0
56 2 S116 957 1119271 6072 0
56 2 S116 944 1120215 7016 0
0 0 0 900 1121115 -5728 0
0 0 0 886 1122001 -4842 0
0 0 0 850 1122851 -3992 0
0 0 0 844 1123695 -3148 0
0 0 0 842 1124537 -2306 0
57 1 S106 886 1125423 -1420 0
57 1 S106 935 1126358 -485 0
57 2 S106 934 1127292 449 0
57 2 S106 893 1128185 1342 0
57 2 S106 874 1129059 2216 0
57 2 S106 896 1129955 3112 0
57 2 S106 907 1130862 4019 0
57 2 S106 908 1131770 4927 0
57 2 S106 903 1132673 5830 0
57 2 S106 880 1133553 6710 0
0 0 0 838 1134391 -9113 0
0 0 0 868 1135259 -8245 0
0 0 0 887 1136146 -7358 0
0 0 0 917 1137063 -6441 0
0 0 0 914 1137977 -5527 0
0 0 0 914 1138891 -4613 0
0 0 0 886 1139777 -3727 0
0 0 0 888 1140665 -2839 0
58 1 S102 886 1141551 -1953 0
58 1 S102 910 1142461 -1043 0
58 1 S102 904 1143365 -139 0
58 2 S102 892 1144257 753 0
58 2 S102 844 1145101 1597 0
58 2 S102 848 1145949 2445 0
58 2 S102 875 1146824 3320 0
58 2 S102 895 1147719 4215 0
58 2 S102 924 1148643 5139 0
58 2 S102 933 1149576 6072 0
58 2 S102 930 1150506 7002 0
0 0 0 912 1151418 -6360 0
0 0 0 910 1152328 -5450 0
0 0 0 864 1153192 -4586 0
0 0 0 830 1154022 -3756 0
0 0 0 835 1154857 -2921 0
0 0 0 850 1155707 -2071 0
59 1 S112 863 1156570 -1208 0
59 1 S112 867 1157437 -341 0
59 2 S112 856 1158293 515 0
59 2 S112 831 1159124 1346 0
59 2 S112 868 1159992 2214 0
59 2 S112 895 1160887 3109 0
59 2 S112 926 1161813 4035 0
59 2 S112 924 1162737 4959 0
59 2 S112 916 1163653 5875 0
59 2 S112 895 1164548 6770 0
0 0 0 849 1165397 -7716 0
0 0 0 858 1166255 -6858 0
0 0 0 849 1167104 -6009 0
0 0 0 849 1167953 -5160 0
0 0 0 861 1168814 -4299 0
0 0 0 839 1169653 -3460 0
0 0 0 783 1170436 -2677 0
60 1 S102 825 1171261 -1852 0
60 1 S102 837 1172098 -1015 0
60 1 S102 891 1172989 -124 0
60 2 S102 912 1173901 788 0
60 2 S102 879 1174780 1667 0
60 2 S102 911 1175691 2578 0
60 2 S102 953 1176644 3531 0
60 2 S102 944 1177588 4475 0
60 2 S102 932 1178520 5407 0
60 2 S102 888 1179408 6295 0
0 0 0 853 1180261 -11470 0
0 0 0 862 1181123 -10608 0
0 0 0 859 1181982 -9749 0
0 0 0 856 1182838 -8893 0
0 0 0 839 1183677 -8054 0
0 0 0 809 1184486 -7245 0
0 0 0 827 1185313 -6418 0
0 0 0 847 1186160 -5571 0
0 0 0 880 1187040 -4691 0
0 0 0 912 1187952 -3779 0
0 0 0 897 1188849 -2882 0
0 0 0 846 1189695 -2036 0
61 1 S106 880 1190575 -1156 0
61 1 S106 897 1191472 -259 0
61 2 S106 904 1192376 645 0
61 2 S106 902 1193278 1547 0
61 2 S106 866 1194144 2413 0
61 2 S106 879 1195023 3292 0
61 2 S106 885 1195908 4177 0
61 2 S106 899 1196807 5076 0
61 2 S106 879 1197686 5955 0
61 2 S106 869 1198555 6824 0
0 0 0 884 1199439 -6317 0
0 0 0 903 1200342 -5414 0
0 0 0 914 1201256 -4500 0
0 0 0 891 1202147 -3609 0
0 0 0 851 1202998 -2758 0
62 1 S112 857 1203855 -1901 0
62 1 S112 860 1204715 -1041 0
62 1 S112 870 1205585 -171 0
62 2 S112 892 1206477 721 0
62 2 S112 887 1207364 1608 0
62 2 S112 865 1208229 2473 0
62 2 S112 888 1209117 3361 0
62 2 S112 913 1210030 4274 0
62 2 S112 897 1210927 5171 0
62 2 S112 893 1211820 6064 0
62 2 S112 863 1212683 6927 0
0 0 0 878 1213561 -9768 0
0 0 0 882 1214443 -8886 0
0 0 0 882 1215325 -8004 0
0 0 0 875 1216200 -7129 0
0 0 0 854 1217054 -6275 0
0 0 0 843 1217897 -5432 0
0 0 0 862 1218759 -4570 0
0 0 0 870 1219629 -3700 0
0 0 0 879 1220508 -2821 0
63 1 S102 892 1221400 -1929 0
63 1 S102 889 1222289 -1040 0
63 1 S102 857 1223146 -183 0
63 2 S102 884 1224030 701 0
63 2 S102 895 1224925 1596 0
63 2 S102 905 1225830 2501 0
63 2 S102 891 1226721 3392 0
63 2 S102 865 1227586 4257 0
63 2 S102 881 1228467 5138 0
63 2 S102 893 1229360 6031 0
63 2 S102 893 1230253 6924 0
0 0 0 891 1231144 -7786 0
0 0 0 864 1232008 -6922 0
0 0 0 825 1232833 -6097 0
0 0 0 844 1233677 -5253 0
0 0 0 851 1234528 -4402 0
0 0 0 874 1235402 -3528 0
0 0 0 870 1236272 -2658 0
64 1 S112 830 1237102 -1828 0
64 1 S112 840 1237942 -988 0
64 1 S112 844 1238786 -144 0
64 2 S112 861 1239647 717 0
64 2 S112 875 1240522 1592 0
64 2 S112 830 1241352 2422 0
64 2 S112 858 1242210 3280 0
64 2 S112 879 1243089 4159 0
64 2 S112 898 1243987 5057 0
64 2 S112 901 1244888 5958 0
64 2 S112 865 1245753 6823 0
0 0 0 873 1246626 -5881 0
0 0 0 877 1247503 -5004 0
0 0 0 866 1248369 -4138 0
0 0 0 857 1249226 -3281 0
0 0 0 831 1250057 -2450 0
65 1 S106 827 1250884 -1623 0
65 1 S106 840 1251724 -783 0
65 2 S106 848 1252572 65 0
65 2 S106 859 1253431 924 0
65 2 S106 872 1254303 1796 0
65 2 S106 853 1255156 2649 0
65 2 S106 832 1255988 3481 0
65 2 S106 867 1256855 4348 0
65 2 S106 894 1257749 5242 0
65 2 S106 903 1258652 6145 0
0 0 0 893 1259545 -6457 0
0 0 0 887 1260432 -5570 0
0 0 0 867 1261299 -4703 0
0 0 0 790 1262089 -3913 0
0 0 0 813 1262902 -3100 0
0 0 0 825 1263727 -2275 0
66 1 S116 854 1264581 -1421 0
66 1 S116 879 1265460 -542 0
66 2 S116 876 1266336 334 0
66 2 S116 842 1267178 1176 0
66 2 S116 881 1268059 2057 0
66 2 S116 887 1268946 2944 0
66 2 S116 902 1269848 3846 0
66 2 S116 872 1270720 4718 0
66 2 S116 827 1271547 5545 0
66 2 S116 838 1272385 6383 0
0 0 0 845 1273230 -10478 0
0 0 0 845 1274075 -9633 0
0 0 0 854 1274929 -8779 0
0 0 0 811 1275740 -7968 0
0 0 0 812 1276552 -7156 0
0 0 0 830 1277382 -6326 0
0 0 0 848 1278230 -5478 0
0 0 0 850 1279080 -4628 0
0 0 0 833 1279913 -3795 0
0 0 0 805 1280718 -2990 0
0 0 0 832 1281550 -2158 0
67 1 S102 839 1282389 -1319 0
67 1 S102 844 1283233 -475 0
67 2 S102 808 1284041 333 0
67 2 S102 844 1284885 1177 0
67 2 S102 868 1285753 2045 0
67 2 S102 893 1286646 2938 0
67 2 S102 904 1287550 3842 0
67 2 S102 879 1288429 4721 0
67 2 S102 885 1289314 5606 0
67 2 S102 907 1290221 6513 0
0 0 0 912 1291133 -7329 0
0 0 0 914 1292047 -6415 0
0 0 0 924 1292971 -5491 0
0 0 0 884 1293855 -4607 0
0 0 0 806 1294661 -3801 0
0 0 0 758 1295419 -3043 0
0 0 0 792 1296211 -2251 0
68 1 S106 814 1297025 -1437 0
68 1 S106 833 1297858 -604 0
68 2 S106 859 1298717 255 0
68 2 S106 869 1299586 1124 0
68 2 S106 873 1300459 1997 0
68 2 S106 854 1301313 2851 0
68 2 S106 797 1302110 3648 0
68 2 S106 814 1302924 4462 0
68 2 S106 829 1303753 5291 0
68 2 S106 849 1304602 6140 0
68 2 S106 884 1305486 7024 0
0 0 0 904 1306390 -9811 0
0 0 0 913 1307303 -8898 0
0 0 0 893 1308196 -8005 0
0 0 0 877 1309073 -7128 0
0 0 0 829 1309902 -6299 0
0 0 0 791 1310693 -5508 0
0 0 0 812 1311505 -4696 0
0 0 0 879 1312384 -3817 0
0 0 0 992 1313376 -2825 1
69 1 S102 1050 1314426 -1775 1
69 1 S102 1010 1315436 -765 1
69 2 S102 971 1316407 206 1
69 2 S102 854 1317261 1060 0
69 2 S102 827 1318088 1887 0
69 2 S102 787 1318875 2674 0
69 2 S102 756 1319631 3430 0
69 2 S102 736 1320367 4166 0
69 2 S102 702 1321069 4868 0
69 2 S102 689 1321758 5557 1
69 2 S102 680 1322438 6237 1
69 2 S102 662 1323100 6899 1
0 0 0 741 1323841 -8740 0
0 0 0 784 1324625 -7956 0
0 0 0 815 1325440 -7141 0
0 0 0 747 1326187 -6394 0
0 0 0 744 1326931 -5650 0
0 0 0 785 1327716 -4865 0
0 0 0 809 1328525 -4056 0
0 0 0 800 1329325 -3256 0
0 0 0 824 1330149 -2432 0
70 1 S112 873 1331022 -1559 0
70 1 S112 786 1331808 -773 0
70 2 S112 793 1332601 20 0
70 2 S112 854 1333455 874 0
70 2 S112 871 1334326 1745 0
70 2 S112 878 1335204 2623 0
70 2 S112 874 1336078 3497 0
70 2 S112 867 1336945 4364 0
70 2 S112 857 1337802 5221 0
70 2 S112 853 1338655 6074 0
70 2 S112 839 1339494 6913 0
0 0 0 838 1340332 -11778 0
0 0 0 827 1341159 -10951 0
0 0 0 782 1341941 -10169 0
0 0 0 837 1342778 -9332 0
0 0 0 846 1343624 -8486 0
0 0 0 887 1344511 -7599 0
0 0 0 880 1345391 -6719 0
0 0 0 832 1346223 -5887 0
0 0 0 869 1347092 -5018 0
0 0 0 871 1347963 -4147 0
0 0 0 864 1348827 -3283 0
0 0 0 836 1349663 -2447 0
71 1 S116 779 1350442 -1668 0
71 1 S116 798 1351240 -870 0
71 1 S116 803 1352043 -67 0
71 2 S116 813 1352856 746 0
71 2 S116 846 1353702 1592 0
71 2 S116 850 1354552 2442 0
71 2 S116 837 1355389 3279 0
71 2 S116 794 1356183 4073 0
71 2 S116 814 1356997 4887 0
71 2 S116 828 1357825 5715 0
71 2 S116 844 1358669 6559 0
0 0 0 856 1359525 -8202 0
0 0 0 822 1360347 -7380 0
0 0 0 825 1361172 -6555 0
0 0 0 818 1361990 -5737 0
0 0 0 822 1362812 -4915 0
0 0 0 785 1363597 -4130 0
0 0 0 790 1364387 -3340 0
0 0 0 792 1365179 -2548 0
72 1 S102 805 1365984 -1743 0
72 1 S102 808 1366792 -935 0
72 1 S102 778 1367570 -157 0
72 2 S102 800 1368370 643 0
72 2 S102 811 1369181 1454 0
72 2 S102 834 1370015 2288 0
72 2 S102 841 1370856 3129 0
72 2 S102 835 1371691 3964 0
72 2 S102 827 1372518 4791 0
72 2 S102 846 1373364 5637 0
72 2 S102 860 1374224 6497 0
0 0 0 870 1375094 -6741 0
0 0 0 861 1375955 -5880 0
0 0 0 812 1376767 -5068 0
0 0 0 801 1377568 -4267 0
0 0 0 777 1378345 -3490 0
0 0 0 758 1379103 -2732 0
73 1 S116 772 1379875 -1960 0
73 1 S116 812 1380687 -1148 0
73 1 S116 824 1381511 -324 0
73 2 S116 838 1382349 514 0
73 2 S116 837 1383186 1351 0
73 2 S116 810 1383996 2161 0
73 2 S116 828 1384824 2989 0
73 2 S116 838 1385662 3827 0
73 2 S116 861 1386523 4688 0
73 2 S116 868 1387391 5556 0
73 2 S116 836 1388227 6392 0
0 0 0 839 1389066 -9779 0
0 0 0 870 1389936 -8909 0
0 0 0 911 1390847 -7998 0
0 0 0 945 1391792 -7053 0
0 0 0 893 1392685 -6160 0
0 0 0 829 1393514 -5331 0
0 0 0 831 1394345 -4500 0
0 0 0 835 1395180 -3665 0
0 0 0 845 1396025 -2820 0
74 1 S106 860 1396885 -1960 0
74 1 S106 862 1397747 -1098 0
74 1 S106 845 1398592 -253 0
74 2 S106 828 1399420 575 0
74 2 S106 843 1400263 1418 0
74 2 S106 861 1401124 2279 0
74 2 S106 876 1402000 3155 0
74 2 S106 888 1402888 4043 0
74 2 S106 865 1403753 4908 0
74 2 S106 868 1404621 5776 0
74 2 S106 891 1405512 6667 0
0 0 0 900 1406412 -6491 0
0 0 0 923 1407335 -5568 0
0 0 0 910 1408245 -4658 0
0 0 0 867 1409112 -3791 0
0 0 0 839 1409951 -2952 0
0 0 0 842 1410793 -2110 0
75 1 S112 847 1411640 -1263 0
75 1 S112 860 1412500 -403 0
75 2 S112 842 1413342 439 0
75 2 S112 829 1414171 1268 0
75 2 S112 837 1415008 2105 0
75 2 S112 849 1415857 2954 0
75 2 S112 861 1416718 3815 0
75 2 S112 869 1417587 4684 0
75 2 S112 872 1418459 5556 0
75 2 S112 867 1419326 6423 0
0 0 0 831 1420157 -7385 0
0 0 0 855 1421012 -6530 0
0 0 0 879 1421891 -5651 0
0 0 0 888 1422779 -4763 0
0 0 0 882 1423661 -3881 0
0 0 0 845 1424506 -3036 0
0 0 0 839 1425345 -2197 0
76 1 S116 844 1426189 -1353 0
76 1 S116 842 1427031 -511 0
76 2 S116 856 1427887 345 0
76 2 S116 862 1428749 1207 0
76 2 S116 870 1429619 2077 0
76 2 S116 844 1430463 2921 0
76 2 S116 834 1431297 3755 0
76 2 S116 849 1432146 4604 0
76 2 S116 865 1433011 5469 0
76 2 S116 886 1433897 6355 0
0 0 0 885 1434782 -7316 0
0 0 0 835 1435617 -6481 0
0 0 0 868 1436485 -5613 0
0 0 0 876 1437361 -4737 0
0 0 0 870 1438231 -3867 0
0 0 0 856 1439087 -3011 0
0 0 0 816 1439903 -2195 0
77 1 S106 839 1440742 -1356 0
77 1 S106 849 1441591 -507 0
77 2 S106 864 1442455 357 0
77 2 S106 870 1443325 1227 0
77 2 S106 850 1444175 2077 0
77 2 S106 828 1445003 2905 0
77 2 S106 866 1445869 3771 0
77 2 S106 897 1446766 4668 0
77 2 S106 913 1447679 5581 0
77 2 S106 907 1448586 6488 0
0 0 0 897 1449483 -8447 0
0 0 0 852 1450335 -7595 0
0 0 0 844 1451179 -6751 0
0 0 0 838 1452017 -5913 0
0 0 0 846 1452863 -5067 0
0 0 0 857 1453720 -4210 0
0 0 0 859 1454579 -3351 0
0 0 0 835 1455414 -2516 0
78 1 S112 836 1456250 -1680 0
78 1 S112 856 1457106 -824 0
78 2 S112 902 1458008 78 0
78 2 S112 915 1458923 993 0
78 2 S112 932 1459855 1925 0
78 2 S112 908 1460763 2833 0
78 2 S112 884 1461647 3717 0
78 2 S112 892 1462539 4609 0
78 2 S112 893 1463432 5502 0
78 2 S112 886 1464318 6388 0
0 0 0 846 1465164 -11384 0
0 0 0 859 1466023 -10525 0
0 0 0 877 1466900 -9648 0
0 0 0 899 1467799 -8749 0
0 0 0 883 1468682 -7866 0
0 0 0 841 1469523 -7025 0
0 0 0 856 1470379 -6169 0
0 0 0 879 1471258 -5290 0
0 0 0 888 1472146 -4402 0
0 0 0 890 1473036 -3512 0
0 0 0 875 1473911 -2637 0
79 1 S102 845 1474756 -1792 0
79 1 S102 873 1475629 -919 0
79 1 S102 907 1476536 -12 0
79 2 S102 885 1477421 873 0
79 2 S102 856 1478277 1729 0
79 2 S102 880 1479157 2609 0
79 2 S102 903 1480060 3512 0
79 2 S102 921 1480981 4433 0
79 2 S102 914 1481895 5347 0
79 2 S102 868 1482763 6215 0
0 0 0 860 1483623 -10232 0
0 0 0 869 1484492 -9363 0
0 0 0 882 1485374 -8481 0
0 0 0 895 1486269 -7586 0
0 0 0 888 1487157 -6698 0
0 0 0 854 1488011 -5844 0
0 0 0 809 1488820 -5035 0
0 0 0 831 1489651 -4204 0
0 0 0 851 1490502 -3353 0
0 0 0 861 1491363 -2492 0
80 1 S116 850 1492213 -1642 0
80 1 S116 808 1493021 -834 0
80 2 S116 838 1493859 4 0
80 2 S116 873 1494732 877 0
80 2 S116 902 1495634 1779 0
80 2 S116 898 1496532 2677 0
80 2 S116 886 1497418 3563 0
80 2 S116 867 1498285 4430 0
80 2 S116 842 1499127 5272 0
80 2 S116 792 1499919 6064 0
80 2 S116 805 1500724 6869 0
