T_0123
BeatCount Mean SD BeatCountNoOutliers MeanNoOutliers SDNoOutliers
1978 762,323559150657 45,7975406596492 1938 763,646026831785 41,6919931602939

Trial TrialStatus Trialtype IBI AbsPosition RelPosition Outlier
0 0 0 669 1328 -14648 0
0 0 0 690 2018 -13958 0
0 0 0 707 2725 -13251 0
0 0 0 728 3453 -12523 0
0 0 0 723 4176 -11800 0
0 0 0 769 4945 -11031 0
0 0 0 800 5745 -10231 0
0 0 0 788 6533 -9443 0
0 0 0 776 7309 -8667 0
0 0 0 764 8073 -7903 0
0 0 0 732 8805 -7171 0
0 0 0 690 9495 -6481 0
0 0 0 685 10180 -5796 0
0 0 0 681 10861 -5115 0
0 0 0 661 11522 -4454 0
0 0 0 674 12196 -3780 0
0 0 0 661 12857 -3119 0
0 0 0 620 13477 -2499 1
1 1 S112 609 14086 -1890 1
1 1 S112 616 14702 -1274 1
1 1 S112 632 15334 -642 1
1 2 S112 664 15998 22 0
1 2 S112 750 16748 772 0
1 2 S112 772 17520 1544 0
1 2 S112 746 18266 2290 0
1 2 S112 746 19012 3036 0
1 2 S112 739 19751 3775 0
1 2 S112 744 20495 4519 0
1 2 S112 715 21210 5234 0
1 2 S112 697 21907 5931 0
1 2 S112 710 22617 6641 0
0 0 0 724 23341 -10705 0
0 0 0 753 24094 -9952 0
0 0 0 750 24844 -9202 0
0 0 0 769 25613 -8433 0
0 0 0 773 26386 -7660 0
0 0 0 744 27130 -6916 0
0 0 0 742 27872 -6174 0
0 0 0 728 28600 -5446 0
0 0 0 717 29317 -4729 0
0 0 0 694 30011 -4035 0
0 0 0 715 30726 -3320 0
0 0 0 735 31461 -2585 0
2 1 S102 766 32227 -1819 0
2 1 S102 779 33006 -1040 0
2 1 S102 790 33796 -250 0
2 2 S102 789 34585 539 0
2 2 S102 784 35369 1323 0
2 2 S102 761 36130 2084 0
2 2 S102 765 36895 2849 0
2 2 S102 762 37657 3611 0
2 2 S102 770 38427 4381 0
2 2 S102 757 39184 5138 0
2 2 S102 790 39974 5928 0
2 2 S102 813 40787 6741 0
0 0 0 811 41598 -8662 0
0 0 0 778 42376 -7884 0
0 0 0 774 43150 -7110 0
0 0 0 753 43903 -6357 0
0 0 0 714 44617 -5643 0
0 0 0 727 45344 -4916 0
0 0 0 730 46074 -4186 0
0 0 0 735 46809 -3451 0
0 0 0 732 47541 -2719 0
3 1 S116 746 48287 -1973 0
3 1 S116 761 49048 -1212 0
3 1 S116 750 49798 -462 0
3 2 S116 746 50544 284 0
3 2 S116 752 51296 1036 0
3 2 S116 767 52063 1803 0
3 2 S116 758 52821 2561 0
3 2 S116 730 53551 3291 0
3 2 S116 732 54283 4023 0
3 2 S116 736 55019 4759 0
3 2 S116 743 55762 5502 0
3 2 S116 744 56506 6246 0
3 2 S116 750 57256 6996 0
0 0 0 779 58035 -10876 0
0 0 0 799 58834 -10077 0
0 0 0 793 59627 -9284 0
0 0 0 777 60404 -8507 0
0 0 0 765 61169 -7742 0
0 0 0 761 61930 -6981 0
0 0 0 745 62675 -6236 0
0 0 0 743 63418 -5493 0
0 0 0 759 64177 -4734 0
0 0 0 773 64950 -3961 0
0 0 0 761 65711 -3200 0
0 0 0 788 66499 -2412 0
4 1 S106 815 67314 -1597 0
4 1 S106 817 68131 -780 0
4 1 S106 777 68908 -3 0
4 2 S106 765 69673 762 0
4 2 S106 769 70442 1531 0
4 2 S106 769 71211 2300 0
4 2 S106 740 71951 3040 0
4 2 S106 757 72708 3797 0
4 2 S106 779 73487 4576 0
4 2 S106 803 74290 5379 0
4 2 S106 801 75091 6180 0
4 2 S106 811 75902 6991 0
0 0 0 825 76727 -7519 0
0 0 0 839 77566 -6680 0
0 0 0 801 78367 -5879 0
0 0 0 821 79188 -5058 0
0 0 0 806 79994 -4252 0
0 0 0 779 80773 -3473 0
0 0 0 744 81517 -2729 0
5 1 S116 748 82265 -1981 0
5 1 S116 760 83025 -1221 0
5 1 S116 759 83784 -462 0
5 2 S116 768 84552 306 0
5 2 S116 803 85355 1109 0
5 2 S116 838 86193 1947 0
5 2 S116 834 87027 2781 0
5 2 S116 802 87829 3583 0
5 2 S116 812 88641 4395 0
5 2 S116 819 89460 5214 0
5 2 S116 794 90254 6008 0
5 2 S116 788 91042 6796 0
0 0 0 776 91818 -8260 0
0 0 0 787 92605 -7473 0
0 0 0 780 93385 -6693 0
0 0 0 779 94164 -5914 0
0 0 0 783 94947 -5131 0
0 0 0 791 95738 -4340 0
0 0 0 790 96528 -3550 0
0 0 0 805 97333 -2745 0
6 1 S106 787 98120 -1958 0
6 1 S106 735 98855 -1223 0
6 1 S106 703 99558 -520 0
6 2 S106 689 100247 169 0
6 2 S106 696 100943 865 0
6 2 S106 745 101688 1610 0
6 2 S106 773 102461 2383 0
6 2 S106 812 103273 3195 0
6 2 S106 844 104117 4039 0
6 2 S106 839 104956 4878 0
6 2 S106 811 105767 5689 0
6 2 S106 778 106545 6467 0
0 0 0 747 107292 -11669 0
0 0 0 751 108043 -10918 0
0 0 0 779 108822 -10139 0
0 0 0 775 109597 -9364 0
0 0 0 777 110374 -8587 0
0 0 0 779 111153 -7808 0
0 0 0 768 111921 -7040 0
0 0 0 749 112670 -6291 0
0 0 0 748 113418 -5543 0
0 0 0 761 114179 -4782 0
0 0 0 739 114918 -4043 0
0 0 0 741 115659 -3302 0
0 0 0 739 116398 -2563 0
7 1 S102 762 117160 -1801 0
7 1 S102 773 117933 -1028 0
7 1 S102 787 118720 -241 0
7 2 S102 776 119496 535 0
7 2 S102 772 120268 1307 0
7 2 S102 759 121027 2066 0
7 2 S102 771 121798 2837 0
7 2 S102 794 122592 3631 0
7 2 S102 805 123397 4436 0
7 2 S102 786 124183 5222 0
7 2 S102 769 124952 5991 0
7 2 S102 790 125742 6781 0
0 0 0 800 126542 -8849 0
0 0 0 805 127347 -8044 0
0 0 0 795 128142 -7249 0
0 0 0 789 128931 -6460 0
0 0 0 765 129696 -5695 0
0 0 0 733 130429 -4962 0
0 0 0 729 131158 -4233 0
0 0 0 725 131883 -3508 0
0 0 0 709 132592 -2799 0
0 0 0 674 133266 -2125 0
8 1 S112 679 133945 -1446 0
8 1 S112 669 134614 -777 0
8 1 S112 691 135305 -86 0
8 2 S112 687 135992 601 0
8 2 S112 732 136724 1333 0
8 2 S112 776 137500 2109 0
8 2 S112 811 138311 2920 0
8 2 S112 819 139130 3739 0
8 2 S112 793 139923 4532 0
8 2 S112 774 140697 5306 0
8 2 S112 753 141450 6059 0
8 2 S112 751 142201 6810 0
0 0 0 741 142942 -7684 0
0 0 0 726 143668 -6958 0
0 0 0 737 144405 -6221 0
0 0 0 741 145146 -5480 0
0 0 0 760 145906 -4720 0
0 0 0 733 146639 -3987 0
0 0 0 731 147370 -3256 0
0 0 0 741 148111 -2515 0
9 1 S116 773 148884 -1742 0
9 1 S116 777 149661 -965 0
9 1 S116 791 150452 -174 0
9 2 S116 799 151251 625 0
9 2 S116 814 152065 1439 0
9 2 S116 799 152864 2238 0
9 2 S116 796 153660 3034 0
9 2 S116 812 154472 3846 0
9 2 S116 828 155300 4674 0
9 2 S116 808 156108 5482 0
9 2 S116 786 156894 6268 0
0 0 0 802 157696 -12012 0
0 0 0 813 158509 -11199 0
0 0 0 823 159332 -10376 0
0 0 0 836 160168 -9540 0
0 0 0 849 161017 -8691 0
0 0 0 817 161834 -7874 0
0 0 0 802 162636 -7072 0
0 0 0 800 163436 -6272 0
0 0 0 800 164236 -5472 0
0 0 0 767 165003 -4705 0
0 0 0 749 165752 -3956 0
0 0 0 751 166503 -3205 0
0 0 0 749 167252 -2456 0
10 1 S102 746 167998 -1710 0
10 1 S102 739 168737 -971 0
10 1 S102 763 169500 -208 0
10 2 S102 778 170278 570 0
10 2 S102 787 171065 1357 0
10 2 S102 789 171854 2146 0
10 2 S102 787 172641 2933 0
10 2 S102 786 173427 3719 0
10 2 S102 786 174213 4505 0
10 2 S102 761 174974 5266 0
10 2 S102 769 175743 6035 0
10 2 S102 778 176521 6813 0
0 0 0 792 177313 -11145 0
0 0 0 779 178092 -10366 0
0 0 0 799 178891 -9567 0
0 0 0 787 179678 -8780 0
0 0 0 795 180473 -7985 0
0 0 0 786 181259 -7199 0
0 0 0 744 182003 -6455 0
0 0 0 718 182721 -5737 0
0 0 0 742 183463 -4995 0
0 0 0 760 184223 -4235 0
0 0 0 779 185002 -3456 0
0 0 0 757 185759 -2699 0
11 1 S112 769 186528 -1930 0
11 1 S112 767 187295 -1163 0
11 1 S112 749 188044 -414 0
11 2 S112 722 188766 308 0
11 2 S112 739 189505 1047 0
11 2 S112 751 190256 1798 0
11 2 S112 768 191024 2566 0
11 2 S112 773 191797 3339 0
11 2 S112 778 192575 4117 0
11 2 S112 777 193352 4894 0
11 2 S112 795 194147 5689 0
11 2 S112 778 194925 6467 0
0 0 0 786 195711 -7635 0
0 0 0 815 196526 -6820 0
0 0 0 819 197345 -6001 0
0 0 0 778 198123 -5223 0
0 0 0 768 198891 -4455 0
0 0 0 749 199640 -3706 0
0 0 0 747 200387 -2959 0
0 0 0 740 201127 -2219 0
12 1 S116 751 201878 -1468 0
12 1 S116 750 202628 -718 0
12 2 S116 754 203382 36 0
12 2 S116 754 204136 790 0
12 2 S116 738 204874 1528 0
12 2 S116 750 205624 2278 0
12 2 S116 764 206388 3042 0
12 2 S116 766 207154 3808 0
12 2 S116 748 207902 4556 0
12 2 S116 761 208663 5317 0
12 2 S116 757 209420 6074 0
12 2 S116 772 210192 6846 0
0 0 0 785 210977 -11616 0
0 0 0 777 211754 -10839 0
0 0 0 790 212544 -10049 0
0 0 0 783 213327 -9266 0
0 0 0 761 214088 -8505 0
0 0 0 711 214799 -7794 0
0 0 0 711 215510 -7083 0
0 0 0 696 216206 -6387 0
0 0 0 674 216880 -5713 0
0 0 0 678 217558 -5035 0
0 0 0 666 218224 -4369 0
0 0 0 649 218873 -3720 0
0 0 0 709 219582 -3011 0
0 0 0 765 220347 -2246 0
13 1 S112 750 221097 -1496 0
13 1 S112 779 221876 -717 0
13 2 S112 766 222642 49 0
13 2 S112 725 223367 774 0
13 2 S112 709 224076 1483 0
13 2 S112 714 224790 2197 0
13 2 S112 711 225501 2908 0
13 2 S112 729 226230 3637 0
13 2 S112 704 226934 4341 0
13 2 S112 714 227648 5055 0
13 2 S112 731 228379 5786 0
13 2 S112 764 229143 6550 0
0 0 0 778 229921 -11505 0
0 0 0 781 230702 -10724 0
0 0 0 781 231483 -9943 0
0 0 0 787 232270 -9156 0
0 0 0 783 233053 -8373 0
0 0 0 751 233804 -7622 0
0 0 0 755 234559 -6867 0
0 0 0 763 235322 -6104 0
0 0 0 761 236083 -5343 0
0 0 0 734 236817 -4609 0
0 0 0 743 237560 -3866 0
0 0 0 748 238308 -3118 0
0 0 0 766 239074 -2352 0
14 1 S106 756 239830 -1596 0
14 1 S106 759 240589 -837 0
14 1 S106 765 241354 -72 0
14 2 S106 785 242139 713 0
14 2 S106 789 242928 1502 0
14 2 S106 798 243726 2300 0
14 2 S106 809 244535 3109 0
14 2 S106 809 245344 3918 0
14 2 S106 791 246135 4709 0
14 2 S106 776 246911 5485 0
14 2 S106 774 247685 6259 0
0 0 0 813 248498 -10883 0
0 0 0 839 249337 -10044 0
0 0 0 813 250150 -9231 0
0 0 0 815 250965 -8416 0
0 0 0 797 251762 -7619 0
0 0 0 773 252535 -6846 0
0 0 0 728 253263 -6118 0
0 0 0 737 254000 -5381 0
0 0 0 749 254749 -4632 0
0 0 0 773 255522 -3859 0
0 0 0 765 256287 -3094 0
0 0 0 788 257075 -2306 0
15 1 S116 789 257864 -1517 0
15 1 S116 799 258663 -718 0
15 2 S116 764 259427 46 0
15 2 S116 772 260199 818 0
15 2 S116 772 260971 1590 0
15 2 S116 778 261749 2368 0
15 2 S116 774 262523 3142 0
15 2 S116 779 263302 3921 0
15 2 S116 801 264103 4722 0
15 2 S116 822 264925 5544 0
15 2 S116 805 265730 6349 0
0 0 0 815 266545 -10011 0
0 0 0 832 267377 -9179 0
0 0 0 806 268183 -8373 0
0 0 0 807 268990 -7566 0
0 0 0 818 269808 -6748 0
0 0 0 798 270606 -5950 0
0 0 0 760 271366 -5190 0
0 0 0 768 272134 -4422 0
0 0 0 765 272899 -3657 0
0 0 0 767 273666 -2890 0
0 0 0 750 274416 -2140 0
16 1 S116 775 275191 -1365 0
16 1 S116 795 275986 -570 0
16 2 S116 789 276775 219 0
16 2 S116 788 277563 1007 0
16 2 S116 800 278363 1807 0
16 2 S116 818 279181 2625 0
16 2 S116 795 279976 3420 0
16 2 S116 796 280772 4216 0
16 2 S116 793 281565 5009 0
16 2 S116 794 282359 5803 0
16 2 S116 731 283090 6534 0
0 0 0 746 283836 -9829 0
0 0 0 764 284600 -9065 0
0 0 0 787 285387 -8278 0
0 0 0 778 286165 -7500 0
0 0 0 804 286969 -6696 0
0 0 0 796 287765 -5900 0
0 0 0 753 288518 -5147 0
0 0 0 734 289252 -4413 0
0 0 0 722 289974 -3691 0
0 0 0 713 290687 -2978 0
0 0 0 707 291394 -2271 0
17 1 S106 670 292064 -1601 0
17 1 S106 664 292728 -937 0
17 1 S106 634 293362 -303 1
17 2 S106 641 294003 338 1
17 2 S106 645 294648 983 0
17 2 S106 689 295337 1672 0
17 2 S106 700 296037 2372 0
17 2 S106 717 296754 3089 0
17 2 S106 731 297485 3820 0
17 2 S106 752 298237 4572 0
17 2 S106 769 299006 5341 0
17 2 S106 773 299779 6114 0
17 2 S106 813 300592 6927 0
0 0 0 818 301410 -10674 0
0 0 0 829 302239 -9845 0
0 0 0 798 303037 -9047 0
0 0 0 778 303815 -8269 0
0 0 0 764 304579 -7505 0
0 0 0 724 305303 -6781 0
0 0 0 725 306028 -6056 0
0 0 0 732 306760 -5324 0
0 0 0 758 307518 -4566 0
0 0 0 783 308301 -3783 0
0 0 0 837 309138 -2946 0
0 0 0 852 309990 -2094 0
18 1 S102 820 310810 -1274 0
18 1 S102 783 311593 -491 0
18 2 S102 767 312360 276 0
18 2 S102 744 313104 1020 0
18 2 S102 721 313825 1741 0
18 2 S102 717 314542 2458 0
18 2 S102 726 315268 3184 0
18 2 S102 738 316006 3922 0
18 2 S102 741 316747 4663 0
18 2 S102 739 317486 5402 0
18 2 S102 710 318196 6112 0
18 2 S102 708 318904 6820 0
0 0 0 731 319635 -7883 0
0 0 0 762 320397 -7121 0
0 0 0 771 321168 -6350 0
0 0 0 775 321943 -5575 0
0 0 0 774 322717 -4801 0
0 0 0 788 323505 -4013 0
0 0 0 759 324264 -3254 0
0 0 0 744 325008 -2510 0
19 1 S106 735 325743 -1775 0
19 1 S106 733 326476 -1042 0
19 1 S106 719 327195 -323 0
19 2 S106 710 327905 387 0
19 2 S106 730 328635 1117 0
19 2 S106 777 329412 1894 0
19 2 S106 799 330211 2693 0
19 2 S106 809 331020 3502 0
19 2 S106 825 331845 4327 0
19 2 S106 830 332675 5157 0
19 2 S106 810 333485 5967 0
19 2 S106 794 334279 6761 0
0 0 0 783 335062 -11256 0
0 0 0 789 335851 -10467 0
0 0 0 749 336600 -9718 0
0 0 0 750 337350 -8968 0
0 0 0 742 338092 -8226 0
0 0 0 734 338826 -7492 0
0 0 0 706 339532 -6786 0
0 0 0 702 340234 -6084 0
0 0 0 701 340935 -5383 0
0 0 0 707 341642 -4676 0
0 0 0 732 342374 -3944 0
0 0 0 728 343102 -3216 0
0 0 0 746 343848 -2470 0
20 1 S112 772 344620 -1698 0
20 1 S112 785 345405 -913 0
20 1 S112 778 346183 -135 0
20 2 S112 769 346952 634 0
20 2 S112 757 347709 1391 0
20 2 S112 721 348430 2112 0
20 2 S112 702 349132 2814 0
20 2 S112 698 349830 3512 0
20 2 S112 696 350526 4208 0
20 2 S112 676 351202 4884 0
20 2 S112 653 351855 5537 0
20 2 S112 642 352497 6179 1
20 2 S112 653 353150 6832 0
0 0 0 673 353823 -10499 0
0 0 0 714 354537 -9785 0
0 0 0 728 355265 -9057 0
0 0 0 764 356029 -8293 0
0 0 0 772 356801 -7521 0
0 0 0 763 357564 -6758 0
0 0 0 724 358288 -6034 0
0 0 0 707 358995 -5327 0
0 0 0 696 359691 -4631 0
0 0 0 704 360395 -3927 0
0 0 0 702 361097 -3225 0
0 0 0 720 361817 -2505 0
21 1 S106 740 362557 -1765 0
21 1 S106 770 363327 -995 0
21 1 S106 784 364111 -211 0
21 2 S106 803 364914 592 0
21 2 S106 818 365732 1410 0
21 2 S106 814 366546 2224 0
21 2 S106 795 367341 3019 0
21 2 S106 770 368111 3789 0
21 2 S106 752 368863 4541 0
21 2 S106 751 369614 5292 0
21 2 S106 729 370343 6021 0
21 2 S106 759 371102 6780 0
0 0 0 775 371877 -10798 0
0 0 0 790 372667 -10008 0
0 0 0 802 373469 -9206 0
0 0 0 820 374289 -8386 0
0 0 0 819 375108 -7567 0
0 0 0 783 375891 -6784 0
0 0 0 790 376681 -5994 0
0 0 0 784 377465 -5210 0
0 0 0 781 378246 -4429 0
0 0 0 738 378984 -3691 0
0 0 0 714 379698 -2977 0
0 0 0 722 380420 -2255 0
22 1 S116 744 381164 -1511 0
22 1 S116 748 381912 -763 0
22 2 S116 767 382679 4 0
22 2 S116 785 383464 789 0
22 2 S116 815 384279 1604 0
22 2 S116 809 385088 2413 0
22 2 S116 771 385859 3184 0
22 2 S116 722 386581 3906 0
22 2 S116 719 387300 4625 0
22 2 S116 724 388024 5349 0
22 2 S116 754 388778 6103 0
22 2 S116 772 389550 6875 0
0 0 0 801 390351 -9250 0
0 0 0 835 391186 -8415 0
0 0 0 850 392036 -7565 0
0 0 0 816 392852 -6749 0
0 0 0 798 393650 -5951 0
0 0 0 771 394421 -5180 0
0 0 0 751 395172 -4429 0
0 0 0 726 395898 -3703 0
0 0 0 699 396597 -3004 0
0 0 0 721 397318 -2283 0
23 1 S112 743 398061 -1540 0
23 1 S112 777 398838 -763 0
23 2 S112 796 399634 33 0
23 2 S112 828 400462 861 0
23 2 S112 832 401294 1693 0
23 2 S112 826 402120 2519 0
23 2 S112 776 402896 3295 0
23 2 S112 760 403656 4055 0
23 2 S112 755 404411 4810 0
23 2 S112 762 405173 5572 0
23 2 S112 764 405937 6336 0
0 0 0 761 406698 -10775 0
0 0 0 777 407475 -9998 0
0 0 0 798 408273 -9200 0
0 0 0 792 409065 -8408 0
0 0 0 789 409854 -7619 0
0 0 0 800 410654 -6819 0
0 0 0 806 411460 -6013 0
0 0 0 777 412237 -5236 0
0 0 0 770 413007 -4466 0
0 0 0 756 413763 -3710 0
0 0 0 764 414527 -2946 0
0 0 0 735 415262 -2211 0
24 1 S106 757 416019 -1454 0
24 1 S106 773 416792 -681 0
24 2 S106 767 417559 86 0
24 2 S106 753 418312 839 0
24 2 S106 783 419095 1622 0
24 2 S106 793 419888 2415 0
24 2 S106 792 420680 3207 0
24 2 S106 755 421435 3962 0
24 2 S106 758 422193 4720 0
24 2 S106 773 422966 5493 0
24 2 S106 790 423756 6283 0
0 0 0 801 424557 -8699 0
0 0 0 797 425354 -7902 0
0 0 0 796 426150 -7106 0
0 0 0 780 426930 -6326 0
0 0 0 735 427665 -5591 0
0 0 0 734 428399 -4857 0
0 0 0 742 429141 -4115 0
0 0 0 763 429904 -3352 0
0 0 0 753 430657 -2599 0
25 1 S102 781 431438 -1818 0
25 1 S102 795 432233 -1023 0
25 1 S102 817 433050 -206 0
25 2 S102 797 433847 591 0
25 2 S102 781 434628 1372 0
25 2 S102 774 435402 2146 0
25 2 S102 763 436165 2909 0
25 2 S102 739 436904 3648 0
25 2 S102 747 437651 4395 0
25 2 S102 769 438420 5164 0
25 2 S102 777 439197 5941 0
25 2 S102 781 439978 6722 0
0 0 0 798 440776 -7284 0
0 0 0 828 441604 -6456 0
0 0 0 845 442449 -5611 0
0 0 0 822 443271 -4789 0
0 0 0 798 444069 -3991 0
0 0 0 796 444865 -3195 0
0 0 0 782 445647 -2413 0
26 1 S116 770 446417 -1643 0
26 1 S116 770 447187 -873 0
26 1 S116 759 447946 -114 0
26 2 S116 739 448685 625 0
26 2 S116 779 449464 1404 0
26 2 S116 824 450288 2228 0
26 2 S116 845 451133 3073 0
26 2 S116 844 451977 3917 0
26 2 S116 842 452819 4759 0
26 2 S116 840 453659 5599 0
26 2 S116 834 454493 6433 0
0 0 0 796 455289 -6382 0
0 0 0 775 456064 -5607 0
0 0 0 772 456836 -4835 0
0 0 0 758 457594 -4077 0
0 0 0 739 458333 -3338 0
0 0 0 752 459085 -2586 0
27 1 S106 766 459851 -1820 0
27 1 S106 773 460624 -1047 0
27 1 S106 759 461383 -288 0
27 2 S106 746 462129 458 0
27 2 S106 742 462871 1200 0
27 2 S106 735 463606 1935 0
27 2 S106 725 464331 2660 0
27 2 S106 742 465073 3402 0
27 2 S106 750 465823 4152 0
27 2 S106 778 466601 4930 0
27 2 S106 760 467361 5690 0
27 2 S106 709 468070 6399 0
0 0 0 719 468789 -7372 0
0 0 0 732 469521 -6640 0
0 0 0 736 470257 -5904 0
0 0 0 781 471038 -5123 0
0 0 0 807 471845 -4316 0
0 0 0 782 472627 -3534 0
0 0 0 727 473354 -2807 0
0 0 0 733 474087 -2074 0
28 1 S102 744 474831 -1330 0
28 1 S102 746 475577 -584 0
28 2 S102 733 476310 149 0
28 2 S102 728 477038 877 0
28 2 S102 720 477758 1597 0
28 2 S102 709 478467 2306 0
28 2 S102 701 479168 3007 0
28 2 S102 670 479838 3677 0
28 2 S102 673 480511 4350 0
28 2 S102 656 481167 5006 0
28 2 S102 660 481827 5666 0
28 2 S102 648 482475 6314 0
28 2 S102 631 483106 6945 1
0 0 0 646 483752 -10181 0
0 0 0 661 484413 -9520 0
0 0 0 692 485105 -8828 0
0 0 0 708 485813 -8120 0
0 0 0 688 486501 -7432 0
0 0 0 705 487206 -6727 0
0 0 0 716 487922 -6011 0
0 0 0 737 488659 -5274 0
0 0 0 746 489405 -4528 0
0 0 0 742 490147 -3786 0
0 0 0 770 490917 -3016 0
0 0 0 800 491717 -2216 0
29 1 S112 805 492522 -1411 0
29 1 S112 777 493299 -634 0
29 2 S112 777 494076 143 0
29 2 S112 781 494857 924 0
29 2 S112 790 495647 1714 0
29 2 S112 782 496429 2496 0
29 2 S112 819 497248 3315 0
29 2 S112 833 498081 4148 0
29 2 S112 846 498927 4994 0
29 2 S112 840 499767 5834 0
29 2 S112 822 500589 6656 0
0 0 0 834 501423 -7281 0
0 0 0 843 502266 -6438 0
0 0 0 801 503067 -5637 0
0 0 0 808 503875 -4829 0
0 0 0 794 504669 -4035 0
0 0 0 796 505465 -3239 0
0 0 0 745 506210 -2494 0
30 1 S112 721 506931 -1773 0
30 1 S112 725 507656 -1048 0
30 1 S112 773 508429 -275 0
30 2 S112 840 509269 565 0
30 2 S112 860 510129 1425 0
30 2 S112 879 511008 2304 0
30 2 S112 895 511903 3199 1
30 2 S112 872 512775 4071 0
30 2 S112 859 513634 4930 0
30 2 S112 808 514442 5738 0
30 2 S112 752 515194 6490 0
0 0 0 707 515901 -8519 0
0 0 0 698 516599 -7821 0
0 0 0 695 517294 -7126 0
0 0 0 716 518010 -6410 0
0 0 0 708 518718 -5702 0
0 0 0 703 519421 -4999 0
0 0 0 733 520154 -4266 0
0 0 0 770 520924 -3496 0
0 0 0 808 521732 -2688 0
31 1 S106 806 522538 -1882 0
31 1 S106 840 523378 -1042 0
31 1 S106 847 524225 -195 0
31 2 S106 830 525055 635 0
31 2 S106 794 525849 1429 0
31 2 S106 777 526626 2206 0
31 2 S106 765 527391 2971 0
31 2 S106 774 528165 3745 0
31 2 S106 753 528918 4498 0
31 2 S106 755 529673 5253 0
31 2 S106 771 530444 6024 0
31 2 S106 782 531226 6806 0
0 0 0 784 532010 -9238 0
0 0 0 827 532837 -8411 0
0 0 0 867 533704 -7544 0
0 0 0 852 534556 -6692 0
0 0 0 789 535345 -5903 0
0 0 0 767 536112 -5136 0
0 0 0 748 536860 -4388 0
0 0 0 720 537580 -3668 0
0 0 0 688 538268 -2980 0
0 0 0 717 538985 -2263 0
32 1 S102 743 539728 -1520 0
32 1 S102 812 540540 -708 0
32 2 S102 791 541331 83 0
32 2 S102 823 542154 906 0
32 2 S102 824 542978 1730 0
32 2 S102 812 543790 2542 0
32 2 S102 785 544575 3327 0
32 2 S102 765 545340 4092 0
32 2 S102 750 546090 4842 0
32 2 S102 725 546815 5567 0
32 2 S102 706 547521 6273 0
32 2 S102 725 548246 6998 0
0 0 0 760 549006 -9881 0
0 0 0 783 549789 -9098 0
0 0 0 766 550555 -8332 0
0 0 0 774 551329 -7558 0
0 0 0 753 552082 -6805 0
0 0 0 717 552799 -6088 0
0 0 0 712 553511 -5376 0
0 0 0 722 554233 -4654 0
0 0 0 745 554978 -3909 0
0 0 0 750 555728 -3159 0
0 0 0 752 556480 -2407 0
33 1 S112 751 557231 -1656 0
33 1 S112 759 557990 -897 0
33 1 S112 748 558738 -149 0
33 2 S112 725 559463 576 0
33 2 S112 737 560200 1313 0
33 2 S112 760 560960 2073 0
33 2 S112 773 561733 2846 0
33 2 S112 769 562502 3615 0
33 2 S112 754 563256 4369 0
33 2 S112 751 564007 5120 0
33 2 S112 734 564741 5854 0
33 2 S112 735 565476 6589 0
0 0 0 708 566184 -10890 0
0 0 0 739 566923 -10151 0
0 0 0 755 567678 -9396 0
0 0 0 784 568462 -8612 0
0 0 0 763 569225 -7849 0
0 0 0 768 569993 -7081 0
0 0 0 771 570764 -6310 0
0 0 0 764 571528 -5546 0
0 0 0 751 572279 -4795 0
0 0 0 744 573023 -4051 0
0 0 0 739 573762 -3312 0
0 0 0 738 574500 -2574 0
34 1 S106 730 575230 -1844 0
34 1 S106 691 575921 -1153 0
34 1 S106 709 576630 -444 0
34 2 S106 724 577354 280 0
34 2 S106 759 578113 1039 0
34 2 S106 784 578897 1823 0
34 2 S106 775 579672 2598 0
34 2 S106 783 580455 3381 0
34 2 S106 790 581245 4171 0
34 2 S106 787 582032 4958 0
34 2 S106 779 582811 5737 0
34 2 S106 784 583595 6521 0
0 0 0 801 584396 -8377 0
0 0 0 811 585207 -7566 0
0 0 0 792 585999 -6774 0
0 0 0 790 586789 -5984 0
0 0 0 797 587586 -5187 0
0 0 0 753 588339 -4434 0
0 0 0 754 589093 -3680 0
0 0 0 741 589834 -2939 0
0 0 0 722 590556 -2217 0
35 1 S102 684 591240 -1533 0
35 1 S102 666 591906 -867 0
35 1 S102 653 592559 -214 0
35 2 S102 671 593230 457 0
35 2 S102 688 593918 1145 0
35 2 S102 714 594632 1859 0
35 2 S102 710 595342 2569 0
35 2 S102 729 596071 3298 0
35 2 S102 746 596817 4044 0
35 2 S102 765 597582 4809 0
35 2 S102 767 598349 5576 0
35 2 S102 764 599113 6340 0
0 0 0 765 599878 -7551 0
0 0 0 734 600612 -6817 0
0 0 0 738 601350 -6079 0
0 0 0 745 602095 -5334 0
0 0 0 767 602862 -4567 0
0 0 0 759 603621 -3808 0
0 0 0 751 604372 -3057 0
0 0 0 758 605130 -2299 0
36 1 S106 776 605906 -1523 0
36 1 S106 756 606662 -767 0
36 1 S106 759 607421 -8 0
36 2 S106 769 608190 761 0
36 2 S106 785 608975 1546 0
36 2 S106 771 609746 2317 0
36 2 S106 757 610503 3074 0
36 2 S106 751 611254 3825 0
36 2 S106 760 612014 4585 0
36 2 S106 761 612775 5346 0
36 2 S106 750 613525 6096 0
36 2 S106 762 614287 6858 0
0 0 0 765 615052 -8541 0
0 0 0 792 615844 -7749 0
0 0 0 789 616633 -6960 0
0 0 0 784 617417 -6176 0
0 0 0 780 618197 -5396 0
0 0 0 759 618956 -4637 0
0 0 0 733 619689 -3904 0
0 0 0 748 620437 -3156 0
0 0 0 780 621217 -2376 0
37 1 S116 802 622019 -1574 0
37 1 S116 817 622836 -757 0
37 2 S116 784 623620 27 0
37 2 S116 789 624409 816 0
37 2 S116 790 625199 1606 0
37 2 S116 796 625995 2402 0
37 2 S116 777 626772 3179 0
37 2 S116 784 627556 3963 0
37 2 S116 789 628345 4752 0
37 2 S116 796 629141 5548 0
37 2 S116 778 629919 6326 0
0 0 0 788 630707 -10475 0
0 0 0 797 631504 -9678 0
0 0 0 807 632311 -8871 0
0 0 0 773 633084 -8098 0
0 0 0 771 633855 -7327 0
0 0 0 762 634617 -6565 0
0 0 0 764 635381 -5801 0
0 0 0 767 636148 -5034 0
0 0 0 729 636877 -4305 0
0 0 0 737 637614 -3568 0
0 0 0 730 638344 -2838 0
0 0 0 727 639071 -2111 0
38 1 S102 701 639772 -1410 0
38 1 S102 716 640488 -694 0
38 2 S102 726 641214 32 0
38 2 S102 738 641952 770 0
38 2 S102 725 642677 1495 0
38 2 S102 741 643418 2236 0
38 2 S102 759 644177 2995 0
38 2 S102 784 644961 3779 0
38 2 S102 818 645779 4597 0
38 2 S102 828 646607 5425 0
38 2 S102 806 647413 6231 0
38 2 S102 765 648178 6996 0
0 0 0 749 648927 -9049 0
0 0 0 759 649686 -8290 0
0 0 0 770 650456 -7520 0
0 0 0 773 651229 -6747 0
0 0 0 736 651965 -6011 0
0 0 0 728 652693 -5283 0
0 0 0 714 653407 -4569 0
0 0 0 711 654118 -3858 0
0 0 0 698 654816 -3160 0
0 0 0 675 655491 -2485 0
39 1 S116 653 656144 -1832 0
39 1 S116 652 656796 -1180 0
39 1 S116 683 657479 -497 0
39 2 S116 688 658167 191 0
39 2 S116 715 658882 906 0
39 2 S116 740 659622 1646 0
39 2 S116 777 660399 2423 0
39 2 S116 803 661202 3226 0
39 2 S116 796 661998 4022 0
39 2 S116 802 662800 4824 0
39 2 S116 792 663592 5616 0
39 2 S116 774 664366 6390 0
0 0 0 742 665108 -7126 0
0 0 0 758 665866 -6368 0
0 0 0 767 666633 -5601 0
0 0 0 797 667430 -4804 0
0 0 0 781 668211 -4023 0
0 0 0 773 668984 -3250 0
0 0 0 786 669770 -2464 0
40 1 S112 805 670575 -1659 0
40 1 S112 798 671373 -861 0
40 1 S112 769 672142 -92 0
40 2 S112 793 672935 701 0
40 2 S112 803 673738 1504 0
40 2 S112 806 674544 2310 0
40 2 S112 778 675322 3088 0
40 2 S112 778 676100 3866 0
40 2 S112 774 676874 4640 0
40 2 S112 774 677648 5414 0
40 2 S112 750 678398 6164 0
40 2 S112 764 679162 6928 0
0 0 0 783 679945 -186389 0
0 0 0 798 680743 -185591 0
0 0 0 775 681518 -184816 0
0 0 0 795 682313 -184021 0
0 0 0 787 683100 -183234 0
0 0 0 747 683847 -182487 0
0 0 0 723 684570 -181764 0
0 0 0 743 685313 -181021 0
0 0 0 746 686059 -180275 0
0 0 0 747 686806 -179528 0
0 0 0 733 687539 -178795 0
0 0 0 735 688274 -178060 0
0 0 0 736 689010 -177324 0
0 0 0 736 689746 -176588 0
0 0 0 722 690468 -175866 0
0 0 0 728 691196 -175138 0
0 0 0 722 691918 -174416 0
0 0 0 712 692630 -173704 0
0 0 0 674 693304 -173030 0
0 0 0 673 693977 -172357 0
0 0 0 678 694655 -171679 0
0 0 0 712 695367 -170967 0
0 0 0 744 696111 -170223 0
0 0 0 742 696853 -169481 0
0 0 0 747 697600 -168734 0
0 0 0 749 698349 -167985 0
0 0 0 766 699115 -167219 0
0 0 0 752 699867 -166467 0
0 0 0 753 700620 -165714 0
0 0 0 735 701355 -164979 0
0 0 0 718 702073 -164261 0
0 0 0 689 702762 -163572 0
0 0 0 676 703438 -162896 0
0 0 0 648 704086 -162248 0
0 0 0 620 704706 -161628 1
0 0 0 618 705324 -161010 1
0 0 0 651 705975 -160359 0
0 0 0 686 706661 -159673 0
0 0 0 733 707394 -158940 0
0 0 0 743 708137 -158197 0
0 0 0 764 708901 -157433 0
0 0 0 747 709648 -156686 0
0 0 0 722 710370 -155964 0
0 0 0 705 711075 -155259 0
0 0 0 661 711736 -154598 0
0 0 0 687 712423 -153911 0
0 0 0 696 713119 -153215 0
0 0 0 715 713834 -152500 0
0 0 0 731 714565 -151769 0
0 0 0 757 715322 -151012 0
0 0 0 781 716103 -150231 0
0 0 0 835 716938 -149396 0
0 0 0 863 717801 -148533 0
0 0 0 835 718636 -147698 0
0 0 0 813 719449 -146885 0
0 0 0 802 720251 -146083 0
0 0 0 778 721029 -145305 0
0 0 0 731 721760 -144574 0
0 0 0 711 722471 -143863 0
0 0 0 732 723203 -143131 0
0 0 0 765 723968 -142366 0
0 0 0 773 724741 -141593 0
0 0 0 752 725493 -140841 0
0 0 0 768 726261 -140073 0
0 0 0 777 727038 -139296 0
0 0 0 766 727804 -138530 0
0 0 0 714 728518 -137816 0
0 0 0 704 729222 -137112 0
0 0 0 700 729922 -136412 0
0 0 0 711 730633 -135701 0
0 0 0 714 731347 -134987 0
0 0 0 720 732067 -134267 0
0 0 0 726 732793 -133541 0
0 0 0 738 733531 -132803 0
0 0 0 748 734279 -132055 0
0 0 0 740 735019 -131315 0
0 0 0 750 735769 -130565 0
0 0 0 748 736517 -129817 0
0 0 0 758 737275 -129059 0
0 0 0 745 738020 -128314 0
0 0 0 760 738780 -127554 0
0 0 0 774 739554 -126780 0
0 0 0 759 740313 -126021 0
0 0 0 738 741051 -125283 0
0 0 0 736 741787 -124547 0
0 0 0 738 742525 -123809 0
0 0 0 768 743293 -123041 0
0 0 0 793 744086 -122248 0
0 0 0 836 744922 -121412 0
0 0 0 857 745779 -120555 0
0 0 0 885 746664 -119670 1
0 0 0 852 747516 -118818 0
0 0 0 833 748349 -117985 0
0 0 0 816 749165 -117169 0
0 0 0 791 749956 -116378 0
0 0 0 767 750723 -115611 0
0 0 0 780 751503 -114831 0
0 0 0 815 752318 -114016 0
0 0 0 825 753143 -113191 0
0 0 0 796 753939 -112395 0
0 0 0 790 754729 -111605 0
0 0 0 803 755532 -110802 0
0 0 0 784 756316 -110018 0
0 0 0 786 757102 -109232 0
0 0 0 800 757902 -108432 0
0 0 0 810 758712 -107622 0
0 0 0 772 759484 -106850 0
0 0 0 777 760261 -106073 0
0 0 0 784 761045 -105289 0
0 0 0 814 761859 -104475 0
0 0 0 813 762672 -103662 0
0 0 0 811 763483 -102851 0
0 0 0 797 764280 -102054 0
0 0 0 793 765073 -101261 0
0 0 0 786 765859 -100475 0
0 0 0 757 766616 -99718 0
0 0 0 768 767384 -98950 0
0 0 0 782 768166 -98168 0
0 0 0 780 768946 -97388 0
0 0 0 750 769696 -96638 0
0 0 0 758 770454 -95880 0
0 0 0 766 771220 -95114 0
0 0 0 777 771997 -94337 0
0 0 0 767 772764 -93570 0
0 0 0 743 773507 -92827 0
0 0 0 741 774248 -92086 0
0 0 0 740 774988 -91346 0
0 0 0 721 775709 -90625 0
0 0 0 734 776443 -89891 0
0 0 0 736 777179 -89155 0
0 0 0 750 777929 -88405 0
0 0 0 761 778690 -87644 0
0 0 0 739 779429 -86905 0
0 0 0 738 780167 -86167 0
0 0 0 739 780906 -85428 0
0 0 0 774 781680 -84654 0
0 0 0 788 782468 -83866 0
0 0 0 779 783247 -83087 0
0 0 0 765 784012 -82322 0
0 0 0 757 784769 -81565 0
0 0 0 724 785493 -80841 0
0 0 0 727 786220 -80114 0
0 0 0 695 786915 -79419 0
0 0 0 665 787580 -78754 0
0 0 0 659 788239 -78095 0
0 0 0 642 788881 -77453 1
0 0 0 669 789550 -76784 0
0 0 0 673 790223 -76111 0
0 0 0 682 790905 -75429 0
0 0 0 657 791562 -74772 0
0 0 0 706 792268 -74066 0
0 0 0 734 793002 -73332 0
0 0 0 757 793759 -72575 0
0 0 0 757 794516 -71818 0
0 0 0 727 795243 -71091 0
0 0 0 726 795969 -70365 0
0 0 0 730 796699 -69635 0
0 0 0 730 797429 -68905 0
0 0 0 739 798168 -68166 0
0 0 0 762 798930 -67404 0
0 0 0 786 799716 -66618 0
0 0 0 801 800517 -65817 0
0 0 0 797 801314 -65020 0
0 0 0 814 802128 -64206 0
0 0 0 832 802960 -63374 0
0 0 0 828 803788 -62546 0
0 0 0 807 804595 -61739 0
0 0 0 800 805395 -60939 0
0 0 0 783 806178 -60156 0
0 0 0 783 806961 -59373 0
0 0 0 783 807744 -58590 0
0 0 0 796 808540 -57794 0
0 0 0 802 809342 -56992 0
0 0 0 789 810131 -56203 0
0 0 0 787 810918 -55416 0
0 0 0 791 811709 -54625 0
0 0 0 777 812486 -53848 0
0 0 0 757 813243 -53091 0
0 0 0 733 813976 -52358 0
0 0 0 729 814705 -51629 0
0 0 0 745 815450 -50884 0
0 0 0 737 816187 -50147 0
0 0 0 752 816939 -49395 0
0 0 0 757 817696 -48638 0
0 0 0 774 818470 -47864 0
0 0 0 778 819248 -47086 0
0 0 0 772 820020 -46314 0
0 0 0 772 820792 -45542 0
0 0 0 788 821580 -44754 0
0 0 0 780 822360 -43974 0
0 0 0 768 823128 -43206 0
0 0 0 750 823878 -42456 0
0 0 0 752 824630 -41704 0
0 0 0 727 825357 -40977 0
0 0 0 688 826045 -40289 0
0 0 0 687 826732 -39602 0
0 0 0 691 827423 -38911 0
0 0 0 688 828111 -38223 0
0 0 0 697 828808 -37526 0
0 0 0 718 829526 -36808 0
0 0 0 771 830297 -36037 0
0 0 0 778 831075 -35259 0
0 0 0 775 831850 -34484 0
0 0 0 792 832642 -33692 0
0 0 0 782 833424 -32910 0
0 0 0 736 834160 -32174 0
0 0 0 701 834861 -31473 0
0 0 0 694 835555 -30779 0
0 0 0 683 836238 -30096 0
0 0 0 672 836910 -29424 0
0 0 0 636 837546 -28788 1
0 0 0 623 838169 -28165 1
0 0 0 612 838781 -27553 1
0 0 0 613 839394 -26940 1
0 0 0 627 840021 -26313 1
0 0 0 646 840667 -25667 0
0 0 0 687 841354 -24980 0
0 0 0 724 842078 -24256 0
0 0 0 734 842812 -23522 0
0 0 0 673 843485 -22849 0
0 0 0 679 844164 -22170 0
0 0 0 635 844799 -21535 1
0 0 0 652 845451 -20883 0
0 0 0 650 846101 -20233 0
0 0 0 646 846747 -19587 0
0 0 0 628 847375 -18959 1
0 0 0 612 847987 -18347 1
0 0 0 603 848590 -17744 1
0 0 0 601 849191 -17143 1
0 0 0 622 849813 -16521 1
0 0 0 656 850469 -15865 0
0 0 0 689 851158 -15176 0
0 0 0 693 851851 -14483 0
0 0 0 677 852528 -13806 0
0 0 0 640 853168 -13166 1
0 0 0 597 853765 -12569 1
0 0 0 595 854360 -11974 1
0 0 0 597 854957 -11377 1
0 0 0 629 855586 -10748 1
0 0 0 690 856276 -10058 0
0 0 0 698 856974 -9360 0
0 0 0 712 857686 -8648 0
0 0 0 702 858388 -7946 0
0 0 0 723 859111 -7223 0
0 0 0 727 859838 -6496 0
0 0 0 746 860584 -5750 0
0 0 0 761 861345 -4989 0
0 0 0 795 862140 -4194 0
0 0 0 775 862915 -3419 0
0 0 0 771 863686 -2648 0
41 1 S102 771 864457 -1877 0
41 1 S102 766 865223 -1111 0
41 1 S102 760 865983 -351 0
41 2 S102 723 866706 372 0
41 2 S102 684 867390 1056 0
41 2 S102 699 868089 1755 0
41 2 S102 710 868799 2465 0
41 2 S102 693 869492 3158 0
41 2 S102 704 870196 3862 0
41 2 S102 730 870926 4592 0
41 2 S102 765 871691 5357 0
41 2 S102 798 872489 6155 0
41 2 S102 785 873274 6940 0
0 0 0 800 874074 -6302 0
0 0 0 807 874881 -5495 0
0 0 0 809 875690 -4686 0
0 0 0 789 876479 -3897 0
0 0 0 735 877214 -3162 0
0 0 0 717 877931 -2445 0
42 1 S112 714 878645 -1731 0
42 1 S112 733 879378 -998 0
42 1 S112 738 880116 -260 0
42 2 S112 741 880857 481 0
42 2 S112 788 881645 1269 0
42 2 S112 842 882487 2111 0
42 2 S112 882 883369 2993 1
42 2 S112 867 884236 3860 0
42 2 S112 863 885099 4723 0
42 2 S112 875 885974 5598 0
42 2 S112 854 886828 6452 0
0 0 0 812 887640 -8651 0
0 0 0 786 888426 -7865 0
0 0 0 788 889214 -7077 0
0 0 0 788 890002 -6289 0
0 0 0 768 890770 -5521 0
0 0 0 738 891508 -4783 0
0 0 0 746 892254 -4037 0
0 0 0 745 892999 -3292 0
0 0 0 743 893742 -2549 0
43 1 S116 732 894474 -1817 0
43 1 S116 741 895215 -1076 0
43 1 S116 748 895963 -328 0
43 2 S116 758 896721 430 0
43 2 S116 740 897461 1170 0
43 2 S116 766 898227 1936 0
43 2 S116 769 898996 2705 0
43 2 S116 783 899779 3488 0
43 2 S116 781 900560 4269 0
43 2 S116 742 901302 5011 0
43 2 S116 740 902042 5751 0
43 2 S116 750 902792 6501 0
0 0 0 773 903565 -7547 0
0 0 0 787 904352 -6760 0
0 0 0 795 905147 -5965 0
0 0 0 814 905961 -5151 0
0 0 0 799 906760 -4352 0
0 0 0 769 907529 -3583 0
0 0 0 781 908310 -2802 0
0 0 0 795 909105 -2007 0
44 1 S102 792 909897 -1215 0
44 1 S102 766 910663 -449 0
44 2 S102 761 911424 312 0
44 2 S102 778 912202 1090 0
44 2 S102 797 912999 1887 0
44 2 S102 786 913785 2673 0
44 2 S102 784 914569 3457 0
44 2 S102 787 915356 4244 0
44 2 S102 804 916160 5048 0
44 2 S102 833 916993 5881 0
44 2 S102 831 917824 6712 0
0 0 0 797 918621 -7992 0
0 0 0 797 919418 -7195 0
0 0 0 770 920188 -6425 0
0 0 0 759 920947 -5666 0
0 0 0 709 921656 -4957 0
0 0 0 712 922368 -4245 0
0 0 0 714 923082 -3531 0
0 0 0 720 923802 -2811 0
0 0 0 717 924519 -2094 0
45 1 S116 724 925243 -1370 0
45 1 S116 757 926000 -613 0
45 2 S116 776 926776 163 0
45 2 S116 749 927525 912 0
45 2 S116 711 928236 1623 0
45 2 S116 721 928957 2344 0
45 2 S116 713 929670 3057 0
45 2 S116 721 930391 3778 0
45 2 S116 726 931117 4504 0
45 2 S116 734 931851 5238 0
45 2 S116 744 932595 5982 0
45 2 S116 738 933333 6720 0
0 0 0 763 934096 -11019 0
0 0 0 776 934872 -10243 0
0 0 0 793 935665 -9450 0
0 0 0 775 936440 -8675 0
0 0 0 760 937200 -7915 0
0 0 0 759 937959 -7156 0
0 0 0 785 938744 -6371 0
0 0 0 786 939530 -5585 0
0 0 0 811 940341 -4774 0
0 0 0 830 941171 -3944 0
0 0 0 837 942008 -3107 0
0 0 0 813 942821 -2294 0
46 1 S102 801 943622 -1493 0
46 1 S102 789 944411 -704 0
46 2 S102 793 945204 89 0
46 2 S102 797 946001 886 0
46 2 S102 783 946784 1669 0
46 2 S102 791 947575 2460 0
46 2 S102 812 948387 3272 0
46 2 S102 820 949207 4092 0
46 2 S102 805 950012 4897 0
46 2 S102 804 950816 5701 0
46 2 S102 800 951616 6501 0
0 0 0 810 952426 -8704 0
0 0 0 797 953223 -7907 0
0 0 0 800 954023 -7107 0
0 0 0 795 954818 -6312 0
0 0 0 784 955602 -5528 0
0 0 0 777 956379 -4751 0
0 0 0 786 957165 -3965 0
0 0 0 802 957967 -3163 0
0 0 0 807 958774 -2356 0
47 1 S112 790 959564 -1566 0
47 1 S112 794 960358 -772 0
47 2 S112 782 961140 10 0
47 2 S112 787 961927 797 0
47 2 S112 775 962702 1572 0
47 2 S112 782 963484 2354 0
47 2 S112 818 964302 3172 0
47 2 S112 862 965164 4034 0
47 2 S112 861 966025 4895 0
47 2 S112 853 966878 5748 0
47 2 S112 869 967747 6617 0
0 0 0 877 968624 -11538 0
0 0 0 841 969465 -10697 0
0 0 0 851 970316 -9846 0
0 0 0 854 971170 -8992 0
0 0 0 830 972000 -8162 0
0 0 0 795 972795 -7367 0
0 0 0 755 973550 -6612 0
0 0 0 768 974318 -5844 0
0 0 0 783 975101 -5061 0
0 0 0 784 975885 -4277 0
0 0 0 768 976653 -3509 0
0 0 0 773 977426 -2736 0
48 1 S116 786 978212 -1950 0
48 1 S116 767 978979 -1183 0
48 1 S116 754 979733 -429 0
48 2 S116 769 980502 340 0
48 2 S116 777 981279 1117 0
48 2 S116 790 982069 1907 0
48 2 S116 782 982851 2689 0
48 2 S116 779 983630 3468 0
48 2 S116 799 984429 4267 0
48 2 S116 816 985245 5083 0
48 2 S116 790 986035 5873 0
48 2 S116 787 986822 6660 0
0 0 0 790 987612 -8962 0
0 0 0 802 988414 -8160 0
0 0 0 819 989233 -7341 0
0 0 0 855 990088 -6486 0
0 0 0 888 990976 -5598 1
0 0 0 890 991866 -4708 1
0 0 0 825 992691 -3883 0
0 0 0 785 993476 -3098 0
0 0 0 756 994232 -2342 0
49 1 S112 758 994990 -1584 0
49 1 S112 738 995728 -846 0
49 1 S112 724 996452 -122 0
49 2 S112 746 997198 624 0
49 2 S112 755 997953 1379 0
49 2 S112 803 998756 2182 0
49 2 S112 812 999568 2994 0
49 2 S112 786 1000354 3780 0
49 2 S112 766 1001120 4546 0
49 2 S112 744 1001864 5290 0
49 2 S112 735 1002599 6025 0
49 2 S112 722 1003321 6747 0
0 0 0 699 1004020 -11553 0
0 0 0 720 1004740 -10833 0
0 0 0 733 1005473 -10100 0
0 0 0 746 1006219 -9354 0
0 0 0 736 1006955 -8618 0
0 0 0 730 1007685 -7888 0
0 0 0 731 1008416 -7157 0
0 0 0 737 1009153 -6420 0
0 0 0 703 1009856 -5717 0
0 0 0 717 1010573 -5000 0
0 0 0 709 1011282 -4291 0
0 0 0 693 1011975 -3598 0
0 0 0 667 1012642 -2931 0
0 0 0 657 1013299 -2274 0
50 1 S106 654 1013953 -1620 0
50 1 S106 651 1014604 -969 0
50 1 S106 678 1015282 -291 0
50 2 S106 696 1015978 405 0
50 2 S106 721 1016699 1126 0
50 2 S106 725 1017424 1851 0
50 2 S106 752 1018176 2603 0
50 2 S106 771 1018947 3374 0
50 2 S106 784 1019731 4158 0
50 2 S106 780 1020511 4938 0
50 2 S106 769 1021280 5707 0
50 2 S106 779 1022059 6486 0
0 0 0 786 1022845 -6422 0
0 0 0 796 1023641 -5626 0
0 0 0 803 1024444 -4823 0
0 0 0 812 1025256 -4011 0
0 0 0 829 1026085 -3182 0
0 0 0 824 1026909 -2358 0
51 1 S112 807 1027716 -1551 0
51 1 S112 791 1028507 -760 0
51 1 S112 755 1029262 -5 0
51 2 S112 742 1030004 737 0
51 2 S112 750 1030754 1487 0
51 2 S112 786 1031540 2273 0
51 2 S112 824 1032364 3097 0
51 2 S112 833 1033197 3930 0
51 2 S112 835 1034032 4765 0
51 2 S112 850 1034882 5615 0
51 2 S112 849 1035731 6464 0
0 0 0 821 1036552 -7984 0
0 0 0 817 1037369 -7167 0
0 0 0 817 1038186 -6350 0
0 0 0 816 1039002 -5534 0
0 0 0 796 1039798 -4738 0
0 0 0 783 1040581 -3955 0
0 0 0 796 1041377 -3159 0
0 0 0 797 1042174 -2362 0
52 1 S116 789 1042963 -1573 0
52 1 S116 795 1043758 -778 0
52 2 S116 793 1044551 15 0
52 2 S116 766 1045317 781 0
52 2 S116 776 1046093 1557 0
52 2 S116 775 1046868 2332 0
52 2 S116 790 1047658 3122 0
52 2 S116 781 1048439 3903 0
52 2 S116 782 1049221 4685 0
52 2 S116 773 1049994 5458 0
52 2 S116 773 1050767 6231 0
52 2 S116 760 1051527 6991 0
0 0 0 745 1052272 -9008 0
0 0 0 774 1053046 -8234 0
0 0 0 790 1053836 -7444 0
0 0 0 795 1054631 -6649 0
0 0 0 762 1055393 -5887 0
0 0 0 740 1056133 -5147 0
0 0 0 720 1056853 -4427 0
0 0 0 712 1057565 -3715 0
0 0 0 702 1058267 -3013 0
0 0 0 721 1058988 -2292 0
53 1 S106 730 1059718 -1562 0
53 1 S106 779 1060497 -783 0
53 2 S106 805 1061302 22 0
53 2 S106 812 1062114 834 0
53 2 S106 819 1062933 1653 0
53 2 S106 819 1063752 2472 0
53 2 S106 799 1064551 3271 0
53 2 S106 773 1065324 4044 0
53 2 S106 763 1066087 4807 0
53 2 S106 754 1066841 5561 0
53 2 S106 757 1067598 6318 0
0 0 0 746 1068344 -8702 0
0 0 0 757 1069101 -7945 0
0 0 0 790 1069891 -7155 0
0 0 0 814 1070705 -6341 0
0 0 0 829 1071534 -5512 0
0 0 0 794 1072328 -4718 0
0 0 0 767 1073095 -3951 0
0 0 0 720 1073815 -3231 0
0 0 0 670 1074485 -2561 0
54 1 S102 661 1075146 -1900 0
54 1 S102 693 1075839 -1207 0
54 1 S102 786 1076625 -421 0
54 2 S102 876 1077501 455 0
54 2 S102 866 1078367 1321 0
54 2 S102 900 1079267 2221 1
54 2 S102 912 1080179 3133 1
54 2 S102 902 1081081 4035 1
54 2 S102 841 1081922 4876 0
54 2 S102 814 1082736 5690 0
54 2 S102 790 1083526 6480 0
0 0 0 757 1084283 -12359 0
0 0 0 756 1085039 -11603 0
0 0 0 739 1085778 -10864 0
0 0 0 723 1086501 -10141 0
0 0 0 720 1087221 -9421 0
0 0 0 703 1087924 -8718 0
0 0 0 703 1088627 -8015 0
0 0 0 706 1089333 -7309 0
0 0 0 740 1090073 -6569 0
0 0 0 762 1090835 -5807 0
0 0 0 787 1091622 -5020 0
0 0 0 807 1092429 -4213 0
0 0 0 828 1093257 -3385 0
0 0 0 810 1094067 -2575 0
55 1 S106 777 1094844 -1798 0
55 1 S106 755 1095599 -1043 0
55 1 S106 766 1096365 -277 0
55 2 S106 772 1097137 495 0
55 2 S106 749 1097886 1244 0
55 2 S106 765 1098651 2009 0
55 2 S106 790 1099441 2799 0
55 2 S106 819 1100260 3618 0
55 2 S106 835 1101095 4453 0
55 2 S106 787 1101882 5240 0
55 2 S106 777 1102659 6017 0
55 2 S106 780 1103439 6797 0
0 0 0 800 1104239 -6660 0
0 0 0 791 1105030 -5869 0
0 0 0 819 1105849 -5050 0
0 0 0 821 1106670 -4229 0
0 0 0 807 1107477 -3422 0
0 0 0 783 1108260 -2639 0
56 1 S116 779 1109039 -1860 0
56 1 S116 783 1109822 -1077 0
56 1 S116 775 1110597 -302 0
56 2 S116 760 1111357 458 0
56 2 S116 764 1112121 1222 0
56 2 S116 785 1112906 2007 0
56 2 S116 817 1113723 2824 0
56 2 S116 803 1114526 3627 0
56 2 S116 815 1115341 4442 0
56 2 S116 823 1116164 5265 0
56 2 S116 839 1117003 6104 0
56 2 S116 822 1117825 6926 0
0 0 0 824 1118649 -6425 0
0 0 0 826 1119475 -5599 0
0 0 0 815 1120290 -4784 0
0 0 0 783 1121073 -4001 0
0 0 0 770 1121843 -3231 0
0 0 0 780 1122623 -2451 0
57 1 S106 758 1123381 -1693 0
57 1 S106 774 1124155 -919 0
57 1 S106 790 1124945 -129 0
57 2 S106 819 1125764 690 0
57 2 S106 809 1126573 1499 0
57 2 S106 780 1127353 2279 0
57 2 S106 768 1128121 3047 0
57 2 S106 758 1128879 3805 0
57 2 S106 766 1129645 4571 0
57 2 S106 748 1130393 5319 0
57 2 S106 777 1131170 6096 0
57 2 S106 805 1131975 6901 0
0 0 0 862 1132837 -8417 0
0 0 0 873 1133710 -7544 0
0 0 0 821 1134531 -6723 0
0 0 0 799 1135330 -5924 0
0 0 0 790 1136120 -5134 0
0 0 0 766 1136886 -4368 0
0 0 0 736 1137622 -3632 0
0 0 0 738 1138360 -2894 0
0 0 0 743 1139103 -2151 0
58 1 S102 745 1139848 -1406 0
58 1 S102 722 1140570 -684 0
58 2 S102 744 1141314 60 0
58 2 S102 766 1142080 826 0
58 2 S102 802 1142882 1628 0
58 2 S102 806 1143688 2434 0
58 2 S102 791 1144479 3225 0
58 2 S102 784 1145263 4009 0
58 2 S102 778 1146041 4787 0
58 2 S102 770 1146811 5557 0
58 2 S102 750 1147561 6307 0
0 0 0 757 1148318 -8387 0
0 0 0 780 1149098 -7607 0
0 0 0 802 1149900 -6805 0
0 0 0 809 1150709 -5996 0
0 0 0 797 1151506 -5199 0
0 0 0 798 1152304 -4401 0
0 0 0 782 1153086 -3619 0
0 0 0 765 1153851 -2854 0
0 0 0 734 1154585 -2120 0
59 1 S112 725 1155310 -1395 0
59 1 S112 723 1156033 -672 0
59 2 S112 703 1156736 31 0
59 2 S112 673 1157409 704 0
59 2 S112 644 1158053 1348 1
59 2 S112 655 1158708 2003 0
59 2 S112 690 1159398 2693 0
59 2 S112 714 1160112 3407 0
59 2 S112 750 1160862 4157 0
59 2 S112 771 1161633 4928 0
59 2 S112 788 1162421 5716 0
59 2 S112 784 1163205 6500 0
0 0 0 765 1163970 -9579 0
0 0 0 752 1164722 -8827 0
0 0 0 738 1165460 -8089 0
0 0 0 736 1166196 -7353 0
0 0 0 709 1166905 -6644 0
0 0 0 706 1167611 -5938 0
0 0 0 705 1168316 -5233 0
0 0 0 731 1169047 -4502 0
0 0 0 775 1169822 -3727 0
0 0 0 779 1170601 -2948 0
0 0 0 785 1171386 -2163 0
60 1 S102 787 1172173 -1376 0
60 1 S102 824 1172997 -552 0
60 2 S102 830 1173827 278 0
60 2 S102 817 1174644 1095 0
60 2 S102 799 1175443 1894 0
60 2 S102 771 1176214 2665 0
60 2 S102 753 1176967 3418 0
60 2 S102 764 1177731 4182 0
60 2 S102 780 1178511 4962 0
60 2 S102 793 1179304 5755 0
60 2 S102 800 1180104 6555 0
0 0 0 796 1180900 -10537 0
0 0 0 775 1181675 -9762 0
0 0 0 781 1182456 -8981 0
0 0 0 775 1183231 -8206 0
0 0 0 762 1183993 -7444 0
0 0 0 749 1184742 -6695 0
0 0 0 747 1185489 -5948 0
0 0 0 745 1186234 -5203 0
0 0 0 733 1186967 -4470 0
0 0 0 711 1187678 -3759 0
0 0 0 725 1188403 -3034 0
0 0 0 743 1189146 -2291 0
61 1 S106 734 1189880 -1557 0
61 1 S106 712 1190592 -845 0
61 1 S106 690 1191282 -155 0
61 2 S106 681 1191963 526 0
61 2 S106 662 1192625 1188 0
61 2 S106 672 1193297 1860 0
61 2 S106 684 1193981 2544 0
61 2 S106 726 1194707 3270 0
61 2 S106 768 1195475 4038 0
61 2 S106 804 1196279 4842 0
61 2 S106 822 1197101 5664 0
61 2 S106 813 1197914 6477 0
0 0 0 791 1198705 -7222 0
0 0 0 787 1199492 -6435 0
0 0 0 761 1200253 -5674 0
0 0 0 721 1200974 -4953 0
0 0 0 697 1201671 -4256 0
0 0 0 684 1202355 -3572 0
0 0 0 687 1203042 -2885 0
0 0 0 672 1203714 -2213 0
62 1 S112 665 1204379 -1548 0
62 1 S112 682 1205061 -866 0
62 1 S112 719 1205780 -147 0
62 2 S112 791 1206571 644 0
62 2 S112 817 1207388 1461 0
62 2 S112 825 1208213 2286 0
62 2 S112 821 1209034 3107 0
62 2 S112 806 1209840 3913 0
62 2 S112 764 1210604 4677 0
62 2 S112 718 1211322 5395 0
62 2 S112 724 1212046 6119 0
62 2 S112 747 1212793 6866 0
0 0 0 789 1213582 -10863 0
0 0 0 800 1214382 -10063 0
0 0 0 814 1215196 -9249 0
0 0 0 816 1216012 -8433 0
0 0 0 815 1216827 -7618 0
0 0 0 771 1217598 -6847 0
0 0 0 746 1218344 -6101 0
0 0 0 747 1219091 -5354 0
0 0 0 723 1219814 -4631 0
0 0 0 707 1220521 -3924 0
0 0 0 715 1221236 -3209 0
0 0 0 727 1221963 -2482 0
63 1 S102 778 1222741 -1704 0
63 1 S102 804 1223545 -900 0
63 1 S102 806 1224351 -94 0
63 2 S102 810 1225161 716 0
63 2 S102 831 1225992 1547 0
63 2 S102 846 1226838 2393 0
63 2 S102 831 1227669 3224 0
63 2 S102 790 1228459 4014 0
63 2 S102 762 1229221 4776 0
63 2 S102 747 1229968 5523 0
63 2 S102 750 1230718 6273 0
63 2 S102 751 1231469 7024 0
0 0 0 748 1232217 -7927 0
0 0 0 776 1232993 -7151 0
0 0 0 769 1233762 -6382 0
0 0 0 754 1234516 -5628 0
0 0 0 707 1235223 -4921 0
0 0 0 715 1235938 -4206 0
0 0 0 743 1236681 -3463 0
0 0 0 792 1237473 -2671 0
64 1 S112 777 1238250 -1894 0
64 1 S112 793 1239043 -1101 0
64 1 S112 796 1239839 -305 0
64 2 S112 807 1240646 502 0
64 2 S112 815 1241461 1317 0
64 2 S112 824 1242285 2141 0
64 2 S112 822 1243107 2963 0
64 2 S112 833 1243940 3796 0
64 2 S112 826 1244766 4622 0
64 2 S112 822 1245588 5444 0
64 2 S112 833 1246421 6277 0
0 0 0 852 1247273 -6996 0
0 0 0 858 1248131 -6138 0
0 0 0 810 1248941 -5328 0
0 0 0 800 1249741 -4528 0
0 0 0 788 1250529 -3740 0
0 0 0 783 1251312 -2957 0
0 0 0 762 1252074 -2195 0
65 1 S106 776 1252850 -1419 0
65 1 S106 779 1253629 -640 0
65 2 S106 812 1254441 172 0
65 2 S106 817 1255258 989 0
65 2 S106 831 1256089 1820 0
65 2 S106 824 1256913 2644 0
65 2 S106 811 1257724 3455 0
65 2 S106 764 1258488 4219 0
65 2 S106 756 1259244 4975 0
65 2 S106 752 1259996 5727 0
65 2 S106 753 1260749 6480 0
0 0 0 737 1261486 -6759 0
0 0 0 719 1262205 -6040 0
0 0 0 738 1262943 -5302 0
0 0 0 749 1263692 -4553 0
0 0 0 766 1264458 -3787 0
0 0 0 753 1265211 -3034 0
0 0 0 757 1265968 -2277 0
66 1 S116 760 1266728 -1517 0
66 1 S116 762 1267490 -755 0
66 1 S116 743 1268233 -12 0
66 2 S116 758 1268991 746 0
66 2 S116 759 1269750 1505 0
66 2 S116 771 1270521 2276 0
66 2 S116 767 1271288 3043 0
66 2 S116 769 1272057 3812 0
66 2 S116 756 1272813 4568 0
66 2 S116 754 1273567 5322 0
66 2 S116 736 1274303 6058 0
66 2 S116 754 1275057 6812 0
0 0 0 777 1275834 -10912 0
0 0 0 809 1276643 -10103 0
0 0 0 763 1277406 -9340 0
0 0 0 750 1278156 -8590 0
0 0 0 722 1278878 -7868 0
0 0 0 698 1279576 -7170 0
0 0 0 659 1280235 -6511 0
0 0 0 650 1280885 -5861 0
0 0 0 629 1281514 -5232 1
0 0 0 658 1282172 -4574 0
0 0 0 695 1282867 -3879 0
0 0 0 730 1283597 -3149 0
0 0 0 744 1284341 -2405 0
67 1 S102 760 1285101 -1645 0
67 1 S102 748 1285849 -897 0
67 1 S102 755 1286604 -142 0
67 2 S102 730 1287334 588 0
67 2 S102 726 1288060 1314 0
67 2 S102 721 1288781 2035 0
67 2 S102 720 1289501 2755 0
67 2 S102 707 1290208 3462 0
67 2 S102 706 1290914 4168 0
67 2 S102 723 1291637 4891 0
67 2 S102 762 1292399 5653 0
67 2 S102 783 1293182 6436 0
0 0 0 796 1293978 -6529 0
0 0 0 815 1294793 -5714 0
0 0 0 834 1295627 -4880 0
0 0 0 813 1296440 -4067 0
0 0 0 763 1297203 -3304 0
0 0 0 756 1297959 -2548 0
68 1 S106 749 1298708 -1799 0
68 1 S106 748 1299456 -1051 0
68 1 S106 733 1300189 -318 0
68 2 S106 728 1300917 410 0
68 2 S106 735 1301652 1145 0
68 2 S106 768 1302420 1913 0
68 2 S106 784 1303204 2697 0
68 2 S106 771 1303975 3468 0
68 2 S106 783 1304758 4251 0
68 2 S106 798 1305556 5049 0
68 2 S106 801 1306357 5850 0
68 2 S106 809 1307166 6659 0
0 0 0 836 1308002 -11669 0
0 0 0 850 1308852 -10819 0
0 0 0 830 1309682 -9989 0
0 0 0 812 1310494 -9177 0
0 0 0 810 1311304 -8367 0
0 0 0 802 1312106 -7565 0
0 0 0 778 1312884 -6787 0
0 0 0 768 1313652 -6019 0
0 0 0 769 1314421 -5250 0
0 0 0 763 1315184 -4487 0
0 0 0 747 1315931 -3740 0
0 0 0 754 1316685 -2986 0
0 0 0 764 1317449 -2222 0
69 1 S102 777 1318226 -1445 0
69 1 S102 753 1318979 -692 0
69 2 S102 729 1319708 37 0
69 2 S102 725 1320433 762 0
69 2 S102 727 1321160 1489 0
69 2 S102 743 1321903 2232 0
69 2 S102 726 1322629 2958 0
69 2 S102 718 1323347 3676 0
69 2 S102 736 1324083 4412 0
69 2 S102 760 1324843 5172 0
69 2 S102 790 1325633 5962 0
69 2 S102 783 1326416 6745 0
0 0 0 805 1327221 -8266 0
0 0 0 807 1328028 -7459 0
0 0 0 800 1328828 -6659 0
0 0 0 747 1329575 -5912 0
0 0 0 734 1330309 -5178 0
0 0 0 722 1331031 -4456 0
0 0 0 729 1331760 -3727 0
0 0 0 728 1332488 -2999 0
0 0 0 768 1333256 -2231 0
70 1 S112 821 1334077 -1410 0
70 1 S112 811 1334888 -599 0
70 2 S112 793 1335681 194 0
70 2 S112 788 1336469 982 0
70 2 S112 794 1337263 1776 0
70 2 S112 790 1338053 2566 0
70 2 S112 770 1338823 3336 0
70 2 S112 772 1339595 4108 0
70 2 S112 761 1340356 4869 0
70 2 S112 783 1341139 5652 0
70 2 S112 761 1341900 6413 0
0 0 0 753 1342653 -11037 0
0 0 0 753 1343406 -10284 0
0 0 0 772 1344178 -9512 0
0 0 0 784 1344962 -8728 0
0 0 0 769 1345731 -7959 0
0 0 0 761 1346492 -7198 0
0 0 0 761 1347253 -6437 0
0 0 0 739 1347992 -5698 0
0 0 0 727 1348719 -4971 0
0 0 0 724 1349443 -4247 0
0 0 0 724 1350167 -3523 0
0 0 0 715 1350882 -2808 0
0 0 0 680 1351562 -2128 0
71 1 S116 676 1352238 -1452 0
71 1 S116 682 1352920 -770 0
71 1 S116 696 1353616 -74 0
71 2 S116 710 1354326 636 0
71 2 S116 760 1355086 1396 0
71 2 S116 766 1355852 2162 0
71 2 S116 776 1356628 2938 0
71 2 S116 782 1357410 3720 0
71 2 S116 775 1358185 4495 0
71 2 S116 780 1358965 5275 0
71 2 S116 754 1359719 6029 0
71 2 S116 764 1360483 6793 0
0 0 0 748 1361231 -8507 0
0 0 0 752 1361983 -7755 0
0 0 0 769 1362752 -6986 0
0 0 0 768 1363520 -6218 0
0 0 0 751 1364271 -5467 0
0 0 0 713 1364984 -4754 0
0 0 0 726 1365710 -4028 0
0 0 0 741 1366451 -3287 0
0 0 0 783 1367234 -2504 0
72 1 S102 778 1368012 -1726 0
72 1 S102 782 1368794 -944 0
72 1 S102 767 1369561 -177 0
72 2 S102 748 1370309 571 0
72 2 S102 725 1371034 1296 0
72 2 S102 738 1371772 2034 0
72 2 S102 762 1372534 2796 0
72 2 S102 774 1373308 3570 0
72 2 S102 777 1374085 4347 0
72 2 S102 781 1374866 5128 0
72 2 S102 756 1375622 5884 0
72 2 S102 726 1376348 6610 0
0 0 0 730 1377078 -6155 0
0 0 0 736 1377814 -5419 0
0 0 0 744 1378558 -4675 0
0 0 0 727 1379285 -3948 0
0 0 0 686 1379971 -3262 0
0 0 0 682 1380653 -2580 0
73 1 S116 687 1381340 -1893 0
73 1 S116 711 1382051 -1182 0
73 1 S116 747 1382798 -435 0
73 2 S116 746 1383544 311 0
73 2 S116 774 1384318 1085 0
73 2 S116 803 1385121 1888 0
73 2 S116 813 1385934 2701 0
73 2 S116 805 1386739 3506 0
73 2 S116 782 1387521 4288 0
73 2 S116 775 1388296 5063 0
73 2 S116 770 1389066 5833 0
73 2 S116 750 1389816 6583 0
0 0 0 720 1390536 -8960 0
0 0 0 689 1391225 -8271 0
0 0 0 700 1391925 -7571 0
0 0 0 709 1392634 -6862 0
0 0 0 728 1393362 -6134 0
0 0 0 747 1394109 -5387 0
0 0 0 742 1394851 -4645 0
0 0 0 773 1395624 -3872 0
0 0 0 797 1396421 -3075 0
0 0 0 815 1397236 -2260 0
74 1 S106 797 1398033 -1463 0
74 1 S106 798 1398831 -665 0
74 2 S106 807 1399638 142 0
74 2 S106 804 1400442 946 0
74 2 S106 773 1401215 1719 0
74 2 S106 766 1401981 2485 0
74 2 S106 763 1402744 3248 0
74 2 S106 787 1403531 4035 0
74 2 S106 778 1404309 4813 0
74 2 S106 778 1405087 5591 0
74 2 S106 783 1405870 6374 0
0 0 0 821 1406691 -6549 0
0 0 0 817 1407508 -5732 0
0 0 0 807 1408315 -4925 0
0 0 0 794 1409109 -4131 0
0 0 0 783 1409892 -3348 0
0 0 0 761 1410653 -2587 0
75 1 S112 721 1411374 -1866 0
75 1 S112 718 1412092 -1148 0
75 1 S112 738 1412830 -410 0
75 2 S112 749 1413579 339 0
75 2 S112 739 1414318 1078 0
75 2 S112 783 1415101 1861 0
75 2 S112 816 1415917 2677 0
75 2 S112 825 1416742 3502 0
75 2 S112 829 1417571 4331 0
75 2 S112 796 1418367 5127 0
75 2 S112 771 1419138 5898 0
75 2 S112 765 1419903 6663 0
0 0 0 782 1420685 -6829 0
0 0 0 765 1421450 -6064 0
0 0 0 771 1422221 -5293 0
0 0 0 775 1422996 -4518 0
0 0 0 775 1423771 -3743 0
0 0 0 770 1424541 -2973 0
0 0 0 771 1425312 -2202 0
76 1 S116 715 1426027 -1487 0
76 1 S116 710 1426737 -777 0
76 1 S116 720 1427457 -57 0
76 2 S116 769 1428226 712 0
76 2 S116 843 1429069 1555 0
76 2 S116 866 1429935 2421 0
76 2 S116 909 1430844 3330 1
76 2 S116 926 1431770 4256 1
76 2 S116 893 1432663 5149 1
76 2 S116 874 1433537 6023 0
76 2 S116 853 1434390 6876 0
0 0 0 831 1435221 -7131 0
0 0 0 784 1436005 -6347 0
0 0 0 780 1436785 -5567 0
0 0 0 786 1437571 -4781 0
0 0 0 785 1438356 -3996 0
0 0 0 767 1439123 -3229 0
0 0 0 776 1439899 -2453 0
77 1 S106 780 1440679 -1673 0
77 1 S106 788 1441467 -885 0
77 1 S106 762 1442229 -123 0
77 2 S106 746 1442975 623 0
77 2 S106 756 1443731 1379 0
77 2 S106 773 1444504 2152 0
77 2 S106 779 1445283 2931 0
77 2 S106 775 1446058 3706 0
77 2 S106 792 1446850 4498 0
77 2 S106 813 1447663 5311 0
77 2 S106 818 1448481 6129 0
77 2 S106 791 1449272 6920 0
0 0 0 794 1450066 -8085 0
0 0 0 804 1450870 -7281 0
0 0 0 792 1451662 -6489 0
0 0 0 743 1452405 -5746 0
0 0 0 705 1453110 -5041 0
0 0 0 686 1453796 -4355 0
0 0 0 695 1454491 -3660 0
0 0 0 734 1455225 -2926 0
0 0 0 759 1455984 -2167 0
78 1 S112 810 1456794 -1357 0
78 1 S112 828 1457622 -529 0
78 2 S112 824 1458446 295 0
78 2 S112 799 1459245 1094 0
78 2 S112 790 1460035 1884 0
78 2 S112 776 1460811 2660 0
78 2 S112 776 1461587 3436 0
78 2 S112 747 1462334 4183 0
78 2 S112 768 1463102 4951 0
78 2 S112 756 1463858 5707 0
78 2 S112 776 1464634 6483 0
0 0 0 789 1465423 -10831 0
0 0 0 822 1466245 -10009 0
0 0 0 837 1467082 -9172 0
0 0 0 828 1467910 -8344 0
0 0 0 781 1468691 -7563 0
0 0 0 769 1469460 -6794 0
0 0 0 752 1470212 -6042 0
0 0 0 747 1470959 -5295 0
0 0 0 701 1471660 -4594 0
0 0 0 729 1472389 -3865 0
0 0 0 738 1473127 -3127 0
0 0 0 785 1473912 -2342 0
79 1 S102 772 1474684 -1570 0
79 1 S102 790 1475474 -780 0
79 2 S102 809 1476283 29 0
79 2 S102 812 1477095 841 0
79 2 S102 775 1477870 1616 0
79 2 S102 763 1478633 2379 0
79 2 S102 750 1479383 3129 0
79 2 S102 740 1480123 3869 0
79 2 S102 724 1480847 4593 0
79 2 S102 728 1481575 5321 0
79 2 S102 748 1482323 6069 0
79 2 S102 781 1483104 6850 0
0 0 0 822 1483926 -8045 0
0 0 0 839 1484765 -7206 0
0 0 0 847 1485612 -6359 0
0 0 0 821 1486433 -5538 0
0 0 0 744 1487177 -4794 0
0 0 0 742 1487919 -4052 0
0 0 0 734 1488653 -3318 0
0 0 0 769 1489422 -2549 0
80 1 S116 766 1490188 -1783 0
80 1 S116 798 1490986 -985 0
80 1 S116 833 1491819 -152 0
80 2 S116 817 1492636 665 0
80 2 S116 796 1493432 1461 0
80 2 S116 799 1494231 2260 0
80 2 S116 793 1495024 3053 0
80 2 S116 792 1495816 3845 0
80 2 S116 746 1496562 4591 0
80 2 S116 738 1497300 5329 0
80 2 S116 732 1498032 6061 0
80 2 S116 737 1498769 6798 0
