T_0186
BeatCount Mean SD BeatCountNoOutliers MeanNoOutliers SDNoOutliers
1911 774,920983778127 60,6415486122282 1880 774,959042553191 56,8980328883853

Trial TrialStatus Trialtype IBI AbsPosition RelPosition Outlier
0 0 0 800 1251 -14225 0
0 0 0 786 2037 -13439 0
0 0 0 763 2800 -12676 0
0 0 0 744 3544 -11932 0
0 0 0 700 4244 -11232 0
0 0 0 676 4920 -10556 0
0 0 0 675 5595 -9881 0
0 0 0 667 6262 -9214 0
0 0 0 658 6920 -8556 0
0 0 0 655 7575 -7901 0
0 0 0 683 8258 -7218 0
0 0 0 703 8961 -6515 0
0 0 0 784 9745 -5731 0
0 0 0 850 10595 -4881 0
0 0 0 880 11475 -4001 0
0 0 0 874 12349 -3127 0
0 0 0 834 13183 -2293 0
1 1 S112 821 14004 -1472 0
1 1 S112 803 14807 -669 0
1 2 S112 790 15597 121 0
1 2 S112 794 16391 915 0
1 2 S112 797 17188 1712 0
1 2 S112 810 17998 2522 0
1 2 S112 782 18780 3304 0
1 2 S112 749 19529 4053 0
1 2 S112 757 20286 4810 0
1 2 S112 757 21043 5567 0
1 2 S112 774 21817 6341 0
0 0 0 787 22604 -11225 0
0 0 0 825 23429 -10400 0
0 0 0 802 24231 -9598 0
0 0 0 783 25014 -8815 0
0 0 0 773 25787 -8042 0
0 0 0 764 26551 -7278 0
0 0 0 770 27321 -6508 0
0 0 0 773 28094 -5735 0
0 0 0 774 28868 -4961 0
0 0 0 790 29658 -4171 0
0 0 0 808 30466 -3363 0
0 0 0 842 31308 -2521 0
2 1 S102 866 32174 -1655 0
2 1 S102 869 33043 -786 0
2 2 S102 824 33867 38 0
2 2 S102 781 34648 819 0
2 2 S102 775 35423 1594 0
2 2 S102 757 36180 2351 0
2 2 S102 768 36948 3119 0
2 2 S102 791 37739 3910 0
2 2 S102 838 38577 4748 0
2 2 S102 813 39390 5561 0
2 2 S102 798 40188 6359 0
0 0 0 797 40985 -8344 0
0 0 0 791 41776 -7553 0
0 0 0 808 42584 -6745 0
0 0 0 795 43379 -5950 0
0 0 0 778 44157 -5172 0
0 0 0 757 44914 -4415 0
0 0 0 714 45628 -3701 0
0 0 0 705 46333 -2996 0
0 0 0 727 47060 -2269 0
3 1 S116 759 47819 -1510 0
3 1 S116 835 48654 -675 0
3 2 S116 881 49535 206 0
3 2 S116 882 50417 1088 0
3 2 S116 866 51283 1954 0
3 2 S116 815 52098 2769 0
3 2 S116 766 52864 3535 0
3 2 S116 751 53615 4286 0
3 2 S116 749 54364 5035 0
3 2 S116 740 55104 5775 0
3 2 S116 743 55847 6518 0
0 0 0 727 56574 -10693 0
0 0 0 713 57287 -9980 0
0 0 0 697 57984 -9283 0
0 0 0 703 58687 -8580 0
0 0 0 716 59403 -7864 0
0 0 0 718 60121 -7146 0
0 0 0 710 60831 -6436 0
0 0 0 675 61506 -5761 0
0 0 0 674 62180 -5087 0
0 0 0 674 62854 -4413 0
0 0 0 672 63526 -3741 0
0 0 0 682 64208 -3059 0
0 0 0 701 64909 -2358 0
4 1 S106 734 65643 -1624 0
4 1 S106 780 66423 -844 0
4 1 S106 803 67226 -41 0
4 2 S106 790 68016 749 0
4 2 S106 777 68793 1526 0
4 2 S106 778 69571 2304 0
4 2 S106 778 70349 3082 0
4 2 S106 776 71125 3858 0
4 2 S106 782 71907 4640 0
4 2 S106 773 72680 5413 0
4 2 S106 747 73427 6160 0
4 2 S106 730 74157 6890 0
0 0 0 742 74899 -5847 0
0 0 0 764 75663 -5083 0
0 0 0 804 76467 -4279 0
0 0 0 831 77298 -3448 0
0 0 0 814 78112 -2634 0
5 1 S116 790 78902 -1844 0
5 1 S116 769 79671 -1075 0
5 1 S116 773 80444 -302 0
5 2 S116 776 81220 474 0
5 2 S116 781 82001 1255 0
5 2 S116 796 82797 2051 0
5 2 S116 765 83562 2816 0
5 2 S116 744 84306 3560 0
5 2 S116 727 85033 4287 0
5 2 S116 734 85767 5021 0
5 2 S116 740 86507 5761 0
5 2 S116 767 87274 6528 0
0 0 0 758 88032 -8679 0
0 0 0 737 88769 -7942 0
0 0 0 735 89504 -7207 0
0 0 0 746 90250 -6461 0
0 0 0 755 91005 -5706 0
0 0 0 778 91783 -4928 0
0 0 0 775 92558 -4153 0
0 0 0 761 93319 -3392 0
0 0 0 737 94056 -2655 0
6 1 S106 735 94791 -1920 0
6 1 S106 735 95526 -1185 0
6 1 S106 727 96253 -458 0
6 2 S106 716 96969 258 0
6 2 S106 687 97656 945 0
6 2 S106 668 98324 1613 0
6 2 S106 675 98999 2288 0
6 2 S106 667 99666 2955 0
6 2 S106 659 100325 3614 0
6 2 S106 668 100993 4282 0
6 2 S106 695 101688 4977 0
6 2 S106 727 102415 5704 0
6 2 S106 803 103218 6507 0
0 0 0 861 104079 -10271 0
0 0 0 881 104960 -9390 0
0 0 0 866 105826 -8524 0
0 0 0 876 106702 -7648 0
0 0 0 856 107558 -6792 0
0 0 0 840 108398 -5952 0
0 0 0 804 109202 -5148 0
0 0 0 750 109952 -4398 0
0 0 0 737 110689 -3661 0
0 0 0 727 111416 -2934 0
0 0 0 751 112167 -2183 0
7 1 S102 768 112935 -1415 0
7 1 S102 787 113722 -628 0
7 2 S102 793 114515 165 0
7 2 S102 793 115308 958 0
7 2 S102 810 116118 1768 0
7 2 S102 811 116929 2579 0
7 2 S102 813 117742 3392 0
7 2 S102 792 118534 4184 0
7 2 S102 797 119331 4981 0
7 2 S102 805 120136 5786 0
7 2 S102 812 120948 6598 0
0 0 0 805 121753 -8048 0
0 0 0 792 122545 -7256 0
0 0 0 761 123306 -6495 0
0 0 0 754 124060 -5741 0
0 0 0 748 124808 -4993 0
0 0 0 749 125557 -4244 0
0 0 0 747 126304 -3497 0
0 0 0 732 127036 -2765 0
0 0 0 710 127746 -2055 0
8 1 S112 718 128464 -1337 0
8 1 S112 734 129198 -603 0
8 2 S112 768 129966 165 0
8 2 S112 805 130771 970 0
8 2 S112 827 131598 1797 0
8 2 S112 813 132411 2610 0
8 2 S112 801 133212 3411 0
8 2 S112 796 134008 4207 0
8 2 S112 797 134805 5004 0
8 2 S112 780 135585 5784 0
8 2 S112 752 136337 6536 0
0 0 0 740 137077 -6749 0
0 0 0 738 137815 -6011 0
0 0 0 770 138585 -5241 0
0 0 0 784 139369 -4457 0
0 0 0 775 140144 -3682 0
0 0 0 762 140906 -2920 0
0 0 0 749 141655 -2171 0
9 1 S116 746 142401 -1425 0
9 1 S116 730 143131 -695 0
9 1 S116 692 143823 -3 0
9 2 S116 666 144489 663 0
9 2 S116 665 145154 1328 0
9 2 S116 661 145815 1989 0
9 2 S116 656 146471 2645 0
9 2 S116 651 147122 3296 0
9 2 S116 672 147794 3968 0
9 2 S116 693 148487 4661 0
9 2 S116 721 149208 5382 0
9 2 S116 728 149936 6110 0
9 2 S116 730 150666 6840 0
0 0 0 712 151378 -10486 0
0 0 0 689 152067 -9797 0
0 0 0 677 152744 -9120 0
0 0 0 671 153415 -8449 0
0 0 0 686 154101 -7763 0
0 0 0 734 154835 -7029 0
0 0 0 780 155615 -6249 0
0 0 0 819 156434 -5430 0
0 0 0 815 157249 -4615 0
0 0 0 829 158078 -3786 0
0 0 0 892 158970 -2894 0
10 1 S102 948 159918 -1946 1
10 1 S102 949 160867 -997 1
10 1 S102 941 161808 -56 1
10 2 S102 874 162682 818 0
10 2 S102 822 163504 1640 0
10 2 S102 800 164304 2440 0
10 2 S102 789 165093 3229 0
10 2 S102 805 165898 4034 0
10 2 S102 807 166705 4841 0
10 2 S102 786 167491 5627 0
10 2 S102 781 168272 6408 0
0 0 0 796 169068 -10219 0
0 0 0 802 169870 -9417 0
0 0 0 825 170695 -8592 0
0 0 0 835 171530 -7757 0
0 0 0 823 172353 -6934 0
0 0 0 826 173179 -6108 0
0 0 0 809 173988 -5299 0
0 0 0 802 174790 -4497 0
0 0 0 776 175566 -3721 0
0 0 0 751 176317 -2970 0
0 0 0 733 177050 -2237 0
11 1 S112 729 177779 -1508 0
11 1 S112 737 178516 -771 0
11 1 S112 761 179277 -10 0
11 2 S112 774 180051 764 0
11 2 S112 772 180823 1536 0
11 2 S112 783 181606 2319 0
11 2 S112 814 182420 3133 0
11 2 S112 834 183254 3967 0
11 2 S112 877 184131 4844 0
11 2 S112 852 184983 5696 0
11 2 S112 826 185809 6522 0
0 0 0 807 186616 -6001 0
0 0 0 810 187426 -5191 0
0 0 0 808 188234 -4383 0
0 0 0 797 189031 -3586 0
0 0 0 797 189828 -2789 0
12 1 S116 797 190625 -1992 0
12 1 S116 767 191392 -1225 0
12 1 S116 729 192121 -496 0
12 2 S116 694 192815 198 0
12 2 S116 679 193494 877 0
12 2 S116 671 194165 1548 0
12 2 S116 676 194841 2224 0
12 2 S116 716 195557 2940 0
12 2 S116 766 196323 3706 0
12 2 S116 835 197158 4541 0
12 2 S116 843 198001 5384 0
12 2 S116 821 198822 6205 0
0 0 0 832 199654 -11182 0
0 0 0 834 200488 -10348 0
0 0 0 859 201347 -9489 0
0 0 0 845 202192 -8644 0
0 0 0 818 203010 -7826 0
0 0 0 830 203840 -6996 0
0 0 0 840 204680 -6156 0
0 0 0 845 205525 -5311 0
0 0 0 817 206342 -4494 0
0 0 0 790 207132 -3704 0
0 0 0 786 207918 -2918 0
0 0 0 785 208703 -2133 0
13 1 S112 796 209499 -1337 0
13 1 S112 798 210297 -539 0
13 2 S112 790 211087 251 0
13 2 S112 807 211894 1058 0
13 2 S112 815 212709 1873 0
13 2 S112 835 213544 2708 0
13 2 S112 829 214373 3537 0
13 2 S112 803 215176 4340 0
13 2 S112 821 215997 5161 0
13 2 S112 798 216795 5959 0
13 2 S112 769 217564 6728 0
0 0 0 756 218320 -10238 0
0 0 0 771 219091 -9467 0
0 0 0 792 219883 -8675 0
0 0 0 839 220722 -7836 0
0 0 0 854 221576 -6982 0
0 0 0 847 222423 -6135 0
0 0 0 842 223265 -5293 0
0 0 0 843 224108 -4450 0
0 0 0 847 224955 -3603 0
0 0 0 831 225786 -2772 0
14 1 S106 819 226605 -1953 0
14 1 S106 835 227440 -1118 0
14 1 S106 824 228264 -294 0
14 2 S106 820 229084 526 0
14 2 S106 806 229890 1332 0
14 2 S106 789 230679 2121 0
14 2 S106 800 231479 2921 0
14 2 S106 807 232286 3728 0
14 2 S106 830 233116 4558 0
14 2 S106 845 233961 5403 0
14 2 S106 829 234790 6232 0
0 0 0 801 235591 -10242 0
0 0 0 815 236406 -9427 0
0 0 0 819 237225 -8608 0
0 0 0 822 238047 -7786 0
0 0 0 833 238880 -6953 0
0 0 0 812 239692 -6141 0
0 0 0 800 240492 -5341 0
0 0 0 820 241312 -4521 0
0 0 0 843 242155 -3678 0
0 0 0 866 243021 -2812 0
15 1 S116 854 243875 -1958 0
15 1 S116 820 244695 -1138 0
15 1 S116 820 245515 -318 0
15 2 S116 816 246331 498 0
15 2 S116 819 247150 1317 0
15 2 S116 805 247955 2122 0
15 2 S116 784 248739 2906 0
15 2 S116 795 249534 3701 0
15 2 S116 793 250327 4494 0
15 2 S116 794 251121 5288 0
15 2 S116 801 251922 6089 0
15 2 S116 769 252691 6858 0
0 0 0 748 253439 -8591 0
0 0 0 749 254188 -7842 0
0 0 0 754 254942 -7088 0
0 0 0 784 255726 -6304 0
0 0 0 804 256530 -5500 0
0 0 0 816 257346 -4684 0
0 0 0 805 258151 -3879 0
0 0 0 821 258972 -3058 0
0 0 0 842 259814 -2216 0
16 1 S116 844 260658 -1372 0
16 1 S116 847 261505 -525 0
16 2 S116 832 262337 307 0
16 2 S116 796 263133 1103 0
16 2 S116 786 263919 1889 0
16 2 S116 769 264688 2658 0
16 2 S116 772 265460 3430 0
16 2 S116 760 266220 4190 0
16 2 S116 747 266967 4937 0
16 2 S116 719 267686 5656 0
16 2 S116 719 268405 6375 0
0 0 0 735 269140 -9137 0
0 0 0 786 269926 -8351 0
0 0 0 858 270784 -7493 0
0 0 0 878 271662 -6615 0
0 0 0 869 272531 -5746 0
0 0 0 855 273386 -4891 0
0 0 0 837 274223 -4054 0
0 0 0 813 275036 -3241 0
0 0 0 772 275808 -2469 0
17 1 S106 764 276572 -1705 0
17 1 S106 756 277328 -949 0
17 1 S106 749 278077 -200 0
17 2 S106 715 278792 515 0
17 2 S106 704 279496 1219 0
17 2 S106 715 280211 1934 0
17 2 S106 697 280908 2631 0
17 2 S106 674 281582 3305 0
17 2 S106 652 282234 3957 0
17 2 S106 656 282890 4613 0
17 2 S106 680 283570 5293 0
17 2 S106 789 284359 6082 0
17 2 S106 912 285271 6994 0
0 0 0 913 286184 -9915 0
0 0 0 923 287107 -8992 0
0 0 0 950 288057 -8042 1
0 0 0 954 289011 -7088 1
0 0 0 909 289920 -6179 0
0 0 0 870 290790 -5309 0
0 0 0 843 291633 -4466 0
0 0 0 829 292462 -3637 0
0 0 0 850 293312 -2787 0
18 1 S102 856 294168 -1931 0
18 1 S102 826 294994 -1105 0
18 1 S102 787 295781 -318 0
18 2 S102 755 296536 437 0
18 2 S102 751 297287 1188 0
18 2 S102 771 298058 1959 0
18 2 S102 791 298849 2750 0
18 2 S102 798 299647 3548 0
18 2 S102 781 300428 4329 0
18 2 S102 776 301204 5105 0
18 2 S102 779 301983 5884 0
18 2 S102 796 302779 6680 0
0 0 0 820 303599 -6061 0
0 0 0 821 304420 -5240 0
0 0 0 808 305228 -4432 0
0 0 0 799 306027 -3633 0
0 0 0 786 306813 -2847 0
0 0 0 790 307603 -2057 0
19 1 S106 784 308387 -1273 0
19 1 S106 762 309149 -511 0
19 2 S106 733 309882 222 0
19 2 S106 726 310608 948 0
19 2 S106 744 311352 1692 0
19 2 S106 779 312131 2471 0
19 2 S106 819 312950 3290 0
19 2 S106 828 313778 4118 0
19 2 S106 811 314589 4929 0
19 2 S106 780 315369 5709 0
19 2 S106 776 316145 6485 0
0 0 0 760 316905 -10245 0
0 0 0 778 317683 -9467 0
0 0 0 786 318469 -8681 0
0 0 0 773 319242 -7908 0
0 0 0 766 320008 -7142 0
0 0 0 774 320782 -6368 0
0 0 0 775 321557 -5593 0
0 0 0 776 322333 -4817 0
0 0 0 771 323104 -4046 0
0 0 0 753 323857 -3293 0
0 0 0 749 324606 -2544 0
20 1 S112 756 325362 -1788 0
20 1 S112 764 326126 -1024 0
20 1 S112 797 326923 -227 0
20 2 S112 793 327716 566 0
20 2 S112 787 328503 1353 0
20 2 S112 790 329293 2143 0
20 2 S112 811 330104 2954 0
20 2 S112 830 330934 3784 0
20 2 S112 805 331739 4589 0
20 2 S112 783 332522 5372 0
20 2 S112 765 333287 6137 0
20 2 S112 752 334039 6889 0
0 0 0 752 334791 -8623 0
0 0 0 781 335572 -7842 0
0 0 0 771 336343 -7071 0
0 0 0 767 337110 -6304 0
0 0 0 759 337869 -5545 0
0 0 0 741 338610 -4804 0
0 0 0 709 339319 -4095 0
0 0 0 678 339997 -3417 0
0 0 0 659 340656 -2758 0
0 0 0 641 341297 -2117 0
21 1 S106 622 341919 -1495 0
21 1 S106 612 342531 -883 1
21 1 S106 643 343174 -240 0
21 2 S106 668 343842 428 0
21 2 S106 724 344566 1152 0
21 2 S106 758 345324 1910 0
21 2 S106 773 346097 2683 0
21 2 S106 779 346876 3462 0
21 2 S106 750 347626 4212 0
21 2 S106 709 348335 4921 0
21 2 S106 673 349008 5594 0
21 2 S106 657 349665 6251 0
21 2 S106 648 350313 6899 0
0 0 0 660 350973 -10229 0
0 0 0 686 351659 -9543 0
0 0 0 707 352366 -8836 0
0 0 0 714 353080 -8122 0
0 0 0 712 353792 -7410 0
0 0 0 732 354524 -6678 0
0 0 0 766 355290 -5912 0
0 0 0 800 356090 -5112 0
0 0 0 852 356942 -4260 0
0 0 0 875 357817 -3385 0
0 0 0 855 358672 -2530 0
22 1 S116 818 359490 -1712 0
22 1 S116 795 360285 -917 0
22 1 S116 782 361067 -135 0
22 2 S116 791 361858 656 0
22 2 S116 808 362666 1464 0
22 2 S116 821 363487 2285 0
22 2 S116 810 364297 3095 0
22 2 S116 814 365111 3909 0
22 2 S116 827 365938 4736 0
22 2 S116 831 366769 5567 0
22 2 S116 846 367615 6413 0
0 0 0 822 368437 -9228 0
0 0 0 796 369233 -8432 0
0 0 0 796 370029 -7636 0
0 0 0 807 370836 -6829 0
0 0 0 808 371644 -6021 0
0 0 0 797 372441 -5224 0
0 0 0 789 373230 -4435 0
0 0 0 802 374032 -3633 0
0 0 0 778 374810 -2855 0
0 0 0 739 375549 -2116 0
23 1 S112 728 376277 -1388 0
23 1 S112 714 376991 -674 0
23 2 S112 698 377689 24 0
23 2 S112 699 378388 723 0
23 2 S112 711 379099 1434 0
23 2 S112 716 379815 2150 0
23 2 S112 727 380542 2877 0
23 2 S112 747 381289 3624 0
23 2 S112 744 382033 4368 0
23 2 S112 737 382770 5105 0
23 2 S112 749 383519 5854 0
23 2 S112 757 384276 6611 0
0 0 0 775 385051 -8860 0
0 0 0 797 385848 -8063 0
0 0 0 779 386627 -7284 0
0 0 0 774 387401 -6510 0
0 0 0 767 388168 -5743 0
0 0 0 765 388933 -4978 0
0 0 0 757 389690 -4221 0
0 0 0 745 390435 -3476 0
0 0 0 718 391153 -2758 0
0 0 0 711 391864 -2047 0
24 1 S106 715 392579 -1332 0
24 1 S106 733 393312 -599 0
24 2 S106 761 394073 162 0
24 2 S106 781 394854 943 0
24 2 S106 781 395635 1724 0
24 2 S106 769 396404 2493 0
24 2 S106 769 397173 3262 0
24 2 S106 769 397942 4031 0
24 2 S106 768 398710 4799 0
24 2 S106 766 399476 5565 0
24 2 S106 749 400225 6314 0
0 0 0 725 400950 -8562 0
0 0 0 695 401645 -7867 0
0 0 0 704 402349 -7163 0
0 0 0 728 403077 -6435 0
0 0 0 779 403856 -5656 0
0 0 0 815 404671 -4841 0
0 0 0 823 405494 -4018 0
0 0 0 814 406308 -3204 0
0 0 0 806 407114 -2398 0
25 1 S102 803 407917 -1595 0
25 1 S102 803 408720 -792 0
25 2 S102 803 409523 11 0
25 2 S102 785 410308 796 0
25 2 S102 765 411073 1561 0
25 2 S102 751 411824 2312 0
25 2 S102 733 412557 3045 0
25 2 S102 718 413275 3763 0
25 2 S102 701 413976 4464 0
25 2 S102 676 414652 5140 0
25 2 S102 656 415308 5796 0
25 2 S102 657 415965 6453 0
0 0 0 653 416618 -6024 0
0 0 0 668 417286 -5356 0
0 0 0 709 417995 -4647 0
0 0 0 744 418739 -3903 0
0 0 0 785 419524 -3118 0
0 0 0 798 420322 -2320 0
26 1 S116 793 421115 -1527 0
26 1 S116 786 421901 -741 0
26 2 S116 786 422687 45 0
26 2 S116 789 423476 834 0
26 2 S116 798 424274 1632 0
26 2 S116 802 425076 2434 0
26 2 S116 787 425863 3221 0
26 2 S116 770 426633 3991 0
26 2 S116 757 427390 4748 0
26 2 S116 751 428141 5499 0
26 2 S116 744 428885 6243 0
26 2 S116 733 429618 6976 0
0 0 0 748 430366 -5936 0
0 0 0 762 431128 -5174 0
0 0 0 788 431916 -4386 0
0 0 0 791 432707 -3595 0
0 0 0 795 433502 -2800 0
0 0 0 784 434286 -2016 0
27 1 S106 777 435063 -1239 0
27 1 S106 774 435837 -465 0
27 2 S106 788 436625 323 0
27 2 S106 782 437407 1105 0
27 2 S106 758 438165 1863 0
27 2 S106 716 438881 2579 0
27 2 S106 697 439578 3276 0
27 2 S106 711 440289 3987 0
27 2 S106 755 441044 4742 0
27 2 S106 824 441868 5566 0
27 2 S106 907 442775 6473 0
0 0 0 927 443702 -6742 0
0 0 0 920 444622 -5822 0
0 0 0 903 445525 -4919 0
0 0 0 862 446387 -4057 0
0 0 0 833 447220 -3224 0
0 0 0 805 448025 -2419 0
28 1 S102 764 448789 -1655 0
28 1 S102 737 449526 -918 0
28 1 S102 717 450243 -201 0
28 2 S102 708 450951 507 0
28 2 S102 718 451669 1225 0
28 2 S102 724 452393 1949 0
28 2 S102 716 453109 2665 0
28 2 S102 708 453817 3373 0
28 2 S102 708 454525 4081 0
28 2 S102 725 455250 4806 0
28 2 S102 763 456013 5569 0
28 2 S102 849 456862 6418 0
0 0 0 887 457749 -10019 0
0 0 0 877 458626 -9142 0
0 0 0 855 459481 -8287 0
0 0 0 854 460335 -7433 0
0 0 0 839 461174 -6594 0
0 0 0 819 461993 -5775 0
0 0 0 785 462778 -4990 0
0 0 0 746 463524 -4244 0
0 0 0 735 464259 -3509 0
0 0 0 736 464995 -2773 0
0 0 0 742 465737 -2031 0
29 1 S112 759 466496 -1272 0
29 1 S112 773 467269 -499 0
29 2 S112 788 468057 289 0
29 2 S112 756 468813 1045 0
29 2 S112 754 469567 1799 0
29 2 S112 749 470316 2548 0
29 2 S112 755 471071 3303 0
29 2 S112 754 471825 4057 0
29 2 S112 744 472569 4801 0
29 2 S112 729 473298 5530 0
29 2 S112 729 474027 6259 0
29 2 S112 733 474760 6992 0
0 0 0 744 475504 -5991 0
0 0 0 771 476275 -5220 0
0 0 0 772 477047 -4448 0
0 0 0 759 477806 -3689 0
0 0 0 759 478565 -2930 0
0 0 0 750 479315 -2180 0
30 1 S112 752 480067 -1428 0
30 1 S112 748 480815 -680 0
30 2 S112 736 481551 56 0
30 2 S112 714 482265 770 0
30 2 S112 716 482981 1486 0
30 2 S112 720 483701 2206 0
30 2 S112 732 484433 2938 0
30 2 S112 755 485188 3693 0
30 2 S112 760 485948 4453 0
30 2 S112 746 486694 5199 0
30 2 S112 725 487419 5924 0
30 2 S112 726 488145 6650 0
0 0 0 727 488872 -8323 0
0 0 0 733 489605 -7590 0
0 0 0 759 490364 -6831 0
0 0 0 758 491122 -6073 0
0 0 0 759 491881 -5314 0
0 0 0 741 492622 -4573 0
0 0 0 745 493367 -3828 0
0 0 0 741 494108 -3087 0
0 0 0 748 494856 -2339 0
31 1 S106 752 495608 -1587 0
31 1 S106 742 496350 -845 0
31 1 S106 736 497086 -109 0
31 2 S106 755 497841 646 0
31 2 S106 768 498609 1414 0
31 2 S106 775 499384 2189 0
31 2 S106 787 500171 2976 0
31 2 S106 773 500944 3749 0
31 2 S106 744 501688 4493 0
31 2 S106 735 502423 5228 0
31 2 S106 728 503151 5956 0
31 2 S106 730 503881 6686 0
0 0 0 733 504614 -8131 0
0 0 0 723 505337 -7408 0
0 0 0 720 506057 -6688 0
0 0 0 729 506786 -5959 0
0 0 0 729 507515 -5230 0
0 0 0 741 508256 -4489 0
0 0 0 744 509000 -3745 0
0 0 0 738 509738 -3007 0
0 0 0 723 510461 -2284 0
32 1 S102 732 511193 -1552 0
32 1 S102 727 511920 -825 0
32 1 S102 749 512669 -76 0
32 2 S102 758 513427 682 0
32 2 S102 763 514190 1445 0
32 2 S102 757 514947 2202 0
32 2 S102 761 515708 2963 0
32 2 S102 783 516491 3746 0
32 2 S102 797 517288 4543 0
32 2 S102 795 518083 5338 0
32 2 S102 783 518866 6121 0
32 2 S102 764 519630 6885 0
0 0 0 762 520392 -10407 0
0 0 0 758 521150 -9649 0
0 0 0 774 521924 -8875 0
0 0 0 767 522691 -8108 0
0 0 0 750 523441 -7358 0
0 0 0 733 524174 -6625 0
0 0 0 723 524897 -5902 0
0 0 0 720 525617 -5182 0
0 0 0 725 526342 -4457 0
0 0 0 738 527080 -3719 0
0 0 0 738 527818 -2981 0
0 0 0 731 528549 -2250 0
33 1 S112 736 529285 -1514 0
33 1 S112 736 530021 -778 0
33 1 S112 730 530751 -48 0
33 2 S112 713 531464 665 0
33 2 S112 689 532153 1354 0
33 2 S112 685 532838 2039 0
33 2 S112 682 533520 2721 0
33 2 S112 662 534182 3383 0
33 2 S112 648 534830 4031 0
33 2 S112 630 535460 4661 0
33 2 S112 641 536101 5302 0
33 2 S112 662 536763 5964 0
33 2 S112 737 537500 6701 0
0 0 0 851 538351 -10452 0
0 0 0 905 539256 -9547 0
0 0 0 869 540125 -8678 0
0 0 0 865 540990 -7813 0
0 0 0 865 541855 -6948 0
0 0 0 845 542700 -6103 0
0 0 0 803 543503 -5300 0
0 0 0 770 544273 -4530 0
0 0 0 762 545035 -3768 0
0 0 0 760 545795 -3008 0
0 0 0 776 546571 -2232 0
34 1 S106 781 547352 -1451 0
34 1 S106 762 548114 -689 0
34 2 S106 740 548854 51 0
34 2 S106 740 549594 791 0
34 2 S106 728 550322 1519 0
34 2 S106 721 551043 2240 0
34 2 S106 720 551763 2960 0
34 2 S106 703 552466 3663 0
34 2 S106 690 553156 4353 0
34 2 S106 671 553827 5024 0
34 2 S106 655 554482 5679 0
34 2 S106 659 555141 6338 0
0 0 0 704 555845 -8675 0
0 0 0 814 556659 -7861 0
0 0 0 994 557653 -6867 1
0 0 0 965 558618 -5902 1
0 0 0 955 559573 -4947 1
0 0 0 918 560491 -4029 0
0 0 0 889 561380 -3140 0
0 0 0 856 562236 -2284 0
35 1 S102 830 563066 -1454 0
35 1 S102 818 563884 -636 0
35 2 S102 798 564682 162 0
35 2 S102 771 565453 933 0
35 2 S102 777 566230 1710 0
35 2 S102 764 566994 2474 0
35 2 S102 772 567766 3246 0
35 2 S102 778 568544 4024 0
35 2 S102 765 569309 4789 0
35 2 S102 761 570070 5550 0
35 2 S102 769 570839 6319 0
0 0 0 785 571624 -6092 0
0 0 0 766 572390 -5326 0
0 0 0 727 573117 -4599 0
0 0 0 723 573840 -3876 0
0 0 0 705 574545 -3171 0
0 0 0 688 575233 -2483 0
36 1 S106 680 575913 -1803 0
36 1 S106 697 576610 -1106 0
36 1 S106 741 577351 -365 0
36 2 S106 831 578182 466 0
36 2 S106 923 579105 1389 0
36 2 S106 902 580007 2291 0
36 2 S106 857 580864 3148 0
36 2 S106 828 581692 3976 0
36 2 S106 829 582521 4805 0
36 2 S106 845 583366 5650 0
36 2 S106 881 584247 6531 0
0 0 0 824 585071 -8063 0
0 0 0 792 585863 -7271 0
0 0 0 773 586636 -6498 0
0 0 0 770 587406 -5728 0
0 0 0 774 588180 -4954 0
0 0 0 789 588969 -4165 0
0 0 0 773 589742 -3392 0
0 0 0 771 590513 -2621 0
37 1 S116 807 591320 -1814 0
37 1 S116 831 592151 -983 0
37 1 S116 865 593016 -118 0
37 2 S116 880 593896 762 0
37 2 S116 860 594756 1622 0
37 2 S116 848 595604 2470 0
37 2 S116 866 596470 3336 0
37 2 S116 868 597338 4204 0
37 2 S116 857 598195 5061 0
37 2 S116 827 599022 5888 0
37 2 S116 802 599824 6690 0
0 0 0 793 600617 -10024 0
0 0 0 804 601421 -9220 0
0 0 0 807 602228 -8413 0
0 0 0 794 603022 -7619 0
0 0 0 783 603805 -6836 0
0 0 0 774 604579 -6062 0
0 0 0 763 605342 -5299 0
0 0 0 762 606104 -4537 0
0 0 0 764 606868 -3773 0
0 0 0 751 607619 -3022 0
0 0 0 745 608364 -2277 0
38 1 S102 734 609098 -1543 0
38 1 S102 763 609861 -780 0
38 2 S102 795 610656 15 0
38 2 S102 842 611498 857 0
38 2 S102 884 612382 1741 0
38 2 S102 867 613249 2608 0
38 2 S102 848 614097 3456 0
38 2 S102 834 614931 4290 0
38 2 S102 814 615745 5104 0
38 2 S102 794 616539 5898 0
38 2 S102 764 617303 6662 0
0 0 0 738 618041 -8167 0
0 0 0 732 618773 -7435 0
0 0 0 735 619508 -6700 0
0 0 0 738 620246 -5962 0
0 0 0 739 620985 -5223 0
0 0 0 737 621722 -4486 0
0 0 0 734 622456 -3752 0
0 0 0 731 623187 -3021 0
0 0 0 738 623925 -2283 0
39 1 S116 750 624675 -1533 0
39 1 S116 787 625462 -746 0
39 2 S116 801 626263 55 0
39 2 S116 807 627070 862 0
39 2 S116 789 627859 1651 0
39 2 S116 786 628645 2437 0
39 2 S116 777 629422 3214 0
39 2 S116 788 630210 4002 0
39 2 S116 787 630997 4789 0
39 2 S116 783 631780 5572 0
39 2 S116 772 632552 6344 0
0 0 0 781 633333 -6817 0
0 0 0 794 634127 -6023 0
0 0 0 832 634959 -5191 0
0 0 0 839 635798 -4352 0
0 0 0 819 636617 -3533 0
0 0 0 784 637401 -2749 0
40 1 S112 775 638176 -1974 0
40 1 S112 759 638935 -1215 0
40 1 S112 754 639689 -461 0
40 2 S112 745 640434 284 0
40 2 S112 745 641179 1029 0
40 2 S112 738 641917 1767 0
40 2 S112 751 642668 2518 0
40 2 S112 764 643432 3282 0
40 2 S112 793 644225 4075 0
40 2 S112 815 645040 4890 0
40 2 S112 797 645837 5687 0
40 2 S112 786 646623 6473 0
0 0 0 777 647400 -186651 0
0 0 0 776 648176 -185875 0
0 0 0 780 648956 -185095 0
0 0 0 765 649721 -184330 0
0 0 0 744 650465 -183586 0
0 0 0 698 651163 -182888 0
0 0 0 669 651832 -182219 0
0 0 0 664 652496 -181555 0
0 0 0 702 653198 -180853 0
0 0 0 749 653947 -180104 0
0 0 0 770 654717 -179334 0
0 0 0 774 655491 -178560 0
0 0 0 779 656270 -177781 0
0 0 0 755 657025 -177026 0
0 0 0 733 657758 -176293 0
0 0 0 702 658460 -175591 0
0 0 0 667 659127 -174924 0
0 0 0 658 659785 -174266 0
0 0 0 651 660436 -173615 0
0 0 0 643 661079 -172972 0
0 0 0 641 661720 -172331 0
0 0 0 640 662360 -171691 0
0 0 0 635 662995 -171056 0
0 0 0 633 663628 -170423 0
0 0 0 628 664256 -169795 0
0 0 0 609 664865 -169186 1
0 0 0 606 665471 -168580 1
0 0 0 584 666055 -167996 1
0 0 0 589 666644 -167407 1
0 0 0 589 667233 -166818 1
0 0 0 651 667884 -166167 0
0 0 0 753 668637 -165414 0
0 0 0 916 669553 -164498 0
0 0 0 889 670442 -163609 0
0 0 0 879 671321 -162730 0
0 0 0 877 672198 -161853 0
0 0 0 828 673026 -161025 0
0 0 0 825 673851 -160200 0
0 0 0 797 674648 -159403 0
0 0 0 788 675436 -158615 0
0 0 0 821 676257 -157794 0
0 0 0 820 677077 -156974 0
0 0 0 773 677850 -156201 0
0 0 0 742 678592 -155459 0
0 0 0 748 679340 -154711 0
0 0 0 770 680110 -153941 0
0 0 0 795 680905 -153146 0
0 0 0 804 681709 -152342 0
0 0 0 787 682496 -151555 0
0 0 0 767 683263 -150788 0
0 0 0 750 684013 -150038 0
0 0 0 764 684777 -149274 0
0 0 0 776 685553 -148498 0
0 0 0 797 686350 -147701 0
0 0 0 798 687148 -146903 0
0 0 0 776 687924 -146127 0
0 0 0 747 688671 -145380 0
0 0 0 713 689384 -144667 0
0 0 0 723 690107 -143944 0
0 0 0 757 690864 -143187 0
0 0 0 848 691712 -142339 0
0 0 0 897 692609 -141442 0
0 0 0 914 693523 -140528 0
0 0 0 895 694418 -139633 0
0 0 0 888 695306 -138745 0
0 0 0 889 696195 -137856 0
0 0 0 848 697043 -137008 0
0 0 0 801 697844 -136207 0
0 0 0 749 698593 -135458 0
0 0 0 715 699308 -134743 0
0 0 0 707 700015 -134036 0
0 0 0 697 700712 -133339 0
0 0 0 683 701395 -132656 0
0 0 0 664 702059 -131992 0
0 0 0 651 702710 -131341 0
0 0 0 677 703387 -130664 0
0 0 0 690 704077 -129974 0
0 0 0 704 704781 -129270 0
0 0 0 717 705498 -128553 0
0 0 0 769 706267 -127784 0
0 0 0 857 707124 -126927 0
0 0 0 894 708018 -126033 0
0 0 0 881 708899 -125152 0
0 0 0 853 709752 -124299 0
0 0 0 811 710563 -123488 0
0 0 0 809 711372 -122679 0
0 0 0 787 712159 -121892 0
0 0 0 795 712954 -121097 0
0 0 0 811 713765 -120286 0
0 0 0 812 714577 -119474 0
0 0 0 809 715386 -118665 0
0 0 0 785 716171 -117880 0
0 0 0 766 716937 -117114 0
0 0 0 741 717678 -116373 0
0 0 0 749 718427 -115624 0
0 0 0 766 719193 -114858 0
0 0 0 780 719973 -114078 0
0 0 0 807 720780 -113271 0
0 0 0 794 721574 -112477 0
0 0 0 786 722360 -111691 0
0 0 0 757 723117 -110934 0
0 0 0 742 723859 -110192 0
0 0 0 729 724588 -109463 0
0 0 0 713 725301 -108750 0
0 0 0 689 725990 -108061 0
0 0 0 665 726655 -107396 0
0 0 0 645 727300 -106751 0
0 0 0 649 727949 -106102 0
0 0 0 653 728602 -105449 0
0 0 0 683 729285 -104766 0
0 0 0 774 730059 -103992 0
0 0 0 858 730917 -103134 0
0 0 0 961 731878 -102173 1
0 0 0 956 732834 -101217 1
0 0 0 938 733772 -100279 1
0 0 0 955 734727 -99324 1
0 0 0 925 735652 -98399 0
0 0 0 854 736506 -97545 0
0 0 0 815 737321 -96730 0
0 0 0 775 738096 -95955 0
0 0 0 763 738859 -95192 0
0 0 0 768 739627 -94424 0
0 0 0 777 740404 -93647 0
0 0 0 767 741171 -92880 0
0 0 0 745 741916 -92135 0
0 0 0 755 742671 -91380 0
0 0 0 800 743471 -90580 0
0 0 0 890 744361 -89690 0
0 0 0 916 745277 -88774 0
0 0 0 896 746173 -87878 0
0 0 0 895 747068 -86983 0
0 0 0 903 747971 -86080 0
0 0 0 899 748870 -85181 0
0 0 0 874 749744 -84307 0
0 0 0 841 750585 -83466 0
0 0 0 829 751414 -82637 0
0 0 0 841 752255 -81796 0
0 0 0 853 753108 -80943 0
0 0 0 821 753929 -80122 0
0 0 0 787 754716 -79335 0
0 0 0 742 755458 -78593 0
0 0 0 693 756151 -77900 0
0 0 0 665 756816 -77235 0
0 0 0 687 757503 -76548 0
0 0 0 733 758236 -75815 0
0 0 0 805 759041 -75010 0
0 0 0 876 759917 -74134 0
0 0 0 945 760862 -73189 1
0 0 0 926 761788 -72263 0
0 0 0 888 762676 -71375 0
0 0 0 843 763519 -70532 0
0 0 0 846 764365 -69686 0
0 0 0 801 765166 -68885 0
0 0 0 768 765934 -68117 0
0 0 0 737 766671 -67380 0
0 0 0 721 767392 -66659 0
0 0 0 693 768085 -65966 0
0 0 0 660 768745 -65306 0
0 0 0 645 769390 -64661 0
0 0 0 625 770015 -64036 0
0 0 0 611 770626 -63425 1
0 0 0 602 771228 -62823 1
0 0 0 600 771828 -62223 1
0 0 0 617 772445 -61606 1
0 0 0 666 773111 -60940 0
0 0 0 718 773829 -60222 0
0 0 0 737 774566 -59485 0
0 0 0 726 775292 -58759 0
0 0 0 718 776010 -58041 0
0 0 0 709 776719 -57332 0
0 0 0 695 777414 -56637 0
0 0 0 666 778080 -55971 0
0 0 0 655 778735 -55316 0
0 0 0 647 779382 -54669 0
0 0 0 627 780009 -54042 0
0 0 0 644 780653 -53398 0
0 0 0 652 781305 -52746 0
0 0 0 674 781979 -52072 0
0 0 0 699 782678 -51373 0
0 0 0 720 783398 -50653 0
0 0 0 755 784153 -49898 0
0 0 0 789 784942 -49109 0
0 0 0 803 785745 -48306 0
0 0 0 827 786572 -47479 0
0 0 0 823 787395 -46656 0
0 0 0 821 788216 -45835 0
0 0 0 828 789044 -45007 0
0 0 0 826 789870 -44181 0
0 0 0 833 790703 -43348 0
0 0 0 817 791520 -42531 0
0 0 0 777 792297 -41754 0
0 0 0 773 793070 -40981 0
0 0 0 749 793819 -40232 0
0 0 0 719 794538 -39513 0
0 0 0 700 795238 -38813 0
0 0 0 692 795930 -38121 0
0 0 0 693 796623 -37428 0
0 0 0 693 797316 -36735 0
0 0 0 694 798010 -36041 0
0 0 0 667 798677 -35374 0
0 0 0 651 799328 -34723 0
0 0 0 661 799989 -34062 0
0 0 0 683 800672 -33379 0
0 0 0 737 801409 -32642 0
0 0 0 806 802215 -31836 0
0 0 0 867 803082 -30969 0
0 0 0 871 803953 -30098 0
0 0 0 822 804775 -29276 0
0 0 0 774 805549 -28502 0
0 0 0 746 806295 -27756 0
0 0 0 728 807023 -27028 0
0 0 0 729 807752 -26299 0
0 0 0 737 808489 -25562 0
0 0 0 754 809243 -24808 0
0 0 0 755 809998 -24053 0
0 0 0 793 810791 -23260 0
0 0 0 806 811597 -22454 0
0 0 0 809 812406 -21645 0
0 0 0 799 813205 -20846 0
0 0 0 762 813967 -20084 0
0 0 0 754 814721 -19330 0
0 0 0 738 815459 -18592 0
0 0 0 747 816206 -17845 0
0 0 0 767 816973 -17078 0
0 0 0 775 817748 -16303 0
0 0 0 775 818523 -15528 0
0 0 0 800 819323 -14728 0
0 0 0 837 820160 -13891 0
0 0 0 861 821021 -13030 0
0 0 0 834 821855 -12196 0
0 0 0 793 822648 -11403 0
0 0 0 775 823423 -10628 0
0 0 0 748 824171 -9880 0
0 0 0 750 824921 -9130 0
0 0 0 753 825674 -8377 0
0 0 0 750 826424 -7627 0
0 0 0 770 827194 -6857 0
0 0 0 796 827990 -6061 0
0 0 0 819 828809 -5242 0
0 0 0 877 829686 -4365 0
0 0 0 846 830532 -3519 0
0 0 0 831 831363 -2688 0
41 1 S102 809 832172 -1879 0
41 1 S102 778 832950 -1101 0
41 1 S102 730 833680 -371 0
41 2 S102 707 834387 336 0
41 2 S102 683 835070 1019 0
41 2 S102 675 835745 1694 0
41 2 S102 700 836445 2394 0
41 2 S102 719 837164 3113 0
41 2 S102 773 837937 3886 0
41 2 S102 812 838749 4698 0
41 2 S102 832 839581 5530 0
41 2 S102 836 840417 6366 0
0 0 0 839 841256 -6621 0
0 0 0 848 842104 -5773 0
0 0 0 847 842951 -4926 0
0 0 0 809 843760 -4117 0
0 0 0 801 844561 -3316 0
0 0 0 803 845364 -2513 0
42 1 S112 800 846164 -1713 0
42 1 S112 793 846957 -920 0
42 1 S112 776 847733 -144 0
42 2 S112 779 848512 635 0
42 2 S112 787 849299 1422 0
42 2 S112 810 850109 2232 0
42 2 S112 834 850943 3066 0
42 2 S112 827 851770 3893 0
42 2 S112 836 852606 4729 0
42 2 S112 851 853457 5580 0
42 2 S112 849 854306 6429 0
0 0 0 828 855134 -8360 0
0 0 0 792 855926 -7568 0
0 0 0 770 856696 -6798 0
0 0 0 766 857462 -6032 0
0 0 0 758 858220 -5274 0
0 0 0 759 858979 -4515 0
0 0 0 745 859724 -3770 0
0 0 0 736 860460 -3034 0
0 0 0 748 861208 -2286 0
43 1 S116 760 861968 -1526 0
43 1 S116 788 862756 -738 0
43 2 S116 793 863549 55 0
43 2 S116 792 864341 847 0
43 2 S116 784 865125 1631 0
43 2 S116 781 865906 2412 0
43 2 S116 811 866717 3223 0
43 2 S116 870 867587 4093 0
43 2 S116 905 868492 4998 0
43 2 S116 873 869365 5871 0
43 2 S116 844 870209 6715 0
0 0 0 823 871032 -6421 0
0 0 0 823 871855 -5598 0
0 0 0 821 872676 -4777 0
0 0 0 813 873489 -3964 0
0 0 0 796 874285 -3168 0
0 0 0 776 875061 -2392 0
44 1 S102 779 875840 -1613 0
44 1 S102 779 876619 -834 0
44 1 S102 799 877418 -35 0
44 2 S102 790 878208 755 0
44 2 S102 790 878998 1545 0
44 2 S102 781 879779 2326 0
44 2 S102 790 880569 3116 0
44 2 S102 781 881350 3897 0
44 2 S102 795 882145 4692 0
44 2 S102 782 882927 5474 0
44 2 S102 777 883704 6251 0
44 2 S102 777 884481 7028 0
0 0 0 782 885263 -7376 0
0 0 0 797 886060 -6579 0
0 0 0 807 886867 -5772 0
0 0 0 809 887676 -4963 0
0 0 0 803 888479 -4160 0
0 0 0 822 889301 -3338 0
0 0 0 850 890151 -2488 0
45 1 S116 880 891031 -1608 0
45 1 S116 859 891890 -749 0
45 2 S116 817 892707 68 0
45 2 S116 790 893497 858 0
45 2 S116 774 894271 1632 0
45 2 S116 775 895046 2407 0
45 2 S116 785 895831 3192 0
45 2 S116 781 896612 3973 0
45 2 S116 754 897366 4727 0
45 2 S116 746 898112 5473 0
45 2 S116 739 898851 6212 0
45 2 S116 755 899606 6967 0
0 0 0 771 900377 -9918 0
0 0 0 781 901158 -9137 0
0 0 0 780 901938 -8357 0
0 0 0 798 902736 -7559 0
0 0 0 809 903545 -6750 0
0 0 0 803 904348 -5947 0
0 0 0 762 905110 -5185 0
0 0 0 722 905832 -4463 0
0 0 0 706 906538 -3757 0
0 0 0 692 907230 -3065 0
0 0 0 687 907917 -2378 0
46 1 S102 688 908605 -1690 0
46 1 S102 683 909288 -1007 0
46 1 S102 696 909984 -311 0
46 2 S102 720 910704 409 0
46 2 S102 743 911447 1152 0
46 2 S102 741 912188 1893 0
46 2 S102 754 912942 2647 0
46 2 S102 776 913718 3423 0
46 2 S102 782 914500 4205 0
46 2 S102 791 915291 4996 0
46 2 S102 781 916072 5777 0
46 2 S102 779 916851 6556 0
0 0 0 787 917638 -8042 0
0 0 0 783 918421 -7259 0
0 0 0 810 919231 -6449 0
0 0 0 812 920043 -5637 0
0 0 0 801 920844 -4836 0
0 0 0 768 921612 -4068 0
0 0 0 761 922373 -3307 0
0 0 0 767 923140 -2540 0
47 1 S112 792 923932 -1748 0
47 1 S112 808 924740 -940 0
47 1 S112 802 925542 -138 0
47 2 S112 797 926339 659 0
47 2 S112 810 927149 1469 0
47 2 S112 834 927983 2303 0
47 2 S112 890 928873 3193 0
47 2 S112 865 929738 4058 0
47 2 S112 860 930598 4918 0
47 2 S112 846 931444 5764 0
47 2 S112 822 932266 6586 0
0 0 0 809 933075 -10377 0
0 0 0 788 933863 -9589 0
0 0 0 764 934627 -8825 0
0 0 0 752 935379 -8073 0
0 0 0 746 936125 -7327 0
0 0 0 746 936871 -6581 0
0 0 0 747 937618 -5834 0
0 0 0 744 938362 -5090 0
0 0 0 734 939096 -4356 0
0 0 0 743 939839 -3613 0
0 0 0 758 940597 -2855 0
0 0 0 771 941368 -2084 0
48 1 S116 794 942162 -1290 0
48 1 S116 790 942952 -500 0
48 2 S116 786 943738 286 0
48 2 S116 800 944538 1086 0
48 2 S116 822 945360 1908 0
48 2 S116 826 946186 2734 0
48 2 S116 812 946998 3546 0
48 2 S116 794 947792 4340 0
48 2 S116 793 948585 5133 0
48 2 S116 803 949388 5936 0
48 2 S116 816 950204 6752 0
0 0 0 808 951012 -5918 0
0 0 0 801 951813 -5117 0
0 0 0 790 952603 -4327 0
0 0 0 771 953374 -3556 0
0 0 0 768 954142 -2788 0
0 0 0 768 954910 -2020 0
49 1 S112 760 955670 -1260 0
49 1 S112 754 956424 -506 0
49 2 S112 762 957186 256 0
49 2 S112 772 957958 1028 0
49 2 S112 806 958764 1834 0
49 2 S112 813 959577 2647 0
49 2 S112 818 960395 3465 0
49 2 S112 814 961209 4279 0
49 2 S112 814 962023 5093 0
49 2 S112 797 962820 5890 0
49 2 S112 790 963610 6680 0
0 0 0 777 964387 -10315 0
0 0 0 771 965158 -9544 0
0 0 0 764 965922 -8780 0
0 0 0 758 966680 -8022 0
0 0 0 763 967443 -7259 0
0 0 0 754 968197 -6505 0
0 0 0 738 968935 -5767 0
0 0 0 743 969678 -5024 0
0 0 0 746 970424 -4278 0
0 0 0 764 971188 -3514 0
0 0 0 788 971976 -2726 0
50 1 S106 794 972770 -1932 0
50 1 S106 760 973530 -1172 0
50 1 S106 716 974246 -456 0
50 2 S106 702 974948 246 0
50 2 S106 670 975618 916 0
50 2 S106 666 976284 1582 0
50 2 S106 686 976970 2268 0
50 2 S106 699 977669 2967 0
50 2 S106 726 978395 3693 0
50 2 S106 741 979136 4434 0
50 2 S106 726 979862 5160 0
50 2 S106 706 980568 5866 0
50 2 S106 703 981271 6569 0
0 0 0 759 982030 -6183 0
0 0 0 808 982838 -5375 0
0 0 0 854 983692 -4521 0
0 0 0 853 984545 -3668 0
0 0 0 841 985386 -2827 0
0 0 0 826 986212 -2001 0
51 1 S112 792 987004 -1209 0
51 1 S112 767 987771 -442 0
51 2 S112 751 988522 309 0
51 2 S112 732 989254 1041 0
51 2 S112 720 989974 1761 0
51 2 S112 701 990675 2462 0
51 2 S112 687 991362 3149 0
51 2 S112 688 992050 3837 0
51 2 S112 688 992738 4525 0
51 2 S112 702 993440 5227 0
51 2 S112 744 994184 5971 0
51 2 S112 782 994966 6753 0
0 0 0 807 995773 -5521 0
0 0 0 843 996616 -4678 0
0 0 0 874 997490 -3804 0
0 0 0 891 998381 -2913 0
0 0 0 883 999264 -2030 0
52 1 S116 857 1000121 -1173 0
52 1 S116 855 1000976 -318 0
52 2 S116 833 1001809 515 0
52 2 S116 845 1002654 1360 0
52 2 S116 840 1003494 2200 0
52 2 S116 812 1004306 3012 0
52 2 S116 788 1005094 3800 0
52 2 S116 784 1005878 4584 0
52 2 S116 796 1006674 5380 0
52 2 S116 835 1007509 6215 0
0 0 0 850 1008359 -9414 0
0 0 0 846 1009205 -8568 0
0 0 0 810 1010015 -7758 0
0 0 0 798 1010813 -6960 0
0 0 0 780 1011593 -6180 0
0 0 0 781 1012374 -5399 0
0 0 0 782 1013156 -4617 0
0 0 0 786 1013942 -3831 0
0 0 0 768 1014710 -3063 0
0 0 0 770 1015480 -2293 0
53 1 S106 788 1016268 -1505 0
53 1 S106 810 1017078 -695 0
53 2 S106 821 1017899 126 0
53 2 S106 811 1018710 937 0
53 2 S106 807 1019517 1744 0
53 2 S106 803 1020320 2547 0
53 2 S106 794 1021114 3341 0
53 2 S106 788 1021902 4129 0
53 2 S106 783 1022685 4912 0
53 2 S106 768 1023453 5680 0
53 2 S106 771 1024224 6451 0
0 0 0 769 1024993 -6341 0
0 0 0 783 1025776 -5558 0
0 0 0 787 1026563 -4771 0
0 0 0 768 1027331 -4003 0
0 0 0 760 1028091 -3243 0
0 0 0 762 1028853 -2481 0
54 1 S102 758 1029611 -1723 0
54 1 S102 763 1030374 -960 0
54 1 S102 753 1031127 -207 0
54 2 S102 753 1031880 546 0
54 2 S102 771 1032651 1317 0
54 2 S102 787 1033438 2104 0
54 2 S102 814 1034252 2918 0
54 2 S102 823 1035075 3741 0
54 2 S102 821 1035896 4562 0
54 2 S102 823 1036719 5385 0
54 2 S102 804 1037523 6189 0
54 2 S102 802 1038325 6991 0
0 0 0 777 1039102 -9938 0
0 0 0 783 1039885 -9155 0
0 0 0 770 1040655 -8385 0
0 0 0 765 1041420 -7620 0
0 0 0 761 1042181 -6859 0
0 0 0 762 1042943 -6097 0
0 0 0 756 1043699 -5341 0
0 0 0 758 1044457 -4583 0
0 0 0 764 1045221 -3819 0
0 0 0 760 1045981 -3059 0
0 0 0 778 1046759 -2281 0
55 1 S106 799 1047558 -1482 0
55 1 S106 807 1048365 -675 0
55 2 S106 810 1049175 135 0
55 2 S106 794 1049969 929 0
55 2 S106 792 1050761 1721 0
55 2 S106 768 1051529 2489 0
55 2 S106 756 1052285 3245 0
55 2 S106 730 1053015 3975 0
55 2 S106 720 1053735 4695 0
55 2 S106 717 1054452 5412 0
55 2 S106 717 1055169 6129 0
55 2 S106 748 1055917 6877 0
0 0 0 755 1056672 -6045 0
0 0 0 758 1057430 -5287 0
0 0 0 763 1058193 -4524 0
0 0 0 767 1058960 -3757 0
0 0 0 768 1059728 -2989 0
0 0 0 737 1060465 -2252 0
56 1 S116 740 1061205 -1512 0
56 1 S116 735 1061940 -777 0
56 1 S116 745 1062685 -32 0
56 2 S116 762 1063447 730 0
56 2 S116 779 1064226 1509 0
56 2 S116 763 1064989 2272 0
56 2 S116 773 1065762 3045 0
56 2 S116 790 1066552 3835 0
56 2 S116 797 1067349 4632 0
56 2 S116 811 1068160 5443 0
56 2 S116 792 1068952 6235 0
56 2 S116 792 1069744 7027 0
0 0 0 791 1070535 -5660 0
0 0 0 804 1071339 -4856 0
0 0 0 786 1072125 -4070 0
0 0 0 767 1072892 -3303 0
0 0 0 771 1073663 -2532 0
57 1 S106 773 1074436 -1759 0
57 1 S106 766 1075202 -993 0
57 1 S106 758 1075960 -235 0
57 2 S106 779 1076739 544 0
57 2 S106 799 1077538 1343 0
57 2 S106 807 1078345 2150 0
57 2 S106 795 1079140 2945 0
57 2 S106 775 1079915 3720 0
57 2 S106 789 1080704 4509 0
57 2 S106 782 1081486 5291 0
57 2 S106 779 1082265 6070 0
57 2 S106 778 1083043 6848 0
0 0 0 775 1083818 -7961 0
0 0 0 782 1084600 -7179 0
0 0 0 780 1085380 -6399 0
0 0 0 773 1086153 -5626 0
0 0 0 758 1086911 -4868 0
0 0 0 738 1087649 -4130 0
0 0 0 740 1088389 -3390 0
0 0 0 743 1089132 -2647 0
58 1 S102 752 1089884 -1895 0
58 1 S102 763 1090647 -1132 0
58 1 S102 751 1091398 -381 0
58 2 S102 726 1092124 345 0
58 2 S102 732 1092856 1077 0
58 2 S102 731 1093587 1808 0
58 2 S102 738 1094325 2546 0
58 2 S102 743 1095068 3289 0
58 2 S102 745 1095813 4034 0
58 2 S102 730 1096543 4764 0
58 2 S102 732 1097275 5496 0
58 2 S102 739 1098014 6235 0
58 2 S102 746 1098760 6981 0
0 0 0 755 1099515 -5427 0
0 0 0 749 1100264 -4678 0
0 0 0 725 1100989 -3953 0
0 0 0 715 1101704 -3238 0
0 0 0 707 1102411 -2531 0
59 1 S112 686 1103097 -1845 0
59 1 S112 669 1103766 -1176 0
59 1 S112 648 1104414 -528 0
59 2 S112 636 1105050 108 0
59 2 S112 636 1105686 744 0
59 2 S112 638 1106324 1382 0
59 2 S112 647 1106971 2029 0
59 2 S112 674 1107645 2703 0
59 2 S112 705 1108350 3408 0
59 2 S112 769 1109119 4177 0
59 2 S112 817 1109936 4994 0
59 2 S112 838 1110774 5832 0
59 2 S112 838 1111612 6670 0
0 0 0 832 1112444 -8131 0
0 0 0 831 1113275 -7300 0
0 0 0 815 1114090 -6485 0
0 0 0 771 1114861 -5714 0
0 0 0 735 1115596 -4979 0
0 0 0 693 1116289 -4286 0
0 0 0 668 1116957 -3618 0
0 0 0 681 1117638 -2937 0
0 0 0 726 1118364 -2211 0
60 1 S102 788 1119152 -1423 0
60 1 S102 865 1120017 -558 0
60 2 S102 891 1120908 333 0
60 2 S102 892 1121800 1225 0
60 2 S102 864 1122664 2089 0
60 2 S102 876 1123540 2965 0
60 2 S102 852 1124392 3817 0
60 2 S102 841 1125233 4658 0
60 2 S102 810 1126043 5468 0
60 2 S102 777 1126820 6245 0
60 2 S102 759 1127579 7004 0
0 0 0 756 1128335 -9664 0
0 0 0 757 1129092 -8907 0
0 0 0 745 1129837 -8162 0
0 0 0 732 1130569 -7430 0
0 0 0 707 1131276 -6723 0
0 0 0 698 1131974 -6025 0
0 0 0 723 1132697 -5302 0
0 0 0 753 1133450 -4549 0
0 0 0 802 1134252 -3747 0
0 0 0 835 1135087 -2912 0
0 0 0 831 1135918 -2081 0
61 1 S106 826 1136744 -1255 0
61 1 S106 838 1137582 -417 0
61 2 S106 837 1138419 420 0
61 2 S106 849 1139268 1269 0
61 2 S106 818 1140086 2087 0
61 2 S106 790 1140876 2877 0
61 2 S106 778 1141654 3655 0
61 2 S106 773 1142427 4428 0
61 2 S106 763 1143190 5191 0
61 2 S106 784 1143974 5975 0
61 2 S106 774 1144748 6749 0
0 0 0 749 1145497 -6063 0
0 0 0 757 1146254 -5306 0
0 0 0 764 1147018 -4542 0
0 0 0 776 1147794 -3766 0
0 0 0 775 1148569 -2991 0
0 0 0 772 1149341 -2219 0
62 1 S112 756 1150097 -1463 0
62 1 S112 755 1150852 -708 0
62 2 S112 749 1151601 41 0
62 2 S112 770 1152371 811 0
62 2 S112 774 1153145 1585 0
62 2 S112 762 1153907 2347 0
62 2 S112 753 1154660 3100 0
62 2 S112 743 1155403 3843 0
62 2 S112 746 1156149 4589 0
62 2 S112 737 1156886 5326 0
62 2 S112 707 1157593 6033 0
62 2 S112 680 1158273 6713 0
0 0 0 652 1158925 -10159 0
0 0 0 642 1159567 -9517 0
0 0 0 638 1160205 -8879 0
0 0 0 641 1160846 -8238 0
0 0 0 655 1161501 -7583 0
0 0 0 658 1162159 -6925 0
0 0 0 662 1162821 -6263 0
0 0 0 660 1163481 -5603 0
0 0 0 658 1164139 -4945 0
0 0 0 683 1164822 -4262 0
0 0 0 737 1165559 -3525 0
0 0 0 864 1166423 -2661 0
63 1 S102 909 1167332 -1752 0
63 1 S102 916 1168248 -836 0
63 2 S102 924 1169172 88 0
63 2 S102 938 1170110 1026 1
63 2 S102 932 1171042 1958 1
63 2 S102 930 1171972 2888 0
63 2 S102 892 1172864 3780 0
63 2 S102 868 1173732 4648 0
63 2 S102 861 1174593 5509 0
63 2 S102 852 1175445 6361 0
0 0 0 842 1176287 -8563 0
0 0 0 816 1177103 -7747 0
0 0 0 823 1177926 -6924 0
0 0 0 811 1178737 -6113 0
0 0 0 809 1179546 -5304 0
0 0 0 812 1180358 -4492 0
0 0 0 807 1181165 -3685 0
0 0 0 799 1181964 -2886 0
0 0 0 778 1182742 -2108 0
64 1 S112 744 1183486 -1364 0
64 1 S112 720 1184206 -644 0
64 2 S112 724 1184930 80 0
64 2 S112 721 1185651 801 0
64 2 S112 716 1186367 1517 0
64 2 S112 740 1187107 2257 0
64 2 S112 741 1187848 2998 0
64 2 S112 751 1188599 3749 0
64 2 S112 754 1189353 4503 0
64 2 S112 743 1190096 5246 0
64 2 S112 737 1190833 5983 0
64 2 S112 759 1191592 6742 0
0 0 0 788 1192380 -6197 0
0 0 0 824 1193204 -5373 0
0 0 0 815 1194019 -4558 0
0 0 0 772 1194791 -3786 0
0 0 0 767 1195558 -3019 0
0 0 0 742 1196300 -2277 0
65 1 S106 740 1197040 -1537 0
65 1 S106 743 1197783 -794 0
65 1 S106 736 1198519 -58 0
65 2 S106 746 1199265 688 0
65 2 S106 764 1200029 1452 0
65 2 S106 798 1200827 2250 0
65 2 S106 819 1201646 3069 0
65 2 S106 801 1202447 3870 0
65 2 S106 794 1203241 4664 0
65 2 S106 779 1204020 5443 0
65 2 S106 758 1204778 6201 0
65 2 S106 767 1205545 6968 0
0 0 0 757 1206302 -5769 0
0 0 0 746 1207048 -5023 0
0 0 0 743 1207791 -4280 0
0 0 0 728 1208519 -3552 0
0 0 0 724 1209243 -2828 0
0 0 0 718 1209961 -2110 0
66 1 S116 716 1210677 -1394 0
66 1 S116 720 1211397 -674 0
66 2 S116 763 1212160 89 0
66 2 S116 823 1212983 912 0
66 2 S116 902 1213885 1814 0
66 2 S116 902 1214787 2716 0
66 2 S116 873 1215660 3589 0
66 2 S116 871 1216531 4460 0
66 2 S116 849 1217380 5309 0
66 2 S116 830 1218210 6139 0
66 2 S116 803 1219013 6942 0
0 0 0 756 1219769 -10174 0
0 0 0 725 1220494 -9449 0
0 0 0 710 1221204 -8739 0
0 0 0 711 1221915 -8028 0
0 0 0 723 1222638 -7305 0
0 0 0 727 1223365 -6578 0
0 0 0 702 1224067 -5876 0
0 0 0 688 1224755 -5188 0
0 0 0 689 1225444 -4499 0
0 0 0 680 1226124 -3819 0
0 0 0 676 1226800 -3143 0
0 0 0 703 1227503 -2440 0
67 1 S102 731 1228234 -1709 0
67 1 S102 776 1229010 -933 0
67 1 S102 818 1229828 -115 0
67 2 S102 829 1230657 714 0
67 2 S102 833 1231490 1547 0
67 2 S102 834 1232324 2381 0
67 2 S102 832 1233156 3213 0
67 2 S102 842 1233998 4055 0
67 2 S102 832 1234830 4887 0
67 2 S102 801 1235631 5688 0
67 2 S102 769 1236400 6457 0
0 0 0 758 1237158 -6313 0
0 0 0 780 1237938 -5533 0
0 0 0 840 1238778 -4693 0
0 0 0 862 1239640 -3831 0
0 0 0 865 1240505 -2966 0
0 0 0 855 1241360 -2111 0
68 1 S106 854 1242214 -1257 0
68 1 S106 825 1243039 -432 0
68 2 S106 808 1243847 376 0
68 2 S106 778 1244625 1154 0
68 2 S106 749 1245374 1903 0
68 2 S106 739 1246113 2642 0
68 2 S106 730 1246843 3372 0
68 2 S106 755 1247598 4127 0
68 2 S106 760 1248358 4887 0
68 2 S106 768 1249126 5655 0
68 2 S106 770 1249896 6425 0
0 0 0 783 1250679 -10299 0
0 0 0 792 1251471 -9507 0
0 0 0 795 1252266 -8712 0
0 0 0 783 1253049 -7929 0
0 0 0 758 1253807 -7171 0
0 0 0 723 1254530 -6448 0
0 0 0 725 1255255 -5723 0
0 0 0 735 1255990 -4988 0
0 0 0 773 1256763 -4215 0
0 0 0 799 1257562 -3416 0
0 0 0 806 1258368 -2610 0
69 1 S102 791 1259159 -1819 0
69 1 S102 776 1259935 -1043 0
69 1 S102 776 1260711 -267 0
69 2 S102 784 1261495 517 0
69 2 S102 798 1262293 1315 0
69 2 S102 805 1263098 2120 0
69 2 S102 794 1263892 2914 0
69 2 S102 808 1264700 3722 0
69 2 S102 826 1265526 4548 0
69 2 S102 847 1266373 5395 0
69 2 S102 841 1267214 6236 0
0 0 0 823 1268037 -8309 0
0 0 0 807 1268844 -7502 0
0 0 0 800 1269644 -6702 0
0 0 0 800 1270444 -5902 0
0 0 0 807 1271251 -5095 0
0 0 0 800 1272051 -4295 0
0 0 0 780 1272831 -3515 0
0 0 0 778 1273609 -2737 0
70 1 S112 786 1274395 -1951 0
70 1 S112 795 1275190 -1156 0
70 1 S112 791 1275981 -365 0
70 2 S112 777 1276758 412 0
70 2 S112 763 1277521 1175 0
70 2 S112 778 1278299 1953 0
70 2 S112 790 1279089 2743 0
70 2 S112 794 1279883 3537 0
70 2 S112 792 1280675 4329 0
70 2 S112 793 1281468 5122 0
70 2 S112 812 1282280 5934 0
70 2 S112 823 1283103 6757 0
0 0 0 827 1283930 -10254 0
0 0 0 823 1284753 -9431 0
0 0 0 790 1285543 -8641 0
0 0 0 779 1286322 -7862 0
0 0 0 763 1287085 -7099 0
0 0 0 732 1287817 -6367 0
0 0 0 705 1288522 -5662 0
0 0 0 682 1289204 -4980 0
0 0 0 677 1289881 -4303 0
0 0 0 670 1290551 -3633 0
0 0 0 682 1291233 -2951 0
0 0 0 731 1291964 -2220 0
71 1 S116 769 1292733 -1451 0
71 1 S116 799 1293532 -652 0
71 2 S116 809 1294341 157 0
71 2 S116 794 1295135 951 0
71 2 S116 765 1295900 1716 0
71 2 S116 715 1296615 2431 0
71 2 S116 677 1297292 3108 0
71 2 S116 679 1297971 3787 0
71 2 S116 708 1298679 4495 0
71 2 S116 754 1299433 5249 0
71 2 S116 829 1300262 6078 0
71 2 S116 859 1301121 6937 0
0 0 0 874 1301995 -7856 0
0 0 0 882 1302877 -6974 0
0 0 0 869 1303746 -6105 0
0 0 0 826 1304572 -5279 0
0 0 0 779 1305351 -4500 0
0 0 0 771 1306122 -3729 0
0 0 0 773 1306895 -2956 0
0 0 0 783 1307678 -2173 0
72 1 S102 811 1308489 -1362 0
72 1 S102 851 1309340 -511 0
72 2 S102 884 1310224 373 0
72 2 S102 896 1311120 1269 0
72 2 S102 892 1312012 2161 0
72 2 S102 889 1312901 3050 0
72 2 S102 860 1313761 3910 0
72 2 S102 840 1314601 4750 0
72 2 S102 828 1315429 5578 0
72 2 S102 844 1316273 6422 0
0 0 0 854 1317127 -6136 0
0 0 0 870 1317997 -5266 0
0 0 0 842 1318839 -4424 0
0 0 0 827 1319666 -3597 0
0 0 0 822 1320488 -2775 0
73 1 S116 828 1321316 -1947 0
73 1 S116 843 1322159 -1104 0
73 1 S116 834 1322993 -270 0
73 2 S116 840 1323833 570 0
73 2 S116 831 1324664 1401 0
73 2 S116 814 1325478 2215 0
73 2 S116 818 1326296 3033 0
73 2 S116 825 1327121 3858 0
73 2 S116 863 1327984 4721 0
73 2 S116 881 1328865 5602 0
73 2 S116 862 1329727 6464 0
0 0 0 846 1330573 -8389 0
0 0 0 831 1331404 -7558 0
0 0 0 827 1332231 -6731 0
0 0 0 817 1333048 -5914 0
0 0 0 791 1333839 -5123 0
0 0 0 779 1334618 -4344 0
0 0 0 774 1335392 -3570 0
0 0 0 773 1336165 -2797 0
0 0 0 784 1336949 -2013 0
74 1 S106 785 1337734 -1228 0
74 1 S106 782 1338516 -446 0
74 2 S106 797 1339313 351 0
74 2 S106 805 1340118 1156 0
74 2 S106 801 1340919 1957 0
74 2 S106 808 1341727 2765 0
74 2 S106 768 1342495 3533 0
74 2 S106 747 1343242 4280 0
74 2 S106 746 1343988 5026 0
74 2 S106 752 1344740 5778 0
74 2 S106 768 1345508 6546 0
0 0 0 802 1346310 -6230 0
0 0 0 810 1347120 -5420 0
0 0 0 793 1347913 -4627 0
0 0 0 786 1348699 -3841 0
0 0 0 776 1349475 -3065 0
0 0 0 791 1350266 -2274 0
75 1 S112 794 1351060 -1480 0
75 1 S112 784 1351844 -696 0
75 2 S112 759 1352603 63 0
75 2 S112 768 1353371 831 0
75 2 S112 784 1354155 1615 0
75 2 S112 805 1354960 2420 0
75 2 S112 850 1355810 3270 0
75 2 S112 870 1356680 4140 0
75 2 S112 836 1357516 4976 0
75 2 S112 835 1358351 5811 0
75 2 S112 837 1359188 6648 0
0 0 0 857 1360045 -6322 0
0 0 0 834 1360879 -5488 0
0 0 0 806 1361685 -4682 0
0 0 0 787 1362472 -3895 0
0 0 0 774 1363246 -3121 0
0 0 0 775 1364021 -2346 0
76 1 S116 771 1364792 -1575 0
76 1 S116 772 1365564 -803 0
76 1 S116 774 1366338 -29 0
76 2 S116 794 1367132 765 0
76 2 S116 828 1367960 1593 0
76 2 S116 808 1368768 2401 0
76 2 S116 808 1369576 3209 0
76 2 S116 813 1370389 4022 0
76 2 S116 822 1371211 4844 0
76 2 S116 827 1372038 5671 0
76 2 S116 804 1372842 6475 0
0 0 0 791 1373633 -6162 0
0 0 0 791 1374424 -5371 0
0 0 0 797 1375221 -4574 0
0 0 0 812 1376033 -3762 0
0 0 0 798 1376831 -2964 0
0 0 0 766 1377597 -2198 0
77 1 S106 735 1378332 -1463 0
77 1 S106 740 1379072 -723 0
77 2 S106 747 1379819 24 0
77 2 S106 760 1380579 784 0
77 2 S106 781 1381360 1565 0
77 2 S106 775 1382135 2340 0
77 2 S106 770 1382905 3110 0
77 2 S106 783 1383688 3893 0
77 2 S106 777 1384465 4670 0
77 2 S106 772 1385237 5442 0
77 2 S106 761 1385998 6203 0
77 2 S106 738 1386736 6941 0
0 0 0 733 1387469 -7694 0
0 0 0 729 1388198 -6965 0
0 0 0 722 1388920 -6243 0
0 0 0 713 1389633 -5530 0
0 0 0 698 1390331 -4832 0
0 0 0 677 1391008 -4155 0
0 0 0 684 1391692 -3471 0
0 0 0 688 1392380 -2783 0
0 0 0 690 1393070 -2093 0
78 1 S112 712 1393782 -1381 0
78 1 S112 734 1394516 -647 0
78 2 S112 741 1395257 94 0
78 2 S112 758 1396015 852 0
78 2 S112 813 1396828 1665 0
78 2 S112 872 1397700 2537 0
78 2 S112 916 1398616 3453 0
78 2 S112 924 1399540 4377 0
78 2 S112 897 1400437 5274 0
78 2 S112 886 1401323 6160 0
78 2 S112 866 1402189 7026 0
0 0 0 856 1403045 -9973 0
0 0 0 846 1403891 -9127 0
0 0 0 811 1404702 -8316 0
0 0 0 788 1405490 -7528 0
0 0 0 770 1406260 -6758 0
0 0 0 764 1407024 -5994 0
0 0 0 765 1407789 -5229 0
0 0 0 763 1408552 -4466 0
0 0 0 765 1409317 -3701 0
0 0 0 779 1410096 -2922 0
0 0 0 811 1410907 -2111 0
79 1 S102 857 1411764 -1254 0
79 1 S102 916 1412680 -338 0
79 2 S102 910 1413590 572 0
79 2 S102 885 1414475 1457 0
79 2 S102 848 1415323 2305 0
79 2 S102 837 1416160 3142 0
79 2 S102 821 1416981 3963 0
79 2 S102 815 1417796 4778 0
79 2 S102 796 1418592 5574 0
79 2 S102 771 1419363 6345 0
0 0 0 771 1420134 -8236 0
0 0 0 786 1420920 -7450 0
0 0 0 797 1421717 -6653 0
0 0 0 792 1422509 -5861 0
0 0 0 791 1423300 -5070 0
0 0 0 784 1424084 -4286 0
0 0 0 808 1424892 -3478 0
0 0 0 798 1425690 -2680 0
80 1 S116 790 1426480 -1890 0
80 1 S116 772 1427252 -1118 0
80 1 S116 747 1427999 -371 0
80 2 S116 727 1428726 356 0
80 2 S116 729 1429455 1085 0
80 2 S116 735 1430190 1820 0
80 2 S116 755 1430945 2575 0
80 2 S116 779 1431724 3354 0
80 2 S116 774 1432498 4128 0
80 2 S116 777 1433275 4905 0
80 2 S116 795 1434070 5700 0
80 2 S116 810 1434880 6510 0
