T_0173
BeatCount Mean SD BeatCountNoOutliers MeanNoOutliers SDNoOutliers
1312 1170,27972560976 115,515533809352 1290 1175,41007751938 108,009142243776

Trial TrialStatus Trialtype IBI AbsPosition RelPosition Outlier
0 0 0 1073 2254 -13771 0
0 0 0 954 3208 -12817 0
0 0 0 947 4155 -11870 0
0 0 0 953 5108 -10917 0
0 0 0 1179 6287 -9738 0
0 0 0 1206 7493 -8532 0
0 0 0 1245 8738 -7287 0
0 0 0 1268 10006 -6019 0
0 0 0 1250 11256 -4769 0
0 0 0 1171 12427 -3598 0
0 0 0 1220 13647 -2378 0
1 1 S112 1310 14957 -1068 0
1 2 S112 1262 16219 194 0
1 2 S112 1265 17484 1459 0
1 2 S112 1244 18728 2703 0
1 2 S112 1254 19982 3957 0
1 2 S112 1231 21213 5188 0
1 2 S112 1285 22498 6473 0
0 0 0 1283 23781 -11508 0
0 0 0 1288 25069 -10220 0
0 0 0 1217 26286 -9003 0
0 0 0 1246 27532 -7757 0
0 0 0 1339 28871 -6418 0
0 0 0 1229 30100 -5189 0
0 0 0 1238 31338 -3951 0
0 0 0 1290 32628 -2661 0
2 1 S102 1261 33889 -1400 0
2 1 S102 1348 35237 -52 0
2 2 S102 1262 36499 1210 0
2 2 S102 1305 37804 2515 0
2 2 S102 1248 39052 3763 0
2 2 S102 1287 40339 5050 0
2 2 S102 1229 41568 6279 0
0 0 0 1264 42832 -9931 0
0 0 0 1194 44026 -8737 0
0 0 0 1243 45269 -7494 0
0 0 0 1263 46532 -6231 0
0 0 0 1172 47704 -5059 0
0 0 0 1229 48933 -3830 0
0 0 0 1192 50125 -2638 0
3 1 S116 1176 51301 -1462 0
3 1 S116 1288 52589 -174 0
3 2 S116 1311 53900 1137 0
3 2 S116 1269 55169 2406 0
3 2 S116 1259 56428 3665 0
3 2 S116 1285 57713 4950 0
3 2 S116 1239 58952 6189 0
0 0 0 1283 60235 -12372 0
0 0 0 1258 61493 -11114 0
0 0 0 1298 62791 -9816 0
0 0 0 1254 64045 -8562 0
0 0 0 1156 65201 -7406 0
0 0 0 1251 66452 -6155 0
0 0 0 1283 67735 -4872 0
0 0 0 1345 69080 -3527 0
0 0 0 1270 70350 -2257 0
4 1 S106 1267 71617 -990 0
4 2 S106 1261 72878 271 0
4 2 S106 1289 74167 1560 0
4 2 S106 1232 75399 2792 0
4 2 S106 1324 76723 4116 0
4 2 S106 1283 78006 5399 0
4 2 S106 1259 79265 6658 0
0 0 0 1313 80578 -8657 0
0 0 0 1272 81850 -7385 0
0 0 0 1312 83162 -6073 0
0 0 0 1273 84435 -4800 0
0 0 0 1194 85629 -3606 0
0 0 0 1209 86838 -2397 0
5 1 S116 1225 88063 -1172 0
5 2 S116 1232 89295 60 0
5 2 S116 1294 90589 1354 0
5 2 S116 1304 91893 2658 0
5 2 S116 1330 93223 3988 0
5 2 S116 1317 94540 5305 0
5 2 S116 1270 95810 6575 0
0 0 0 1283 97093 -9202 0
0 0 0 1264 98357 -7938 0
0 0 0 1205 99562 -6733 0
0 0 0 1224 100786 -5509 0
0 0 0 1147 101933 -4362 0
0 0 0 1107 103040 -3255 0
0 0 0 1224 104264 -2031 0
6 1 S106 1195 105459 -836 0
6 2 S106 1219 106678 383 0
6 2 S106 1346 108024 1729 0
6 2 S106 1344 109368 3073 0
6 2 S106 1251 110619 4324 0
6 2 S106 1237 111856 5561 0
6 2 S106 1247 113103 6808 0
0 0 0 1214 114317 -11175 0
0 0 0 1256 115573 -9919 0
0 0 0 1229 116802 -8690 0
0 0 0 1146 117948 -7544 0
0 0 0 1200 119148 -6344 0
0 0 0 1244 120392 -5100 0
0 0 0 1192 121584 -3908 0
0 0 0 1219 122803 -2689 0
7 1 S102 1124 123927 -1565 0
7 1 S102 1185 125112 -380 0
7 2 S102 1280 126392 900 0
7 2 S102 1286 127678 2186 0
7 2 S102 1287 128965 3473 0
7 2 S102 1274 130239 4747 0
7 2 S102 1249 131488 5996 0
0 0 0 1259 132747 -8926 0
0 0 0 1241 133988 -7685 0
0 0 0 1244 135232 -6441 0
0 0 0 1178 136410 -5263 0
0 0 0 1050 137460 -4213 0
0 0 0 1111 138571 -3102 0
0 0 0 998 139569 -2104 0
8 1 S112 940 140509 -1164 0
8 1 S112 977 141486 -187 0
8 2 S112 1005 142491 818 0
8 2 S112 1136 143627 1954 0
8 2 S112 1176 144803 3130 0
8 2 S112 1192 145995 4322 0
8 2 S112 1162 147157 5484 0
8 2 S112 1166 148323 6650 0
0 0 0 1162 149485 -7523 0
0 0 0 1169 150654 -6354 0
0 0 0 1153 151807 -5201 0
0 0 0 1143 152950 -4058 0
0 0 0 1206 154156 -2852 0
9 1 S116 1157 155313 -1695 0
9 1 S116 1189 156502 -506 0
9 2 S116 1216 157718 710 0
9 2 S116 1257 158975 1967 0
9 2 S116 1251 160226 3218 0
9 2 S116 1283 161509 4501 0
9 2 S116 1255 162764 5756 0
0 0 0 1287 164051 -11508 0
0 0 0 1265 165316 -10243 0
0 0 0 1265 166581 -8978 0
0 0 0 1232 167813 -7746 0
0 0 0 1187 169000 -6559 0
0 0 0 1224 170224 -5335 0
0 0 0 1227 171451 -4108 0
0 0 0 1253 172704 -2855 0
10 1 S102 1163 173867 -1692 0
10 1 S102 1203 175070 -489 0
10 2 S102 1195 176265 706 0
10 2 S102 1184 177449 1890 0
10 2 S102 1240 178689 3130 0
10 2 S102 1191 179880 4321 0
10 2 S102 1231 181111 5552 0
10 2 S102 1207 182318 6759 0
0 0 0 1235 183553 -10756 0
0 0 0 1224 184777 -9532 0
0 0 0 1141 185918 -8391 0
0 0 0 1136 187054 -7255 0
0 0 0 1056 188110 -6199 0
0 0 0 1137 189247 -5062 0
0 0 0 1183 190430 -3879 0
0 0 0 1260 191690 -2619 0
11 1 S112 1295 192985 -1324 0
11 1 S112 1196 194181 -128 0
11 2 S112 1253 195434 1125 0
11 2 S112 1181 196615 2306 0
11 2 S112 1189 197804 3495 0
11 2 S112 1199 199003 4694 0
11 2 S112 1169 200172 5863 0
0 0 0 1212 201384 -8476 0
0 0 0 1118 202502 -7358 0
0 0 0 1176 203678 -6182 0
0 0 0 1200 204878 -4982 0
0 0 0 1097 205975 -3885 0
0 0 0 1143 207118 -2742 0
12 1 S116 1170 208288 -1572 0
12 1 S116 1149 209437 -423 0
12 2 S116 1218 210655 795 0
12 2 S116 1220 211875 2015 0
12 2 S116 1283 213158 3298 0
12 2 S116 1247 214405 4545 0
12 2 S116 1288 215693 5833 0
0 0 0 1250 216943 -11750 0
0 0 0 1256 218199 -10494 0
0 0 0 1194 219393 -9300 0
0 0 0 1182 220575 -8118 0
0 0 0 1135 221710 -6983 0
0 0 0 1134 222844 -5849 0
0 0 0 1176 224020 -4673 0
0 0 0 1111 225131 -3562 0
0 0 0 1182 226313 -2380 0
13 1 S112 1238 227551 -1142 0
13 2 S112 1196 228747 54 0
13 2 S112 1274 230021 1328 0
13 2 S112 1277 231298 2605 0
13 2 S112 1270 232568 3875 0
13 2 S112 1231 233799 5106 0
13 2 S112 1239 235038 6345 0
0 0 0 1210 236248 -11427 0
0 0 0 1217 237465 -10210 0
0 0 0 1138 238603 -9072 0
0 0 0 1118 239721 -7954 0
0 0 0 1194 240915 -6760 0
0 0 0 1088 242003 -5672 0
0 0 0 1131 243134 -4541 0
0 0 0 1243 244377 -3298 0
0 0 0 1199 245576 -2099 0
14 1 S106 1228 246804 -871 0
14 2 S106 1266 248070 395 0
14 2 S106 1204 249274 1599 0
14 2 S106 1217 250491 2816 0
14 2 S106 1151 251642 3967 0
14 2 S106 1053 252695 5020 0
14 2 S106 1151 253846 6171 0
0 0 0 1239 255085 -11175 0
0 0 0 1242 256327 -9933 0
0 0 0 1200 257527 -8733 0
0 0 0 1165 258692 -7568 0
0 0 0 1123 259815 -6445 0
0 0 0 1147 260962 -5298 0
0 0 0 1238 262200 -4060 0
0 0 0 1180 263380 -2880 0
15 1 S116 1220 264600 -1660 0
15 1 S116 1257 265857 -403 0
15 2 S116 1199 267056 796 0
15 2 S116 1279 268335 2075 0
15 2 S116 1240 269575 3315 0
15 2 S116 1263 270838 4578 0
15 2 S116 1235 272073 5813 0
0 0 0 1281 273354 -9501 0
0 0 0 1231 274585 -8270 0
0 0 0 1246 275831 -7024 0
0 0 0 1183 277014 -5841 0
0 0 0 1079 278093 -4762 0
0 0 0 1131 279224 -3631 0
0 0 0 1160 280384 -2471 0
16 1 S116 1061 281445 -1410 0
16 1 S116 1154 282599 -256 0
16 2 S116 1263 283862 1007 0
16 2 S116 1263 285125 2270 0
16 2 S116 1203 286328 3473 0
16 2 S116 1271 287599 4744 0
16 2 S116 1281 288880 6025 0
0 0 0 1234 290114 -9518 0
0 0 0 1199 291313 -8319 0
0 0 0 1140 292453 -7179 0
0 0 0 1126 293579 -6053 0
0 0 0 1111 294690 -4942 0
0 0 0 1111 295801 -3831 0
0 0 0 1155 296956 -2676 0
17 1 S106 1134 298090 -1542 0
17 1 S106 1062 299152 -480 0
17 2 S106 1130 300282 650 0
17 2 S106 1221 301503 1871 0
17 2 S106 1141 302644 3012 0
17 2 S106 1186 303830 4198 0
17 2 S106 1233 305063 5431 0
17 2 S106 1220 306283 6651 0
0 0 0 1198 307481 -11266 0
0 0 0 1233 308714 -10033 0
0 0 0 1223 309937 -8810 0
0 0 0 1218 311155 -7592 0
0 0 0 1196 312351 -6396 0
0 0 0 1184 313535 -5212 0
0 0 0 1034 314569 -4178 0
0 0 0 1074 315643 -3104 0
18 1 S102 1220 316863 -1884 0
18 1 S102 1352 318215 -532 0
18 2 S102 1242 319457 710 0
18 2 S102 1197 320654 1907 0
18 2 S102 1189 321843 3096 0
18 2 S102 1169 323012 4265 0
18 2 S102 1190 324202 5455 0
18 2 S102 1164 325366 6619 0
0 0 0 1187 326553 -6683 0
0 0 0 1152 327705 -5531 0
0 0 0 1168 328873 -4363 0
0 0 0 1114 329987 -3249 0
0 0 0 1148 331135 -2101 0
19 1 S106 1102 332237 -999 0
19 2 S106 1086 333323 87 0
19 2 S106 1192 334515 1279 0
19 2 S106 1229 335744 2508 0
19 2 S106 1178 336922 3686 0
19 2 S106 1208 338130 4894 0
19 2 S106 1153 339283 6047 0
0 0 0 1186 340469 -10042 0
0 0 0 1237 341706 -8805 0
0 0 0 1175 342881 -7630 0
0 0 0 1151 344032 -6479 0
0 0 0 1173 345205 -5306 0
0 0 0 1095 346300 -4211 0
0 0 0 1142 347442 -3069 0
20 1 S112 1120 348562 -1949 0
20 1 S112 997 349559 -952 0
20 2 S112 1027 350586 75 0
20 2 S112 981 351567 1056 0
20 2 S112 1027 352594 2083 0
20 2 S112 1206 353800 3289 0
20 2 S112 1217 355017 4506 0
20 2 S112 1241 356258 5747 0
20 2 S112 1211 357469 6958 0
0 0 0 1216 358685 -8421 0
0 0 0 1195 359880 -7226 0
0 0 0 1206 361086 -6020 0
0 0 0 1163 362249 -4857 0
0 0 0 1159 363408 -3698 0
0 0 0 1201 364609 -2497 0
21 1 S106 1196 365805 -1301 0
21 1 S106 1256 367061 -45 0
21 2 S106 1221 368282 1176 0
21 2 S106 1267 369549 2443 0
21 2 S106 1249 370798 3692 0
21 2 S106 1273 372071 4965 0
21 2 S106 1311 373382 6276 0
0 0 0 1282 374664 -11209 0
0 0 0 1256 375920 -9953 0
0 0 0 1276 377196 -8677 0
0 0 0 1199 378395 -7478 0
0 0 0 1172 379567 -6306 0
0 0 0 1262 380829 -5044 0
0 0 0 1200 382029 -3844 0
0 0 0 1289 383318 -2555 0
22 1 S116 1124 384442 -1431 0
22 1 S116 1029 385471 -402 0
22 2 S116 1100 386571 698 0
22 2 S116 1462 388033 2160 0
22 2 S116 1444 389477 3604 0
22 2 S116 1386 390863 4990 0
22 2 S116 1398 392261 6388 0
0 0 0 1335 393596 -8540 0
0 0 0 1227 394823 -7313 0
0 0 0 1187 396010 -6126 0
0 0 0 1188 397198 -4938 0
0 0 0 1085 398283 -3853 0
0 0 0 1118 399401 -2735 0
23 1 S112 1140 400541 -1595 0
23 1 S112 1068 401609 -527 0
23 2 S112 1215 402824 688 0
23 2 S112 1333 404157 2021 0
23 2 S112 1218 405375 3239 0
23 2 S112 1294 406669 4533 0
23 2 S112 1253 407922 5786 0
0 0 0 1287 409209 -10069 0
0 0 0 1302 410511 -8767 0
0 0 0 1328 411839 -7439 0
0 0 0 1274 413113 -6165 0
0 0 0 1175 414288 -4990 0
0 0 0 1212 415500 -3778 0
0 0 0 1153 416653 -2625 0
24 1 S106 1114 417767 -1511 0
24 1 S106 1212 418979 -299 0
24 2 S106 1269 420248 970 0
24 2 S106 1184 421432 2154 0
24 2 S106 1214 422646 3368 0
24 2 S106 1182 423828 4550 0
24 2 S106 1197 425025 5747 0
24 2 S106 1274 426299 7021 0
0 0 0 1104 427403 -8073 0
0 0 0 1108 428511 -6965 0
0 0 0 1115 429626 -5850 0
0 0 0 1156 430782 -4694 0
0 0 0 1047 431829 -3647 0
0 0 0 1053 432882 -2594 0
25 1 S102 1123 434005 -1471 0
25 1 S102 1189 435194 -282 0
25 2 S102 1160 436354 878 0
25 2 S102 1069 437423 1947 0
25 2 S102 1100 438523 3047 0
25 2 S102 1164 439687 4211 0
25 2 S102 1200 440887 5411 0
25 2 S102 1204 442091 6615 0
0 0 0 1205 443296 -7233 0
0 0 0 1188 444484 -6045 0
0 0 0 1187 445671 -4858 0
0 0 0 1120 446791 -3738 0
0 0 0 1084 447875 -2654 0
26 1 S116 1077 448952 -1577 0
26 1 S116 1048 450000 -529 0
26 2 S116 1120 451120 591 0
26 2 S116 1247 452367 1838 0
26 2 S116 1223 453590 3061 0
26 2 S116 1262 454852 4323 0
26 2 S116 1239 456091 5562 0
26 2 S116 1310 457401 6872 0
0 0 0 1261 458662 -7003 0
0 0 0 1221 459883 -5782 0
0 0 0 1226 461109 -4556 0
0 0 0 1159 462268 -3397 0
0 0 0 1134 463402 -2263 0
27 1 S106 1140 464542 -1123 0
27 1 S106 1079 465621 -44 0
27 2 S106 1067 466688 1023 0
27 2 S106 965 467653 1988 0
27 2 S106 942 468595 2930 0
27 2 S106 949 469544 3879 0
27 2 S106 995 470539 4874 0
27 2 S106 1229 471768 6103 0
0 0 0 1227 472995 -6960 0
0 0 0 1191 474186 -5769 0
0 0 0 1200 475386 -4569 0
0 0 0 1165 476551 -3404 0
0 0 0 1149 477700 -2255 0
28 1 S102 1158 478858 -1097 0
28 2 S102 1148 480006 51 0
28 2 S102 1158 481164 1209 0
28 2 S102 1122 482286 2331 0
28 2 S102 1144 483430 3475 0
28 2 S102 1013 484443 4488 0
28 2 S102 905 485348 5393 0
28 2 S102 892 486240 6285 0
0 0 0 866 487106 -11682 1
0 0 0 948 488054 -10734 0
0 0 0 1265 489319 -9469 0
0 0 0 982 490301 -8487 0
0 0 0 1129 491430 -7358 0
0 0 0 1075 492505 -6283 0
0 0 0 1069 493574 -5214 0
0 0 0 1128 494702 -4086 0
0 0 0 1074 495776 -3012 0
29 1 S112 1060 496836 -1952 0
29 1 S112 1122 497958 -830 0
29 2 S112 1164 499122 334 0
29 2 S112 1194 500316 1528 0
29 2 S112 1211 501527 2739 0
29 2 S112 1261 502788 4000 0
29 2 S112 1253 504041 5253 0
29 2 S112 1312 505353 6565 0
0 0 0 1314 506667 -6909 0
0 0 0 1265 507932 -5644 0
0 0 0 1313 509245 -4331 0
0 0 0 1275 510520 -3056 0
30 1 S112 1171 511691 -1885 0
30 1 S112 1221 512912 -664 0
30 2 S112 1239 514151 575 0
30 2 S112 1202 515353 1777 0
30 2 S112 1248 516601 3025 0
30 2 S112 1200 517801 4225 0
30 2 S112 1276 519077 5501 0
30 2 S112 1289 520366 6790 0
0 0 0 1231 521597 -8757 0
0 0 0 1298 522895 -7459 0
0 0 0 1244 524139 -6215 0
0 0 0 1096 525235 -5119 0
0 0 0 1141 526376 -3978 0
0 0 0 1175 527551 -2803 0
31 1 S106 1050 528601 -1753 0
31 1 S106 1097 529698 -656 0
31 2 S106 1207 530905 551 0
31 2 S106 1175 532080 1726 0
31 2 S106 1175 533255 2901 0
31 2 S106 1244 534499 4145 0
31 2 S106 1235 535734 5380 0
31 2 S106 1165 536899 6545 0
0 0 0 1189 538088 -9027 0
0 0 0 1176 539264 -7851 0
0 0 0 1151 540415 -6700 0
0 0 0 1087 541502 -5613 0
0 0 0 980 542482 -4633 0
0 0 0 938 543420 -3695 0
0 0 0 900 544320 -2795 0
32 1 S102 1019 545339 -1776 0
32 1 S102 1074 546413 -702 0
32 2 S102 1018 547431 316 0
32 2 S102 1096 548527 1412 0
32 2 S102 1200 549727 2612 0
32 2 S102 1195 550922 3807 0
32 2 S102 1234 552156 5041 0
32 2 S102 1264 553420 6305 0
0 0 0 1182 554602 -11561 0
0 0 0 1168 555770 -10393 0
0 0 0 1202 556972 -9191 0
0 0 0 1180 558152 -8011 0
0 0 0 1110 559262 -6901 0
0 0 0 1108 560370 -5793 0
0 0 0 1135 561505 -4658 0
0 0 0 1162 562667 -3496 0
0 0 0 1169 563836 -2327 0
33 1 S112 1154 564990 -1173 0
33 2 S112 1209 566199 36 0
33 2 S112 1219 567418 1255 0
33 2 S112 1239 568657 2494 0
33 2 S112 1236 569893 3730 0
33 2 S112 1262 571155 4992 0
33 2 S112 1196 572351 6188 0
0 0 0 1175 573526 -11851 0
0 0 0 1216 574742 -10635 0
0 0 0 1048 575790 -9587 0
0 0 0 1079 576869 -8508 0
0 0 0 1183 578052 -7325 0
0 0 0 1276 579328 -6049 0
0 0 0 1215 580543 -4834 0
0 0 0 1081 581624 -3753 0
0 0 0 1136 582760 -2617 0
34 1 S106 1199 583959 -1418 0
34 1 S106 1256 585215 -162 0
34 2 S106 1257 586472 1095 0
34 2 S106 1170 587642 2265 0
34 2 S106 1163 588805 3428 0
34 2 S106 1211 590016 4639 0
34 2 S106 1194 591210 5833 0
0 0 0 1210 592420 -9867 0
0 0 0 1255 593675 -8612 0
0 0 0 1295 594970 -7317 0
0 0 0 1207 596177 -6110 0
0 0 0 1125 597302 -4985 0
0 0 0 1126 598428 -3859 0
0 0 0 1106 599534 -2753 0
35 1 S102 1143 600677 -1610 0
35 1 S102 1221 601898 -389 0
35 2 S102 1177 603075 788 0
35 2 S102 1219 604294 2007 0
35 2 S102 1239 605533 3246 0
35 2 S102 1247 606780 4493 0
35 2 S102 1244 608024 5737 0
0 0 0 1328 609352 -7989 0
0 0 0 1296 610648 -6693 0
0 0 0 1235 611883 -5458 0
0 0 0 1208 613091 -4250 0
0 0 0 1175 614266 -3075 0
36 1 S106 1110 615376 -1965 0
36 1 S106 1128 616504 -837 0
36 2 S106 1139 617643 302 0
36 2 S106 1126 618769 1428 0
36 2 S106 1166 619935 2594 0
36 2 S106 1172 621107 3766 0
36 2 S106 1130 622237 4896 0
36 2 S106 1219 623456 6115 0
0 0 0 1270 624726 -9359 0
0 0 0 1205 625931 -8154 0
0 0 0 1259 627190 -6895 0
0 0 0 1188 628378 -5707 0
0 0 0 1110 629488 -4597 0
0 0 0 1182 630670 -3415 0
0 0 0 1223 631893 -2192 0
37 1 S116 1153 633046 -1039 0
37 2 S116 1210 634256 171 0
37 2 S116 1250 635506 1421 0
37 2 S116 1195 636701 2616 0
37 2 S116 1225 637926 3841 0
37 2 S116 1233 639159 5074 0
37 2 S116 1227 640386 6301 0
0 0 0 1212 641598 -11370 0
0 0 0 1204 642802 -10166 0
0 0 0 1233 644035 -8933 0
0 0 0 1167 645202 -7766 0
0 0 0 1126 646328 -6640 0
0 0 0 1174 647502 -5466 0
0 0 0 1125 648627 -4341 0
0 0 0 1088 649715 -3253 0
0 0 0 1088 650803 -2165 0
38 1 S102 1038 651841 -1127 0
38 1 S102 955 652796 -172 0
38 2 S102 973 653769 801 0
38 2 S102 980 654749 1781 0
38 2 S102 1093 655842 2874 0
38 2 S102 1194 657036 4068 0
38 2 S102 1177 658213 5245 0
38 2 S102 1102 659315 6347 0
0 0 0 1128 660443 -9004 0
0 0 0 1152 661595 -7852 0
0 0 0 1181 662776 -6671 0
0 0 0 1075 663851 -5596 0
0 0 0 1034 664885 -4562 0
0 0 0 1051 665936 -3511 0
0 0 0 1098 667034 -2413 0
39 1 S116 1060 668094 -1353 0
39 1 S116 1121 669215 -232 0
39 2 S116 1130 670345 898 0
39 2 S116 1217 671562 2115 0
39 2 S116 1316 672878 3431 0
39 2 S116 1328 674206 4759 0
39 2 S116 1299 675505 6058 0
0 0 0 1287 676792 -7078 0
0 0 0 1264 678056 -5814 0
0 0 0 1249 679305 -4565 0
0 0 0 1181 680486 -3384 0
0 0 0 1154 681640 -2230 0
40 1 S112 1223 682863 -1007 0
40 2 S112 1201 684064 194 0
40 2 S112 1142 685206 1336 0
40 2 S112 1216 686422 2552 0
40 2 S112 1197 687619 3749 0
40 2 S112 1229 688848 4978 0
40 2 S112 1204 690052 6182 0
0 0 0 1192 691244 -187770 0
0 0 0 1255 692499 -186515 0
0 0 0 1266 693765 -185249 0
0 0 0 1213 694978 -184036 0
0 0 0 1188 696166 -182848 0
0 0 0 998 697164 -181850 0
0 0 0 948 698112 -180902 0
0 0 0 936 699048 -179966 0
0 0 0 1004 700052 -178962 0
0 0 0 1069 701121 -177893 0
0 0 0 1097 702218 -176796 0
0 0 0 1068 703286 -175728 0
0 0 0 951 704237 -174777 0
0 0 0 996 705233 -173781 0
0 0 0 1012 706245 -172769 0
0 0 0 1014 707259 -171755 0
0 0 0 1024 708283 -170731 0
0 0 0 1008 709291 -169723 0
0 0 0 1004 710295 -168719 0
0 0 0 999 711294 -167720 0
0 0 0 982 712276 -166738 0
0 0 0 984 713260 -165754 0
0 0 0 1000 714260 -164754 0
0 0 0 957 715217 -163797 0
0 0 0 1079 716296 -162718 0
0 0 0 1355 717651 -161363 0
0 0 0 1358 719009 -160005 0
0 0 0 1363 720372 -158642 0
0 0 0 1373 721745 -157269 0
0 0 0 1293 723038 -155976 0
0 0 0 1393 724431 -154583 0
0 0 0 1420 725851 -153163 0
0 0 0 1279 727130 -151884 0
0 0 0 1201 728331 -150683 0
0 0 0 1330 729661 -149353 0
0 0 0 1392 731053 -147961 0
0 0 0 1227 732280 -146734 0
0 0 0 1234 733514 -145500 0
0 0 0 1050 734564 -144450 0
0 0 0 957 735521 -143493 0
0 0 0 902 736423 -142591 0
0 0 0 883 737306 -141708 0
0 0 0 907 738213 -140801 0
0 0 0 1068 739281 -139733 0
0 0 0 989 740270 -138744 0
0 0 0 911 741181 -137833 0
0 0 0 927 742108 -136906 0
0 0 0 986 743094 -135920 0
0 0 0 917 744011 -135003 0
0 0 0 847 744858 -134156 1
0 0 0 853 745711 -133303 1
0 0 0 832 746543 -132471 1
0 0 0 812 747355 -131659 1
0 0 0 810 748165 -130849 1
0 0 0 886 749051 -129963 0
0 0 0 1015 750066 -128948 0
0 0 0 1015 751081 -127933 0
0 0 0 927 752008 -127006 0
0 0 0 920 752928 -126086 0
0 0 0 1023 753951 -125063 0
0 0 0 960 754911 -124103 0
0 0 0 863 755774 -123240 1
0 0 0 915 756689 -122325 0
0 0 0 1131 757820 -121194 0
0 0 0 1253 759073 -119941 0
0 0 0 1077 760150 -118864 0
0 0 0 979 761129 -117885 0
0 0 0 1139 762268 -116746 0
0 0 0 1237 763505 -115509 0
0 0 0 1266 764771 -114243 0
0 0 0 1249 766020 -112994 0
0 0 0 1264 767284 -111730 0
0 0 0 1266 768550 -110464 0
0 0 0 1262 769812 -109202 0
0 0 0 1258 771070 -107944 0
0 0 0 1253 772323 -106691 0
0 0 0 1235 773558 -105456 0
0 0 0 1077 774635 -104379 0
0 0 0 1122 775757 -103257 0
0 0 0 1291 777048 -101966 0
0 0 0 1312 778360 -100654 0
0 0 0 1258 779618 -99396 0
0 0 0 1204 780822 -98192 0
0 0 0 1286 782108 -96906 0
0 0 0 1328 783436 -95578 0
0 0 0 1258 784694 -94320 0
0 0 0 1284 785978 -93036 0
0 0 0 1235 787213 -91801 0
0 0 0 1037 788250 -90764 0
0 0 0 963 789213 -89801 0
0 0 0 1026 790239 -88775 0
0 0 0 1101 791340 -87674 0
0 0 0 1075 792415 -86599 0
0 0 0 1007 793422 -85592 0
0 0 0 966 794388 -84626 0
0 0 0 941 795329 -83685 0
0 0 0 908 796237 -82777 0
0 0 0 858 797095 -81919 1
0 0 0 843 797938 -81076 1
0 0 0 815 798753 -80261 1
0 0 0 827 799580 -79434 1
0 0 0 938 800518 -78496 0
0 0 0 1096 801614 -77400 0
0 0 0 1024 802638 -76376 0
0 0 0 1102 803740 -75274 0
0 0 0 1094 804834 -74180 0
0 0 0 975 805809 -73205 0
0 0 0 1057 806866 -72148 0
0 0 0 1183 808049 -70965 0
0 0 0 1325 809374 -69640 0
0 0 0 1290 810664 -68350 0
0 0 0 1253 811917 -67097 0
0 0 0 1303 813220 -65794 0
0 0 0 1309 814529 -64485 0
0 0 0 1309 815838 -63176 0
0 0 0 1256 817094 -61920 0
0 0 0 1312 818406 -60608 0
0 0 0 1278 819684 -59330 0
0 0 0 1265 820949 -58065 0
0 0 0 1263 822212 -56802 0
0 0 0 1261 823473 -55541 0
0 0 0 1239 824712 -54302 0
0 0 0 1196 825908 -53106 0
0 0 0 1253 827161 -51853 0
0 0 0 1203 828364 -50650 0
0 0 0 1232 829596 -49418 0
0 0 0 1228 830824 -48190 0
0 0 0 1219 832043 -46971 0
0 0 0 1309 833352 -45662 0
0 0 0 1163 834515 -44499 0
0 0 0 1165 835680 -43334 0
0 0 0 1255 836935 -42079 0
0 0 0 1168 838103 -40911 0
0 0 0 1121 839224 -39790 0
0 0 0 1182 840406 -38608 0
0 0 0 1288 841694 -37320 0
0 0 0 1038 842732 -36282 0
0 0 0 1159 843891 -35123 0
0 0 0 1266 845157 -33857 0
0 0 0 1220 846377 -32637 0
0 0 0 1273 847650 -31364 0
0 0 0 1287 848937 -30077 0
0 0 0 1317 850254 -28760 0
0 0 0 1220 851474 -27540 0
0 0 0 1148 852622 -26392 0
0 0 0 996 853618 -25396 0
0 0 0 984 854602 -24412 0
0 0 0 990 855592 -23422 0
0 0 0 1212 856804 -22210 0
0 0 0 1242 858046 -20968 0
0 0 0 1209 859255 -19759 0
0 0 0 1162 860417 -18597 0
0 0 0 1266 861683 -17331 0
0 0 0 1339 863022 -15992 0
0 0 0 1296 864318 -14696 0
0 0 0 1312 865630 -13384 0
0 0 0 1353 866983 -12031 0
0 0 0 1381 868364 -10650 0
0 0 0 1332 869696 -9318 0
0 0 0 1405 871101 -7913 0
0 0 0 1372 872473 -6541 0
0 0 0 1223 873696 -5318 0
0 0 0 1336 875032 -3982 0
0 0 0 1208 876240 -2774 0
41 1 S102 1094 877334 -1680 0
41 1 S102 1090 878424 -590 0
41 2 S102 1004 879428 414 0
41 2 S102 1307 880735 1721 0
41 2 S102 1257 881992 2978 0
41 2 S102 1184 883176 4162 0
41 2 S102 1260 884436 5422 0
41 2 S102 1278 885714 6700 0
0 0 0 1249 886963 -6491 0
0 0 0 1249 888212 -5242 0
0 0 0 1199 889411 -4043 0
0 0 0 1124 890535 -2919 0
42 1 S112 1149 891684 -1770 0
42 1 S112 1127 892811 -643 0
42 2 S112 1103 893914 460 0
42 2 S112 1192 895106 1652 0
42 2 S112 1224 896330 2876 0
42 2 S112 1246 897576 4122 0
42 2 S112 1333 898909 5455 0
42 2 S112 1279 900188 6734 0
0 0 0 1355 901543 -8854 0
0 0 0 1286 902829 -7568 0
0 0 0 1296 904125 -6272 0
0 0 0 1212 905337 -5060 0
0 0 0 1212 906549 -3848 0
0 0 0 1235 907784 -2613 0
43 1 S116 1232 909016 -1381 0
43 1 S116 1289 910305 -92 0
43 2 S116 1248 911553 1156 0
43 2 S116 1231 912784 2387 0
43 2 S116 1289 914073 3676 0
43 2 S116 1337 915410 5013 0
43 2 S116 1326 916736 6339 0
0 0 0 1343 918079 -6857 0
0 0 0 1251 919330 -5606 0
0 0 0 1251 920581 -4355 0
0 0 0 1143 921724 -3212 0
0 0 0 1150 922874 -2062 0
44 1 S102 1266 924140 -796 0
44 2 S102 1174 925314 378 0
44 2 S102 1212 926526 1590 0
44 2 S102 1241 927767 2831 0
44 2 S102 1086 928853 3917 0
44 2 S102 1089 929942 5006 0
44 2 S102 984 930926 5990 0
44 2 S102 1007 931933 6997 0
0 0 0 1207 933140 -9071 0
0 0 0 1231 934371 -7840 0
0 0 0 1230 935601 -6610 0
0 0 0 1120 936721 -5490 0
0 0 0 1136 937857 -4354 0
0 0 0 1119 938976 -3235 0
0 0 0 1130 940106 -2105 0
45 1 S116 1144 941250 -961 0
45 2 S116 1163 942413 202 0
45 2 S116 1139 943552 1341 0
45 2 S116 1185 944737 2526 0
45 2 S116 1115 945852 3641 0
45 2 S116 986 946838 4627 0
45 2 S116 947 947785 5574 0
45 2 S116 924 948709 6498 0
0 0 0 1528 950237 -11255 1
0 0 0 1454 951691 -9801 0
0 0 0 1380 953071 -8421 0
0 0 0 1300 954371 -7121 0
0 0 0 1280 955651 -5841 0
0 0 0 1292 956943 -4549 0
0 0 0 1131 958074 -3418 0
0 0 0 1149 959223 -2269 0
46 1 S102 1231 960454 -1038 0
46 2 S102 1196 961650 158 0
46 2 S102 1302 962952 1460 0
46 2 S102 1266 964218 2726 0
46 2 S102 1296 965514 4022 0
46 2 S102 1292 966806 5314 0
46 2 S102 1302 968108 6616 0
0 0 0 1247 969355 -9445 0
0 0 0 1292 970647 -8153 0
0 0 0 1299 971946 -6854 0
0 0 0 1228 973174 -5626 0
0 0 0 1110 974284 -4516 0
0 0 0 1142 975426 -3374 0
0 0 0 1161 976587 -2213 0
47 1 S112 1128 977715 -1085 0
47 2 S112 1279 978994 194 0
47 2 S112 1306 980300 1500 0
47 2 S112 1277 981577 2777 0
47 2 S112 1320 982897 4097 0
47 2 S112 1307 984204 5404 0
47 2 S112 1258 985462 6662 0
0 0 0 1268 986730 -11466 0
0 0 0 1223 987953 -10243 0
0 0 0 1248 989201 -8995 0
0 0 0 1179 990380 -7816 0
0 0 0 1107 991487 -6709 0
0 0 0 1110 992597 -5599 0
0 0 0 1002 993599 -4597 0
0 0 0 984 994583 -3613 0
0 0 0 916 995499 -2697 0
48 1 S116 921 996420 -1776 0
48 1 S116 1274 997694 -502 0
48 2 S116 1160 998854 658 0
48 2 S116 1187 1000041 1845 0
48 2 S116 1296 1001337 3141 0
48 2 S116 1192 1002529 4333 0
48 2 S116 1257 1003786 5590 0
48 2 S116 1266 1005052 6856 0
0 0 0 1207 1006259 -6477 0
0 0 0 1231 1007490 -5246 0
0 0 0 1212 1008702 -4034 0
0 0 0 1165 1009867 -2869 0
49 1 S112 1181 1011048 -1688 0
49 1 S112 1220 1012268 -468 0
49 2 S112 1205 1013473 737 0
49 2 S112 1282 1014755 2019 0
49 2 S112 1263 1016018 3282 0
49 2 S112 1267 1017285 4549 0
49 2 S112 1217 1018502 5766 0
49 2 S112 1255 1019757 7021 0
0 0 0 1246 1021003 -10715 0
0 0 0 1283 1022286 -9432 0
0 0 0 1245 1023531 -8187 0
0 0 0 1111 1024642 -7076 0
0 0 0 1140 1025782 -5936 0
0 0 0 1187 1026969 -4749 0
0 0 0 1155 1028124 -3594 0
0 0 0 1195 1029319 -2399 0
50 1 S106 1189 1030508 -1210 0
50 1 S106 1144 1031652 -66 0
50 2 S106 1206 1032858 1140 0
50 2 S106 1197 1034055 2337 0
50 2 S106 1157 1035212 3494 0
50 2 S106 1216 1036428 4710 0
50 2 S106 1175 1037603 5885 0
0 0 0 1214 1038817 -8468 0
0 0 0 1261 1040078 -7207 0
0 0 0 1250 1041328 -5957 0
0 0 0 1247 1042575 -4710 0
0 0 0 1107 1043682 -3603 0
0 0 0 1078 1044760 -2525 0
51 1 S112 1121 1045881 -1404 0
51 1 S112 1073 1046954 -331 0
51 2 S112 1042 1047996 711 0
51 2 S112 1136 1049132 1847 0
51 2 S112 1221 1050353 3068 0
51 2 S112 1193 1051546 4261 0
51 2 S112 1210 1052756 5471 0
51 2 S112 1227 1053983 6698 0
0 0 0 1117 1055100 -7537 0
0 0 0 1124 1056224 -6413 0
0 0 0 1174 1057398 -5239 0
0 0 0 1140 1058538 -4099 0
0 0 0 1057 1059595 -3042 0
52 1 S116 1058 1060653 -1984 0
52 1 S116 1115 1061768 -869 0
52 2 S116 1062 1062830 193 0
52 2 S116 1017 1063847 1210 0
52 2 S116 1103 1064950 2313 0
52 2 S116 1253 1066203 3566 0
52 2 S116 1276 1067479 4842 0
52 2 S116 1265 1068744 6107 0
0 0 0 1256 1070000 -8635 0
0 0 0 1216 1071216 -7419 0
0 0 0 1124 1072340 -6295 0
0 0 0 1114 1073454 -5181 0
0 0 0 1131 1074585 -4050 0
0 0 0 1021 1075606 -3029 0
0 0 0 1026 1076632 -2003 0
53 1 S106 1168 1077800 -835 0
53 2 S106 1415 1079215 580 0
53 2 S106 1385 1080600 1965 0
53 2 S106 1286 1081886 3251 0
53 2 S106 1314 1083200 4565 0
53 2 S106 1304 1084504 5869 0
0 0 0 1294 1085798 -7426 0
0 0 0 1260 1087058 -6166 0
0 0 0 1238 1088296 -4928 0
0 0 0 1140 1089436 -3788 0
0 0 0 998 1090434 -2790 0
54 1 S102 986 1091420 -1804 0
54 1 S102 998 1092418 -806 0
54 2 S102 1106 1093524 300 0
54 2 S102 1221 1094745 1521 0
54 2 S102 1105 1095850 2626 0
54 2 S102 1087 1096937 3713 0
54 2 S102 1165 1098102 4878 0
54 2 S102 1153 1099255 6031 0
0 0 0 1251 1100506 -10258 0
0 0 0 1227 1101733 -9031 0
0 0 0 1158 1102891 -7873 0
0 0 0 1095 1103986 -6778 0
0 0 0 1055 1105041 -5723 0
0 0 0 1102 1106143 -4621 0
0 0 0 1120 1107263 -3501 0
0 0 0 976 1108239 -2525 0
55 1 S106 955 1109194 -1570 0
55 1 S106 911 1110105 -659 0
55 2 S106 911 1111016 252 0
55 2 S106 1191 1112207 1443 0
55 2 S106 1227 1113434 2670 0
55 2 S106 1018 1114452 3688 0
55 2 S106 958 1115410 4646 0
55 2 S106 913 1116323 5559 0
55 2 S106 917 1117240 6476 0
0 0 0 1249 1118489 -7494 0
0 0 0 1327 1119816 -6167 0
0 0 0 1355 1121171 -4812 0
0 0 0 1262 1122433 -3550 0
0 0 0 1197 1123630 -2353 0
56 1 S116 1071 1124701 -1282 0
56 1 S116 1056 1125757 -226 0
56 2 S116 1083 1126840 857 0
56 2 S116 1161 1128001 2018 0
56 2 S116 1120 1129121 3138 0
56 2 S116 1121 1130242 4259 0
56 2 S116 1108 1131350 5367 0
56 2 S116 1201 1132551 6568 0
0 0 0 1267 1133818 -7566 0
0 0 0 1280 1135098 -6286 0
0 0 0 1277 1136375 -5009 0
0 0 0 1228 1137603 -3781 0
0 0 0 1171 1138774 -2610 0
57 1 S106 1203 1139977 -1407 0
57 1 S106 1220 1141197 -187 0
57 2 S106 1218 1142415 1031 0
57 2 S106 1289 1143704 2320 0
57 2 S106 1194 1144898 3514 0
57 2 S106 1147 1146045 4661 0
57 2 S106 1225 1147270 5886 0
0 0 0 1258 1148528 -9915 0
0 0 0 1198 1149726 -8717 0
0 0 0 1228 1150954 -7489 0
0 0 0 1210 1152164 -6279 0
0 0 0 1097 1153261 -5182 0
0 0 0 1079 1154340 -4103 0
0 0 0 1010 1155350 -3093 0
0 0 0 940 1156290 -2153 0
58 1 S102 1019 1157309 -1134 0
58 1 S102 1043 1158352 -91 0
58 2 S102 1039 1159391 948 0
58 2 S102 1151 1160542 2099 0
58 2 S102 1099 1161641 3198 0
58 2 S102 1127 1162768 4325 0
58 2 S102 1160 1163928 5485 0
58 2 S102 1185 1165113 6670 0
0 0 0 1166 1166279 -5344 0
0 0 0 1161 1167440 -4183 0
0 0 0 1143 1168583 -3040 0
0 0 0 976 1169559 -2064 0
59 1 S112 920 1170479 -1144 0
59 1 S112 887 1171366 -257 0
59 2 S112 878 1172244 621 0
59 2 S112 881 1173125 1502 0
59 2 S112 861 1173986 2363 1
59 2 S112 845 1174831 3208 1
59 2 S112 869 1175700 4077 1
59 2 S112 1299 1176999 5376 0
59 2 S112 1300 1178299 6676 0
0 0 0 1253 1179552 -9213 0
0 0 0 1115 1180667 -8098 0
0 0 0 997 1181664 -7101 0
0 0 0 1020 1182684 -6081 0
0 0 0 965 1183649 -5116 0
0 0 0 993 1184642 -4123 0
0 0 0 1042 1185684 -3081 0
0 0 0 1013 1186697 -2068 0
60 1 S102 1014 1187711 -1054 0
60 2 S102 1155 1188866 101 0
60 2 S102 1210 1190076 1311 0
60 2 S102 1185 1191261 2496 0
60 2 S102 1239 1192500 3735 0
60 2 S102 1253 1193753 4988 0
60 2 S102 1298 1195051 6286 0
0 0 0 1267 1196318 -11446 0
0 0 0 1280 1197598 -10166 0
0 0 0 1264 1198862 -8902 0
0 0 0 1287 1200149 -7615 0
0 0 0 1264 1201413 -6351 0
0 0 0 1202 1202615 -5149 0
0 0 0 1252 1203867 -3897 0
0 0 0 1156 1205023 -2741 0
61 1 S106 1137 1206160 -1604 0
61 1 S106 1186 1207346 -418 0
61 2 S106 1115 1208461 697 0
61 2 S106 1084 1209545 1781 0
61 2 S106 1127 1210672 2908 0
61 2 S106 1286 1211958 4194 0
61 2 S106 1301 1213259 5495 0
61 2 S106 1104 1214363 6599 0
0 0 0 1148 1215511 -6991 0
0 0 0 1212 1216723 -5779 0
0 0 0 1208 1217931 -4571 0
0 0 0 1014 1218945 -3557 0
0 0 0 979 1219924 -2578 0
62 1 S112 978 1220902 -1600 0
62 1 S112 1005 1221907 -595 0
62 2 S112 1025 1222932 430 0
62 2 S112 1040 1223972 1470 0
62 2 S112 1113 1225085 2583 0
62 2 S112 1120 1226205 3703 0
62 2 S112 1217 1227422 4920 0
62 2 S112 1254 1228676 6174 0
0 0 0 1262 1229938 -11414 0
0 0 0 1266 1231204 -10148 0
0 0 0 1259 1232463 -8889 0
0 0 0 1211 1233674 -7678 0
0 0 0 1091 1234765 -6587 0
0 0 0 1103 1235868 -5484 0
0 0 0 1082 1236950 -4402 0
0 0 0 1083 1238033 -3319 0
0 0 0 1148 1239181 -2171 0
63 1 S102 1144 1240325 -1027 0
63 1 S102 1024 1241349 -3 0
63 2 S102 1091 1242440 1088 0
63 2 S102 1274 1243714 2362 0
63 2 S102 1316 1245030 3678 0
63 2 S102 1276 1246306 4954 0
63 2 S102 1258 1247564 6212 0
0 0 0 1183 1248747 -10045 0
0 0 0 1137 1249884 -8908 0
0 0 0 1170 1251054 -7738 0
0 0 0 1145 1252199 -6593 0
0 0 0 1091 1253290 -5502 0
0 0 0 968 1254258 -4534 0
0 0 0 949 1255207 -3585 0
0 0 0 902 1256109 -2683 0
64 1 S112 876 1256985 -1807 0
64 1 S112 855 1257840 -952 1
64 2 S112 960 1258800 8 0
64 2 S112 1297 1260097 1305 0
64 2 S112 1357 1261454 2662 0
64 2 S112 1289 1262743 3951 0
64 2 S112 1277 1264020 5228 0
64 2 S112 1275 1265295 6503 0
0 0 0 1314 1266609 -7319 0
0 0 0 1254 1267863 -6065 0
0 0 0 1244 1269107 -4821 0
0 0 0 1158 1270265 -3663 0
0 0 0 1070 1271335 -2593 0
65 1 S106 1118 1272453 -1475 0
65 1 S106 1116 1273569 -359 0
65 2 S106 1129 1274698 770 0
65 2 S106 1092 1275790 1862 0
65 2 S106 1139 1276929 3001 0
65 2 S106 1279 1278208 4280 0
65 2 S106 1282 1279490 5562 0
65 2 S106 1059 1280549 6621 0
0 0 0 934 1281483 -6587 0
0 0 0 890 1282373 -5697 0
0 0 0 873 1283246 -4824 0
0 0 0 854 1284100 -3970 1
0 0 0 1244 1285344 -2726 0
66 1 S116 1269 1286613 -1457 0
66 1 S116 1238 1287851 -219 0
66 2 S116 1015 1288866 796 0
66 2 S116 1126 1289992 1922 0
66 2 S116 1217 1291209 3139 0
66 2 S116 1255 1292464 4394 0
66 2 S116 1212 1293676 5606 0
66 2 S116 1076 1294752 6682 0
0 0 0 1106 1295858 -10299 0
0 0 0 1144 1297002 -9155 0
0 0 0 1140 1298142 -8015 0
0 0 0 1007 1299149 -7008 0
0 0 0 1017 1300166 -5991 0
0 0 0 1206 1301372 -4785 0
0 0 0 1334 1302706 -3451 0
0 0 0 1357 1304063 -2094 0
67 1 S102 1355 1305418 -739 0
67 2 S102 1372 1306790 633 0
67 2 S102 1308 1308098 1941 0
67 2 S102 1307 1309405 3248 0
67 2 S102 1316 1310721 4564 0
67 2 S102 1241 1311962 5805 0
67 2 S102 1218 1313180 7023 0
0 0 0 1280 1314460 -5987 0
0 0 0 1233 1315693 -4754 0
0 0 0 1182 1316875 -3572 0
0 0 0 1020 1317895 -2552 0
68 1 S106 983 1318878 -1569 0
68 1 S106 1002 1319880 -567 0
68 2 S106 1304 1321184 737 0
68 2 S106 1312 1322496 2049 0
68 2 S106 1285 1323781 3334 0
68 2 S106 1283 1325064 4617 0
68 2 S106 1147 1326211 5764 0
68 2 S106 1174 1327385 6938 0
0 0 0 1205 1328590 -10773 0
0 0 0 1284 1329874 -9489 0
0 0 0 1177 1331051 -8312 0
0 0 0 1059 1332110 -7253 0
0 0 0 1036 1333146 -6217 0
0 0 0 953 1334099 -5264 0
0 0 0 939 1335038 -4325 0
0 0 0 1022 1336060 -3303 0
0 0 0 1087 1337147 -2216 0
69 1 S102 1175 1338322 -1041 0
69 2 S102 1187 1339509 146 0
69 2 S102 1174 1340683 1320 0
69 2 S102 1230 1341913 2550 0
69 2 S102 1141 1343054 3691 0
69 2 S102 1151 1344205 4842 0
69 2 S102 1298 1345503 6140 0
0 0 0 1335 1346838 -9634 0
0 0 0 1260 1348098 -8374 0
0 0 0 1255 1349353 -7119 0
0 0 0 1256 1350609 -5863 0
0 0 0 1227 1351836 -4636 0
0 0 0 1143 1352979 -3493 0
0 0 0 1194 1354173 -2299 0
70 1 S112 1226 1355399 -1073 0
70 1 S112 1059 1356458 -14 0
70 2 S112 1033 1357491 1019 0
70 2 S112 1097 1358588 2116 0
70 2 S112 1175 1359763 3291 0
70 2 S112 1188 1360951 4479 0
70 2 S112 1091 1362042 5570 0
70 2 S112 961 1363003 6531 0
0 0 0 964 1363967 -11836 0
0 0 0 1090 1365057 -10746 0
0 0 0 1163 1366220 -9583 0
0 0 0 1105 1367325 -8478 0
0 0 0 1103 1368428 -7375 0
0 0 0 1047 1369475 -6328 0
0 0 0 1077 1370552 -5251 0
0 0 0 1125 1371677 -4126 0
0 0 0 1038 1372715 -3088 0
0 0 0 1058 1373773 -2030 0
71 1 S116 1096 1374869 -934 0
71 2 S116 1177 1376046 243 0
71 2 S116 1199 1377245 1442 0
71 2 S116 1164 1378409 2606 0
71 2 S116 1217 1379626 3823 0
71 2 S116 1233 1380859 5056 0
71 2 S116 1252 1382111 6308 0
0 0 0 1200 1383311 -8490 0
0 0 0 1168 1384479 -7322 0
0 0 0 1160 1385639 -6162 0
0 0 0 1011 1386650 -5151 0
0 0 0 1047 1387697 -4104 0
0 0 0 962 1388659 -3142 0
0 0 0 931 1389590 -2211 0
72 1 S102 958 1390548 -1253 0
72 1 S102 1018 1391566 -235 0
72 2 S102 1236 1392802 1001 0
72 2 S102 1242 1394044 2243 0
72 2 S102 1108 1395152 3351 0
72 2 S102 992 1396144 4343 0
72 2 S102 938 1397082 5281 0
72 2 S102 897 1397979 6178 0
0 0 0 863 1398842 -9603 1
0 0 0 815 1399657 -8788 1
0 0 0 807 1400464 -7981 1
0 0 0 796 1401260 -7185 1
0 0 0 809 1402069 -6376 1
0 0 0 1287 1403356 -5089 0
0 0 0 1056 1404412 -4033 0
0 0 0 1042 1405454 -2991 0
73 1 S116 1146 1406600 -1845 0
73 1 S116 1102 1407702 -743 0
73 2 S116 1165 1408867 422 0
73 2 S116 1225 1410092 1647 0
73 2 S116 1244 1411336 2891 0
73 2 S116 1278 1412614 4169 0
73 2 S116 1264 1413878 5433 0
73 2 S116 1249 1415127 6682 0
0 0 0 1098 1416225 -8368 0
0 0 0 1016 1417241 -7352 0
0 0 0 1029 1418270 -6323 0
0 0 0 941 1419211 -5382 0
0 0 0 920 1420131 -4462 0
0 0 0 928 1421059 -3534 0
0 0 0 927 1421986 -2607 0
74 1 S106 1158 1423144 -1449 0
74 1 S106 1394 1424538 -55 0
74 2 S106 1291 1425829 1236 0
74 2 S106 1279 1427108 2515 0
74 2 S106 1351 1428459 3866 0
74 2 S106 1306 1429765 5172 0
74 2 S106 1281 1431046 6453 0
0 0 0 1351 1432397 -6917 0
0 0 0 1275 1433672 -5642 0
0 0 0 1243 1434915 -4399 0
0 0 0 1216 1436131 -3183 0
0 0 0 1180 1437311 -2003 0
75 1 S112 1255 1438566 -748 0
75 2 S112 1178 1439744 430 0
75 2 S112 1256 1441000 1686 0
75 2 S112 1348 1442348 3034 0
75 2 S112 1292 1443640 4326 0
75 2 S112 1314 1444954 5640 0
75 2 S112 1216 1446170 6856 0
0 0 0 1219 1447389 -7012 0
0 0 0 1272 1448661 -5740 0
0 0 0 1265 1449926 -4475 0
0 0 0 1184 1451110 -3291 0
0 0 0 1051 1452161 -2240 0
76 1 S116 1090 1453251 -1150 0
76 2 S116 1179 1454430 29 0
76 2 S116 1070 1455500 1099 0
76 2 S116 1164 1456664 2263 0
76 2 S116 1331 1457995 3594 0
76 2 S116 1338 1459333 4932 0
76 2 S116 1250 1460583 6182 0
0 0 0 1256 1461839 -6852 0
0 0 0 1266 1463105 -5586 0
0 0 0 1205 1464310 -4381 0
0 0 0 1118 1465428 -3263 0
0 0 0 1111 1466539 -2152 0
77 1 S106 1132 1467671 -1020 0
77 2 S106 1109 1468780 89 0
77 2 S106 1204 1469984 1293 0
77 2 S106 1174 1471158 2467 0
77 2 S106 1233 1472391 3700 0
77 2 S106 1325 1473716 5025 0
77 2 S106 1211 1474927 6236 0
0 0 0 1261 1476188 -9148 0
0 0 0 1335 1477523 -7813 0
0 0 0 1259 1478782 -6554 0
0 0 0 1084 1479866 -5470 0
0 0 0 1009 1480875 -4461 0
0 0 0 979 1481854 -3482 0
0 0 0 963 1482817 -2519 0
78 1 S112 900 1483717 -1619 0
78 1 S112 912 1484629 -707 0
78 2 S112 984 1485613 277 0
78 2 S112 986 1486599 1263 0
78 2 S112 1159 1487758 2422 0
78 2 S112 1293 1489051 3715 0
78 2 S112 1272 1490323 4987 0
78 2 S112 1325 1491648 6312 0
0 0 0 1345 1492993 -11740 0
0 0 0 1312 1494305 -10428 0
0 0 0 1277 1495582 -9151 0
0 0 0 1177 1496759 -7974 0
0 0 0 1132 1497891 -6842 0
0 0 0 1201 1499092 -5641 0
0 0 0 1205 1500297 -4436 0
0 0 0 1094 1501391 -3342 0
0 0 0 1131 1502522 -2211 0
79 1 S102 1298 1503820 -913 0
79 2 S102 1197 1505017 284 0
79 2 S102 1247 1506264 1531 0
79 2 S102 1288 1507552 2819 0
79 2 S102 1205 1508757 4024 0
79 2 S102 1279 1510036 5303 0
79 2 S102 1292 1511328 6595 0
0 0 0 1146 1512474 -8937 0
0 0 0 1196 1513670 -7741 0
0 0 0 1237 1514907 -6504 0
0 0 0 1057 1515964 -5447 0
0 0 0 986 1516950 -4461 0
0 0 0 939 1517889 -3522 0
0 0 0 955 1518844 -2567 0
80 1 S116 1028 1519872 -1539 0
80 1 S116 1191 1521063 -348 0
80 2 S116 974 1522037 626 0
80 2 S116 1136 1523173 1762 0
80 2 S116 1255 1524428 3017 0
80 2 S116 1284 1525712 4301 0
80 2 S116 1234 1526946 5535 0
80 2 S116 1221 1528167 6756 0
