T_0112
BeatCount Mean SD BeatCountNoOutliers MeanNoOutliers SDNoOutliers
1738 894,398158803222 64,230265788335 1710 896,812280701754 58,9774907011425

Trial TrialStatus Trialtype IBI AbsPosition RelPosition Outlier
0 0 0 836 1416 -14527 0
0 0 0 776 2192 -13751 0
0 0 0 780 2972 -12971 0
0 0 0 866 3838 -12105 0
0 0 0 967 4805 -11138 0
0 0 0 978 5783 -10160 0
0 0 0 904 6687 -9256 0
0 0 0 944 7631 -8312 0
0 0 0 954 8585 -7358 0
0 0 0 875 9460 -6483 0
0 0 0 842 10302 -5641 0
0 0 0 891 11193 -4750 0
0 0 0 926 12119 -3824 0
0 0 0 926 13045 -2898 0
0 0 0 847 13892 -2051 0
1 1 S112 827 14719 -1224 0
1 1 S112 859 15578 -365 0
1 2 S112 933 16511 568 0
1 2 S112 948 17459 1516 0
1 2 S112 870 18329 2386 0
1 2 S112 922 19251 3308 0
1 2 S112 954 20205 4262 0
1 2 S112 950 21155 5212 0
1 2 S112 868 22023 6080 0
1 2 S112 876 22899 6956 0
0 0 0 904 23803 -11553 0
0 0 0 876 24679 -10677 0
0 0 0 841 25520 -9836 0
0 0 0 807 26327 -9029 0
0 0 0 852 27179 -8177 0
0 0 0 858 28037 -7319 0
0 0 0 838 28875 -6481 0
0 0 0 822 29697 -5659 0
0 0 0 879 30576 -4780 0
0 0 0 910 31486 -3870 0
0 0 0 906 32392 -2964 0
0 0 0 832 33224 -2132 0
2 1 S102 837 34061 -1295 0
2 1 S102 856 34917 -439 0
2 2 S102 881 35798 442 0
2 2 S102 838 36636 1280 0
2 2 S102 901 37537 2181 0
2 2 S102 921 38458 3102 0
2 2 S102 924 39382 4026 0
2 2 S102 855 40237 4881 0
2 2 S102 857 41094 5738 0
2 2 S102 917 42011 6655 0
0 0 0 950 42961 -10283 0
0 0 0 901 43862 -9382 0
0 0 0 845 44707 -8537 0
0 0 0 848 45555 -7689 0
0 0 0 851 46406 -6838 0
0 0 0 817 47223 -6021 0
0 0 0 885 48108 -5136 0
0 0 0 909 49017 -4227 0
0 0 0 882 49899 -3345 0
0 0 0 848 50747 -2497 0
3 1 S116 907 51654 -1590 0
3 1 S116 908 52562 -682 0
3 2 S116 858 53420 176 0
3 2 S116 816 54236 992 0
3 2 S116 851 55087 1843 0
3 2 S116 892 55979 2735 0
3 2 S116 902 56881 3637 0
3 2 S116 849 57730 4486 0
3 2 S116 851 58581 5337 0
3 2 S116 894 59475 6231 0
0 0 0 912 60387 -11873 0
0 0 0 838 61225 -11035 0
0 0 0 771 61996 -10264 0
0 0 0 757 62753 -9507 0
0 0 0 787 63540 -8720 0
0 0 0 831 64371 -7889 0
0 0 0 888 65259 -7001 0
0 0 0 873 66132 -6128 0
0 0 0 881 67013 -5247 0
0 0 0 888 67901 -4359 0
0 0 0 868 68769 -3491 0
0 0 0 853 69622 -2638 0
4 1 S106 892 70514 -1746 0
4 1 S106 930 71444 -816 0
4 2 S106 940 72384 124 0
4 2 S106 968 73352 1092 0
4 2 S106 926 74278 2018 0
4 2 S106 881 75159 2899 0
4 2 S106 899 76058 3798 0
4 2 S106 896 76954 4694 0
4 2 S106 859 77813 5553 0
4 2 S106 946 78759 6499 0
0 0 0 936 79695 -8066 0
0 0 0 850 80545 -7216 0
0 0 0 897 81442 -6319 0
0 0 0 855 82297 -5464 0
0 0 0 817 83114 -4647 0
0 0 0 857 83971 -3790 0
0 0 0 861 84832 -2929 0
0 0 0 819 85651 -2110 0
5 1 S116 826 86477 -1284 0
5 1 S116 868 87345 -416 0
5 2 S116 890 88235 474 0
5 2 S116 838 89073 1312 0
5 2 S116 808 89881 2120 0
5 2 S116 887 90768 3007 0
5 2 S116 918 91686 3925 0
5 2 S116 885 92571 4810 0
5 2 S116 862 93433 5672 0
5 2 S116 908 94341 6580 0
0 0 0 885 95226 -9743 0
0 0 0 800 96026 -8943 0
0 0 0 840 96866 -8103 0
0 0 0 832 97698 -7271 0
0 0 0 805 98503 -6466 0
0 0 0 862 99365 -5604 0
0 0 0 913 100278 -4691 0
0 0 0 911 101189 -3780 0
0 0 0 890 102079 -2890 0
6 1 S106 974 103053 -1916 0
6 1 S106 968 104021 -948 0
6 1 S106 881 104902 -67 0
6 2 S106 920 105822 853 0
6 2 S106 939 106761 1792 0
6 2 S106 897 107658 2689 0
6 2 S106 856 108514 3545 0
6 2 S106 925 109439 4470 0
6 2 S106 968 110407 5438 0
6 2 S106 918 111325 6356 0
0 0 0 835 112160 -11725 0
0 0 0 894 113054 -10831 0
0 0 0 890 113944 -9941 0
0 0 0 822 114766 -9119 0
0 0 0 840 115606 -8279 0
0 0 0 842 116448 -7437 0
0 0 0 801 117249 -6636 0
0 0 0 799 118048 -5837 0
0 0 0 860 118908 -4977 0
0 0 0 879 119787 -4098 0
0 0 0 880 120667 -3218 0
0 0 0 821 121488 -2397 0
7 1 S102 901 122389 -1496 0
7 1 S102 906 123295 -590 0
7 2 S102 844 124139 254 0
7 2 S102 894 125033 1148 0
7 2 S102 895 125928 2043 0
7 2 S102 822 126750 2865 0
7 2 S102 815 127565 3680 0
7 2 S102 878 128443 4558 0
7 2 S102 928 129371 5486 0
7 2 S102 890 130261 6376 0
0 0 0 911 131172 -10435 0
0 0 0 962 132134 -9473 0
0 0 0 892 133026 -8581 0
0 0 0 883 133909 -7698 0
0 0 0 904 134813 -6794 0
0 0 0 844 135657 -5950 0
0 0 0 824 136481 -5126 0
0 0 0 879 137360 -4247 0
0 0 0 922 138282 -3325 0
0 0 0 897 139179 -2428 0
8 1 S112 897 140076 -1531 0
8 1 S112 951 141027 -580 0
8 2 S112 938 141965 358 0
8 2 S112 857 142822 1215 0
8 2 S112 906 143728 2121 0
8 2 S112 928 144656 3049 0
8 2 S112 864 145520 3913 0
8 2 S112 858 146378 4771 0
8 2 S112 913 147291 5684 0
8 2 S112 924 148215 6608 0
0 0 0 882 149097 -8309 0
0 0 0 953 150050 -7356 0
0 0 0 904 150954 -6452 0
0 0 0 857 151811 -5595 0
0 0 0 910 152721 -4685 0
0 0 0 855 153576 -3830 0
0 0 0 823 154399 -3007 0
0 0 0 872 155271 -2135 0
9 1 S116 888 156159 -1247 0
9 1 S116 836 156995 -411 0
9 2 S116 857 157852 446 0
9 2 S116 897 158749 1343 0
9 2 S116 915 159664 2258 0
9 2 S116 862 160526 3120 0
9 2 S116 905 161431 4025 0
9 2 S116 948 162379 4973 0
9 2 S116 953 163332 5926 0
9 2 S116 872 164204 6798 0
0 0 0 867 165071 -10737 0
0 0 0 896 165967 -9841 0
0 0 0 850 166817 -8991 0
0 0 0 794 167611 -8197 0
0 0 0 867 168478 -7330 0
0 0 0 881 169359 -6449 0
0 0 0 866 170225 -5583 0
0 0 0 809 171034 -4774 0
0 0 0 877 171911 -3897 0
0 0 0 927 172838 -2970 0
0 0 0 947 173785 -2023 0
10 1 S102 858 174643 -1165 0
10 1 S102 868 175511 -297 0
10 2 S102 859 176370 562 0
10 2 S102 852 177222 1414 0
10 2 S102 792 178014 2206 0
10 2 S102 843 178857 3049 0
10 2 S102 869 179726 3918 0
10 2 S102 865 180591 4783 0
10 2 S102 858 181449 5641 0
10 2 S102 916 182365 6557 0
0 0 0 922 183287 -12366 0
0 0 0 854 184141 -11512 0
0 0 0 874 185015 -10638 0
0 0 0 826 185841 -9812 0
0 0 0 801 186642 -9011 0
0 0 0 844 187486 -8167 0
0 0 0 826 188312 -7341 0
0 0 0 782 189094 -6559 0
0 0 0 836 189930 -5723 0
0 0 0 876 190806 -4847 0
0 0 0 867 191673 -3980 0
0 0 0 821 192494 -3159 0
0 0 0 877 193371 -2282 0
11 1 S112 897 194268 -1385 0
11 1 S112 833 195101 -552 0
11 2 S112 894 195995 342 0
11 2 S112 898 196893 1240 0
11 2 S112 843 197736 2083 0
11 2 S112 835 198571 2918 0
11 2 S112 888 199459 3806 0
11 2 S112 906 200365 4712 0
11 2 S112 859 201224 5571 0
11 2 S112 932 202156 6503 0
0 0 0 926 203082 -8221 0
0 0 0 868 203950 -7353 0
0 0 0 900 204850 -6453 0
0 0 0 834 205684 -5619 0
0 0 0 840 206524 -4779 0
0 0 0 846 207370 -3933 0
0 0 0 783 208153 -3150 0
0 0 0 760 208913 -2390 0
12 1 S116 825 209738 -1565 0
12 1 S116 863 210601 -702 0
12 2 S116 906 211507 204 0
12 2 S116 847 212354 1051 0
12 2 S116 918 213272 1969 0
12 2 S116 932 214204 2901 0
12 2 S116 879 215083 3780 0
12 2 S116 883 215966 4663 0
12 2 S116 909 216875 5572 0
12 2 S116 921 217796 6493 0
0 0 0 828 218624 -11877 0
0 0 0 784 219408 -11093 0
0 0 0 842 220250 -10251 0
0 0 0 878 221128 -9373 0
0 0 0 874 222002 -8499 0
0 0 0 860 222862 -7639 0
0 0 0 942 223804 -6697 0
0 0 0 962 224766 -5735 0
0 0 0 878 225644 -4857 0
0 0 0 900 226544 -3957 0
0 0 0 921 227465 -3036 0
0 0 0 918 228383 -2118 0
13 1 S112 855 229238 -1263 0
13 1 S112 921 230159 -342 0
13 2 S112 940 231099 598 0
13 2 S112 870 231969 1468 0
13 2 S112 887 232856 2355 0
13 2 S112 930 233786 3285 0
13 2 S112 915 234701 4200 0
13 2 S112 860 235561 5060 0
13 2 S112 924 236485 5984 0
13 2 S112 917 237402 6901 0
0 0 0 862 238264 -11169 0
0 0 0 887 239151 -10282 0
0 0 0 872 240023 -9410 0
0 0 0 806 240829 -8604 0
0 0 0 862 241691 -7742 0
0 0 0 898 242589 -6844 0
0 0 0 898 243487 -5946 0
0 0 0 863 244350 -5083 0
0 0 0 929 245279 -4154 0
0 0 0 983 246262 -3171 0
0 0 0 881 247143 -2290 0
14 1 S106 894 248037 -1396 0
14 1 S106 922 248959 -474 0
14 2 S106 894 249853 420 0
14 2 S106 828 250681 1248 0
14 2 S106 885 251566 2133 0
14 2 S106 911 252477 3044 0
14 2 S106 870 253347 3914 0
14 2 S106 816 254163 4730 0
14 2 S106 876 255039 5606 0
14 2 S106 927 255966 6533 0
0 0 0 973 256939 -11393 0
0 0 0 901 257840 -10492 0
0 0 0 824 258664 -9668 0
0 0 0 862 259526 -8806 0
0 0 0 798 260324 -8008 0
0 0 0 760 261084 -7248 0
0 0 0 718 261802 -6530 1
0 0 0 748 262550 -5782 0
0 0 0 855 263405 -4927 0
0 0 0 858 264263 -4069 0
0 0 0 805 265068 -3264 0
0 0 0 878 265946 -2386 0
15 1 S116 951 266897 -1435 0
15 1 S116 994 267891 -441 0
15 2 S116 924 268815 483 0
15 2 S116 856 269671 1339 0
15 2 S116 886 270557 2225 0
15 2 S116 909 271466 3134 0
15 2 S116 902 272368 4036 0
15 2 S116 860 273228 4896 0
15 2 S116 990 274218 5886 0
15 2 S116 1046 275264 6932 0
0 0 0 957 276221 -9767 0
0 0 0 984 277205 -8783 0
0 0 0 978 278183 -7805 0
0 0 0 879 279062 -6926 0
0 0 0 932 279994 -5994 0
0 0 0 945 280939 -5049 0
0 0 0 889 281828 -4160 0
0 0 0 966 282794 -3194 0
0 0 0 1014 283808 -2180 0
16 1 S116 939 284747 -1241 0
16 1 S116 901 285648 -340 0
16 2 S116 958 286606 618 0
16 2 S116 979 287585 1597 0
16 2 S116 882 288467 2479 0
16 2 S116 927 289394 3406 0
16 2 S116 947 290341 4353 0
16 2 S116 889 291230 5242 0
16 2 S116 805 292035 6047 0
16 2 S116 831 292866 6878 0
0 0 0 868 293734 -8468 0
0 0 0 905 294639 -7563 0
0 0 0 836 295475 -6727 0
0 0 0 911 296386 -5816 0
0 0 0 916 297302 -4900 0
0 0 0 855 298157 -4045 0
0 0 0 894 299051 -3151 0
0 0 0 898 299949 -2253 0
17 1 S106 817 300766 -1436 0
17 1 S106 894 301660 -542 0
17 2 S106 920 302580 378 0
17 2 S106 906 303486 1284 0
17 2 S106 881 304367 2165 0
17 2 S106 956 305323 3121 0
17 2 S106 969 306292 4090 0
17 2 S106 908 307200 4998 0
17 2 S106 886 308086 5884 0
17 2 S106 965 309051 6849 0
0 0 0 986 310037 -10451 0
0 0 0 949 310986 -9502 0
0 0 0 898 311884 -8604 0
0 0 0 953 312837 -7651 0
0 0 0 958 313795 -6693 0
0 0 0 892 314687 -5801 0
0 0 0 920 315607 -4881 0
0 0 0 963 316570 -3918 0
0 0 0 982 317552 -2936 0
0 0 0 909 318461 -2027 0
18 1 S102 851 319312 -1176 0
18 1 S102 900 320212 -276 0
18 2 S102 959 321171 683 0
18 2 S102 992 322163 1675 0
18 2 S102 882 323045 2557 0
18 2 S102 936 323981 3493 0
18 2 S102 954 324935 4447 0
18 2 S102 903 325838 5350 0
18 2 S102 879 326717 6229 0
0 0 0 903 327620 -7938 0
0 0 0 897 328517 -7041 0
0 0 0 850 329367 -6191 0
0 0 0 911 330278 -5280 0
0 0 0 932 331210 -4348 0
0 0 0 898 332108 -3450 0
0 0 0 877 332985 -2573 0
19 1 S106 900 333885 -1673 0
19 1 S106 865 334750 -808 0
19 2 S106 810 335560 2 0
19 2 S106 839 336399 841 0
19 2 S106 877 337276 1718 0
19 2 S106 961 338237 2679 0
19 2 S106 938 339175 3617 0
19 2 S106 945 340120 4562 0
19 2 S106 975 341095 5537 0
19 2 S106 933 342028 6470 0
0 0 0 918 342946 -12589 0
0 0 0 938 343884 -11651 0
0 0 0 876 344760 -10775 0
0 0 0 812 345572 -9963 0
0 0 0 824 346396 -9139 0
0 0 0 883 347279 -8256 0
0 0 0 944 348223 -7312 0
0 0 0 842 349065 -6470 0
0 0 0 923 349988 -5547 0
0 0 0 835 350823 -4712 0
0 0 0 840 351663 -3872 0
0 0 0 845 352508 -3027 0
0 0 0 808 353316 -2219 0
20 1 S112 856 354172 -1363 0
20 1 S112 867 355039 -496 0
20 2 S112 811 355850 315 0
20 2 S112 829 356679 1144 0
20 2 S112 874 357553 2018 0
20 2 S112 900 358453 2918 0
20 2 S112 843 359296 3761 0
20 2 S112 929 360225 4690 0
20 2 S112 941 361166 5631 0
20 2 S112 876 362042 6507 0
0 0 0 936 362978 -9218 0
0 0 0 949 363927 -8269 0
0 0 0 871 364798 -7398 0
0 0 0 877 365675 -6521 0
0 0 0 889 366564 -5632 0
0 0 0 895 367459 -4737 0
0 0 0 855 368314 -3882 0
0 0 0 945 369259 -2937 0
21 1 S106 965 370224 -1972 0
21 1 S106 886 371110 -1086 0
21 1 S106 932 372042 -154 0
21 2 S106 910 372952 756 0
21 2 S106 835 373787 1591 0
21 2 S106 915 374702 2506 0
21 2 S106 916 375618 3422 0
21 2 S106 884 376502 4306 0
21 2 S106 820 377322 5126 0
21 2 S106 870 378192 5996 0
21 2 S106 952 379144 6948 0
0 0 0 1007 380151 -10165 0
0 0 0 919 381070 -9246 0
0 0 0 972 382042 -8274 0
0 0 0 969 383011 -7305 0
0 0 0 894 383905 -6411 0
0 0 0 932 384837 -5479 0
0 0 0 947 385784 -4532 0
0 0 0 934 386718 -3598 0
0 0 0 905 387623 -2693 0
22 1 S116 978 388601 -1715 0
22 1 S116 1013 389614 -702 0
22 2 S116 935 390549 233 0
22 2 S116 998 391547 1231 0
22 2 S116 963 392510 2194 0
22 2 S116 854 393364 3048 0
22 2 S116 807 394171 3855 0
22 2 S116 858 395029 4713 0
22 2 S116 947 395976 5660 0
22 2 S116 947 396923 6607 0
0 0 0 980 397903 -8826 0
0 0 0 1032 398935 -7794 0
0 0 0 938 399873 -6856 0
0 0 0 1016 400889 -5840 0
0 0 0 959 401848 -4881 0
0 0 0 912 402760 -3969 0
0 0 0 957 403717 -3012 0
0 0 0 907 404624 -2105 0
23 1 S112 859 405483 -1246 0
23 1 S112 937 406420 -309 0
23 2 S112 980 407400 671 0
23 2 S112 903 408303 1574 0
23 2 S112 951 409254 2525 0
23 2 S112 975 410229 3500 0
23 2 S112 958 411187 4458 0
23 2 S112 915 412102 5373 0
23 2 S112 970 413072 6343 0
0 0 0 964 414036 -9702 0
0 0 0 888 414924 -8814 0
0 0 0 924 415848 -7890 0
0 0 0 898 416746 -6992 0
0 0 0 876 417622 -6116 0
0 0 0 940 418562 -5176 0
0 0 0 969 419531 -4207 0
0 0 0 902 420433 -3305 0
0 0 0 965 421398 -2340 0
24 1 S106 950 422348 -1390 0
24 1 S106 879 423227 -511 0
24 2 S106 933 424160 422 0
24 2 S106 930 425090 1352 0
24 2 S106 871 425961 2223 0
24 2 S106 915 426876 3138 0
24 2 S106 952 427828 4090 0
24 2 S106 916 428744 5006 0
24 2 S106 964 429708 5970 0
24 2 S106 992 430700 6962 0
0 0 0 910 431610 -9204 0
0 0 0 950 432560 -8254 0
0 0 0 896 433456 -7358 0
0 0 0 851 434307 -6507 0
0 0 0 872 435179 -5635 0
0 0 0 883 436062 -4752 0
0 0 0 912 436974 -3840 0
0 0 0 1011 437985 -2829 0
25 1 S102 1043 439028 -1786 0
25 1 S102 975 440003 -811 0
25 2 S102 1050 441053 239 0
25 2 S102 1031 442084 1270 0
25 2 S102 929 443013 2199 0
25 2 S102 956 443969 3155 0
25 2 S102 922 444891 4077 0
25 2 S102 860 445751 4937 0
25 2 S102 948 446699 5885 0
25 2 S102 992 447691 6877 0
0 0 0 933 448624 -6829 0
0 0 0 985 449609 -5844 0
0 0 0 1007 450616 -4837 0
0 0 0 917 451533 -3920 0
0 0 0 939 452472 -2981 0
0 0 0 945 453417 -2036 0
26 1 S116 890 454307 -1146 0
26 1 S116 906 455213 -240 0
26 2 S116 911 456124 671 0
26 2 S116 854 456978 1525 0
26 2 S116 902 457880 2427 0
26 2 S116 933 458813 3360 0
26 2 S116 917 459730 4277 0
26 2 S116 849 460579 5126 0
26 2 S116 922 461501 6048 0
26 2 S116 944 462445 6992 0
0 0 0 928 463373 -6884 0
0 0 0 860 464233 -6024 0
0 0 0 901 465134 -5123 0
0 0 0 878 466012 -4245 0
0 0 0 824 466836 -3421 0
0 0 0 869 467705 -2552 0
27 1 S106 883 468588 -1669 0
27 1 S106 826 469414 -843 0
27 2 S106 903 470317 60 0
27 2 S106 918 471235 978 0
27 2 S106 871 472106 1849 0
27 2 S106 913 473019 2762 0
27 2 S106 913 473932 3675 0
27 2 S106 871 474803 4546 0
27 2 S106 876 475679 5422 0
27 2 S106 910 476589 6332 0
0 0 0 948 477537 -7061 0
0 0 0 876 478413 -6185 0
0 0 0 919 479332 -5266 0
0 0 0 908 480240 -4358 0
0 0 0 869 481109 -3489 0
0 0 0 931 482040 -2558 0
28 1 S102 923 482963 -1635 0
28 1 S102 876 483839 -759 0
28 2 S102 861 484700 102 0
28 2 S102 893 485593 995 0
28 2 S102 914 486507 1909 0
28 2 S102 858 487365 2767 0
28 2 S102 917 488282 3684 0
28 2 S102 983 489265 4667 0
28 2 S102 956 490221 5623 0
28 2 S102 909 491130 6532 0
0 0 0 967 492097 -10886 0
0 0 0 954 493051 -9932 0
0 0 0 875 493926 -9057 0
0 0 0 923 494849 -8134 0
0 0 0 904 495753 -7230 0
0 0 0 858 496611 -6372 0
0 0 0 959 497570 -5413 0
0 0 0 969 498539 -4444 0
0 0 0 878 499417 -3566 0
0 0 0 954 500371 -2612 0
29 1 S112 952 501323 -1660 0
29 1 S112 885 502208 -775 0
29 2 S112 948 503156 173 0
29 2 S112 918 504074 1091 0
29 2 S112 846 504920 1937 0
29 2 S112 887 505807 2824 0
29 2 S112 922 506729 3746 0
29 2 S112 935 507664 4681 0
29 2 S112 958 508622 5639 0
29 2 S112 908 509530 6547 0
0 0 0 937 510467 -7337 0
0 0 0 964 511431 -6373 0
0 0 0 909 512340 -5464 0
0 0 0 872 513212 -4592 0
0 0 0 894 514106 -3698 0
0 0 0 884 514990 -2814 0
0 0 0 792 515782 -2022 0
30 1 S112 832 516614 -1190 0
30 1 S112 829 517443 -361 0
30 2 S112 780 518223 419 0
30 2 S112 775 518998 1194 0
30 2 S112 731 519729 1925 0
30 2 S112 845 520574 2770 0
30 2 S112 931 521505 3701 0
30 2 S112 845 522350 4546 0
30 2 S112 812 523162 5358 0
30 2 S112 899 524061 6257 0
0 0 0 970 525031 -9766 0
0 0 0 956 525987 -8810 0
0 0 0 865 526852 -7945 0
0 0 0 943 527795 -7002 0
0 0 0 926 528721 -6076 0
0 0 0 863 529584 -5213 0
0 0 0 913 530497 -4300 0
0 0 0 964 531461 -3336 0
0 0 0 935 532396 -2401 0
31 1 S106 941 533337 -1460 0
31 1 S106 1008 534345 -452 0
31 2 S106 959 535304 507 0
31 2 S106 938 536242 1445 0
31 2 S106 999 537241 2444 0
31 2 S106 1017 538258 3461 0
31 2 S106 899 539157 4360 0
31 2 S106 947 540104 5307 0
31 2 S106 988 541092 6295 0
0 0 0 917 542009 -9880 0
0 0 0 879 542888 -9001 0
0 0 0 994 543882 -8007 0
0 0 0 989 544871 -7018 0
0 0 0 895 545766 -6123 0
0 0 0 949 546715 -5174 0
0 0 0 973 547688 -4201 0
0 0 0 881 548569 -3320 0
0 0 0 873 549442 -2447 0
32 1 S102 923 550365 -1524 0
32 1 S102 944 551309 -580 0
32 2 S102 923 552232 343 0
32 2 S102 930 553162 1273 0
32 2 S102 977 554139 2250 0
32 2 S102 948 555087 3198 0
32 2 S102 913 556000 4111 0
32 2 S102 992 556992 5103 0
32 2 S102 994 557986 6097 0
32 2 S102 919 558905 7016 0
0 0 0 959 559864 -10875 0
0 0 0 947 560811 -9928 0
0 0 0 885 561696 -9043 0
0 0 0 925 562621 -8118 0
0 0 0 939 563560 -7179 0
0 0 0 907 564467 -6272 0
0 0 0 910 565377 -5362 0
0 0 0 944 566321 -4418 0
0 0 0 952 567273 -3466 0
0 0 0 894 568167 -2572 0
33 1 S112 943 569110 -1629 0
33 1 S112 902 570012 -727 0
33 2 S112 829 570841 102 0
33 2 S112 880 571721 982 0
33 2 S112 890 572611 1872 0
33 2 S112 841 573452 2713 0
33 2 S112 932 574384 3645 0
33 2 S112 995 575379 4640 0
33 2 S112 950 576329 5590 0
33 2 S112 878 577207 6468 0
0 0 0 937 578144 -11445 0
0 0 0 973 579117 -10472 0
0 0 0 910 580027 -9562 0
0 0 0 865 580892 -8697 0
0 0 0 897 581789 -7800 0
0 0 0 881 582670 -6919 0
0 0 0 837 583507 -6082 0
0 0 0 920 584427 -5162 0
0 0 0 954 585381 -4208 0
0 0 0 898 586279 -3310 0
0 0 0 939 587218 -2371 0
34 1 S106 965 588183 -1406 0
34 1 S106 908 589091 -498 0
34 2 S106 845 589936 347 0
34 2 S106 872 590808 1219 0
34 2 S106 904 591712 2123 0
34 2 S106 932 592644 3055 0
34 2 S106 881 593525 3936 0
34 2 S106 892 594417 4828 0
34 2 S106 981 595398 5809 0
34 2 S106 1015 596413 6824 0
0 0 0 965 597378 -8408 0
0 0 0 909 598287 -7499 0
0 0 0 906 599193 -6593 0
0 0 0 862 600055 -5731 0
0 0 0 812 600867 -4919 0
0 0 0 864 601731 -4055 0
0 0 0 976 602707 -3079 0
0 0 0 1064 603771 -2015 1
35 1 S102 955 604726 -1060 0
35 1 S102 1056 605782 -4 0
35 2 S102 1044 606826 1040 0
35 2 S102 921 607747 1961 0
35 2 S102 926 608673 2887 0
35 2 S102 949 609622 3836 0
35 2 S102 968 610590 4804 0
35 2 S102 906 611496 5710 0
35 2 S102 968 612464 6678 0
0 0 0 1004 613468 -7487 0
0 0 0 921 614389 -6566 0
0 0 0 951 615340 -5615 0
0 0 0 933 616273 -4682 0
0 0 0 854 617127 -3828 0
0 0 0 874 618001 -2954 0
0 0 0 893 618894 -2061 0
36 1 S106 864 619758 -1197 0
36 1 S106 871 620629 -326 0
36 2 S106 946 621575 620 0
36 2 S106 970 622545 1590 0
36 2 S106 901 623446 2491 0
36 2 S106 945 624391 3436 0
36 2 S106 970 625361 4406 0
36 2 S106 972 626333 5378 0
36 2 S106 875 627208 6253 0
0 0 0 894 628102 -8453 0
0 0 0 905 629007 -7548 0
0 0 0 910 629917 -6638 0
0 0 0 846 630763 -5792 0
0 0 0 904 631667 -4888 0
0 0 0 937 632604 -3951 0
0 0 0 896 633500 -3055 0
0 0 0 962 634462 -2093 0
37 1 S116 945 635407 -1148 0
37 1 S116 886 636293 -262 0
37 2 S116 940 637233 678 0
37 2 S116 917 638150 1595 0
37 2 S116 851 639001 2446 0
37 2 S116 821 639822 3267 0
37 2 S116 881 640703 4148 0
37 2 S116 969 641672 5117 0
37 2 S116 952 642624 6069 0
0 0 0 1001 643625 -11316 0
0 0 0 1016 644641 -10300 0
0 0 0 912 645553 -9388 0
0 0 0 947 646500 -8441 0
0 0 0 920 647420 -7521 0
0 0 0 841 648261 -6680 0
0 0 0 816 649077 -5864 0
0 0 0 876 649953 -4988 0
0 0 0 938 650891 -4050 0
0 0 0 932 651823 -3118 0
0 0 0 1000 652823 -2118 0
38 1 S102 1061 653884 -1057 1
38 1 S102 980 654864 -77 0
38 2 S102 988 655852 911 0
38 2 S102 979 656831 1890 0
38 2 S102 898 657729 2788 0
38 2 S102 860 658589 3648 0
38 2 S102 912 659501 4560 0
38 2 S102 942 660443 5502 0
38 2 S102 903 661346 6405 0
0 0 0 969 662315 -9817 0
0 0 0 978 663293 -8839 0
0 0 0 888 664181 -7951 0
0 0 0 927 665108 -7024 0
0 0 0 915 666023 -6109 0
0 0 0 849 666872 -5260 0
0 0 0 900 667772 -4360 0
0 0 0 919 668691 -3441 0
0 0 0 865 669556 -2576 0
39 1 S116 867 670423 -1709 0
39 1 S116 892 671315 -817 0
39 2 S116 904 672219 87 0
39 2 S116 846 673065 933 0
39 2 S116 878 673943 1811 0
39 2 S116 922 674865 2733 0
39 2 S116 909 675774 3642 0
39 2 S116 835 676609 4477 0
39 2 S116 906 677515 5383 0
39 2 S116 930 678445 6313 0
0 0 0 881 679326 -8075 0
0 0 0 827 680153 -7248 0
0 0 0 859 681012 -6389 0
0 0 0 877 681889 -5512 0
0 0 0 835 682724 -4677 0
0 0 0 897 683621 -3780 0
0 0 0 941 684562 -2839 0
40 1 S112 931 685493 -1908 0
40 1 S112 917 686410 -991 0
40 1 S112 978 687388 -13 0
40 2 S112 960 688348 947 0
40 2 S112 889 689237 1836 0
40 2 S112 882 690119 2718 0
40 2 S112 892 691011 3610 0
40 2 S112 907 691918 4517 0
40 2 S112 849 692767 5366 0
40 2 S112 824 693591 6190 0
0 0 0 867 694458 -187839 0
0 0 0 947 695405 -186892 0
0 0 0 962 696367 -185930 0
0 0 0 893 697260 -185037 0
0 0 0 964 698224 -184073 0
0 0 0 974 699198 -183099 0
0 0 0 855 700053 -182244 0
0 0 0 773 700826 -181471 0
0 0 0 733 701559 -180738 0
0 0 0 742 702301 -179996 0
0 0 0 784 703085 -179212 0
0 0 0 849 703934 -178363 0
0 0 0 870 704804 -177493 0
0 0 0 830 705634 -176663 0
0 0 0 778 706412 -175885 0
0 0 0 742 707154 -175143 0
0 0 0 741 707895 -174402 0
0 0 0 769 708664 -173633 0
0 0 0 772 709436 -172861 0
0 0 0 745 710181 -172116 0
0 0 0 733 710914 -171383 0
0 0 0 739 711653 -170644 0
0 0 0 704 712357 -169940 1
0 0 0 734 713091 -169206 0
0 0 0 790 713881 -168416 0
0 0 0 837 714718 -167579 0
0 0 0 868 715586 -166711 0
0 0 0 907 716493 -165804 0
0 0 0 970 717463 -164834 0
0 0 0 987 718450 -163847 0
0 0 0 988 719438 -162859 0
0 0 0 933 720371 -161926 0
0 0 0 902 721273 -161024 0
0 0 0 795 722068 -160229 0
0 0 0 744 722812 -159485 0
0 0 0 710 723522 -158775 1
0 0 0 737 724259 -158038 0
0 0 0 770 725029 -157268 0
0 0 0 951 725980 -156317 0
0 0 0 898 726878 -155419 0
0 0 0 912 727790 -154507 0
0 0 0 859 728649 -153648 0
0 0 0 801 729450 -152847 0
0 0 0 809 730259 -152038 0
0 0 0 815 731074 -151223 0
0 0 0 813 731887 -150410 0
0 0 0 810 732697 -149600 0
0 0 0 804 733501 -148796 0
0 0 0 805 734306 -147991 0
0 0 0 775 735081 -147216 0
0 0 0 758 735839 -146458 0
0 0 0 754 736593 -145704 0
0 0 0 749 737342 -144955 0
0 0 0 758 738100 -144197 0
0 0 0 776 738876 -143421 0
0 0 0 805 739681 -142616 0
0 0 0 835 740516 -141781 0
0 0 0 849 741365 -140932 0
0 0 0 915 742280 -140017 0
0 0 0 874 743154 -139143 0
0 0 0 804 743958 -138339 0
0 0 0 771 744729 -137568 0
0 0 0 740 745469 -136828 0
0 0 0 741 746210 -136087 0
0 0 0 721 746931 -135366 1
0 0 0 703 747634 -134663 1
0 0 0 742 748376 -133921 0
0 0 0 869 749245 -133052 0
0 0 0 913 750158 -132139 0
0 0 0 950 751108 -131189 0
0 0 0 924 752032 -130265 0
0 0 0 911 752943 -129354 0
0 0 0 857 753800 -128497 0
0 0 0 803 754603 -127694 0
0 0 0 783 755386 -126911 0
0 0 0 775 756161 -126136 0
0 0 0 787 756948 -125349 0
0 0 0 809 757757 -124540 0
0 0 0 840 758597 -123700 0
0 0 0 900 759497 -122800 0
0 0 0 931 760428 -121869 0
0 0 0 956 761384 -120913 0
0 0 0 958 762342 -119955 0
0 0 0 955 763297 -119000 0
0 0 0 920 764217 -118080 0
0 0 0 882 765099 -117198 0
0 0 0 846 765945 -116352 0
0 0 0 816 766761 -115536 0
0 0 0 788 767549 -114748 0
0 0 0 801 768350 -113947 0
0 0 0 814 769164 -113133 0
0 0 0 822 769986 -112311 0
0 0 0 789 770775 -111522 0
0 0 0 790 771565 -110732 0
0 0 0 758 772323 -109974 0
0 0 0 740 773063 -109234 0
0 0 0 723 773786 -108511 1
0 0 0 771 774557 -107740 0
0 0 0 794 775351 -106946 0
0 0 0 808 776159 -106138 0
0 0 0 777 776936 -105361 0
0 0 0 782 777718 -104579 0
0 0 0 797 778515 -103782 0
0 0 0 801 779316 -102981 0
0 0 0 778 780094 -102203 0
0 0 0 778 780872 -101425 0
0 0 0 804 781676 -100621 0
0 0 0 805 782481 -99816 0
0 0 0 811 783292 -99005 0
0 0 0 792 784084 -98213 0
0 0 0 864 784948 -97349 0
0 0 0 912 785860 -96437 0
0 0 0 974 786834 -95463 0
0 0 0 965 787799 -94498 0
0 0 0 958 788757 -93540 0
0 0 0 966 789723 -92574 0
0 0 0 935 790658 -91639 0
0 0 0 903 791561 -90736 0
0 0 0 883 792444 -89853 0
0 0 0 854 793298 -88999 0
0 0 0 826 794124 -88173 0
0 0 0 881 795005 -87292 0
0 0 0 920 795925 -86372 0
0 0 0 853 796778 -85519 0
0 0 0 911 797689 -84608 0
0 0 0 878 798567 -83730 0
0 0 0 854 799421 -82876 0
0 0 0 799 800220 -82077 0
0 0 0 736 800956 -81341 0
0 0 0 717 801673 -80624 1
0 0 0 698 802371 -79926 1
0 0 0 692 803063 -79234 1
0 0 0 684 803747 -78550 1
0 0 0 677 804424 -77873 1
0 0 0 774 805198 -77099 0
0 0 0 923 806121 -76176 0
0 0 0 881 807002 -75295 0
0 0 0 831 807833 -74464 0
0 0 0 885 808718 -73579 0
0 0 0 865 809583 -72714 0
0 0 0 833 810416 -71881 0
0 0 0 869 811285 -71012 0
0 0 0 807 812092 -70205 0
0 0 0 838 812930 -69367 0
0 0 0 865 813795 -68502 0
0 0 0 845 814640 -67657 0
0 0 0 880 815520 -66777 0
0 0 0 905 816425 -65872 0
0 0 0 904 817329 -64968 0
0 0 0 859 818188 -64109 0
0 0 0 817 819005 -63292 0
0 0 0 823 819828 -62469 0
0 0 0 810 820638 -61659 0
0 0 0 782 821420 -60877 0
0 0 0 792 822212 -60085 0
0 0 0 830 823042 -59255 0
0 0 0 820 823862 -58435 0
0 0 0 786 824648 -57649 0
0 0 0 773 825421 -56876 0
0 0 0 752 826173 -56124 0
0 0 0 711 826884 -55413 1
0 0 0 690 827574 -54723 1
0 0 0 681 828255 -54042 1
0 0 0 710 828965 -53332 1
0 0 0 755 829720 -52577 0
0 0 0 777 830497 -51800 0
0 0 0 804 831301 -50996 0
0 0 0 836 832137 -50160 0
0 0 0 942 833079 -49218 0
0 0 0 992 834071 -48226 0
0 0 0 972 835043 -47254 0
0 0 0 961 836004 -46293 0
0 0 0 975 836979 -45318 0
0 0 0 935 837914 -44383 0
0 0 0 894 838808 -43489 0
0 0 0 872 839680 -42617 0
0 0 0 830 840510 -41787 0
0 0 0 800 841310 -40987 0
0 0 0 811 842121 -40176 0
0 0 0 806 842927 -39370 0
0 0 0 809 843736 -38561 0
0 0 0 783 844519 -37778 0
0 0 0 799 845318 -36979 0
0 0 0 841 846159 -36138 0
0 0 0 859 847018 -35279 0
0 0 0 850 847868 -34429 0
0 0 0 794 848662 -33635 0
0 0 0 838 849500 -32797 0
0 0 0 820 850320 -31977 0
0 0 0 789 851109 -31188 0
0 0 0 727 851836 -30461 1
0 0 0 691 852527 -29770 1
0 0 0 666 853193 -29104 1
0 0 0 656 853849 -28448 1
0 0 0 659 854508 -27789 1
0 0 0 654 855162 -27135 1
0 0 0 639 855801 -26496 1
0 0 0 629 856430 -25867 1
0 0 0 655 857085 -25212 1
0 0 0 849 857934 -24363 0
0 0 0 918 858852 -23445 0
0 0 0 819 859671 -22626 0
0 0 0 825 860496 -21801 0
0 0 0 855 861351 -20946 0
0 0 0 865 862216 -20081 0
0 0 0 854 863070 -19227 0
0 0 0 833 863903 -18394 0
0 0 0 812 864715 -17582 0
0 0 0 817 865532 -16765 0
0 0 0 834 866366 -15931 0
0 0 0 841 867207 -15090 0
0 0 0 868 868075 -14222 0
0 0 0 818 868893 -13404 0
0 0 0 796 869689 -12608 0
0 0 0 786 870475 -11822 0
0 0 0 838 871313 -10984 0
0 0 0 893 872206 -10091 0
0 0 0 882 873088 -9209 0
0 0 0 823 873911 -8386 0
0 0 0 858 874769 -7528 0
0 0 0 840 875609 -6688 0
0 0 0 804 876413 -5884 0
0 0 0 781 877194 -5103 0
0 0 0 812 878006 -4291 0
0 0 0 790 878796 -3501 0
0 0 0 773 879569 -2728 0
41 1 S102 750 880319 -1978 0
41 1 S102 783 881102 -1195 0
41 1 S102 795 881897 -400 0
41 2 S102 802 882699 402 0
41 2 S102 815 883514 1217 0
41 2 S102 817 884331 2034 0
41 2 S102 800 885131 2834 0
41 2 S102 762 885893 3596 0
41 2 S102 764 886657 4360 0
41 2 S102 823 887480 5183 0
41 2 S102 886 888366 6069 0
41 2 S102 941 889307 7010 0
0 0 0 949 890256 -6447 0
0 0 0 852 891108 -5595 0
0 0 0 875 891983 -4720 0
0 0 0 834 892817 -3886 0
0 0 0 780 893597 -3106 0
0 0 0 751 894348 -2355 0
42 1 S112 765 895113 -1590 0
42 1 S112 839 895952 -751 0
42 2 S112 927 896879 176 0
42 2 S112 969 897848 1145 0
42 2 S112 915 898763 2060 0
42 2 S112 984 899747 3044 0
42 2 S112 967 900714 4011 0
42 2 S112 899 901613 4910 0
42 2 S112 829 902442 5739 0
42 2 S112 853 903295 6592 0
0 0 0 855 904150 -9181 0
0 0 0 892 905042 -8289 0
0 0 0 878 905920 -7411 0
0 0 0 905 906825 -6506 0
0 0 0 912 907737 -5594 0
0 0 0 897 908634 -4697 0
0 0 0 833 909467 -3864 0
0 0 0 876 910343 -2988 0
0 0 0 912 911255 -2076 0
43 1 S116 932 912187 -1144 0
43 1 S116 890 913077 -254 0
43 2 S116 837 913914 583 0
43 2 S116 860 914774 1443 0
43 2 S116 867 915641 2310 0
43 2 S116 846 916487 3156 0
43 2 S116 866 917353 4022 0
43 2 S116 900 918253 4922 0
43 2 S116 922 919175 5844 0
43 2 S116 884 920059 6728 0
0 0 0 943 921002 -7797 0
0 0 0 886 921888 -6911 0
0 0 0 785 922673 -6126 0
0 0 0 787 923460 -5339 0
0 0 0 799 924259 -4540 0
0 0 0 816 925075 -3724 0
0 0 0 823 925898 -2901 0
0 0 0 831 926729 -2070 0
44 1 S102 894 927623 -1176 0
44 1 S102 923 928546 -253 0
44 2 S102 905 929451 652 0
44 2 S102 933 930384 1585 0
44 2 S102 902 931286 2487 0
44 2 S102 824 932110 3311 0
44 2 S102 809 932919 4120 0
44 2 S102 841 933760 4961 0
44 2 S102 879 934639 5840 0
44 2 S102 952 935591 6792 0
0 0 0 947 936538 -9237 0
0 0 0 976 937514 -8261 0
0 0 0 968 938482 -7293 0
0 0 0 944 939426 -6349 0
0 0 0 891 940317 -5458 0
0 0 0 930 941247 -4528 0
0 0 0 918 942165 -3610 0
0 0 0 891 943056 -2719 0
45 1 S116 931 943987 -1788 0
45 1 S116 931 944918 -857 0
45 2 S116 883 945801 26 0
45 2 S116 958 946759 984 0
45 2 S116 946 947705 1930 0
45 2 S116 888 948593 2818 0
45 2 S116 920 949513 3738 0
45 2 S116 936 950449 4674 0
45 2 S116 888 951337 5562 0
45 2 S116 830 952167 6392 0
0 0 0 855 953022 -12564 0
0 0 0 878 953900 -11686 0
0 0 0 881 954781 -10805 0
0 0 0 824 955605 -9981 0
0 0 0 872 956477 -9109 0
0 0 0 870 957347 -8239 0
0 0 0 800 958147 -7439 0
0 0 0 815 958962 -6624 0
0 0 0 773 959735 -5851 0
0 0 0 741 960476 -5110 0
0 0 0 764 961240 -4346 0
0 0 0 746 961986 -3600 0
0 0 0 795 962781 -2805 0
46 1 S102 861 963642 -1944 0
46 1 S102 877 964519 -1067 0
46 1 S102 833 965352 -234 0
46 2 S102 934 966286 700 0
46 2 S102 963 967249 1663 0
46 2 S102 922 968171 2585 0
46 2 S102 850 969021 3435 0
46 2 S102 850 969871 4285 0
46 2 S102 881 970752 5166 0
46 2 S102 941 971693 6107 0
0 0 0 991 972684 -9912 0
0 0 0 956 973640 -8956 0
0 0 0 1026 974666 -7930 0
0 0 0 1058 975724 -6872 0
0 0 0 964 976688 -5908 0
0 0 0 878 977566 -5030 0
0 0 0 918 978484 -4112 0
0 0 0 930 979414 -3182 0
0 0 0 907 980321 -2275 0
47 1 S112 879 981200 -1396 0
47 1 S112 966 982166 -430 0
47 2 S112 959 983125 529 0
47 2 S112 887 984012 1416 0
47 2 S112 970 984982 2386 0
47 2 S112 1012 985994 3398 0
47 2 S112 971 986965 4369 0
47 2 S112 1002 987967 5371 0
47 2 S112 1013 988980 6384 0
0 0 0 987 989967 -12258 0
0 0 0 964 990931 -11294 0
0 0 0 945 991876 -10349 0
0 0 0 880 992756 -9469 0
0 0 0 924 993680 -8545 0
0 0 0 932 994612 -7613 0
0 0 0 898 995510 -6715 0
0 0 0 925 996435 -5790 0
0 0 0 998 997433 -4792 0
0 0 0 981 998414 -3811 0
0 0 0 903 999317 -2908 0
48 1 S116 938 1000255 -1970 0
48 1 S116 941 1001196 -1029 0
48 1 S116 860 1002056 -169 0
48 2 S116 908 1002964 739 0
48 2 S116 921 1003885 1660 0
48 2 S116 879 1004764 2539 0
48 2 S116 893 1005657 3432 0
48 2 S116 974 1006631 4406 0
48 2 S116 1005 1007636 5411 0
48 2 S116 901 1008537 6312 0
0 0 0 935 1009472 -8171 0
0 0 0 975 1010447 -7196 0
0 0 0 939 1011386 -6257 0
0 0 0 841 1012227 -5416 0
0 0 0 863 1013090 -4553 0
0 0 0 904 1013994 -3649 0
0 0 0 942 1014936 -2707 0
49 1 S112 905 1015841 -1802 0
49 1 S112 895 1016736 -907 0
49 2 S112 908 1017644 1 0
49 2 S112 898 1018542 899 0
49 2 S112 857 1019399 1756 0
49 2 S112 914 1020313 2670 0
49 2 S112 923 1021236 3593 0
49 2 S112 880 1022116 4473 0
49 2 S112 950 1023066 5423 0
49 2 S112 974 1024040 6397 0
0 0 0 948 1024988 -11753 0
0 0 0 949 1025937 -10804 0
0 0 0 935 1026872 -9869 0
0 0 0 866 1027738 -9003 0
0 0 0 887 1028625 -8116 0
0 0 0 900 1029525 -7216 0
0 0 0 883 1030408 -6333 0
0 0 0 882 1031290 -5451 0
0 0 0 932 1032222 -4519 0
0 0 0 955 1033177 -3564 0
0 0 0 907 1034084 -2657 0
50 1 S106 969 1035053 -1688 0
50 1 S106 944 1035997 -744 0
50 2 S106 892 1036889 148 0
50 2 S106 931 1037820 1079 0
50 2 S106 930 1038750 2009 0
50 2 S106 894 1039644 2903 0
50 2 S106 853 1040497 3756 0
50 2 S106 924 1041421 4680 0
50 2 S106 976 1042397 5656 0
50 2 S106 924 1043321 6580 0
0 0 0 984 1044305 -7307 0
0 0 0 1004 1045309 -6303 0
0 0 0 959 1046268 -5344 0
0 0 0 931 1047199 -4413 0
0 0 0 939 1048138 -3474 0
0 0 0 907 1049045 -2567 0
51 1 S112 887 1049932 -1680 0
51 1 S112 914 1050846 -766 0
51 2 S112 886 1051732 120 0
51 2 S112 865 1052597 985 0
51 2 S112 969 1053566 1954 0
51 2 S112 997 1054563 2951 0
51 2 S112 938 1055501 3889 0
51 2 S112 955 1056456 4844 0
51 2 S112 999 1057455 5843 0
51 2 S112 994 1058449 6837 0
0 0 0 926 1059375 -7025 0
0 0 0 843 1060218 -6182 0
0 0 0 869 1061087 -5313 0
0 0 0 918 1062005 -4395 0
0 0 0 955 1062960 -3440 0
0 0 0 928 1063888 -2512 0
52 1 S116 986 1064874 -1526 0
52 1 S116 993 1065867 -533 0
52 2 S116 900 1066767 367 0
52 2 S116 872 1067639 1239 0
52 2 S116 894 1068533 2133 0
52 2 S116 899 1069432 3032 0
52 2 S116 850 1070282 3882 0
52 2 S116 845 1071127 4727 0
52 2 S116 912 1072039 5639 0
52 2 S116 994 1073033 6633 0
0 0 0 979 1074012 -8369 0
0 0 0 913 1074925 -7456 0
0 0 0 957 1075882 -6499 0
0 0 0 889 1076771 -5610 0
0 0 0 828 1077599 -4782 0
0 0 0 834 1078433 -3948 0
0 0 0 876 1079309 -3072 0
0 0 0 936 1080245 -2136 0
53 1 S106 914 1081159 -1222 0
53 1 S106 943 1082102 -279 0
53 2 S106 991 1083093 712 0
53 2 S106 962 1084055 1674 0
53 2 S106 910 1084965 2584 0
53 2 S106 972 1085937 3556 0
53 2 S106 963 1086900 4519 0
53 2 S106 910 1087810 5429 0
53 2 S106 886 1088696 6315 0
0 0 0 933 1089629 -7043 0
0 0 0 962 1090591 -6081 0
0 0 0 899 1091490 -5182 0
0 0 0 929 1092419 -4253 0
0 0 0 945 1093364 -3308 0
0 0 0 896 1094260 -2412 0
54 1 S102 852 1095112 -1560 0
54 1 S102 903 1096015 -657 0
54 2 S102 941 1096956 284 0
54 2 S102 954 1097910 1238 0
54 2 S102 961 1098871 2199 0
54 2 S102 899 1099770 3098 0
54 2 S102 884 1100654 3982 0
54 2 S102 943 1101597 4925 0
54 2 S102 974 1102571 5899 0
54 2 S102 936 1103507 6835 0
0 0 0 983 1104490 -11877 0
0 0 0 975 1105465 -10902 0
0 0 0 902 1106367 -10000 0
0 0 0 939 1107306 -9061 0
0 0 0 941 1108247 -8120 0
0 0 0 941 1109188 -7179 0
0 0 0 873 1110061 -6306 0
0 0 0 939 1111000 -5367 0
0 0 0 973 1111973 -4394 0
0 0 0 947 1112920 -3447 0
0 0 0 919 1113839 -2528 0
55 1 S106 954 1114793 -1574 0
55 1 S106 919 1115712 -655 0
55 2 S106 845 1116557 190 0
55 2 S106 860 1117417 1050 0
55 2 S106 908 1118325 1958 0
55 2 S106 963 1119288 2921 0
55 2 S106 942 1120230 3863 0
55 2 S106 935 1121165 4798 0
55 2 S106 986 1122151 5784 0
55 2 S106 966 1123117 6750 0
0 0 0 896 1124013 -7009 0
0 0 0 919 1124932 -6090 0
0 0 0 896 1125828 -5194 0
0 0 0 839 1126667 -4355 0
0 0 0 834 1127501 -3521 0
0 0 0 871 1128372 -2650 0
56 1 S116 835 1129207 -1815 0
56 1 S116 776 1129983 -1039 0
56 1 S116 788 1130771 -251 0
56 2 S116 858 1131629 607 0
56 2 S116 891 1132520 1498 0
56 2 S116 918 1133438 2416 0
56 2 S116 846 1134284 3262 0
56 2 S116 900 1135184 4162 0
56 2 S116 922 1136106 5084 0
56 2 S116 924 1137030 6008 0
56 2 S116 881 1137911 6889 0
0 0 0 913 1138824 -8528 0
0 0 0 924 1139748 -7604 0
0 0 0 908 1140656 -6696 0
0 0 0 929 1141585 -5767 0
0 0 0 989 1142574 -4778 0
0 0 0 960 1143534 -3818 0
0 0 0 916 1144450 -2902 0
57 1 S106 969 1145419 -1933 0
57 1 S106 953 1146372 -980 0
57 1 S106 888 1147260 -92 0
57 2 S106 929 1148189 837 0
57 2 S106 935 1149124 1772 0
57 2 S106 861 1149985 2633 0
57 2 S106 852 1150837 3485 0
57 2 S106 897 1151734 4382 0
57 2 S106 964 1152698 5346 0
57 2 S106 940 1153638 6286 0
0 0 0 954 1154592 -9919 0
0 0 0 997 1155589 -8922 0
0 0 0 923 1156512 -7999 0
0 0 0 890 1157402 -7109 0
0 0 0 893 1158295 -6216 0
0 0 0 842 1159137 -5374 0
0 0 0 809 1159946 -4565 0
0 0 0 864 1160810 -3701 0
0 0 0 892 1161702 -2809 0
58 1 S102 920 1162622 -1889 0
58 1 S102 902 1163524 -987 0
58 1 S102 976 1164500 -11 0
58 2 S102 964 1165464 953 0
58 2 S102 898 1166362 1851 0
58 2 S102 846 1167208 2697 0
58 2 S102 828 1168036 3525 0
58 2 S102 887 1168923 4412 0
58 2 S102 950 1169873 5362 0
58 2 S102 981 1170854 6343 0
0 0 0 965 1171819 -8010 0
0 0 0 934 1172753 -7076 0
0 0 0 949 1173702 -6127 0
0 0 0 931 1174633 -5196 0
0 0 0 861 1175494 -4335 0
0 0 0 893 1176387 -3442 0
0 0 0 898 1177285 -2544 0
59 1 S112 846 1178131 -1698 0
59 1 S112 857 1178988 -841 0
59 2 S112 919 1179907 78 0
59 2 S112 949 1180856 1027 0
59 2 S112 896 1181752 1923 0
59 2 S112 955 1182707 2878 0
59 2 S112 983 1183690 3861 0
59 2 S112 941 1184631 4802 0
59 2 S112 924 1185555 5726 0
59 2 S112 970 1186525 6696 0
0 0 0 982 1187507 -9497 0
0 0 0 976 1188483 -8521 0
0 0 0 875 1189358 -7646 0
0 0 0 881 1190239 -6765 0
0 0 0 927 1191166 -5838 0
0 0 0 1003 1192169 -4835 0
0 0 0 963 1193132 -3872 0
0 0 0 1034 1194166 -2838 0
60 1 S102 1040 1195206 -1798 0
60 1 S102 963 1196169 -835 0
60 2 S102 922 1197091 87 0
60 2 S102 936 1198027 1023 0
60 2 S102 906 1198933 1929 0
60 2 S102 868 1199801 2797 0
60 2 S102 942 1200743 3739 0
60 2 S102 979 1201722 4718 0
60 2 S102 939 1202661 5657 0
60 2 S102 1010 1203671 6667 0
0 0 0 1018 1204689 -10651 0
0 0 0 958 1205647 -9693 0
0 0 0 918 1206565 -8775 0
0 0 0 930 1207495 -7845 0
0 0 0 915 1208410 -6930 0
0 0 0 859 1209269 -6071 0
0 0 0 899 1210168 -5172 0
0 0 0 931 1211099 -4241 0
0 0 0 932 1212031 -3309 0
0 0 0 913 1212944 -2396 0
61 1 S106 991 1213935 -1405 0
61 1 S106 986 1214921 -419 0
61 2 S106 901 1215822 482 0
61 2 S106 934 1216756 1416 0
61 2 S106 952 1217708 2368 0
61 2 S106 910 1218618 3278 0
61 2 S106 936 1219554 4214 0
61 2 S106 975 1220529 5189 0
61 2 S106 941 1221470 6130 0
0 0 0 914 1222384 -8374 0
0 0 0 978 1223362 -7396 0
0 0 0 943 1224305 -6453 0
0 0 0 861 1225166 -5592 0
0 0 0 904 1226070 -4688 0
0 0 0 882 1226952 -3806 0
0 0 0 879 1227831 -2927 0
0 0 0 837 1228668 -2090 0
62 1 S112 924 1229592 -1166 0
62 1 S112 958 1230550 -208 0
62 2 S112 901 1231451 693 0
62 2 S112 971 1232422 1664 0
62 2 S112 1027 1233449 2691 0
62 2 S112 1004 1234453 3695 0
62 2 S112 929 1235382 4624 0
62 2 S112 990 1236372 5614 0
62 2 S112 988 1237360 6602 0
0 0 0 940 1238300 -11490 0
0 0 0 941 1239241 -10549 0
0 0 0 960 1240201 -9589 0
0 0 0 937 1241138 -8652 0
0 0 0 902 1242040 -7750 0
0 0 0 954 1242994 -6796 0
0 0 0 971 1243965 -5825 0
0 0 0 907 1244872 -4918 0
0 0 0 991 1245863 -3927 0
0 0 0 1007 1246870 -2920 0
63 1 S102 928 1247798 -1992 0
63 1 S102 960 1248758 -1032 0
63 1 S102 968 1249726 -64 0
63 2 S102 902 1250628 838 0
63 2 S102 953 1251581 1791 0
63 2 S102 959 1252540 2750 0
63 2 S102 964 1253504 3714 0
63 2 S102 902 1254406 4616 0
63 2 S102 951 1255357 5567 0
63 2 S102 1021 1256378 6588 0
0 0 0 1004 1257382 -9235 0
0 0 0 961 1258343 -8274 0
0 0 0 898 1259241 -7376 0
0 0 0 921 1260162 -6455 0
0 0 0 905 1261067 -5550 0
0 0 0 850 1261917 -4700 0
0 0 0 895 1262812 -3805 0
0 0 0 910 1263722 -2895 0
0 0 0 857 1264579 -2038 0
64 1 S112 887 1265466 -1151 0
64 1 S112 916 1266382 -235 0
64 2 S112 902 1267284 667 0
64 2 S112 910 1268194 1577 0
64 2 S112 954 1269148 2531 0
64 2 S112 965 1270113 3496 0
64 2 S112 888 1271001 4384 0
64 2 S112 927 1271928 5311 0
64 2 S112 959 1272887 6270 0
0 0 0 922 1273809 -7297 0
0 0 0 919 1274728 -6378 0
0 0 0 919 1275647 -5459 0
0 0 0 880 1276527 -4579 0
0 0 0 890 1277417 -3689 0
0 0 0 945 1278362 -2744 0
65 1 S106 963 1279325 -1781 0
65 1 S106 908 1280233 -873 0
65 2 S106 935 1281168 62 0
65 2 S106 962 1282130 1024 0
65 2 S106 918 1283048 1942 0
65 2 S106 859 1283907 2801 0
65 2 S106 882 1284789 3683 0
65 2 S106 916 1285705 4599 0
65 2 S106 939 1286644 5538 0
65 2 S106 884 1287528 6422 0
0 0 0 882 1288410 -8048 0
0 0 0 936 1289346 -7112 0
0 0 0 943 1290289 -6169 0
0 0 0 869 1291158 -5300 0
0 0 0 827 1291985 -4473 0
0 0 0 904 1292889 -3569 0
0 0 0 914 1293803 -2655 0
66 1 S116 923 1294726 -1732 0
66 1 S116 872 1295598 -860 0
66 2 S116 911 1296509 51 0
66 2 S116 933 1297442 984 0
66 2 S116 908 1298350 1892 0
66 2 S116 843 1299193 2735 0
66 2 S116 904 1300097 3639 0
66 2 S116 921 1301018 4560 0
66 2 S116 887 1301905 5447 0
66 2 S116 847 1302752 6294 0
0 0 0 886 1303638 -11338 0
0 0 0 886 1304524 -10452 0
0 0 0 835 1305359 -9617 0
0 0 0 875 1306234 -8742 0
0 0 0 873 1307107 -7869 0
0 0 0 847 1307954 -7022 0
0 0 0 846 1308800 -6176 0
0 0 0 887 1309687 -5289 0
0 0 0 910 1310597 -4379 0
0 0 0 863 1311460 -3516 0
0 0 0 928 1312388 -2588 0
67 1 S102 968 1313356 -1620 0
67 1 S102 936 1314292 -684 0
67 2 S102 920 1315212 236 0
67 2 S102 972 1316184 1208 0
67 2 S102 1003 1317187 2211 0
67 2 S102 927 1318114 3138 0
67 2 S102 997 1319111 4135 0
67 2 S102 991 1320102 5126 0
67 2 S102 954 1321056 6080 0
0 0 0 968 1322024 -7889 0
0 0 0 1004 1323028 -6885 0
0 0 0 940 1323968 -5945 0
0 0 0 874 1324842 -5071 0
0 0 0 919 1325761 -4152 0
0 0 0 932 1326693 -3220 0
0 0 0 890 1327583 -2330 0
68 1 S106 974 1328557 -1356 0
68 1 S106 964 1329521 -392 0
68 2 S106 892 1330413 500 0
68 2 S106 929 1331342 1429 0
68 2 S106 945 1332287 2374 0
68 2 S106 945 1333232 3319 0
68 2 S106 892 1334124 4211 0
68 2 S106 968 1335092 5179 0
68 2 S106 1002 1336094 6181 0
0 0 0 942 1337036 -12407 0
0 0 0 1037 1338073 -11370 0
0 0 0 970 1339043 -10400 0
0 0 0 871 1339914 -9529 0
0 0 0 795 1340709 -8734 0
0 0 0 760 1341469 -7974 0
0 0 0 778 1342247 -7196 0
0 0 0 867 1343114 -6329 0
0 0 0 971 1344085 -5358 0
0 0 0 1053 1345138 -4305 0
0 0 0 1198 1346336 -3107 1
0 0 0 1077 1347413 -2030 1
69 1 S102 995 1348408 -1035 0
69 1 S102 1013 1349421 -22 0
69 2 S102 989 1350410 967 0
69 2 S102 936 1351346 1903 0
69 2 S102 858 1352204 2761 0
69 2 S102 889 1353093 3650 0
69 2 S102 897 1353990 4547 0
69 2 S102 909 1354899 5456 0
69 2 S102 881 1355780 6337 0
0 0 0 931 1356711 -9841 0
0 0 0 939 1357650 -8902 0
0 0 0 903 1358553 -7999 0
0 0 0 924 1359477 -7075 0
0 0 0 893 1360370 -6182 0
0 0 0 858 1361228 -5324 0
0 0 0 866 1362094 -4458 0
0 0 0 924 1363018 -3534 0
0 0 0 952 1363970 -2582 0
70 1 S112 914 1364884 -1668 0
70 1 S112 1000 1365884 -668 0
70 2 S112 998 1366882 330 0
70 2 S112 941 1367823 1271 0
70 2 S112 983 1368806 2254 0
70 2 S112 1003 1369809 3257 0
70 2 S112 911 1370720 4168 0
70 2 S112 858 1371578 5026 0
70 2 S112 890 1372468 5916 0
70 2 S112 932 1373400 6848 0
0 0 0 958 1374358 -11524 0
0 0 0 892 1375250 -10632 0
0 0 0 975 1376225 -9657 0
0 0 0 976 1377201 -8681 0
0 0 0 883 1378084 -7798 0
0 0 0 931 1379015 -6867 0
0 0 0 936 1379951 -5931 0
0 0 0 892 1380843 -5039 0
0 0 0 901 1381744 -4138 0
0 0 0 883 1382627 -3255 0
0 0 0 859 1383486 -2396 0
71 1 S116 859 1384345 -1537 0
71 1 S116 906 1385251 -631 0
71 2 S116 952 1386203 321 0
71 2 S116 918 1387121 1239 0
71 2 S116 1001 1388122 2240 0
71 2 S116 992 1389114 3232 0
71 2 S116 893 1390007 4125 0
71 2 S116 890 1390897 5015 0
71 2 S116 926 1391823 5941 0
71 2 S116 921 1392744 6862 0
0 0 0 850 1393594 -9728 0
0 0 0 868 1394462 -8860 0
0 0 0 840 1395302 -8020 0
0 0 0 852 1396154 -7168 0
0 0 0 839 1396993 -6329 0
0 0 0 821 1397814 -5508 0
0 0 0 785 1398599 -4723 0
0 0 0 781 1399380 -3942 0
0 0 0 788 1400168 -3154 0
0 0 0 766 1400934 -2388 0
72 1 S102 812 1401746 -1576 0
72 1 S102 841 1402587 -735 0
72 2 S102 849 1403436 114 0
72 2 S102 843 1404279 957 0
72 2 S102 896 1405175 1853 0
72 2 S102 918 1406093 2771 0
72 2 S102 861 1406954 3632 0
72 2 S102 813 1407767 4445 0
72 2 S102 900 1408667 5345 0
72 2 S102 935 1409602 6280 0
0 0 0 914 1410516 -7860 0
0 0 0 900 1411416 -6960 0
0 0 0 944 1412360 -6016 0
0 0 0 928 1413288 -5088 0
0 0 0 907 1414195 -4181 0
0 0 0 933 1415128 -3248 0
0 0 0 877 1416005 -2371 0
73 1 S116 863 1416868 -1508 0
73 1 S116 905 1417773 -603 0
73 2 S116 904 1418677 301 0
73 2 S116 848 1419525 1149 0
73 2 S116 940 1420465 2089 0
73 2 S116 947 1421412 3036 0
73 2 S116 856 1422268 3892 0
73 2 S116 895 1423163 4787 0
73 2 S116 907 1424070 5694 0
73 2 S116 891 1424961 6585 0
0 0 0 815 1425776 -8946 0
0 0 0 867 1426643 -8079 0
0 0 0 878 1427521 -7201 0
0 0 0 871 1428392 -6330 0
0 0 0 808 1429200 -5522 0
0 0 0 864 1430064 -4658 0
0 0 0 889 1430953 -3769 0
0 0 0 888 1431841 -2881 0
0 0 0 857 1432698 -2024 0
74 1 S106 927 1433625 -1097 0
74 1 S106 920 1434545 -177 0
74 2 S106 849 1435394 672 0
74 2 S106 906 1436300 1578 0
74 2 S106 906 1437206 2484 0
74 2 S106 878 1438084 3362 0
74 2 S106 915 1438999 4277 0
74 2 S106 889 1439888 5166 0
74 2 S106 857 1440745 6023 0
74 2 S106 874 1441619 6897 0
0 0 0 914 1442533 -7093 0
0 0 0 903 1443436 -6190 0
0 0 0 913 1444349 -5277 0
0 0 0 925 1445274 -4352 0
0 0 0 872 1446146 -3480 0
0 0 0 915 1447061 -2565 0
75 1 S112 925 1447986 -1640 0
75 1 S112 876 1448862 -764 0
75 2 S112 925 1449787 161 0
75 2 S112 951 1450738 1112 0
75 2 S112 878 1451616 1990 0
75 2 S112 927 1452543 2917 0
75 2 S112 948 1453491 3865 0
75 2 S112 960 1454451 4825 0
75 2 S112 912 1455363 5737 0
75 2 S112 943 1456306 6680 0
0 0 0 989 1457295 -7367 0
0 0 0 944 1458239 -6423 0
0 0 0 858 1459097 -5565 0
0 0 0 910 1460007 -4655 0
0 0 0 882 1460889 -3773 0
0 0 0 856 1461745 -2917 0
0 0 0 883 1462628 -2034 0
76 1 S116 933 1463561 -1101 0
76 1 S116 960 1464521 -141 0
76 2 S116 889 1465410 748 0
76 2 S116 960 1466370 1708 0
76 2 S116 988 1467358 2696 0
76 2 S116 956 1468314 3652 0
76 2 S116 878 1469192 4530 0
76 2 S116 941 1470133 5471 0
76 2 S116 963 1471096 6434 0
0 0 0 961 1472057 -7443 0
0 0 0 893 1472950 -6550 0
0 0 0 956 1473906 -5594 0
0 0 0 969 1474875 -4625 0
0 0 0 883 1475758 -3742 0
0 0 0 897 1476655 -2845 0
77 1 S106 944 1477599 -1901 0
77 1 S106 945 1478544 -956 0
77 1 S106 900 1479444 -56 0
77 2 S106 988 1480432 932 0
77 2 S106 985 1481417 1917 0
77 2 S106 943 1482360 2860 0
77 2 S106 908 1483268 3768 0
77 2 S106 953 1484221 4721 0
77 2 S106 973 1485194 5694 0
77 2 S106 909 1486103 6603 0
0 0 0 929 1487032 -9577 0
0 0 0 948 1487980 -8629 0
0 0 0 926 1488906 -7703 0
0 0 0 861 1489767 -6842 0
0 0 0 797 1490564 -6045 0
0 0 0 844 1491408 -5201 0
0 0 0 878 1492286 -4323 0
0 0 0 955 1493241 -3368 0
0 0 0 890 1494131 -2478 0
78 1 S112 950 1495081 -1528 0
78 1 S112 927 1496008 -601 0
78 2 S112 869 1496877 268 0
78 2 S112 892 1497769 1160 0
78 2 S112 889 1498658 2049 0
78 2 S112 814 1499472 2863 0
78 2 S112 822 1500294 3685 0
78 2 S112 845 1501139 4530 0
78 2 S112 883 1502022 5413 0
78 2 S112 846 1502868 6259 0
0 0 0 908 1503776 -11915 0
0 0 0 924 1504700 -10991 0
0 0 0 878 1505578 -10113 0
0 0 0 906 1506484 -9207 0
0 0 0 908 1507392 -8299 0
0 0 0 875 1508267 -7424 0
0 0 0 910 1509177 -6514 0
0 0 0 927 1510104 -5587 0
0 0 0 896 1511000 -4691 0
0 0 0 869 1511869 -3822 0
0 0 0 936 1512805 -2886 0
79 1 S102 953 1513758 -1933 0
79 1 S102 895 1514653 -1038 0
79 1 S102 959 1515612 -79 0
79 2 S102 943 1516555 864 0
79 2 S102 870 1517425 1734 0
79 2 S102 903 1518328 2637 0
79 2 S102 925 1519253 3562 0
79 2 S102 938 1520191 4500 0
79 2 S102 877 1521068 5377 0
79 2 S102 881 1521949 6258 0
0 0 0 970 1522919 -10312 0
0 0 0 1040 1523959 -9272 0
0 0 0 979 1524938 -8293 0
0 0 0 872 1525810 -7421 0
0 0 0 930 1526740 -6491 0
0 0 0 890 1527630 -5601 0
0 0 0 840 1528470 -4761 0
0 0 0 827 1529297 -3934 0
0 0 0 899 1530196 -3035 0
0 0 0 916 1531112 -2119 0
80 1 S116 845 1531957 -1274 0
80 1 S116 937 1532894 -337 0
80 2 S116 961 1533855 624 0
80 2 S116 893 1534748 1517 0
80 2 S116 956 1535704 2473 0
80 2 S116 962 1536666 3435 0
80 2 S116 890 1537556 4325 0
80 2 S116 881 1538437 5206 0
80 2 S116 930 1539367 6136 0
