T_0116
BeatCount Mean SD BeatCountNoOutliers MeanNoOutliers SDNoOutliers
2155 753,152204176334 44,1061966363282 2112 754,651988636364 40,7565117225451

Trial TrialStatus Trialtype IBI AbsPosition RelPosition Outlier
0 0 0 778 906 -16265 0
0 0 0 802 1708 -15463 0
0 0 0 796 2504 -14667 0
0 0 0 829 3333 -13838 0
0 0 0 839 4172 -12999 0
0 0 0 833 5005 -12166 0
0 0 0 776 5781 -11390 0
0 0 0 769 6550 -10621 0
0 0 0 769 7319 -9852 0
0 0 0 781 8100 -9071 0
0 0 0 755 8855 -8316 0
0 0 0 737 9592 -7579 0
0 0 0 740 10332 -6839 0
0 0 0 749 11081 -6090 0
0 0 0 764 11845 -5326 0
0 0 0 757 12602 -4569 0
0 0 0 738 13340 -3831 0
0 0 0 769 14109 -3062 0
0 0 0 781 14890 -2281 0
1 1 S112 792 15682 -1489 0
1 1 S112 787 16469 -702 0
1 2 S112 741 17210 39 0
1 2 S112 728 17938 767 0
1 2 S112 728 18666 1495 0
1 2 S112 726 19392 2221 0
1 2 S112 725 20117 2946 0
1 2 S112 742 20859 3688 0
1 2 S112 779 21638 4467 0
1 2 S112 812 22450 5279 0
1 2 S112 843 23293 6122 0
1 2 S112 844 24137 6966 0
0 0 0 825 24962 -11639 0
0 0 0 799 25761 -10840 0
0 0 0 780 26541 -10060 0
0 0 0 760 27301 -9300 0
0 0 0 724 28025 -8576 0
0 0 0 708 28733 -7868 0
0 0 0 716 29449 -7152 0
0 0 0 727 30176 -6425 0
0 0 0 750 30926 -5675 0
0 0 0 742 31668 -4933 0
0 0 0 763 32431 -4170 0
0 0 0 782 33213 -3388 0
0 0 0 800 34013 -2588 0
2 1 S102 787 34800 -1801 0
2 1 S102 743 35543 -1058 0
2 1 S102 754 36297 -304 0
2 2 S102 744 37041 440 0
2 2 S102 756 37797 1196 0
2 2 S102 739 38536 1935 0
2 2 S102 698 39234 2633 0
2 2 S102 711 39945 3344 0
2 2 S102 747 40692 4091 0
2 2 S102 811 41503 4902 0
2 2 S102 842 42345 5744 0
2 2 S102 835 43180 6579 0
0 0 0 813 43993 -10015 0
0 0 0 825 44818 -9190 0
0 0 0 817 45635 -8373 0
0 0 0 780 46415 -7593 0
0 0 0 754 47169 -6839 0
0 0 0 730 47899 -6109 0
0 0 0 720 48619 -5389 0
0 0 0 707 49326 -4682 0
0 0 0 698 50024 -3984 0
0 0 0 719 50743 -3265 0
0 0 0 748 51491 -2517 0
3 1 S116 804 52295 -1713 0
3 1 S116 824 53119 -889 0
3 1 S116 768 53887 -121 0
3 2 S116 763 54650 642 0
3 2 S116 757 55407 1399 0
3 2 S116 749 56156 2148 0
3 2 S116 755 56911 2903 0
3 2 S116 770 57681 3673 0
3 2 S116 815 58496 4488 0
3 2 S116 837 59333 5325 0
3 2 S116 861 60194 6186 0
0 0 0 844 61038 -12616 0
0 0 0 811 61849 -11805 0
0 0 0 808 62657 -10997 0
0 0 0 796 63453 -10201 0
0 0 0 783 64236 -9418 0
0 0 0 738 64974 -8680 0
0 0 0 726 65700 -7954 0
0 0 0 729 66429 -7225 0
0 0 0 745 67174 -6480 0
0 0 0 740 67914 -5740 0
0 0 0 738 68652 -5002 0
0 0 0 760 69412 -4242 0
0 0 0 768 70180 -3474 0
0 0 0 769 70949 -2705 0
4 1 S106 736 71685 -1969 0
4 1 S106 728 72413 -1241 0
4 1 S106 737 73150 -504 0
4 2 S106 741 73891 237 0
4 2 S106 750 74641 987 0
4 2 S106 733 75374 1720 0
4 2 S106 702 76076 2422 0
4 2 S106 715 76791 3137 0
4 2 S106 746 77537 3883 0
4 2 S106 790 78327 4673 0
4 2 S106 820 79147 5493 0
4 2 S106 806 79953 6299 0
0 0 0 828 80781 -8191 0
0 0 0 841 81622 -7350 0
0 0 0 832 82454 -6518 0
0 0 0 789 83243 -5729 0
0 0 0 774 84017 -4955 0
0 0 0 771 84788 -4184 0
0 0 0 762 85550 -3422 0
0 0 0 753 86303 -2669 0
5 1 S116 729 87032 -1940 0
5 1 S116 755 87787 -1185 0
5 1 S116 768 88555 -417 0
5 2 S116 791 89346 374 0
5 2 S116 774 90120 1148 0
5 2 S116 746 90866 1894 0
5 2 S116 744 91610 2638 0
5 2 S116 752 92362 3390 0
5 2 S116 783 93145 4173 0
5 2 S116 804 93949 4977 0
5 2 S116 792 94741 5769 0
5 2 S116 804 95545 6573 0
0 0 0 820 96365 -10727 0
0 0 0 829 97194 -9898 0
0 0 0 814 98008 -9084 0
0 0 0 803 98811 -8281 0
0 0 0 803 99614 -7478 0
0 0 0 813 100427 -6665 0
0 0 0 799 101226 -5866 0
0 0 0 770 101996 -5096 0
0 0 0 764 102760 -4332 0
0 0 0 757 103517 -3575 0
0 0 0 766 104283 -2809 0
0 0 0 775 105058 -2034 0
6 1 S106 751 105809 -1283 0
6 1 S106 775 106584 -508 0
6 2 S106 801 107385 293 0
6 2 S106 844 108229 1137 0
6 2 S106 868 109097 2005 1
6 2 S106 859 109956 2864 0
6 2 S106 834 110790 3698 0
6 2 S106 829 111619 4527 0
6 2 S106 824 112443 5351 0
6 2 S106 832 113275 6183 0
6 2 S106 826 114101 7009 0
0 0 0 821 114922 -12562 0
0 0 0 790 115712 -11772 0
0 0 0 784 116496 -10988 0
0 0 0 796 117292 -10192 0
0 0 0 808 118100 -9384 0
0 0 0 794 118894 -8590 0
0 0 0 783 119677 -7807 0
0 0 0 782 120459 -7025 0
0 0 0 789 121248 -6236 0
0 0 0 787 122035 -5449 0
0 0 0 755 122790 -4694 0
0 0 0 757 123547 -3937 0
0 0 0 776 124323 -3161 0
0 0 0 797 125120 -2364 0
7 1 S102 801 125921 -1563 0
7 1 S102 793 126714 -770 0
7 1 S102 759 127473 -11 0
7 2 S102 765 128238 754 0
7 2 S102 789 129027 1543 0
7 2 S102 808 129835 2351 0
7 2 S102 807 130642 3158 0
7 2 S102 793 131435 3951 0
7 2 S102 786 132221 4737 0
7 2 S102 802 133023 5539 0
7 2 S102 826 133849 6365 0
0 0 0 843 134692 -9387 0
0 0 0 826 135518 -8561 0
0 0 0 802 136320 -7759 0
0 0 0 807 137127 -6952 0
0 0 0 812 137939 -6140 0
0 0 0 836 138775 -5304 0
0 0 0 818 139593 -4486 0
0 0 0 826 140419 -3660 0
0 0 0 849 141268 -2811 0
8 1 S112 848 142116 -1963 0
8 1 S112 828 142944 -1135 0
8 1 S112 792 143736 -343 0
8 2 S112 796 144532 453 0
8 2 S112 805 145337 1258 0
8 2 S112 807 146144 2065 0
8 2 S112 801 146945 2866 0
8 2 S112 787 147732 3653 0
8 2 S112 788 148520 4441 0
8 2 S112 806 149326 5247 0
8 2 S112 820 150146 6067 0
8 2 S112 834 150980 6901 0
0 0 0 835 151815 -7350 0
0 0 0 820 152635 -6530 0
0 0 0 782 153417 -5748 0
0 0 0 780 154197 -4968 0
0 0 0 766 154963 -4202 0
0 0 0 768 155731 -3434 0
0 0 0 782 156513 -2652 0
9 1 S116 753 157266 -1899 0
9 1 S116 782 158048 -1117 0
9 1 S116 809 158857 -308 0
9 2 S116 828 159685 520 0
9 2 S116 832 160517 1352 0
9 2 S116 805 161322 2157 0
9 2 S116 778 162100 2935 0
9 2 S116 783 162883 3718 0
9 2 S116 793 163676 4511 0
9 2 S116 801 164477 5312 0
9 2 S116 803 165280 6115 0
9 2 S116 796 166076 6911 0
0 0 0 796 166872 -12900 0
0 0 0 799 167671 -12101 0
0 0 0 789 168460 -11312 0
0 0 0 770 169230 -10542 0
0 0 0 752 169982 -9790 0
0 0 0 781 170763 -9009 0
0 0 0 765 171528 -8244 0
0 0 0 770 172298 -7474 0
0 0 0 749 173047 -6725 0
0 0 0 732 173779 -5993 0
0 0 0 746 174525 -5247 0
0 0 0 765 175290 -4482 0
0 0 0 771 176061 -3711 0
0 0 0 771 176832 -2940 0
0 0 0 752 177584 -2188 0
10 1 S102 746 178330 -1442 0
10 1 S102 739 179069 -703 0
10 2 S102 757 179826 54 0
10 2 S102 763 180589 817 0
10 2 S102 753 181342 1570 0
10 2 S102 759 182101 2329 0
10 2 S102 772 182873 3101 0
10 2 S102 791 183664 3892 0
10 2 S102 812 184476 4704 0
10 2 S102 800 185276 5504 0
10 2 S102 784 186060 6288 0
0 0 0 791 186851 -13362 0
0 0 0 795 187646 -12567 0
0 0 0 784 188430 -11783 0
0 0 0 754 189184 -11029 0
0 0 0 751 189935 -10278 0
0 0 0 774 190709 -9504 0
0 0 0 792 191501 -8712 0
0 0 0 778 192279 -7934 0
0 0 0 744 193023 -7190 0
0 0 0 748 193771 -6442 0
0 0 0 714 194485 -5728 0
0 0 0 679 195164 -5049 0
0 0 0 652 195816 -4397 0
0 0 0 638 196454 -3759 1
0 0 0 619 197073 -3140 1
0 0 0 584 197657 -2556 1
11 1 S112 584 198241 -1972 1
11 1 S112 616 198857 -1356 1
11 1 S112 639 199496 -717 1
11 1 S112 671 200167 -46 0
11 2 S112 717 200884 671 0
11 2 S112 727 201611 1398 0
11 2 S112 697 202308 2095 0
11 2 S112 671 202979 2766 0
11 2 S112 674 203653 3440 0
11 2 S112 682 204335 4122 0
11 2 S112 698 205033 4820 0
11 2 S112 707 205740 5527 0
11 2 S112 728 206468 6255 0
11 2 S112 719 207187 6974 0
0 0 0 713 207900 -8245 0
0 0 0 703 208603 -7542 0
0 0 0 698 209301 -6844 0
0 0 0 688 209989 -6156 0
0 0 0 685 210674 -5471 0
0 0 0 695 211369 -4776 0
0 0 0 691 212060 -4085 0
0 0 0 693 212753 -3392 0
0 0 0 705 213458 -2687 0
12 1 S116 701 214159 -1986 0
12 1 S116 710 214869 -1276 0
12 1 S116 710 215579 -566 0
12 2 S116 722 216301 156 0
12 2 S116 726 217027 882 0
12 2 S116 714 217741 1596 0
12 2 S116 724 218465 2320 0
12 2 S116 722 219187 3042 0
12 2 S116 726 219913 3768 0
12 2 S116 740 220653 4508 0
12 2 S116 742 221395 5250 0
12 2 S116 725 222120 5975 0
12 2 S116 747 222867 6722 0
0 0 0 748 223615 -12838 0
0 0 0 754 224369 -12084 0
0 0 0 738 225107 -11346 0
0 0 0 730 225837 -10616 0
0 0 0 741 226578 -9875 0
0 0 0 761 227339 -9114 0
0 0 0 751 228090 -8363 0
0 0 0 726 228816 -7637 0
0 0 0 734 229550 -6903 0
0 0 0 739 230289 -6164 0
0 0 0 747 231036 -5417 0
0 0 0 718 231754 -4699 0
0 0 0 717 232471 -3982 0
0 0 0 725 233196 -3257 0
0 0 0 732 233928 -2525 0
13 1 S112 738 234666 -1787 0
13 1 S112 710 235376 -1077 0
13 1 S112 712 236088 -365 0
13 2 S112 716 236804 351 0
13 2 S112 719 237523 1070 0
13 2 S112 737 238260 1807 0
13 2 S112 752 239012 2559 0
13 2 S112 740 239752 3299 0
13 2 S112 743 240495 4042 0
13 2 S112 746 241241 4788 0
13 2 S112 756 241997 5544 0
13 2 S112 770 242767 6314 0
0 0 0 754 243521 -13539 0
0 0 0 741 244262 -12798 0
0 0 0 756 245018 -12042 0
0 0 0 759 245777 -11283 0
0 0 0 757 246534 -10526 0
0 0 0 733 247267 -9793 0
0 0 0 743 248010 -9050 0
0 0 0 752 248762 -8298 0
0 0 0 761 249523 -7537 0
0 0 0 778 250301 -6759 0
0 0 0 774 251075 -5985 0
0 0 0 770 251845 -5215 0
0 0 0 769 252614 -4446 0
0 0 0 778 253392 -3668 0
0 0 0 771 254163 -2897 0
0 0 0 753 254916 -2144 0
14 1 S106 743 255659 -1401 0
14 1 S106 749 256408 -652 0
14 2 S106 757 257165 105 0
14 2 S106 768 257933 873 0
14 2 S106 781 258714 1654 0
14 2 S106 775 259489 2429 0
14 2 S106 788 260277 3217 0
14 2 S106 801 261078 4018 0
14 2 S106 800 261878 4818 0
14 2 S106 779 262657 5597 0
14 2 S106 758 263415 6355 0
0 0 0 766 264181 -12972 0
0 0 0 777 264958 -12195 0
0 0 0 760 265718 -11435 0
0 0 0 725 266443 -10710 0
0 0 0 734 267177 -9976 0
0 0 0 744 267921 -9232 0
0 0 0 728 268649 -8504 0
0 0 0 713 269362 -7791 0
0 0 0 701 270063 -7090 0
0 0 0 718 270781 -6372 0
0 0 0 721 271502 -5651 0
0 0 0 725 272227 -4926 0
0 0 0 705 272932 -4221 0
0 0 0 691 273623 -3530 0
0 0 0 704 274327 -2826 0
0 0 0 709 275036 -2117 0
15 1 S116 709 275745 -1408 0
15 1 S116 700 276445 -708 0
15 1 S116 689 277134 -19 0
15 2 S116 695 277829 676 0
15 2 S116 691 278520 1367 0
15 2 S116 704 279224 2071 0
15 2 S116 716 279940 2787 0
15 2 S116 720 280660 3507 0
15 2 S116 723 281383 4230 0
15 2 S116 734 282117 4964 0
15 2 S116 747 282864 5711 0
15 2 S116 767 283631 6478 0
0 0 0 767 284398 -11008 0
0 0 0 738 285136 -10270 0
0 0 0 741 285877 -9529 0
0 0 0 731 286608 -8798 0
0 0 0 715 287323 -8083 0
0 0 0 715 288038 -7368 0
0 0 0 733 288771 -6635 0
0 0 0 740 289511 -5895 0
0 0 0 752 290263 -5143 0
0 0 0 735 290998 -4408 0
0 0 0 736 291734 -3672 0
0 0 0 729 292463 -2943 0
0 0 0 727 293190 -2216 0
16 1 S116 716 293906 -1500 0
16 1 S116 703 294609 -797 0
16 1 S116 714 295323 -83 0
16 2 S116 713 296036 630 0
16 2 S116 733 296769 1363 0
16 2 S116 748 297517 2111 0
16 2 S116 736 298253 2847 0
16 2 S116 700 298953 3547 0
16 2 S116 717 299670 4264 0
16 2 S116 712 300382 4976 0
16 2 S116 731 301113 5707 0
16 2 S116 745 301858 6452 0
0 0 0 749 302607 -11201 0
0 0 0 776 303383 -10425 0
0 0 0 771 304154 -9654 0
0 0 0 758 304912 -8896 0
0 0 0 726 305638 -8170 0
0 0 0 725 306363 -7445 0
0 0 0 729 307092 -6716 0
0 0 0 710 307802 -6006 0
0 0 0 714 308516 -5292 0
0 0 0 702 309218 -4590 0
0 0 0 715 309933 -3875 0
0 0 0 720 310653 -3155 0
0 0 0 745 311398 -2410 0
17 1 S106 766 312164 -1644 0
17 1 S106 764 312928 -880 0
17 1 S106 764 313692 -116 0
17 2 S106 759 314451 643 0
17 2 S106 751 315202 1394 0
17 2 S106 744 315946 2138 0
17 2 S106 726 316672 2864 0
17 2 S106 711 317383 3575 0
17 2 S106 721 318104 4296 0
17 2 S106 726 318830 5022 0
17 2 S106 756 319586 5778 0
17 2 S106 779 320365 6557 0
0 0 0 776 321141 -12827 0
0 0 0 749 321890 -12078 0
0 0 0 755 322645 -11323 0
0 0 0 753 323398 -10570 0
0 0 0 756 324154 -9814 0
0 0 0 757 324911 -9057 0
0 0 0 736 325647 -8321 0
0 0 0 728 326375 -7593 0
0 0 0 719 327094 -6874 0
0 0 0 708 327802 -6166 0
0 0 0 688 328490 -5478 0
0 0 0 707 329197 -4771 0
0 0 0 708 329905 -4063 0
0 0 0 716 330621 -3347 0
0 0 0 723 331344 -2624 0
18 1 S102 718 332062 -1906 0
18 1 S102 734 332796 -1172 0
18 1 S102 743 333539 -429 0
18 2 S102 761 334300 332 0
18 2 S102 760 335060 1092 0
18 2 S102 752 335812 1844 0
18 2 S102 736 336548 2580 0
18 2 S102 741 337289 3321 0
18 2 S102 750 338039 4071 0
18 2 S102 775 338814 4846 0
18 2 S102 761 339575 5607 0
18 2 S102 723 340298 6330 0
0 0 0 729 341027 -9536 0
0 0 0 740 341767 -8796 0
0 0 0 740 342507 -8056 0
0 0 0 740 343247 -7316 0
0 0 0 720 343967 -6596 0
0 0 0 746 344713 -5850 0
0 0 0 774 345487 -5076 0
0 0 0 767 346254 -4309 0
0 0 0 740 346994 -3569 0
0 0 0 714 347708 -2855 0
0 0 0 707 348415 -2148 0
19 1 S106 727 349142 -1421 0
19 1 S106 742 349884 -679 0
19 2 S106 750 350634 71 0
19 2 S106 756 351390 827 0
19 2 S106 756 352146 1583 0
19 2 S106 738 352884 2321 0
19 2 S106 731 353615 3052 0
19 2 S106 736 354351 3788 0
19 2 S106 741 355092 4529 0
19 2 S106 761 355853 5290 0
19 2 S106 775 356628 6065 0
19 2 S106 774 357402 6839 0
0 0 0 758 358160 -12695 0
0 0 0 760 358920 -11935 0
0 0 0 751 359671 -11184 0
0 0 0 739 360410 -10445 0
0 0 0 735 361145 -9710 0
0 0 0 766 361911 -8944 0
0 0 0 736 362647 -8208 0
0 0 0 722 363369 -7486 0
0 0 0 691 364060 -6795 0
0 0 0 668 364728 -6127 0
0 0 0 637 365365 -5490 1
0 0 0 627 365992 -4863 1
0 0 0 629 366621 -4234 1
0 0 0 628 367249 -3606 1
0 0 0 636 367885 -2970 1
0 0 0 661 368546 -2309 0
20 1 S112 685 369231 -1624 0
20 1 S112 690 369921 -934 0
20 1 S112 700 370621 -234 0
20 2 S112 691 371312 457 0
20 2 S112 688 372000 1145 0
20 2 S112 685 372685 1830 0
20 2 S112 675 373360 2505 0
20 2 S112 681 374041 3186 0
20 2 S112 692 374733 3878 0
20 2 S112 692 375425 4570 0
20 2 S112 682 376107 5252 0
20 2 S112 680 376787 5932 0
20 2 S112 692 377479 6624 0
0 0 0 698 378177 -10300 0
0 0 0 705 378882 -9595 0
0 0 0 675 379557 -8920 0
0 0 0 666 380223 -8254 0
0 0 0 686 380909 -7568 0
0 0 0 704 381613 -6864 0
0 0 0 706 382319 -6158 0
0 0 0 706 383025 -5452 0
0 0 0 693 383718 -4759 0
0 0 0 698 384416 -4061 0
0 0 0 693 385109 -3368 0
0 0 0 690 385799 -2678 0
21 1 S106 678 386477 -2000 0
21 1 S106 663 387140 -1337 0
21 1 S106 674 387814 -663 0
21 2 S106 677 388491 14 0
21 2 S106 687 389178 701 0
21 2 S106 697 389875 1398 0
21 2 S106 697 390572 2095 0
21 2 S106 687 391259 2782 0
21 2 S106 705 391964 3487 0
21 2 S106 722 392686 4209 0
21 2 S106 733 393419 4942 0
21 2 S106 722 394141 5664 0
21 2 S106 696 394837 6360 0
0 0 0 713 395550 -12838 0
0 0 0 712 396262 -12126 0
0 0 0 712 396974 -11414 0
0 0 0 712 397686 -10702 0
0 0 0 701 398387 -10001 0
0 0 0 722 399109 -9279 0
0 0 0 713 399822 -8566 0
0 0 0 710 400532 -7856 0
0 0 0 692 401224 -7164 0
0 0 0 676 401900 -6488 0
0 0 0 698 402598 -5790 0
0 0 0 702 403300 -5088 0
0 0 0 719 404019 -4369 0
0 0 0 730 404749 -3639 0
0 0 0 720 405469 -2919 0
0 0 0 732 406201 -2187 0
22 1 S116 751 406952 -1436 0
22 1 S116 760 407712 -676 0
22 2 S116 755 408467 79 0
22 2 S116 725 409192 804 0
22 2 S116 724 409916 1528 0
22 2 S116 739 410655 2267 0
22 2 S116 750 411405 3017 0
22 2 S116 771 412176 3788 0
22 2 S116 762 412938 4550 0
22 2 S116 764 413702 5314 0
22 2 S116 787 414489 6101 0
22 2 S116 810 415299 6911 0
0 0 0 818 416117 -9314 0
0 0 0 772 416889 -8542 0
0 0 0 736 417625 -7806 0
0 0 0 733 418358 -7073 0
0 0 0 733 419091 -6340 0
0 0 0 747 419838 -5593 0
0 0 0 746 420584 -4847 0
0 0 0 779 421363 -4068 0
0 0 0 817 422180 -3251 0
0 0 0 858 423038 -2393 0
23 1 S112 866 423904 -1527 0
23 1 S112 852 424756 -675 0
23 2 S112 854 425610 179 0
23 2 S112 839 426449 1018 0
23 2 S112 789 427238 1807 0
23 2 S112 755 427993 2562 0
23 2 S112 750 428743 3312 0
23 2 S112 789 429532 4101 0
23 2 S112 841 430373 4942 0
23 2 S112 857 431230 5799 0
23 2 S112 857 432087 6656 0
0 0 0 877 432964 -10438 1
0 0 0 863 433827 -9575 0
0 0 0 826 434653 -8749 0
0 0 0 788 435441 -7961 0
0 0 0 789 436230 -7172 0
0 0 0 778 437008 -6394 0
0 0 0 775 437783 -5619 0
0 0 0 770 438553 -4849 0
0 0 0 763 439316 -4086 0
0 0 0 774 440090 -3312 0
0 0 0 796 440886 -2516 0
24 1 S106 799 441685 -1717 0
24 1 S106 774 442459 -943 0
24 1 S106 756 443215 -187 0
24 2 S106 764 443979 577 0
24 2 S106 780 444759 1357 0
24 2 S106 802 445561 2159 0
24 2 S106 793 446354 2952 0
24 2 S106 782 447136 3734 0
24 2 S106 791 447927 4525 0
24 2 S106 800 448727 5325 0
24 2 S106 796 449523 6121 0
24 2 S106 783 450306 6904 0
0 0 0 764 451070 -10120 0
0 0 0 779 451849 -9341 0
0 0 0 773 452622 -8568 0
0 0 0 765 453387 -7803 0
0 0 0 778 454165 -7025 0
0 0 0 767 454932 -6258 0
0 0 0 777 455709 -5481 0
0 0 0 747 456456 -4734 0
0 0 0 720 457176 -4014 0
0 0 0 720 457896 -3294 0
0 0 0 717 458613 -2577 0
25 1 S102 716 459329 -1861 0
25 1 S102 708 460037 -1153 0
25 1 S102 705 460742 -448 0
25 2 S102 717 461459 269 0
25 2 S102 739 462198 1008 0
25 2 S102 761 462959 1769 0
25 2 S102 765 463724 2534 0
25 2 S102 755 464479 3289 0
25 2 S102 770 465249 4059 0
25 2 S102 768 466017 4827 0
25 2 S102 783 466800 5610 0
25 2 S102 781 467581 6391 0
0 0 0 757 468338 -8320 0
0 0 0 759 469097 -7561 0
0 0 0 746 469843 -6815 0
0 0 0 746 470589 -6069 0
0 0 0 747 471336 -5322 0
0 0 0 780 472116 -4542 0
0 0 0 801 472917 -3741 0
0 0 0 798 473715 -2943 0
0 0 0 780 474495 -2163 0
26 1 S116 783 475278 -1380 0
26 1 S116 780 476058 -600 0
26 2 S116 771 476829 171 0
26 2 S116 741 477570 912 0
26 2 S116 727 478297 1639 0
26 2 S116 716 479013 2355 0
26 2 S116 712 479725 3067 0
26 2 S116 723 480448 3790 0
26 2 S116 723 481171 4513 0
26 2 S116 745 481916 5258 0
26 2 S116 775 482691 6033 0
26 2 S116 811 483502 6844 0
0 0 0 840 484342 -8662 0
0 0 0 791 485133 -7871 0
0 0 0 780 485913 -7091 0
0 0 0 760 486673 -6331 0
0 0 0 754 487427 -5577 0
0 0 0 743 488170 -4834 0
0 0 0 728 488898 -4106 0
0 0 0 729 489627 -3377 0
0 0 0 738 490365 -2639 0
27 1 S106 730 491095 -1909 0
27 1 S106 732 491827 -1177 0
27 1 S106 766 492593 -411 0
27 2 S106 778 493371 367 0
27 2 S106 789 494160 1156 0
27 2 S106 776 494936 1932 0
27 2 S106 759 495695 2691 0
27 2 S106 762 496457 3453 0
27 2 S106 762 497219 4215 0
27 2 S106 747 497966 4962 0
27 2 S106 729 498695 5691 0
27 2 S106 743 499438 6434 0
0 0 0 754 500192 -8031 0
0 0 0 779 500971 -7252 0
0 0 0 756 501727 -6496 0
0 0 0 750 502477 -5746 0
0 0 0 764 503241 -4982 0
0 0 0 752 503993 -4230 0
0 0 0 722 504715 -3508 0
0 0 0 696 505411 -2812 0
0 0 0 662 506073 -2150 0
28 1 S102 620 506693 -1530 1
28 1 S102 672 507365 -858 0
28 1 S102 684 508049 -174 0
28 2 S102 753 508802 579 0
28 2 S102 802 509604 1381 0
28 2 S102 824 510428 2205 0
28 2 S102 767 511195 2972 0
28 2 S102 715 511910 3687 0
28 2 S102 717 512627 4404 0
28 2 S102 724 513351 5128 0
28 2 S102 715 514066 5843 0
28 2 S102 705 514771 6548 0
0 0 0 711 515482 -12569 0
0 0 0 717 516199 -11852 0
0 0 0 720 516919 -11132 0
0 0 0 720 517639 -10412 0
0 0 0 703 518342 -9709 0
0 0 0 721 519063 -8988 0
0 0 0 713 519776 -8275 0
0 0 0 716 520492 -7559 0
0 0 0 719 521211 -6840 0
0 0 0 700 521911 -6140 0
0 0 0 713 522624 -5427 0
0 0 0 716 523340 -4711 0
0 0 0 716 524056 -3995 0
0 0 0 714 524770 -3281 0
0 0 0 705 525475 -2576 0
29 1 S112 727 526202 -1849 0
29 1 S112 725 526927 -1124 0
29 1 S112 737 527664 -387 0
29 2 S112 744 528408 357 0
29 2 S112 735 529143 1092 0
29 2 S112 747 529890 1839 0
29 2 S112 744 530634 2583 0
29 2 S112 763 531397 3346 0
29 2 S112 765 532162 4111 0
29 2 S112 754 532916 4865 0
29 2 S112 765 533681 5630 0
29 2 S112 774 534455 6404 0
0 0 0 779 535234 -9412 0
0 0 0 790 536024 -8622 0
0 0 0 771 536795 -7851 0
0 0 0 772 537567 -7079 0
0 0 0 765 538332 -6314 0
0 0 0 769 539101 -5545 0
0 0 0 755 539856 -4790 0
0 0 0 725 540581 -4065 0
0 0 0 720 541301 -3345 0
0 0 0 730 542031 -2615 0
30 1 S112 765 542796 -1850 0
30 1 S112 784 543580 -1066 0
30 1 S112 830 544410 -236 0
30 2 S112 860 545270 624 0
30 2 S112 855 546125 1479 0
30 2 S112 841 546966 2320 0
30 2 S112 835 547801 3155 0
30 2 S112 829 548630 3984 0
30 2 S112 819 549449 4803 0
30 2 S112 795 550244 5598 0
30 2 S112 766 551010 6364 0
0 0 0 786 551796 -10837 0
0 0 0 789 552585 -10048 0
0 0 0 781 553366 -9267 0
0 0 0 725 554091 -8542 0
0 0 0 737 554828 -7805 0
0 0 0 753 555581 -7052 0
0 0 0 744 556325 -6308 0
0 0 0 728 557053 -5580 0
0 0 0 730 557783 -4850 0
0 0 0 747 558530 -4103 0
0 0 0 781 559311 -3322 0
0 0 0 792 560103 -2530 0
31 1 S106 765 560868 -1765 0
31 1 S106 763 561631 -1002 0
31 1 S106 775 562406 -227 0
31 2 S106 760 563166 533 0
31 2 S106 742 563908 1275 0
31 2 S106 719 564627 1994 0
31 2 S106 729 565356 2723 0
31 2 S106 742 566098 3465 0
31 2 S106 763 566861 4228 0
31 2 S106 764 567625 4992 0
31 2 S106 757 568382 5749 0
31 2 S106 779 569161 6528 0
0 0 0 774 569935 -10222 0
0 0 0 777 570712 -9445 0
0 0 0 745 571457 -8700 0
0 0 0 760 572217 -7940 0
0 0 0 769 572986 -7171 0
0 0 0 762 573748 -6409 0
0 0 0 737 574485 -5672 0
0 0 0 742 575227 -4930 0
0 0 0 751 575978 -4179 0
0 0 0 757 576735 -3422 0
0 0 0 770 577505 -2652 0
32 1 S102 739 578244 -1913 0
32 1 S102 747 578991 -1166 0
32 1 S102 746 579737 -420 0
32 2 S102 754 580491 334 0
32 2 S102 740 581231 1074 0
32 2 S102 726 581957 1800 0
32 2 S102 744 582701 2544 0
32 2 S102 766 583467 3310 0
32 2 S102 791 584258 4101 0
32 2 S102 789 585047 4890 0
32 2 S102 769 585816 5659 0
32 2 S102 773 586589 6432 0
0 0 0 776 587365 -12437 0
0 0 0 771 588136 -11666 0
0 0 0 753 588889 -10913 0
0 0 0 736 589625 -10177 0
0 0 0 755 590380 -9422 0
0 0 0 759 591139 -8663 0
0 0 0 744 591883 -7919 0
0 0 0 730 592613 -7189 0
0 0 0 730 593343 -6459 0
0 0 0 736 594079 -5723 0
0 0 0 752 594831 -4971 0
0 0 0 743 595574 -4228 0
0 0 0 733 596307 -3495 0
0 0 0 747 597054 -2748 0
33 1 S112 755 597809 -1993 0
33 1 S112 764 598573 -1229 0
33 1 S112 760 599333 -469 0
33 2 S112 760 600093 291 0
33 2 S112 774 600867 1065 0
33 2 S112 778 601645 1843 0
33 2 S112 777 602422 2620 0
33 2 S112 761 603183 3381 0
33 2 S112 773 603956 4154 0
33 2 S112 809 604765 4963 0
33 2 S112 823 605588 5786 0
33 2 S112 816 606404 6602 0
0 0 0 777 607181 -13096 0
0 0 0 770 607951 -12326 0
0 0 0 763 608714 -11563 0
0 0 0 754 609468 -10809 0
0 0 0 734 610202 -10075 0
0 0 0 763 610965 -9312 0
0 0 0 759 611724 -8553 0
0 0 0 741 612465 -7812 0
0 0 0 712 613177 -7100 0
0 0 0 723 613900 -6377 0
0 0 0 721 614621 -5656 0
0 0 0 742 615363 -4914 0
0 0 0 738 616101 -4176 0
0 0 0 725 616826 -3451 0
0 0 0 730 617556 -2721 0
34 1 S106 735 618291 -1986 0
34 1 S106 746 619037 -1240 0
34 1 S106 755 619792 -485 0
34 2 S106 749 620541 264 0
34 2 S106 742 621283 1006 0
34 2 S106 754 622037 1760 0
34 2 S106 753 622790 2513 0
34 2 S106 744 623534 3257 0
34 2 S106 724 624258 3981 0
34 2 S106 741 624999 4722 0
34 2 S106 750 625749 5472 0
34 2 S106 777 626526 6249 0
0 0 0 811 627337 -10546 0
0 0 0 807 628144 -9739 0
0 0 0 775 628919 -8964 0
0 0 0 762 629681 -8202 0
0 0 0 758 630439 -7444 0
0 0 0 740 631179 -6704 0
0 0 0 710 631889 -5994 0
0 0 0 707 632596 -5287 0
0 0 0 713 633309 -4574 0
0 0 0 724 634033 -3850 0
0 0 0 708 634741 -3142 0
0 0 0 713 635454 -2429 0
35 1 S102 718 636172 -1711 0
35 1 S102 734 636906 -977 0
35 1 S102 730 637636 -247 0
35 2 S102 713 638349 466 0
35 2 S102 730 639079 1196 0
35 2 S102 732 639811 1928 0
35 2 S102 740 640551 2668 0
35 2 S102 750 641301 3418 0
35 2 S102 740 642041 4158 0
35 2 S102 724 642765 4882 0
35 2 S102 736 643501 5618 0
35 2 S102 751 644252 6369 0
0 0 0 764 645016 -8848 0
0 0 0 755 645771 -8093 0
0 0 0 724 646495 -7369 0
0 0 0 754 647249 -6615 0
0 0 0 767 648016 -5848 0
0 0 0 782 648798 -5066 0
0 0 0 737 649535 -4329 0
0 0 0 744 650279 -3585 0
0 0 0 721 651000 -2864 0
0 0 0 717 651717 -2147 0
36 1 S106 702 652419 -1445 0
36 1 S106 693 653112 -752 0
36 1 S106 703 653815 -49 0
36 2 S106 722 654537 673 0
36 2 S106 740 655277 1413 0
36 2 S106 739 656016 2152 0
36 2 S106 725 656741 2877 0
36 2 S106 738 657479 3615 0
36 2 S106 761 658240 4376 0
36 2 S106 782 659022 5158 0
36 2 S106 805 659827 5963 0
36 2 S106 806 660633 6769 0
0 0 0 810 661443 -10110 0
0 0 0 811 662254 -9299 0
0 0 0 787 663041 -8512 0
0 0 0 736 663777 -7776 0
0 0 0 739 664516 -7037 0
0 0 0 720 665236 -6317 0
0 0 0 739 665975 -5578 0
0 0 0 748 666723 -4830 0
0 0 0 759 667482 -4071 0
0 0 0 790 668272 -3281 0
0 0 0 822 669094 -2459 0
37 1 S116 833 669927 -1626 0
37 1 S116 808 670735 -818 0
37 1 S116 790 671525 -28 0
37 2 S116 797 672322 769 0
37 2 S116 790 673112 1559 0
37 2 S116 771 673883 2330 0
37 2 S116 741 674624 3071 0
37 2 S116 716 675340 3787 0
37 2 S116 739 676079 4526 0
37 2 S116 751 676830 5277 0
37 2 S116 774 677604 6051 0
37 2 S116 782 678386 6833 0
0 0 0 758 679144 -12619 0
0 0 0 767 679911 -11852 0
0 0 0 759 680670 -11093 0
0 0 0 717 681387 -10376 0
0 0 0 729 682116 -9647 0
0 0 0 739 682855 -8908 0
0 0 0 718 683573 -8190 0
0 0 0 695 684268 -7495 0
0 0 0 672 684940 -6823 0
0 0 0 675 685615 -6148 0
0 0 0 663 686278 -5485 0
0 0 0 657 686935 -4828 0
0 0 0 638 687573 -4190 1
0 0 0 638 688211 -3552 1
0 0 0 649 688860 -2903 0
0 0 0 663 689523 -2240 0
38 1 S102 661 690184 -1579 0
38 1 S102 679 690863 -900 0
38 1 S102 686 691549 -214 0
38 2 S102 693 692242 479 0
38 2 S102 700 692942 1179 0
38 2 S102 699 693641 1878 0
38 2 S102 689 694330 2567 0
38 2 S102 692 695022 3259 0
38 2 S102 701 695723 3960 0
38 2 S102 727 696450 4687 0
38 2 S102 760 697210 5447 0
38 2 S102 778 697988 6225 0
38 2 S102 751 698739 6976 0
0 0 0 731 699470 -10065 0
0 0 0 739 700209 -9326 0
0 0 0 736 700945 -8590 0
0 0 0 738 701683 -7852 0
0 0 0 730 702413 -7122 0
0 0 0 734 703147 -6388 0
0 0 0 731 703878 -5657 0
0 0 0 729 704607 -4928 0
0 0 0 707 705314 -4221 0
0 0 0 710 706024 -3511 0
0 0 0 719 706743 -2792 0
0 0 0 746 707489 -2046 0
39 1 S116 768 708257 -1278 0
39 1 S116 760 709017 -518 0
39 2 S116 771 709788 253 0
39 2 S116 770 710558 1023 0
39 2 S116 773 711331 1796 0
39 2 S116 764 712095 2560 0
39 2 S116 744 712839 3304 0
39 2 S116 728 713567 4032 0
39 2 S116 737 714304 4769 0
39 2 S116 764 715068 5533 0
39 2 S116 785 715853 6318 0
0 0 0 789 716642 -6387 0
0 0 0 803 717445 -5584 0
0 0 0 798 718243 -4786 0
0 0 0 772 719015 -4014 0
0 0 0 738 719753 -3276 0
0 0 0 739 720492 -2537 0
40 1 S112 738 721230 -1799 0
40 1 S112 754 721984 -1045 0
40 1 S112 745 722729 -300 0
40 2 S112 759 723488 459 0
40 2 S112 773 724261 1232 0
40 2 S112 786 725047 2018 0
40 2 S112 788 725835 2806 0
40 2 S112 770 726605 3576 0
40 2 S112 785 727390 4361 0
40 2 S112 795 728185 5156 0
40 2 S112 808 728993 5964 0
40 2 S112 800 729793 6764 0
0 0 0 778 730571 -188929 0
0 0 0 789 731360 -188140 0
0 0 0 791 732151 -187349 0
0 0 0 792 732943 -186557 0
0 0 0 767 733710 -185790 0
0 0 0 776 734486 -185014 0
0 0 0 756 735242 -184258 0
0 0 0 764 736006 -183494 0
0 0 0 758 736764 -182736 0
0 0 0 732 737496 -182004 0
0 0 0 716 738212 -181288 0
0 0 0 722 738934 -180566 0
0 0 0 730 739664 -179836 0
0 0 0 716 740380 -179120 0
0 0 0 698 741078 -178422 0
0 0 0 667 741745 -177755 0
0 0 0 658 742403 -177097 0
0 0 0 657 743060 -176440 0
0 0 0 655 743715 -175785 0
0 0 0 656 744371 -175129 0
0 0 0 665 745036 -174464 0
0 0 0 670 745706 -173794 0
0 0 0 682 746388 -173112 0
0 0 0 691 747079 -172421 0
0 0 0 691 747770 -171730 0
0 0 0 675 748445 -171055 0
0 0 0 690 749135 -170365 0
0 0 0 697 749832 -169668 0
0 0 0 719 750551 -168949 0
0 0 0 763 751314 -168186 0
0 0 0 809 752123 -167377 0
0 0 0 807 752930 -166570 0
0 0 0 789 753719 -165781 0
0 0 0 804 754523 -164977 0
0 0 0 833 755356 -164144 0
0 0 0 854 756210 -163290 0
0 0 0 861 757071 -162429 0
0 0 0 859 757930 -161570 0
0 0 0 854 758784 -160716 0
0 0 0 836 759620 -159880 0
0 0 0 845 760465 -159035 0
0 0 0 830 761295 -158205 0
0 0 0 819 762114 -157386 0
0 0 0 823 762937 -156563 0
0 0 0 843 763780 -155720 0
0 0 0 869 764649 -154851 1
0 0 0 847 765496 -154004 0
0 0 0 870 766366 -153134 1
0 0 0 884 767250 -152250 1
0 0 0 891 768141 -151359 1
0 0 0 885 769026 -150474 1
0 0 0 854 769880 -149620 0
0 0 0 801 770681 -148819 0
0 0 0 798 771479 -148021 0
0 0 0 808 772287 -147213 0
0 0 0 845 773132 -146368 0
0 0 0 836 773968 -145532 0
0 0 0 827 774795 -144705 0
0 0 0 852 775647 -143853 0
0 0 0 879 776526 -142974 1
0 0 0 844 777370 -142130 0
0 0 0 799 778169 -141331 0
0 0 0 802 778971 -140529 0
0 0 0 793 779764 -139736 0
0 0 0 785 780549 -138951 0
0 0 0 791 781340 -138160 0
0 0 0 770 782110 -137390 0
0 0 0 757 782867 -136633 0
0 0 0 738 783605 -135895 0
0 0 0 690 784295 -135205 0
0 0 0 703 784998 -134502 0
0 0 0 702 785700 -133800 0
0 0 0 711 786411 -133089 0
0 0 0 715 787126 -132374 0
0 0 0 707 787833 -131667 0
0 0 0 714 788547 -130953 0
0 0 0 744 789291 -130209 0
0 0 0 772 790063 -129437 0
0 0 0 793 790856 -128644 0
0 0 0 807 791663 -127837 0
0 0 0 803 792466 -127034 0
0 0 0 797 793263 -126237 0
0 0 0 786 794049 -125451 0
0 0 0 748 794797 -124703 0
0 0 0 712 795509 -123991 0
0 0 0 706 796215 -123285 0
0 0 0 712 796927 -122573 0
0 0 0 735 797662 -121838 0
0 0 0 764 798426 -121074 0
0 0 0 785 799211 -120289 0
0 0 0 780 799991 -119509 0
0 0 0 792 800783 -118717 0
0 0 0 813 801596 -117904 0
0 0 0 799 802395 -117105 0
0 0 0 787 803182 -116318 0
0 0 0 733 803915 -115585 0
0 0 0 670 804585 -114915 0
0 0 0 668 805253 -114247 0
0 0 0 680 805933 -113567 0
0 0 0 702 806635 -112865 0
0 0 0 752 807387 -112113 0
0 0 0 810 808197 -111303 0
0 0 0 836 809033 -110467 0
0 0 0 808 809841 -109659 0
0 0 0 821 810662 -108838 0
0 0 0 829 811491 -108009 0
0 0 0 835 812326 -107174 0
0 0 0 824 813150 -106350 0
0 0 0 794 813944 -105556 0
0 0 0 768 814712 -104788 0
0 0 0 798 815510 -103990 0
0 0 0 813 816323 -103177 0
0 0 0 832 817155 -102345 0
0 0 0 812 817967 -101533 0
0 0 0 781 818748 -100752 0
0 0 0 799 819547 -99953 0
0 0 0 819 820366 -99134 0
0 0 0 825 821191 -98309 0
0 0 0 807 821998 -97502 0
0 0 0 795 822793 -96707 0
0 0 0 826 823619 -95881 0
0 0 0 854 824473 -95027 0
0 0 0 870 825343 -94157 1
0 0 0 860 826203 -93297 0
0 0 0 841 827044 -92456 0
0 0 0 842 827886 -91614 0
0 0 0 852 828738 -90762 0
0 0 0 843 829581 -89919 0
0 0 0 818 830399 -89101 0
0 0 0 815 831214 -88286 0
0 0 0 812 832026 -87474 0
0 0 0 819 832845 -86655 0
0 0 0 805 833650 -85850 0
0 0 0 801 834451 -85049 0
0 0 0 827 835278 -84222 0
0 0 0 845 836123 -83377 0
0 0 0 852 836975 -82525 0
0 0 0 827 837802 -81698 0
0 0 0 817 838619 -80881 0
0 0 0 829 839448 -80052 0
0 0 0 820 840268 -79232 0
0 0 0 811 841079 -78421 0
0 0 0 778 841857 -77643 0
0 0 0 798 842655 -76845 0
0 0 0 808 843463 -76037 0
0 0 0 839 844302 -75198 0
0 0 0 824 845126 -74374 0
0 0 0 803 845929 -73571 0
0 0 0 814 846743 -72757 0
0 0 0 811 847554 -71946 0
0 0 0 808 848362 -71138 0
0 0 0 768 849130 -70370 0
0 0 0 731 849861 -69639 0
0 0 0 734 850595 -68905 0
0 0 0 748 851343 -68157 0
0 0 0 768 852111 -67389 0
0 0 0 765 852876 -66624 0
0 0 0 756 853632 -65868 0
0 0 0 779 854411 -65089 0
0 0 0 791 855202 -64298 0
0 0 0 802 856004 -63496 0
0 0 0 766 856770 -62730 0
0 0 0 768 857538 -61962 0
0 0 0 762 858300 -61200 0
0 0 0 756 859056 -60444 0
0 0 0 751 859807 -59693 0
0 0 0 721 860528 -58972 0
0 0 0 732 861260 -58240 0
0 0 0 734 861994 -57506 0
0 0 0 746 862740 -56760 0
0 0 0 753 863493 -56007 0
0 0 0 735 864228 -55272 0
0 0 0 756 864984 -54516 0
0 0 0 757 865741 -53759 0
0 0 0 782 866523 -52977 0
0 0 0 767 867290 -52210 0
0 0 0 743 868033 -51467 0
0 0 0 762 868795 -50705 0
0 0 0 764 869559 -49941 0
0 0 0 766 870325 -49175 0
0 0 0 738 871063 -48437 0
0 0 0 752 871815 -47685 0
0 0 0 747 872562 -46938 0
0 0 0 755 873317 -46183 0
0 0 0 769 874086 -45414 0
0 0 0 743 874829 -44671 0
0 0 0 758 875587 -43913 0
0 0 0 772 876359 -43141 0
0 0 0 787 877146 -42354 0
0 0 0 769 877915 -41585 0
0 0 0 744 878659 -40841 0
0 0 0 760 879419 -40081 0
0 0 0 768 880187 -39313 0
0 0 0 772 880959 -38541 0
0 0 0 740 881699 -37801 0
0 0 0 742 882441 -37059 0
0 0 0 750 883191 -36309 0
0 0 0 764 883955 -35545 0
0 0 0 765 884720 -34780 0
0 0 0 713 885433 -34067 0
0 0 0 658 886091 -33409 0
0 0 0 621 886712 -32788 1
0 0 0 644 887356 -32144 0
0 0 0 650 888006 -31494 0
0 0 0 649 888655 -30845 0
0 0 0 634 889289 -30211 1
0 0 0 634 889923 -29577 1
0 0 0 629 890552 -28948 1
0 0 0 637 891189 -28311 1
0 0 0 636 891825 -27675 1
0 0 0 637 892462 -27038 1
0 0 0 643 893105 -26395 0
0 0 0 632 893737 -25763 1
0 0 0 635 894372 -25128 1
0 0 0 641 895013 -24487 0
0 0 0 645 895658 -23842 0
0 0 0 636 896294 -23206 1
0 0 0 640 896934 -22566 0
0 0 0 637 897571 -21929 1
0 0 0 641 898212 -21288 0
0 0 0 646 898858 -20642 0
0 0 0 650 899508 -19992 0
0 0 0 651 900159 -19341 0
0 0 0 648 900807 -18693 0
0 0 0 644 901451 -18049 0
0 0 0 642 902093 -17407 0
0 0 0 642 902735 -16765 0
0 0 0 642 903377 -16123 0
0 0 0 642 904019 -15481 0
0 0 0 643 904662 -14838 0
0 0 0 647 905309 -14191 0
0 0 0 652 905961 -13539 0
0 0 0 665 906626 -12874 0
0 0 0 671 907297 -12203 0
0 0 0 690 907987 -11513 0
0 0 0 689 908676 -10824 0
0 0 0 674 909350 -10150 0
0 0 0 700 910050 -9450 0
0 0 0 699 910749 -8751 0
0 0 0 717 911466 -8034 0
0 0 0 739 912205 -7295 0
0 0 0 735 912940 -6560 0
0 0 0 706 913646 -5854 0
0 0 0 702 914348 -5152 0
0 0 0 704 915052 -4448 0
0 0 0 715 915767 -3733 0
0 0 0 730 916497 -3003 0
0 0 0 741 917238 -2262 0
41 1 S102 735 917973 -1527 0
41 1 S102 710 918683 -817 0
41 1 S102 706 919389 -111 0
41 2 S102 710 920099 599 0
41 2 S102 734 920833 1333 0
41 2 S102 775 921608 2108 0
41 2 S102 791 922399 2899 0
41 2 S102 784 923183 3683 0
41 2 S102 758 923941 4441 0
41 2 S102 760 924701 5201 0
41 2 S102 769 925470 5970 0
41 2 S102 769 926239 6739 0
0 0 0 771 927010 -7510 0
0 0 0 740 927750 -6770 0
0 0 0 728 928478 -6042 0
0 0 0 739 929217 -5303 0
0 0 0 741 929958 -4562 0
0 0 0 759 930717 -3803 0
0 0 0 746 931463 -3057 0
0 0 0 739 932202 -2318 0
42 1 S112 755 932957 -1563 0
42 1 S112 771 933728 -792 0
42 1 S112 769 934497 -23 0
42 2 S112 748 935245 725 0
42 2 S112 721 935966 1446 0
42 2 S112 725 936691 2171 0
42 2 S112 731 937422 2902 0
42 2 S112 738 938160 3640 0
42 2 S112 751 938911 4391 0
42 2 S112 721 939632 5112 0
42 2 S112 721 940353 5833 0
42 2 S112 723 941076 6556 0
0 0 0 738 941814 -10627 0
0 0 0 756 942570 -9871 0
0 0 0 769 943339 -9102 0
0 0 0 745 944084 -8357 0
0 0 0 752 944836 -7605 0
0 0 0 760 945596 -6845 0
0 0 0 731 946327 -6114 0
0 0 0 709 947036 -5405 0
0 0 0 696 947732 -4709 0
0 0 0 703 948435 -4006 0
0 0 0 723 949158 -3283 0
0 0 0 751 949909 -2532 0
43 1 S116 767 950676 -1765 0
43 1 S116 753 951429 -1012 0
43 1 S116 774 952203 -238 0
43 2 S116 779 952982 541 0
43 2 S116 772 953754 1313 0
43 2 S116 757 954511 2070 0
43 2 S116 745 955256 2815 0
43 2 S116 742 955998 3557 0
43 2 S116 744 956742 4301 0
43 2 S116 756 957498 5057 0
43 2 S116 777 958275 5834 0
43 2 S116 771 959046 6605 0
0 0 0 780 959826 -7702 0
0 0 0 782 960608 -6920 0
0 0 0 764 961372 -6156 0
0 0 0 733 962105 -5423 0
0 0 0 728 962833 -4695 0
0 0 0 726 963559 -3969 0
0 0 0 740 964299 -3229 0
0 0 0 731 965030 -2498 0
44 1 S102 729 965759 -1769 0
44 1 S102 743 966502 -1026 0
44 1 S102 760 967262 -266 0
44 2 S102 769 968031 503 0
44 2 S102 757 968788 1260 0
44 2 S102 766 969554 2026 0
44 2 S102 775 970329 2801 0
44 2 S102 794 971123 3595 0
44 2 S102 782 971905 4377 0
44 2 S102 758 972663 5135 0
44 2 S102 779 973442 5914 0
44 2 S102 779 974221 6693 0
0 0 0 780 975001 -9171 0
0 0 0 762 975763 -8409 0
0 0 0 732 976495 -7677 0
0 0 0 735 977230 -6942 0
0 0 0 731 977961 -6211 0
0 0 0 750 978711 -5461 0
0 0 0 749 979460 -4712 0
0 0 0 738 980198 -3974 0
0 0 0 767 980965 -3207 0
0 0 0 782 981747 -2425 0
45 1 S116 775 982522 -1650 0
45 1 S116 755 983277 -895 0
45 1 S116 755 984032 -140 0
45 2 S116 768 984800 628 0
45 2 S116 771 985571 1399 0
45 2 S116 771 986342 2170 0
45 2 S116 759 987101 2929 0
45 2 S116 743 987844 3672 0
45 2 S116 749 988593 4421 0
45 2 S116 766 989359 5187 0
45 2 S116 759 990118 5946 0
45 2 S116 755 990873 6701 0
0 0 0 748 991621 -12097 0
0 0 0 764 992385 -11333 0
0 0 0 767 993152 -10566 0
0 0 0 764 993916 -9802 0
0 0 0 754 994670 -9048 0
0 0 0 754 995424 -8294 0
0 0 0 751 996175 -7543 0
0 0 0 733 996908 -6810 0
0 0 0 707 997615 -6103 0
0 0 0 717 998332 -5386 0
0 0 0 712 999044 -4674 0
0 0 0 722 999766 -3952 0
0 0 0 732 1000498 -3220 0
0 0 0 740 1001238 -2480 0
46 1 S102 765 1002003 -1715 0
46 1 S102 779 1002782 -936 0
46 1 S102 776 1003558 -160 0
46 2 S102 748 1004306 588 0
46 2 S102 739 1005045 1327 0
46 2 S102 741 1005786 2068 0
46 2 S102 767 1006553 2835 0
46 2 S102 779 1007332 3614 0
46 2 S102 781 1008113 4395 0
46 2 S102 781 1008894 5176 0
46 2 S102 789 1009683 5965 0
46 2 S102 795 1010478 6760 0
0 0 0 777 1011255 -10086 0
0 0 0 747 1012002 -9339 0
0 0 0 753 1012755 -8586 0
0 0 0 746 1013501 -7840 0
0 0 0 747 1014248 -7093 0
0 0 0 711 1014959 -6382 0
0 0 0 724 1015683 -5658 0
0 0 0 712 1016395 -4946 0
0 0 0 708 1017103 -4238 0
0 0 0 689 1017792 -3549 0
0 0 0 693 1018485 -2856 0
0 0 0 693 1019178 -2163 0
47 1 S112 707 1019885 -1456 0
47 1 S112 713 1020598 -743 0
47 1 S112 706 1021304 -37 0
47 2 S112 715 1022019 678 0
47 2 S112 728 1022747 1406 0
47 2 S112 748 1023495 2154 0
47 2 S112 747 1024242 2901 0
47 2 S112 730 1024972 3631 0
47 2 S112 710 1025682 4341 0
47 2 S112 705 1026387 5046 0
47 2 S112 707 1027094 5753 0
47 2 S112 714 1027808 6467 0
0 0 0 717 1028525 -10853 0
0 0 0 723 1029248 -10130 0
0 0 0 733 1029981 -9397 0
0 0 0 738 1030719 -8659 0
0 0 0 730 1031449 -7929 0
0 0 0 715 1032164 -7214 0
0 0 0 721 1032885 -6493 0
0 0 0 729 1033614 -5764 0
0 0 0 732 1034346 -5032 0
0 0 0 716 1035062 -4316 0
0 0 0 733 1035795 -3583 0
0 0 0 747 1036542 -2836 0
0 0 0 749 1037291 -2087 0
48 1 S116 739 1038030 -1348 0
48 1 S116 719 1038749 -629 0
48 2 S116 738 1039487 109 0
48 2 S116 759 1040246 868 0
48 2 S116 771 1041017 1639 0
48 2 S116 766 1041783 2405 0
48 2 S116 760 1042543 3165 0
48 2 S116 767 1043310 3932 0
48 2 S116 796 1044106 4728 0
48 2 S116 809 1044915 5537 0
48 2 S116 804 1045719 6341 0
0 0 0 777 1046496 -8582 0
0 0 0 772 1047268 -7810 0
0 0 0 770 1048038 -7040 0
0 0 0 768 1048806 -6272 0
0 0 0 746 1049552 -5526 0
0 0 0 743 1050295 -4783 0
0 0 0 733 1051028 -4050 0
0 0 0 735 1051763 -3315 0
0 0 0 720 1052483 -2595 0
49 1 S112 718 1053201 -1877 0
49 1 S112 740 1053941 -1137 0
49 1 S112 762 1054703 -375 0
49 2 S112 783 1055486 408 0
49 2 S112 774 1056260 1182 0
49 2 S112 778 1057038 1960 0
49 2 S112 783 1057821 2743 0
49 2 S112 795 1058616 3538 0
49 2 S112 786 1059402 4324 0
49 2 S112 760 1060162 5084 0
49 2 S112 763 1060925 5847 0
49 2 S112 771 1061696 6618 0
0 0 0 784 1062480 -11564 0
0 0 0 777 1063257 -10787 0
0 0 0 744 1064001 -10043 0
0 0 0 755 1064756 -9288 0
0 0 0 751 1065507 -8537 0
0 0 0 749 1066256 -7788 0
0 0 0 738 1066994 -7050 0
0 0 0 745 1067739 -6305 0
0 0 0 761 1068500 -5544 0
0 0 0 778 1069278 -4766 0
0 0 0 768 1070046 -3998 0
0 0 0 747 1070793 -3251 0
0 0 0 752 1071545 -2499 0
50 1 S106 753 1072298 -1746 0
50 1 S106 766 1073064 -980 0
50 1 S106 746 1073810 -234 0
50 2 S106 722 1074532 488 0
50 2 S106 741 1075273 1229 0
50 2 S106 752 1076025 1981 0
50 2 S106 757 1076782 2738 0
50 2 S106 757 1077539 3495 0
50 2 S106 739 1078278 4234 0
50 2 S106 747 1079025 4981 0
50 2 S106 756 1079781 5737 0
50 2 S106 769 1080550 6506 0
0 0 0 756 1081306 -8239 0
0 0 0 754 1082060 -7485 0
0 0 0 760 1082820 -6725 0
0 0 0 767 1083587 -5958 0
0 0 0 773 1084360 -5185 0
0 0 0 737 1085097 -4448 0
0 0 0 741 1085838 -3707 0
0 0 0 739 1086577 -2968 0
0 0 0 738 1087315 -2230 0
51 1 S112 721 1088036 -1509 0
51 1 S112 723 1088759 -786 0
51 1 S112 731 1089490 -55 0
51 2 S112 750 1090240 695 0
51 2 S112 758 1090998 1453 0
51 2 S112 763 1091761 2216 0
51 2 S112 772 1092533 2988 0
51 2 S112 795 1093328 3783 0
51 2 S112 833 1094161 4616 0
51 2 S112 849 1095010 5465 0
51 2 S112 849 1095859 6314 0
0 0 0 856 1096715 -8364 0
0 0 0 843 1097558 -7521 0
0 0 0 813 1098371 -6708 0
0 0 0 767 1099138 -5941 0
0 0 0 764 1099902 -5177 0
0 0 0 745 1100647 -4432 0
0 0 0 739 1101386 -3693 0
0 0 0 748 1102134 -2945 0
0 0 0 766 1102900 -2179 0
52 1 S116 808 1103708 -1371 0
52 1 S116 851 1104559 -520 0
52 2 S116 863 1105422 343 0
52 2 S116 824 1106246 1167 0
52 2 S116 828 1107074 1995 0
52 2 S116 806 1107880 2801 0
52 2 S116 768 1108648 3569 0
52 2 S116 746 1109394 4315 0
52 2 S116 740 1110134 5055 0
52 2 S116 755 1110889 5810 0
52 2 S116 759 1111648 6569 0
0 0 0 758 1112406 -10345 0
0 0 0 746 1113152 -9599 0
0 0 0 759 1113911 -8840 0
0 0 0 757 1114668 -8083 0
0 0 0 761 1115429 -7322 0
0 0 0 733 1116162 -6589 0
0 0 0 720 1116882 -5869 0
0 0 0 714 1117596 -5155 0
0 0 0 713 1118309 -4442 0
0 0 0 717 1119026 -3725 0
0 0 0 703 1119729 -3022 0
0 0 0 715 1120444 -2307 0
53 1 S106 721 1121165 -1586 0
53 1 S106 728 1121893 -858 0
53 1 S106 733 1122626 -125 0
53 2 S106 726 1123352 601 0
53 2 S106 738 1124090 1339 0
53 2 S106 743 1124833 2082 0
53 2 S106 767 1125600 2849 0
53 2 S106 770 1126370 3619 0
53 2 S106 752 1127122 4371 0
53 2 S106 750 1127872 5121 0
53 2 S106 755 1128627 5876 0
53 2 S106 768 1129395 6644 0
0 0 0 764 1130159 -7761 0
0 0 0 750 1130909 -7011 0
0 0 0 757 1131666 -6254 0
0 0 0 763 1132429 -5491 0
0 0 0 768 1133197 -4723 0
0 0 0 722 1133919 -4001 0
0 0 0 715 1134634 -3286 0
0 0 0 711 1135345 -2575 0
54 1 S102 721 1136066 -1854 0
54 1 S102 738 1136804 -1116 0
54 1 S102 730 1137534 -386 0
54 2 S102 754 1138288 368 0
54 2 S102 769 1139057 1137 0
54 2 S102 775 1139832 1912 0
54 2 S102 762 1140594 2674 0
54 2 S102 751 1141345 3425 0
54 2 S102 757 1142102 4182 0
54 2 S102 769 1142871 4951 0
54 2 S102 778 1143649 5729 0
54 2 S102 781 1144430 6510 0
0 0 0 752 1145182 -12964 0
0 0 0 766 1145948 -12198 0
0 0 0 773 1146721 -11425 0
0 0 0 777 1147498 -10648 0
0 0 0 766 1148264 -9882 0
0 0 0 769 1149033 -9113 0
0 0 0 747 1149780 -8366 0
0 0 0 738 1150518 -7628 0
0 0 0 712 1151230 -6916 0
0 0 0 705 1151935 -6211 0
0 0 0 713 1152648 -5498 0
0 0 0 723 1153371 -4775 0
0 0 0 727 1154098 -4048 0
0 0 0 718 1154816 -3330 0
0 0 0 738 1155554 -2592 0
55 1 S106 743 1156297 -1849 0
55 1 S106 743 1157040 -1106 0
55 1 S106 732 1157772 -374 0
55 2 S106 722 1158494 348 0
55 2 S106 747 1159241 1095 0
55 2 S106 767 1160008 1862 0
55 2 S106 786 1160794 2648 0
55 2 S106 789 1161583 3437 0
55 2 S106 762 1162345 4199 0
55 2 S106 788 1163133 4987 0
55 2 S106 790 1163923 5777 0
55 2 S106 787 1164710 6564 0
0 0 0 761 1165471 -8557 0
0 0 0 748 1166219 -7809 0
0 0 0 756 1166975 -7053 0
0 0 0 761 1167736 -6292 0
0 0 0 765 1168501 -5527 0
0 0 0 768 1169269 -4759 0
0 0 0 760 1170029 -3999 0
0 0 0 753 1170782 -3246 0
0 0 0 747 1171529 -2499 0
56 1 S116 733 1172262 -1766 0
56 1 S116 745 1173007 -1021 0
56 1 S116 743 1173750 -278 0
56 2 S116 742 1174492 464 0
56 2 S116 711 1175203 1175 0
56 2 S116 698 1175901 1873 0
56 2 S116 706 1176607 2579 0
56 2 S116 714 1177321 3293 0
56 2 S116 739 1178060 4032 0
56 2 S116 741 1178801 4773 0
56 2 S116 729 1179530 5502 0
56 2 S116 754 1180284 6256 0
56 2 S116 766 1181050 7022 0
0 0 0 771 1181821 -8620 0
0 0 0 754 1182575 -7866 0
0 0 0 733 1183308 -7133 0
0 0 0 739 1184047 -6394 0
0 0 0 740 1184787 -5654 0
0 0 0 740 1185527 -4914 0
0 0 0 704 1186231 -4210 0
0 0 0 700 1186931 -3510 0
0 0 0 715 1187646 -2795 0
0 0 0 731 1188377 -2064 0
57 1 S106 742 1189119 -1322 0
57 1 S106 719 1189838 -603 0
57 2 S106 747 1190585 144 0
57 2 S106 760 1191345 904 0
57 2 S106 771 1192116 1675 0
57 2 S106 766 1192882 2441 0
57 2 S106 746 1193628 3187 0
57 2 S106 755 1194383 3942 0
57 2 S106 762 1195145 4704 0
57 2 S106 752 1195897 5456 0
57 2 S106 734 1196631 6190 0
57 2 S106 721 1197352 6911 0
0 0 0 741 1198093 -10518 0
0 0 0 765 1198858 -9753 0
0 0 0 792 1199650 -8961 0
0 0 0 791 1200441 -8170 0
0 0 0 780 1201221 -7390 0
0 0 0 777 1201998 -6613 0
0 0 0 755 1202753 -5858 0
0 0 0 720 1203473 -5138 0
0 0 0 689 1204162 -4449 0
0 0 0 671 1204833 -3778 0
0 0 0 669 1205502 -3109 0
0 0 0 672 1206174 -2437 0
58 1 S102 670 1206844 -1767 0
58 1 S102 669 1207513 -1098 0
58 1 S102 654 1208167 -444 0
58 2 S102 621 1208788 177 1
58 2 S102 629 1209417 806 1
58 2 S102 631 1210048 1437 1
58 2 S102 642 1210690 2079 0
58 2 S102 658 1211348 2737 0
58 2 S102 680 1212028 3417 0
58 2 S102 702 1212730 4119 0
58 2 S102 696 1213426 4815 0
58 2 S102 685 1214111 5500 0
58 2 S102 681 1214792 6181 0
58 2 S102 681 1215473 6862 0
0 0 0 689 1216162 -8695 0
0 0 0 698 1216860 -7997 0
0 0 0 700 1217560 -7297 0
0 0 0 697 1218257 -6600 0
0 0 0 705 1218962 -5895 0
0 0 0 730 1219692 -5165 0
0 0 0 735 1220427 -4430 0
0 0 0 737 1221164 -3693 0
0 0 0 729 1221893 -2964 0
0 0 0 746 1222639 -2218 0
59 1 S112 746 1223385 -1472 0
59 1 S112 747 1224132 -725 0
59 2 S112 734 1224866 9 0
59 2 S112 717 1225583 726 0
59 2 S112 732 1226315 1458 0
59 2 S112 735 1227050 2193 0
59 2 S112 725 1227775 2918 0
59 2 S112 702 1228477 3620 0
59 2 S112 696 1229173 4316 0
59 2 S112 716 1229889 5032 0
59 2 S112 729 1230618 5761 0
59 2 S112 763 1231381 6524 0
0 0 0 779 1232160 -11166 0
0 0 0 787 1232947 -10379 0
0 0 0 802 1233749 -9577 0
0 0 0 818 1234567 -8759 0
0 0 0 792 1235359 -7967 0
0 0 0 778 1236137 -7189 0
0 0 0 753 1236890 -6436 0
0 0 0 737 1237627 -5699 0
0 0 0 729 1238356 -4970 0
0 0 0 711 1239067 -4259 0
0 0 0 730 1239797 -3529 0
0 0 0 740 1240537 -2789 0
0 0 0 751 1241288 -2038 0
60 1 S102 740 1242028 -1298 0
60 1 S102 724 1242752 -574 0
60 2 S102 741 1243493 167 0
60 2 S102 756 1244249 923 0
60 2 S102 772 1245021 1695 0
60 2 S102 768 1245789 2463 0
60 2 S102 767 1246556 3230 0
60 2 S102 783 1247339 4013 0
60 2 S102 791 1248130 4804 0
60 2 S102 790 1248920 5594 0
60 2 S102 774 1249694 6368 0
0 0 0 767 1250461 -12576 0
0 0 0 790 1251251 -11786 0
0 0 0 808 1252059 -10978 0
0 0 0 818 1252877 -10160 0
0 0 0 801 1253678 -9359 0
0 0 0 791 1254469 -8568 0
0 0 0 782 1255251 -7786 0
0 0 0 762 1256013 -7024 0
0 0 0 730 1256743 -6294 0
0 0 0 731 1257474 -5563 0
0 0 0 734 1258208 -4829 0
0 0 0 753 1258961 -4076 0
0 0 0 741 1259702 -3335 0
0 0 0 739 1260441 -2596 0
61 1 S106 764 1261205 -1832 0
61 1 S106 779 1261984 -1053 0
61 1 S106 791 1262775 -262 0
61 2 S106 785 1263560 523 0
61 2 S106 775 1264335 1298 0
61 2 S106 794 1265129 2092 0
61 2 S106 800 1265929 2892 0
61 2 S106 795 1266724 3687 0
61 2 S106 791 1267515 4478 0
61 2 S106 779 1268294 5257 0
61 2 S106 782 1269076 6039 0
61 2 S106 802 1269878 6841 0
0 0 0 806 1270684 -8368 0
0 0 0 795 1271479 -7573 0
0 0 0 758 1272237 -6815 0
0 0 0 779 1273016 -6036 0
0 0 0 786 1273802 -5250 0
0 0 0 788 1274590 -4462 0
0 0 0 756 1275346 -3706 0
0 0 0 748 1276094 -2958 0
0 0 0 758 1276852 -2200 0
62 1 S112 768 1277620 -1432 0
62 1 S112 775 1278395 -657 0
62 2 S112 776 1279171 119 0
62 2 S112 764 1279935 883 0
62 2 S112 770 1280705 1653 0
62 2 S112 772 1281477 2425 0
62 2 S112 766 1282243 3191 0
62 2 S112 772 1283015 3963 0
62 2 S112 783 1283798 4746 0
62 2 S112 821 1284619 5567 0
62 2 S112 850 1285469 6417 0
0 0 0 848 1286317 -13110 0
0 0 0 843 1287160 -12267 0
0 0 0 784 1287944 -11483 0
0 0 0 770 1288714 -10713 0
0 0 0 758 1289472 -9955 0
0 0 0 762 1290234 -9193 0
0 0 0 751 1290985 -8442 0
0 0 0 738 1291723 -7704 0
0 0 0 791 1292514 -6913 0
0 0 0 819 1293333 -6094 0
0 0 0 829 1294162 -5265 0
0 0 0 810 1294972 -4455 0
0 0 0 794 1295766 -3661 0
0 0 0 796 1296562 -2865 0
0 0 0 783 1297345 -2082 0
63 1 S102 764 1298109 -1318 0
63 1 S102 736 1298845 -582 0
63 2 S102 730 1299575 148 0
63 2 S102 734 1300309 882 0
63 2 S102 753 1301062 1635 0
63 2 S102 780 1301842 2415 0
63 2 S102 794 1302636 3209 0
63 2 S102 789 1303425 3998 0
63 2 S102 806 1304231 4804 0
63 2 S102 826 1305057 5630 0
63 2 S102 840 1305897 6470 0
0 0 0 830 1306727 -11119 0
0 0 0 814 1307541 -10305 0
0 0 0 800 1308341 -9505 0
0 0 0 751 1309092 -8754 0
0 0 0 716 1309808 -8038 0
0 0 0 733 1310541 -7305 0
0 0 0 741 1311282 -6564 0
0 0 0 753 1312035 -5811 0
0 0 0 779 1312814 -5032 0
0 0 0 765 1313579 -4267 0
0 0 0 778 1314357 -3489 0
0 0 0 794 1315151 -2695 0
64 1 S112 795 1315946 -1900 0
64 1 S112 771 1316717 -1129 0
64 1 S112 751 1317468 -378 0
64 2 S112 751 1318219 373 0
64 2 S112 748 1318967 1121 0
64 2 S112 751 1319718 1872 0
64 2 S112 742 1320460 2614 0
64 2 S112 731 1321191 3345 0
64 2 S112 746 1321937 4091 0
64 2 S112 768 1322705 4859 0
64 2 S112 792 1323497 5651 0
64 2 S112 801 1324298 6452 0
0 0 0 798 1325096 -8864 0
0 0 0 783 1325879 -8081 0
0 0 0 787 1326666 -7294 0
0 0 0 778 1327444 -6516 0
0 0 0 770 1328214 -5746 0
0 0 0 763 1328977 -4983 0
0 0 0 760 1329737 -4223 0
0 0 0 762 1330499 -3461 0
0 0 0 774 1331273 -2687 0
65 1 S106 755 1332028 -1932 0
65 1 S106 753 1332781 -1179 0
65 1 S106 749 1333530 -430 0
65 2 S106 752 1334282 322 0
65 2 S106 756 1335038 1078 0
65 2 S106 752 1335790 1830 0
65 2 S106 754 1336544 2584 0
65 2 S106 774 1337318 3358 0
65 2 S106 792 1338110 4150 0
65 2 S106 807 1338917 4957 0
65 2 S106 786 1339703 5743 0
65 2 S106 756 1340459 6499 0
0 0 0 764 1341223 -8652 0
0 0 0 763 1341986 -7889 0
0 0 0 761 1342747 -7128 0
0 0 0 736 1343483 -6392 0
0 0 0 752 1344235 -5640 0
0 0 0 774 1345009 -4866 0
0 0 0 785 1345794 -4081 0
0 0 0 764 1346558 -3317 0
0 0 0 767 1347325 -2550 0
66 1 S116 779 1348104 -1771 0
66 1 S116 777 1348881 -994 0
66 1 S116 770 1349651 -224 0
66 2 S116 748 1350399 524 0
66 2 S116 739 1351138 1263 0
66 2 S116 743 1351881 2006 0
66 2 S116 760 1352641 2766 0
66 2 S116 794 1353435 3560 0
66 2 S116 795 1354230 4355 0
66 2 S116 809 1355039 5164 0
66 2 S116 838 1355877 6002 0
66 2 S116 860 1356737 6862 0
0 0 0 841 1357578 -12125 0
0 0 0 801 1358379 -11324 0
0 0 0 788 1359167 -10536 0
0 0 0 779 1359946 -9757 0
0 0 0 765 1360711 -8992 0
0 0 0 719 1361430 -8273 0
0 0 0 733 1362163 -7540 0
0 0 0 745 1362908 -6795 0
0 0 0 773 1363681 -6022 0
0 0 0 784 1364465 -5238 0
0 0 0 800 1365265 -4438 0
0 0 0 829 1366094 -3609 0
0 0 0 836 1366930 -2773 0
67 1 S102 806 1367736 -1967 0
67 1 S102 724 1368460 -1243 0
67 1 S102 645 1369105 -598 0
67 2 S102 653 1369758 55 0
67 2 S102 678 1370436 733 0
67 2 S102 697 1371133 1430 0
67 2 S102 715 1371848 2145 0
67 2 S102 716 1372564 2861 0
67 2 S102 691 1373255 3552 0
67 2 S102 682 1373937 4234 0
67 2 S102 697 1374634 4931 0
67 2 S102 724 1375358 5655 0
67 2 S102 768 1376126 6423 0
0 0 0 791 1376917 -8917 0
0 0 0 799 1377716 -8118 0
0 0 0 776 1378492 -7342 0
0 0 0 746 1379238 -6596 0
0 0 0 716 1379954 -5880 0
0 0 0 705 1380659 -5175 0
0 0 0 688 1381347 -4487 0
0 0 0 686 1382033 -3801 0
0 0 0 682 1382715 -3119 0
0 0 0 693 1383408 -2426 0
68 1 S106 704 1384112 -1722 0
68 1 S106 743 1384855 -979 0
68 1 S106 778 1385633 -201 0
68 2 S106 816 1386449 615 0
68 2 S106 852 1387301 1467 0
68 2 S106 855 1388156 2322 0
68 2 S106 844 1389000 3166 0
68 2 S106 787 1389787 3953 0
68 2 S106 775 1390562 4728 0
68 2 S106 768 1391330 5496 0
68 2 S106 771 1392101 6267 0
0 0 0 787 1392888 -12690 0
0 0 0 784 1393672 -11906 0
0 0 0 777 1394449 -11129 0
0 0 0 768 1395217 -10361 0
0 0 0 773 1395990 -9588 0
0 0 0 756 1396746 -8832 0
0 0 0 725 1397471 -8107 0
0 0 0 717 1398188 -7390 0
0 0 0 718 1398906 -6672 0
0 0 0 710 1399616 -5962 0
0 0 0 701 1400317 -5261 0
0 0 0 706 1401023 -4555 0
0 0 0 699 1401722 -3856 0
0 0 0 679 1402401 -3177 0
0 0 0 665 1403066 -2512 0
69 1 S102 668 1403734 -1844 0
69 1 S102 684 1404418 -1160 0
69 1 S102 724 1405142 -436 0
69 2 S102 760 1405902 324 0
69 2 S102 780 1406682 1104 0
69 2 S102 775 1407457 1879 0
69 2 S102 783 1408240 2662 0
69 2 S102 794 1409034 3456 0
69 2 S102 794 1409828 4250 0
69 2 S102 784 1410612 5034 0
69 2 S102 765 1411377 5799 0
69 2 S102 777 1412154 6576 0
0 0 0 783 1412937 -11259 0
0 0 0 796 1413733 -10463 0
0 0 0 775 1414508 -9688 0
0 0 0 736 1415244 -8952 0
0 0 0 747 1415991 -8205 0
0 0 0 768 1416759 -7437 0
0 0 0 798 1417557 -6639 0
0 0 0 754 1418311 -5885 0
0 0 0 758 1419069 -5127 0
0 0 0 764 1419833 -4363 0
0 0 0 777 1420610 -3586 0
0 0 0 769 1421379 -2817 0
0 0 0 744 1422123 -2073 0
70 1 S112 755 1422878 -1318 0
70 1 S112 755 1423633 -563 0
70 2 S112 763 1424396 200 0
70 2 S112 763 1425159 963 0
70 2 S112 759 1425918 1722 0
70 2 S112 765 1426683 2487 0
70 2 S112 772 1427455 3259 0
70 2 S112 784 1428239 4043 0
70 2 S112 776 1429015 4819 0
70 2 S112 760 1429775 5579 0
70 2 S112 778 1430553 6357 0
0 0 0 777 1431330 -13175 0
0 0 0 787 1432117 -12388 0
0 0 0 758 1432875 -11630 0
0 0 0 727 1433602 -10903 0
0 0 0 731 1434333 -10172 0
0 0 0 744 1435077 -9428 0
0 0 0 745 1435822 -8683 0
0 0 0 721 1436543 -7962 0
0 0 0 723 1437266 -7239 0
0 0 0 734 1438000 -6505 0
0 0 0 756 1438756 -5749 0
0 0 0 747 1439503 -5002 0
0 0 0 722 1440225 -4280 0
0 0 0 736 1440961 -3544 0
0 0 0 746 1441707 -2798 0
0 0 0 755 1442462 -2043 0
71 1 S116 739 1443201 -1304 0
71 1 S116 727 1443928 -577 0
71 2 S116 735 1444663 158 0
71 2 S116 748 1445411 906 0
71 2 S116 767 1446178 1673 0
71 2 S116 750 1446928 2423 0
71 2 S116 730 1447658 3153 0
71 2 S116 736 1448394 3889 0
71 2 S116 744 1449138 4633 0
71 2 S116 730 1449868 5363 0
71 2 S116 759 1450627 6122 0
71 2 S116 779 1451406 6901 0
0 0 0 798 1452204 -10222 0
0 0 0 782 1452986 -9440 0
0 0 0 747 1453733 -8693 0
0 0 0 753 1454486 -7940 0
0 0 0 761 1455247 -7179 0
0 0 0 738 1455985 -6441 0
0 0 0 720 1456705 -5721 0
0 0 0 715 1457420 -5006 0
0 0 0 723 1458143 -4283 0
0 0 0 738 1458881 -3545 0
0 0 0 755 1459636 -2790 0
0 0 0 742 1460378 -2048 0
72 1 S102 757 1461135 -1291 0
72 1 S102 765 1461900 -526 0
72 2 S102 781 1462681 255 0
72 2 S102 798 1463479 1053 0
72 2 S102 771 1464250 1824 0
72 2 S102 768 1465018 2592 0
72 2 S102 774 1465792 3366 0
72 2 S102 778 1466570 4144 0
72 2 S102 786 1467356 4930 0
72 2 S102 779 1468135 5709 0
72 2 S102 790 1468925 6499 0
0 0 0 799 1469724 -8269 0
0 0 0 810 1470534 -7459 0
0 0 0 803 1471337 -6656 0
0 0 0 769 1472106 -5887 0
0 0 0 775 1472881 -5112 0
0 0 0 755 1473636 -4357 0
0 0 0 741 1474377 -3616 0
0 0 0 746 1475123 -2870 0
0 0 0 722 1475845 -2148 0
73 1 S116 736 1476581 -1412 0
73 1 S116 735 1477316 -677 0
73 2 S116 741 1478057 64 0
73 2 S116 733 1478790 797 0
73 2 S116 749 1479539 1546 0
73 2 S116 781 1480320 2327 0
73 2 S116 801 1481121 3128 0
73 2 S116 793 1481914 3921 0
73 2 S116 788 1482702 4709 0
73 2 S116 785 1483487 5494 0
73 2 S116 759 1484246 6253 0
73 2 S116 727 1484973 6980 0
0 0 0 746 1485719 -9433 0
0 0 0 740 1486459 -8693 0
0 0 0 738 1487197 -7955 0
0 0 0 732 1487929 -7223 0
0 0 0 739 1488668 -6484 0
0 0 0 740 1489408 -5744 0
0 0 0 746 1490154 -4998 0
0 0 0 737 1490891 -4261 0
0 0 0 716 1491607 -3545 0
0 0 0 719 1492326 -2826 0
0 0 0 723 1493049 -2103 0
74 1 S106 735 1493784 -1368 0
74 1 S106 744 1494528 -624 0
74 2 S106 730 1495258 106 0
74 2 S106 718 1495976 824 0
74 2 S106 734 1496710 1558 0
74 2 S106 734 1497444 2292 0
74 2 S106 735 1498179 3027 0
74 2 S106 732 1498911 3759 0
74 2 S106 728 1499639 4487 0
74 2 S106 744 1500383 5231 0
74 2 S106 760 1501143 5991 0
74 2 S106 778 1501921 6769 0
0 0 0 770 1502691 -7779 0
0 0 0 757 1503448 -7022 0
0 0 0 758 1504206 -6264 0
0 0 0 767 1504973 -5497 0
0 0 0 756 1505729 -4741 0
0 0 0 715 1506444 -4026 0
0 0 0 720 1507164 -3306 0
0 0 0 717 1507881 -2589 0
75 1 S112 712 1508593 -1877 0
75 1 S112 681 1509274 -1196 0
75 1 S112 686 1509960 -510 0
75 2 S112 668 1510628 158 0
75 2 S112 648 1511276 806 0
75 2 S112 636 1511912 1442 1
75 2 S112 622 1512534 2064 1
75 2 S112 614 1513148 2678 1
75 2 S112 616 1513764 3294 1
75 2 S112 623 1514387 3917 1
75 2 S112 632 1515019 4549 1
75 2 S112 649 1515668 5198 0
75 2 S112 665 1516333 5863 0
75 2 S112 680 1517013 6543 0
0 0 0 694 1517707 -9225 0
0 0 0 694 1518401 -8531 0
0 0 0 688 1519089 -7843 0
0 0 0 698 1519787 -7145 0
0 0 0 688 1520475 -6457 0
0 0 0 681 1521156 -5776 0
0 0 0 687 1521843 -5089 0
0 0 0 665 1522508 -4424 0
0 0 0 662 1523170 -3762 0
0 0 0 668 1523838 -3094 0
0 0 0 674 1524512 -2420 0
76 1 S116 703 1525215 -1717 0
76 1 S116 703 1525918 -1014 0
76 1 S116 711 1526629 -303 0
76 2 S116 734 1527363 431 0
76 2 S116 766 1528129 1197 0
76 2 S116 797 1528926 1994 0
76 2 S116 806 1529732 2800 0
76 2 S116 802 1530534 3602 0
76 2 S116 800 1531334 4402 0
76 2 S116 803 1532137 5205 0
76 2 S116 807 1532944 6012 0
76 2 S116 799 1533743 6811 0
0 0 0 790 1534533 -8149 0
0 0 0 794 1535327 -7355 0
0 0 0 783 1536110 -6572 0
0 0 0 762 1536872 -5810 0
0 0 0 761 1537633 -5049 0
0 0 0 761 1538394 -4288 0
0 0 0 775 1539169 -3513 0
0 0 0 765 1539934 -2748 0
77 1 S106 765 1540699 -1983 0
77 1 S106 784 1541483 -1199 0
77 1 S106 793 1542276 -406 0
77 2 S106 788 1543064 382 0
77 2 S106 768 1543832 1150 0
77 2 S106 789 1544621 1939 0
77 2 S106 783 1545404 2722 0
77 2 S106 783 1546187 3505 0
77 2 S106 764 1546951 4269 0
77 2 S106 776 1547727 5045 0
77 2 S106 806 1548533 5851 0
77 2 S106 824 1549357 6675 0
0 0 0 806 1550163 -10639 0
0 0 0 805 1550968 -9834 0
0 0 0 794 1551762 -9040 0
0 0 0 760 1552522 -8280 0
0 0 0 744 1553266 -7536 0
0 0 0 758 1554024 -6778 0
0 0 0 740 1554764 -6038 0
0 0 0 743 1555507 -5295 0
0 0 0 734 1556241 -4561 0
0 0 0 765 1557006 -3796 0
0 0 0 814 1557820 -2982 0
0 0 0 850 1558670 -2132 0
78 1 S112 852 1559522 -1280 0
78 1 S112 832 1560354 -448 0
78 2 S112 840 1561194 392 0
78 2 S112 847 1562041 1239 0
78 2 S112 837 1562878 2076 0
78 2 S112 802 1563680 2878 0
78 2 S112 789 1564469 3667 0
78 2 S112 787 1565256 4454 0
78 2 S112 790 1566046 5244 0
78 2 S112 794 1566840 6038 0
78 2 S112 795 1567635 6833 0
0 0 0 799 1568434 -12842 0
0 0 0 819 1569253 -12023 0
0 0 0 819 1570072 -11204 0
0 0 0 778 1570850 -10426 0
0 0 0 765 1571615 -9661 0
0 0 0 781 1572396 -8880 0
0 0 0 754 1573150 -8126 0
0 0 0 741 1573891 -7385 0
0 0 0 725 1574616 -6660 0
0 0 0 746 1575362 -5914 0
0 0 0 761 1576123 -5153 0
0 0 0 777 1576900 -4376 0
0 0 0 781 1577681 -3595 0
0 0 0 764 1578445 -2831 0
0 0 0 771 1579216 -2060 0
79 1 S102 767 1579983 -1293 0
79 1 S102 762 1580745 -531 0
79 2 S102 746 1581491 215 0
79 2 S102 746 1582237 961 0
79 2 S102 762 1582999 1723 0
79 2 S102 776 1583775 2499 0
79 2 S102 770 1584545 3269 0
79 2 S102 769 1585314 4038 0
79 2 S102 765 1586079 4803 0
79 2 S102 792 1586871 5595 0
79 2 S102 812 1587683 6407 0
0 0 0 822 1588505 -11306 0
0 0 0 804 1589309 -10502 0
0 0 0 763 1590072 -9739 0
0 0 0 781 1590853 -8958 0
0 0 0 772 1591625 -8186 0
0 0 0 786 1592411 -7400 0
0 0 0 766 1593177 -6634 0
0 0 0 760 1593937 -5874 0
0 0 0 759 1594696 -5115 0
0 0 0 761 1595457 -4354 0
0 0 0 745 1596202 -3609 0
0 0 0 757 1596959 -2852 0
0 0 0 763 1597722 -2089 0
80 1 S116 766 1598488 -1323 0
80 1 S116 753 1599241 -570 0
80 2 S116 748 1599989 178 0
80 2 S116 761 1600750 939 0
80 2 S116 765 1601515 1704 0
80 2 S116 760 1602275 2464 0
80 2 S116 749 1603024 3213 0
80 2 S116 756 1603780 3969 0
80 2 S116 762 1604542 4731 0
80 2 S116 787 1605329 5518 0
80 2 S116 774 1606103 6292 0
