T_0164
BeatCount Mean SD BeatCountNoOutliers MeanNoOutliers SDNoOutliers
1444 1074,01662049861 123,531966064313 1412 1079,6678470255 101,78618576845

Trial TrialStatus Trialtype IBI AbsPosition RelPosition Outlier
0 0 0 1011 1635 -13982 0
0 0 0 872 2507 -13110 0
0 0 0 990 3497 -12120 0
0 0 0 1014 4511 -11106 0
0 0 0 1003 5514 -10103 0
0 0 0 984 6498 -9119 0
0 0 0 976 7474 -8143 0
0 0 0 974 8448 -7169 0
0 0 0 982 9430 -6187 0
0 0 0 993 10423 -5194 0
0 0 0 980 11403 -4214 0
0 0 0 988 12391 -3226 0
0 0 0 1058 13449 -2168 0
1 1 S112 1069 14518 -1099 0
1 1 S112 1060 15578 -39 0
1 2 S112 1088 16666 1049 0
1 2 S112 1136 17802 2185 0
1 2 S112 1127 18929 3312 0
1 2 S112 1100 20029 4412 0
1 2 S112 1065 21094 5477 0
1 2 S112 1092 22186 6569 0
0 0 0 1114 23300 -10968 0
0 0 0 1033 24333 -9935 0
0 0 0 882 25215 -9053 0
0 0 0 923 26138 -8130 0
0 0 0 1099 27237 -7031 0
0 0 0 1199 28436 -5832 0
0 0 0 1090 29526 -4742 0
0 0 0 1083 30609 -3659 0
0 0 0 1100 31709 -2559 0
2 1 S102 1109 32818 -1450 0
2 1 S102 1114 33932 -336 0
2 2 S102 1101 35033 765 0
2 2 S102 1092 36125 1857 0
2 2 S102 1101 37226 2958 0
2 2 S102 1143 38369 4101 0
2 2 S102 1169 39538 5270 0
2 2 S102 1144 40682 6414 0
0 0 0 1116 41798 -8998 0
0 0 0 1168 42966 -7830 0
0 0 0 1173 44139 -6657 0
0 0 0 1184 45323 -5473 0
0 0 0 1183 46506 -4290 0
0 0 0 1206 47712 -3084 0
3 1 S116 1194 48906 -1890 0
3 1 S116 1178 50084 -712 0
3 2 S116 1096 51180 384 0
3 2 S116 1105 52285 1489 0
3 2 S116 1133 53418 2622 0
3 2 S116 1122 54540 3744 0
3 2 S116 1075 55615 4819 0
3 2 S116 1130 56745 5949 0
0 0 0 1205 57950 -12558 0
0 0 0 1163 59113 -11395 0
0 0 0 1159 60272 -10236 0
0 0 0 1195 61467 -9041 0
0 0 0 1146 62613 -7895 0
0 0 0 1089 63702 -6806 0
0 0 0 1110 64812 -5696 0
0 0 0 1112 65924 -4584 0
0 0 0 1078 67002 -3506 0
0 0 0 1087 68089 -2419 0
4 1 S106 1143 69232 -1276 0
4 1 S106 1152 70384 -124 0
4 2 S106 1116 71500 992 0
4 2 S106 1153 72653 2145 0
4 2 S106 1143 73796 3288 0
4 2 S106 1086 74882 4374 0
4 2 S106 1006 75888 5380 0
4 2 S106 1002 76890 6382 0
0 0 0 998 77888 -8187 0
0 0 0 894 78782 -7293 0
0 0 0 806 79588 -6487 0
0 0 0 903 80491 -5584 0
0 0 0 978 81469 -4606 0
0 0 0 960 82429 -3646 0
0 0 0 925 83354 -2721 0
5 1 S116 945 84299 -1776 0
5 1 S116 977 85276 -799 0
5 2 S116 963 86239 164 0
5 2 S116 955 87194 1119 0
5 2 S116 952 88146 2071 0
5 2 S116 971 89117 3042 0
5 2 S116 1007 90124 4049 0
5 2 S116 1018 91142 5067 0
5 2 S116 1027 92169 6094 0
0 0 0 1118 93287 -9615 0
0 0 0 1145 94432 -8470 0
0 0 0 1136 95568 -7334 0
0 0 0 1046 96614 -6288 0
0 0 0 1055 97669 -5233 0
0 0 0 1045 98714 -4188 0
0 0 0 1000 99714 -3188 0
0 0 0 988 100702 -2200 0
6 1 S106 1026 101728 -1174 0
6 1 S106 1081 102809 -93 0
6 2 S106 1065 103874 972 0
6 2 S106 1020 104894 1992 0
6 2 S106 1018 105912 3010 0
6 2 S106 1058 106970 4068 0
6 2 S106 1061 108031 5129 0
6 2 S106 1034 109065 6163 0
0 0 0 1077 110142 -13284 0
0 0 0 1147 111289 -12137 0
0 0 0 1134 112423 -11003 0
0 0 0 1059 113482 -9944 0
0 0 0 1071 114553 -8873 0
0 0 0 1041 115594 -7832 0
0 0 0 940 116534 -6892 0
0 0 0 829 117363 -6063 0
0 0 0 915 118278 -5148 0
0 0 0 984 119262 -4164 0
0 0 0 968 120230 -3196 0
0 0 0 1011 121241 -2185 0
7 1 S102 1049 122290 -1136 0
7 1 S102 1042 123332 -94 0
7 2 S102 999 124331 905 0
7 2 S102 994 125325 1899 0
7 2 S102 1024 126349 2923 0
7 2 S102 1056 127405 3979 0
7 2 S102 1040 128445 5019 0
7 2 S102 1042 129487 6061 0
0 0 0 1098 130585 -10066 0
0 0 0 1123 131708 -8943 0
0 0 0 1088 132796 -7855 0
0 0 0 1094 133890 -6761 0
0 0 0 1090 134980 -5671 0
0 0 0 1076 136056 -4595 0
0 0 0 1037 137093 -3558 0
0 0 0 1080 138173 -2478 0
8 1 S112 1107 139280 -1371 0
8 1 S112 1092 140372 -279 0
8 2 S112 1046 141418 767 0
8 2 S112 1087 142505 1854 0
8 2 S112 1100 143605 2954 0
8 2 S112 1137 144742 4091 0
8 2 S112 1104 145846 5195 0
8 2 S112 1113 146959 6308 0
0 0 0 1145 148104 -9142 0
0 0 0 1172 149276 -7970 0
0 0 0 1111 150387 -6859 0
0 0 0 1115 151502 -5744 0
0 0 0 1111 152613 -4633 0
0 0 0 1096 153709 -3537 0
0 0 0 1025 154734 -2512 0
9 1 S116 956 155690 -1556 0
9 1 S116 946 156636 -610 0
9 2 S116 989 157625 379 0
9 2 S116 1045 158670 1424 0
9 2 S116 1061 159731 2485 0
9 2 S116 1101 160832 3586 0
9 2 S116 1099 161931 4685 0
9 2 S116 1067 162998 5752 0
9 2 S116 1015 164013 6767 0
0 0 0 1020 165033 -11162 0
0 0 0 1019 166052 -10143 0
0 0 0 998 167050 -9145 0
0 0 0 932 167982 -8213 0
0 0 0 957 168939 -7256 0
0 0 0 988 169927 -6268 0
0 0 0 1012 170939 -5256 0
0 0 0 998 171937 -4258 0
0 0 0 1122 173059 -3136 0
10 1 S102 1246 174305 -1890 0
10 1 S102 1197 175502 -693 0
10 2 S102 1116 176618 423 0
10 2 S102 1117 177735 1540 0
10 2 S102 1133 178868 2673 0
10 2 S102 1102 179970 3775 0
10 2 S102 1067 181037 4842 0
10 2 S102 1094 182131 5936 0
0 0 0 1112 183243 -11537 0
0 0 0 1096 184339 -10441 0
0 0 0 1143 185482 -9298 0
0 0 0 1128 186610 -8170 0
0 0 0 1056 187666 -7114 0
0 0 0 988 188654 -6126 0
0 0 0 1076 189730 -5050 0
0 0 0 1152 190882 -3898 0
0 0 0 1093 191975 -2805 0
11 1 S112 1105 193080 -1700 0
11 1 S112 1108 194188 -592 0
11 2 S112 1097 195285 505 0
11 2 S112 1042 196327 1547 0
11 2 S112 1066 197393 2613 0
11 2 S112 1129 198522 3742 0
11 2 S112 1112 199634 4854 0
11 2 S112 1071 200705 5925 0
11 2 S112 1055 201760 6980 0
0 0 0 1087 202847 -7118 0
0 0 0 1155 204002 -5963 0
0 0 0 1115 205117 -4848 0
0 0 0 1101 206218 -3747 0
0 0 0 1105 207323 -2642 0
12 1 S116 1052 208375 -1590 0
12 1 S116 1031 209406 -559 0
12 2 S116 1064 210470 505 0
12 2 S116 1124 211594 1629 0
12 2 S116 1088 212682 2717 0
12 2 S116 1111 213793 3828 0
12 2 S116 1118 214911 4946 0
12 2 S116 1085 215996 6031 0
0 0 0 1072 217068 -11366 0
0 0 0 1114 218182 -10252 0
0 0 0 1159 219341 -9093 0
0 0 0 1076 220417 -8017 0
0 0 0 1024 221441 -6993 0
0 0 0 882 222323 -6111 0
0 0 0 962 223285 -5149 0
0 0 0 1079 224364 -4070 0
0 0 0 1054 225418 -3016 0
13 1 S112 1095 226513 -1921 0
13 1 S112 1098 227611 -823 0
13 2 S112 1093 228704 270 0
13 2 S112 1054 229758 1324 0
13 2 S112 1066 230824 2390 0
13 2 S112 1108 231932 3498 0
13 2 S112 1177 233109 4675 0
13 2 S112 1147 234256 5822 0
13 2 S112 1132 235388 6954 0
0 0 0 1170 236558 -10875 0
0 0 0 1208 237766 -9667 0
0 0 0 1167 238933 -8500 0
0 0 0 1172 240105 -7328 0
0 0 0 1195 241300 -6133 0
0 0 0 1173 242473 -4960 0
0 0 0 1136 243609 -3824 0
0 0 0 1208 244817 -2616 0
14 1 S106 1181 245998 -1435 0
14 1 S106 1138 247136 -297 0
14 2 S106 1156 248292 859 0
14 2 S106 1136 249428 1995 0
14 2 S106 1118 250546 3113 0
14 2 S106 1055 251601 4168 0
14 2 S106 1096 252697 5264 0
14 2 S106 1152 253849 6416 0
0 0 0 1147 254996 -12745 0
0 0 0 1109 256105 -11636 0
0 0 0 1140 257245 -10496 0
0 0 0 1188 258433 -9308 0
0 0 0 1172 259605 -8136 0
0 0 0 972 260577 -7164 0
0 0 0 928 261505 -6236 0
0 0 0 928 262433 -5308 0
0 0 0 890 263323 -4418 0
0 0 0 824 264147 -3594 0
0 0 0 886 265033 -2708 0
15 1 S116 884 265917 -1824 0
15 1 S116 872 266789 -952 0
15 1 S116 802 267591 -150 0
15 2 S116 782 268373 632 0
15 2 S116 845 269218 1477 0
15 2 S116 915 270133 2392 0
15 2 S116 937 271070 3329 0
15 2 S116 939 272009 4268 0
15 2 S116 931 272940 5199 0
15 2 S116 960 273900 6159 0
0 0 0 984 274884 -9717 0
0 0 0 1035 275919 -8682 0
0 0 0 1047 276966 -7635 0
0 0 0 1030 277996 -6605 0
0 0 0 1046 279042 -5559 0
0 0 0 1056 280098 -4503 0
0 0 0 1004 281102 -3499 0
0 0 0 1014 282116 -2485 0
16 1 S116 1030 283146 -1455 0
16 1 S116 1026 284172 -429 0
16 2 S116 900 285072 471 0
16 2 S116 872 285944 1343 0
16 2 S116 958 286902 2301 0
16 2 S116 1051 287953 3352 0
16 2 S116 1134 289087 4486 0
16 2 S116 1118 290205 5604 0
16 2 S116 1078 291283 6682 0
0 0 0 1059 292342 -9899 0
0 0 0 1058 293400 -8841 0
0 0 0 1067 294467 -7774 0
0 0 0 1030 295497 -6744 0
0 0 0 957 296454 -5787 0
0 0 0 938 297392 -4849 0
0 0 0 972 298364 -3877 0
0 0 0 989 299353 -2888 0
17 1 S106 985 300338 -1903 0
17 1 S106 983 301321 -920 0
17 2 S106 1008 302329 88 0
17 2 S106 998 303327 1086 0
17 2 S106 974 304301 2060 0
17 2 S106 938 305239 2998 0
17 2 S106 920 306159 3918 0
17 2 S106 952 307111 4870 0
17 2 S106 993 308104 5863 0
17 2 S106 982 309086 6845 0
0 0 0 959 310045 -11858 0
0 0 0 999 311044 -10859 0
0 0 0 1091 312135 -9768 0
0 0 0 1049 313184 -8719 0
0 0 0 1004 314188 -7715 0
0 0 0 968 315156 -6747 0
0 0 0 973 316129 -5774 0
0 0 0 938 317067 -4836 0
0 0 0 996 318063 -3840 0
0 0 0 1064 319127 -2776 0
18 1 S102 1051 320178 -1725 0
18 1 S102 1053 321231 -672 0
18 2 S102 1067 322298 395 0
18 2 S102 1091 323389 1486 0
18 2 S102 1037 324426 2523 0
18 2 S102 1029 325455 3552 0
18 2 S102 1018 326473 4570 0
18 2 S102 1036 327509 5606 0
18 2 S102 996 328505 6602 0
0 0 0 1012 329517 -5765 0
0 0 0 1031 330548 -4734 0
0 0 0 1070 331618 -3664 0
0 0 0 1036 332654 -2628 0
19 1 S106 1037 333691 -1591 0
19 1 S106 1063 334754 -528 0
19 2 S106 1072 335826 544 0
19 2 S106 1021 336847 1565 0
19 2 S106 1016 337863 2581 0
19 2 S106 1027 338890 3608 0
19 2 S106 1050 339940 4658 0
19 2 S106 1022 340962 5680 0
19 2 S106 1032 341994 6712 0
0 0 0 1064 343058 -12283 0
0 0 0 1073 344131 -11210 0
0 0 0 1014 345145 -10196 0
0 0 0 1032 346177 -9164 0
0 0 0 1002 347179 -8162 0
0 0 0 969 348148 -7193 0
0 0 0 918 349066 -6275 0
0 0 0 975 350041 -5300 0
0 0 0 1020 351061 -4280 0
0 0 0 1028 352089 -3252 0
0 0 0 1038 353127 -2214 0
20 1 S112 1067 354194 -1147 0
20 1 S112 1060 355254 -87 0
20 2 S112 1015 356269 928 0
20 2 S112 1020 357289 1948 0
20 2 S112 1037 358326 2985 0
20 2 S112 1046 359372 4031 0
20 2 S112 1014 360386 5045 0
20 2 S112 1006 361392 6051 0
0 0 0 1044 362436 -10081 0
0 0 0 1061 363497 -9020 0
0 0 0 1039 364536 -7981 0
0 0 0 1029 365565 -6952 0
0 0 0 1066 366631 -5886 0
0 0 0 1076 367707 -4810 0
0 0 0 1047 368754 -3763 0
0 0 0 1048 369802 -2715 0
21 1 S106 1074 370876 -1641 0
21 1 S106 1041 371917 -600 0
21 2 S106 1021 372938 421 0
21 2 S106 1044 373982 1465 0
21 2 S106 1063 375045 2528 0
21 2 S106 1035 376080 3563 0
21 2 S106 1048 377128 4611 0
21 2 S106 1077 378205 5688 0
21 2 S106 1084 379289 6772 0
0 0 0 1026 380315 -11698 0
0 0 0 1033 381348 -10665 0
0 0 0 1042 382390 -9623 0
0 0 0 1046 383436 -8577 0
0 0 0 1018 384454 -7559 0
0 0 0 1050 385504 -6509 0
0 0 0 1092 386596 -5417 0
0 0 0 1062 387658 -4355 0
0 0 0 1067 388725 -3288 0
0 0 0 1063 389788 -2225 0
22 1 S116 1011 390799 -1214 0
22 1 S116 960 391759 -254 0
22 2 S116 963 392722 709 0
22 2 S116 989 393711 1698 0
22 2 S116 982 394693 2680 0
22 2 S116 986 395679 3666 0
22 2 S116 1005 396684 4671 0
22 2 S116 1074 397758 5745 0
22 2 S116 1081 398839 6826 0
0 0 0 1049 399888 -9317 0
0 0 0 1025 400913 -8292 0
0 0 0 1037 401950 -7255 0
0 0 0 1041 402991 -6214 0
0 0 0 993 403984 -5221 0
0 0 0 968 404952 -4253 0
0 0 0 1010 405962 -3243 0
0 0 0 1038 407000 -2205 0
23 1 S112 1018 408018 -1187 0
23 1 S112 1042 409060 -145 0
23 2 S112 1072 410132 927 0
23 2 S112 1069 411201 1996 0
23 2 S112 1048 412249 3044 0
23 2 S112 1067 413316 4111 0
23 2 S112 1068 414384 5179 0
23 2 S112 1070 415454 6249 0
0 0 0 1038 416492 -9324 0
0 0 0 1048 417540 -8276 0
0 0 0 1072 418612 -7204 0
0 0 0 1048 419660 -6156 0
0 0 0 1005 420665 -5151 0
0 0 0 1009 421674 -4142 0
0 0 0 1036 422710 -3106 0
0 0 0 1072 423782 -2034 0
24 1 S106 1018 424800 -1016 0
24 2 S106 1028 425828 12 0
24 2 S106 1061 426889 1073 0
24 2 S106 1058 427947 2131 0
24 2 S106 1025 428972 3156 0
24 2 S106 1009 429981 4165 0
24 2 S106 1023 431004 5188 0
24 2 S106 1016 432020 6204 0
0 0 0 991 433011 -9218 0
0 0 0 996 434007 -8222 0
0 0 0 1040 435047 -7182 0
0 0 0 1042 436089 -6140 0
0 0 0 999 437088 -5141 0
0 0 0 968 438056 -4173 0
0 0 0 982 439038 -3191 0
0 0 0 988 440026 -2203 0
25 1 S102 1001 441027 -1202 0
25 1 S102 992 442019 -210 0
25 2 S102 1010 443029 800 0
25 2 S102 1026 444055 1826 0
25 2 S102 1011 445066 2837 0
25 2 S102 969 446035 3806 0
25 2 S102 962 446997 4768 0
25 2 S102 999 447996 5767 0
25 2 S102 1008 449004 6775 0
0 0 0 988 449992 -7605 0
0 0 0 954 450946 -6651 0
0 0 0 982 451928 -5669 0
0 0 0 987 452915 -4682 0
0 0 0 889 453804 -3793 0
0 0 0 797 454601 -2996 0
0 0 0 752 455353 -2244 1
26 1 S116 734 456087 -1510 1
26 1 S116 710 456797 -800 1
26 1 S116 757 457554 -43 0
26 2 S116 822 458376 779 0
26 2 S116 875 459251 1654 0
26 2 S116 909 460160 2563 0
26 2 S116 929 461089 3492 0
26 2 S116 898 461987 4390 0
26 2 S116 866 462853 5256 0
26 2 S116 876 463729 6132 0
26 2 S116 871 464600 7003 0
0 0 0 834 465434 -6619 0
0 0 0 781 466215 -5838 0
0 0 0 803 467018 -5035 0
0 0 0 753 467771 -4282 1
0 0 0 753 468524 -3529 1
0 0 0 712 469236 -2817 1
0 0 0 742 469978 -2075 1
27 1 S106 870 470848 -1205 0
27 1 S106 1140 471988 -65 0
27 2 S106 1153 473141 1088 0
27 2 S106 1192 474333 2280 0
27 2 S106 1175 475508 3455 0
27 2 S106 1144 476652 4599 0
27 2 S106 1162 477814 5761 0
27 2 S106 1156 478970 6917 0
0 0 0 1090 480060 -7295 0
0 0 0 1082 481142 -6213 0
0 0 0 1076 482218 -5137 0
0 0 0 1025 483243 -4112 0
0 0 0 1101 484344 -3011 0
28 1 S102 1174 485518 -1837 0
28 1 S102 1135 486653 -702 0
28 2 S102 1210 487863 508 0
28 2 S102 1200 489063 1708 0
28 2 S102 1095 490158 2803 0
28 2 S102 1130 491288 3933 0
28 2 S102 1190 492478 5123 0
28 2 S102 1142 493620 6265 0
0 0 0 1209 494829 -10912 0
0 0 0 1208 496037 -9704 0
0 0 0 1134 497171 -8570 0
0 0 0 1143 498314 -7427 0
0 0 0 1172 499486 -6255 0
0 0 0 1133 500619 -5122 0
0 0 0 1211 501830 -3911 0
0 0 0 1245 503075 -2666 0
29 1 S112 1185 504260 -1481 0
29 1 S112 1155 505415 -326 0
29 2 S112 1224 506639 898 0
29 2 S112 1237 507876 2135 0
29 2 S112 1169 509045 3304 0
29 2 S112 1169 510214 4473 0
29 2 S112 1270 511484 5743 0
29 2 S112 1250 512734 6993 0
0 0 0 1182 513916 -7723 0
0 0 0 1214 515130 -6509 0
0 0 0 1243 516373 -5266 0
0 0 0 1198 517571 -4068 0
0 0 0 1234 518805 -2834 0
30 1 S112 1200 520005 -1634 0
30 1 S112 1177 521182 -457 0
30 2 S112 1248 522430 791 0
30 2 S112 1244 523674 2035 0
30 2 S112 1187 524861 3222 0
30 2 S112 1211 526072 4433 0
30 2 S112 1243 527315 5676 0
30 2 S112 1220 528535 6896 0
0 0 0 1171 529706 -9523 0
0 0 0 1161 530867 -8362 0
0 0 0 1215 532082 -7147 0
0 0 0 1194 533276 -5953 0
0 0 0 1136 534412 -4817 0
0 0 0 1156 535568 -3661 0
0 0 0 1186 536754 -2475 0
31 1 S106 1189 537943 -1286 0
31 1 S106 1163 539106 -123 0
31 2 S106 1192 540298 1069 0
31 2 S106 1197 541495 2266 0
31 2 S106 1123 542618 3389 0
31 2 S106 1141 543759 4530 0
31 2 S106 1169 544928 5699 0
31 2 S106 1109 546037 6808 0
0 0 0 1132 547169 -10197 0
0 0 0 1192 548361 -9005 0
0 0 0 1181 549542 -7824 0
0 0 0 1106 550648 -6718 0
0 0 0 1109 551757 -5609 0
0 0 0 1058 552815 -4551 0
0 0 0 1030 553845 -3521 0
0 0 0 1102 554947 -2419 0
32 1 S102 1151 556098 -1268 0
32 1 S102 1098 557196 -170 0
32 2 S102 1101 558297 931 0
32 2 S102 1116 559413 2047 0
32 2 S102 1094 560507 3141 0
32 2 S102 1045 561552 4186 0
32 2 S102 1060 562612 5246 0
32 2 S102 1119 563731 6365 0
0 0 0 1116 564847 -12297 0
0 0 0 1093 565940 -11204 0
0 0 0 1087 567027 -10117 0
0 0 0 1122 568149 -8995 0
0 0 0 1143 569292 -7852 0
0 0 0 1068 570360 -6784 0
0 0 0 1075 571435 -5709 0
0 0 0 1124 572559 -4585 0
0 0 0 1162 573721 -3423 0
0 0 0 1131 574852 -2292 0
33 1 S112 1155 576007 -1137 0
33 2 S112 1169 577176 32 0
33 2 S112 1122 578298 1154 0
33 2 S112 1113 579411 2267 0
33 2 S112 1149 580560 3416 0
33 2 S112 1191 581751 4607 0
33 2 S112 1171 582922 5778 0
33 2 S112 1178 584100 6956 0
0 0 0 1192 585292 -11646 0
0 0 0 1177 586469 -10469 0
0 0 0 1119 587588 -9350 0
0 0 0 1135 588723 -8215 0
0 0 0 1172 589895 -7043 0
0 0 0 1106 591001 -5937 0
0 0 0 1117 592118 -4820 0
0 0 0 1153 593271 -3667 0
0 0 0 1142 594413 -2525 0
34 1 S106 1083 595496 -1442 0
34 1 S106 1104 596600 -338 0
34 2 S106 1133 597733 795 0
34 2 S106 1092 598825 1887 0
34 2 S106 1096 599921 2983 0
34 2 S106 1111 601032 4094 0
34 2 S106 1133 602165 5227 0
34 2 S106 1074 603239 6301 0
0 0 0 1095 604334 -9581 0
0 0 0 1142 605476 -8439 0
0 0 0 1126 606602 -7313 0
0 0 0 1079 607681 -6234 0
0 0 0 1099 608780 -5135 0
0 0 0 1126 609906 -4009 0
0 0 0 1059 610965 -2950 0
35 1 S102 1071 612036 -1879 0
35 1 S102 1111 613147 -768 0
35 2 S102 1142 614289 374 0
35 2 S102 1100 615389 1474 0
35 2 S102 1111 616500 2585 0
35 2 S102 1120 617620 3705 0
35 2 S102 1114 618734 4819 0
35 2 S102 1087 619821 5906 0
35 2 S102 1092 620913 6998 0
0 0 0 1130 622043 -8185 0
0 0 0 1126 623169 -7059 0
0 0 0 1093 624262 -5966 0
0 0 0 1118 625380 -4848 0
0 0 0 1126 626506 -3722 0
0 0 0 1067 627573 -2655 0
36 1 S106 1018 628591 -1637 0
36 1 S106 1084 629675 -553 0
36 2 S106 1139 630814 586 0
36 2 S106 1078 631892 1664 0
36 2 S106 1076 632968 2740 0
36 2 S106 1095 634063 3835 0
36 2 S106 1108 635171 4943 0
36 2 S106 1071 636242 6014 0
0 0 0 1116 637358 -9548 0
0 0 0 1122 638480 -8426 0
0 0 0 1124 639604 -7302 0
0 0 0 1025 640629 -6277 0
0 0 0 962 641591 -5315 0
0 0 0 874 642465 -4441 0
0 0 0 805 643270 -3636 0
0 0 0 739 644009 -2897 1
0 0 0 710 644719 -2187 1
37 1 S116 710 645429 -1477 1
37 1 S116 815 646244 -662 0
37 2 S116 943 647187 281 0
37 2 S116 981 648168 1262 0
37 2 S116 1000 649168 2262 0
37 2 S116 980 650148 3242 0
37 2 S116 988 651136 4230 0
37 2 S116 966 652102 5196 0
37 2 S116 958 653060 6154 0
0 0 0 914 653974 -11218 0
0 0 0 892 654866 -10326 0
0 0 0 889 655755 -9437 0
0 0 0 843 656598 -8594 0
0 0 0 775 657373 -7819 0
0 0 0 756 658129 -7063 0
0 0 0 772 658901 -6291 0
0 0 0 773 659674 -5518 0
0 0 0 773 660447 -4745 0
0 0 0 843 661290 -3902 0
0 0 0 1116 662406 -2786 0
38 1 S102 1145 663551 -1641 0
38 1 S102 1119 664670 -522 0
38 2 S102 1164 665834 642 0
38 2 S102 1160 666994 1802 0
38 2 S102 1121 668115 2923 0
38 2 S102 1056 669171 3979 0
38 2 S102 1091 670262 5070 0
38 2 S102 1120 671382 6190 0
0 0 0 1073 672455 -8337 0
0 0 0 1079 673534 -7258 0
0 0 0 1137 674671 -6121 0
0 0 0 1162 675833 -4959 0
0 0 0 1128 676961 -3831 0
0 0 0 1271 678232 -2560 0
39 1 S116 1244 679476 -1316 0
39 1 S116 1204 680680 -112 0
39 2 S116 1259 681939 1147 0
39 2 S116 1195 683134 2342 0
39 2 S116 1095 684229 3437 0
39 2 S116 1154 685383 4591 0
39 2 S116 1213 686596 5804 0
39 2 S116 1178 687774 6982 0
0 0 0 1165 688939 -7204 0
0 0 0 1221 690160 -5983 0
0 0 0 1207 691367 -4776 0
0 0 0 1104 692471 -3672 0
0 0 0 1166 693637 -2506 0
40 1 S112 1278 694915 -1228 0
40 1 S112 1189 696104 -39 0
40 2 S112 1222 697326 1183 0
40 2 S112 1246 698572 2429 0
40 2 S112 1198 699770 3627 0
40 2 S112 1172 700942 4799 0
40 2 S112 1210 702152 6009 0
0 0 0 1193 703345 -187993 0
0 0 0 1151 704496 -186842 0
0 0 0 1191 705687 -185651 0
0 0 0 1218 706905 -184433 0
0 0 0 1195 708100 -183238 0
0 0 0 1186 709286 -182052 0
0 0 0 1061 710347 -180991 0
0 0 0 871 711218 -180120 0
0 0 0 852 712070 -179268 0
0 0 0 792 712862 -178476 0
0 0 0 761 713623 -177715 0
0 0 0 737 714360 -176978 1
0 0 0 720 715080 -176258 1
0 0 0 717 715797 -175541 1
0 0 0 735 716532 -174806 1
0 0 0 798 717330 -174008 0
0 0 0 877 718207 -173131 0
0 0 0 1618 719825 -171513 1
0 0 0 2826 722651 -168687 1
0 0 0 1298 723949 -167389 0
0 0 0 633 724582 -166756 1
0 0 0 623 725205 -166133 1
0 0 0 616 725821 -165517 1
0 0 0 618 726439 -164899 1
0 0 0 638 727077 -164261 1
0 0 0 649 727726 -163612 1
0 0 0 776 728502 -162836 0
0 0 0 743 729245 -162093 1
0 0 0 806 730051 -161287 0
0 0 0 858 730909 -160429 0
0 0 0 762 731671 -159667 0
0 0 0 734 732405 -158933 1
0 0 0 818 733223 -158115 0
0 0 0 914 734137 -157201 0
0 0 0 973 735110 -156228 0
0 0 0 951 736061 -155277 0
0 0 0 947 737008 -154330 0
0 0 0 939 737947 -153391 0
0 0 0 944 738891 -152447 0
0 0 0 933 739824 -151514 0
0 0 0 944 740768 -150570 0
0 0 0 985 741753 -149585 0
0 0 0 1015 742768 -148570 0
0 0 0 1049 743817 -147521 0
0 0 0 1035 744852 -146486 0
0 0 0 1055 745907 -145431 0
0 0 0 1006 746913 -144425 0
0 0 0 1004 747917 -143421 0
0 0 0 1014 748931 -142407 0
0 0 0 1014 749945 -141393 0
0 0 0 1036 750981 -140357 0
0 0 0 1059 752040 -139298 0
0 0 0 1117 753157 -138181 0
0 0 0 1070 754227 -137111 0
0 0 0 936 755163 -136175 0
0 0 0 925 756088 -135250 0
0 0 0 943 757031 -134307 0
0 0 0 993 758024 -133314 0
0 0 0 1017 759041 -132297 0
0 0 0 1052 760093 -131245 0
0 0 0 1032 761125 -130213 0
0 0 0 964 762089 -129249 0
0 0 0 890 762979 -128359 0
0 0 0 813 763792 -127546 0
0 0 0 769 764561 -126777 0
0 0 0 729 765290 -126048 1
0 0 0 709 765999 -125339 1
0 0 0 835 766834 -124504 0
0 0 0 932 767766 -123572 0
0 0 0 1097 768863 -122475 0
0 0 0 1144 770007 -121331 0
0 0 0 1028 771035 -120303 0
0 0 0 1146 772181 -119157 0
0 0 0 1119 773300 -118038 0
0 0 0 998 774298 -117040 0
0 0 0 1014 775312 -116026 0
0 0 0 1119 776431 -114907 0
0 0 0 1129 777560 -113778 0
0 0 0 1092 778652 -112686 0
0 0 0 1214 779866 -111472 0
0 0 0 1253 781119 -110219 0
0 0 0 1180 782299 -109039 0
0 0 0 1200 783499 -107839 0
0 0 0 1217 784716 -106622 0
0 0 0 1164 785880 -105458 0
0 0 0 1188 787068 -104270 0
0 0 0 1232 788300 -103038 0
0 0 0 1175 789475 -101863 0
0 0 0 1142 790617 -100721 0
0 0 0 1235 791852 -99486 0
0 0 0 1232 793084 -98254 0
0 0 0 1172 794256 -97082 0
0 0 0 1187 795443 -95895 0
0 0 0 1208 796651 -94687 0
0 0 0 1151 797802 -93536 0
0 0 0 1128 798930 -92408 0
0 0 0 1154 800084 -91254 0
0 0 0 1171 801255 -90083 0
0 0 0 1092 802347 -88991 0
0 0 0 1092 803439 -87899 0
0 0 0 1103 804542 -86796 0
0 0 0 1115 805657 -85681 0
0 0 0 1080 806737 -84601 0
0 0 0 1112 807849 -83489 0
0 0 0 1128 808977 -82361 0
0 0 0 1065 810042 -81296 0
0 0 0 1058 811100 -80238 0
0 0 0 1055 812155 -79183 0
0 0 0 1045 813200 -78138 0
0 0 0 1030 814230 -77108 0
0 0 0 1045 815275 -76063 0
0 0 0 1071 816346 -74992 0
0 0 0 1049 817395 -73943 0
0 0 0 1014 818409 -72929 0
0 0 0 1007 819416 -71922 0
0 0 0 1014 820430 -70908 0
0 0 0 997 821427 -69911 0
0 0 0 985 822412 -68926 0
0 0 0 1039 823451 -67887 0
0 0 0 1058 824509 -66829 0
0 0 0 1034 825543 -65795 0
0 0 0 1066 826609 -64729 0
0 0 0 1068 827677 -63661 0
0 0 0 996 828673 -62665 0
0 0 0 907 829580 -61758 0
0 0 0 899 830479 -60859 0
0 0 0 935 831414 -59924 0
0 0 0 931 832345 -58993 0
0 0 0 862 833207 -58131 0
0 0 0 863 834070 -57268 0
0 0 0 951 835021 -56317 0
0 0 0 992 836013 -55325 0
0 0 0 1017 837030 -54308 0
0 0 0 993 838023 -53315 0
0 0 0 1026 839049 -52289 0
0 0 0 1010 840059 -51279 0
0 0 0 986 841045 -50293 0
0 0 0 961 842006 -49332 0
0 0 0 958 842964 -48374 0
0 0 0 985 843949 -47389 0
0 0 0 992 844941 -46397 0
0 0 0 978 845919 -45419 0
0 0 0 1024 846943 -44395 0
0 0 0 1092 848035 -43303 0
0 0 0 1096 849131 -42207 0
0 0 0 1106 850237 -41101 0
0 0 0 1145 851382 -39956 0
0 0 0 1126 852508 -38830 0
0 0 0 1093 853601 -37737 0
0 0 0 1110 854711 -36627 0
0 0 0 1098 855809 -35529 0
0 0 0 1057 856866 -34472 0
0 0 0 1086 857952 -33386 0
0 0 0 1132 859084 -32254 0
0 0 0 1126 860210 -31128 0
0 0 0 1096 861306 -30032 0
0 0 0 1130 862436 -28902 0
0 0 0 1112 863548 -27790 0
0 0 0 1080 864628 -26710 0
0 0 0 1093 865721 -25617 0
0 0 0 1118 866839 -24499 0
0 0 0 1118 867957 -23381 0
0 0 0 1111 869068 -22270 0
0 0 0 1171 870239 -21099 0
0 0 0 1186 871425 -19913 0
0 0 0 1124 872549 -18789 0
0 0 0 1129 873678 -17660 0
0 0 0 1136 874814 -16524 0
0 0 0 1147 875961 -15377 0
0 0 0 1092 877053 -14285 0
0 0 0 1111 878164 -13174 0
0 0 0 1129 879293 -12045 0
0 0 0 1114 880407 -10931 0
0 0 0 1083 881490 -9848 0
0 0 0 1144 882634 -8704 0
0 0 0 1158 883792 -7546 0
0 0 0 1153 884945 -6393 0
0 0 0 1100 886045 -5293 0
0 0 0 1118 887163 -4175 0
0 0 0 1063 888226 -3112 0
0 0 0 971 889197 -2141 0
41 1 S102 922 890119 -1219 0
41 1 S102 900 891019 -319 0
41 2 S102 817 891836 498 0
41 2 S102 801 892637 1299 0
41 2 S102 840 893477 2139 0
41 2 S102 906 894383 3045 0
41 2 S102 886 895269 3931 0
41 2 S102 870 896139 4801 0
41 2 S102 814 896953 5615 0
41 2 S102 795 897748 6410 0
0 0 0 848 898596 -6750 0
0 0 0 945 899541 -5805 0
0 0 0 919 900460 -4886 0
0 0 0 874 901334 -4012 0
0 0 0 889 902223 -3123 0
0 0 0 894 903117 -2229 0
42 1 S112 867 903984 -1362 0
42 1 S112 837 904821 -525 0
42 2 S112 835 905656 310 0
42 2 S112 915 906571 1225 0
42 2 S112 1003 907574 2228 0
42 2 S112 1058 908632 3286 0
42 2 S112 1162 909794 4448 0
42 2 S112 1224 911018 5672 0
42 2 S112 1214 912232 6886 0
0 0 0 1171 913403 -8406 0
0 0 0 1207 914610 -7199 0
0 0 0 1149 915759 -6050 0
0 0 0 1087 916846 -4963 0
0 0 0 1160 918006 -3803 0
0 0 0 1233 919239 -2570 0
43 1 S116 1188 920427 -1382 0
43 1 S116 1182 921609 -200 0
43 2 S116 1236 922845 1036 0
43 2 S116 1208 924053 2244 0
43 2 S116 1172 925225 3416 0
43 2 S116 1222 926447 4638 0
43 2 S116 1253 927700 5891 0
0 0 0 1206 928906 -7674 0
0 0 0 1235 930141 -6439 0
0 0 0 1305 931446 -5134 0
0 0 0 1201 932647 -3933 0
0 0 0 1224 933871 -2709 0
44 1 S102 1229 935100 -1480 0
44 1 S102 1133 936233 -347 0
44 2 S102 1213 937446 866 0
44 2 S102 1275 938721 2141 0
44 2 S102 1252 939973 3393 0
44 2 S102 1201 941174 4594 0
44 2 S102 1223 942397 5817 0
0 0 0 1242 943639 -8641 0
0 0 0 1170 944809 -7471 0
0 0 0 1138 945947 -6333 0
0 0 0 1153 947100 -5180 0
0 0 0 1177 948277 -4003 0
0 0 0 1110 949387 -2893 0
45 1 S116 1194 950581 -1699 0
45 1 S116 1229 951810 -470 0
45 2 S116 1205 953015 735 0
45 2 S116 1152 954167 1887 0
45 2 S116 1171 955338 3058 0
45 2 S116 1190 956528 4248 0
45 2 S116 1176 957704 5424 0
45 2 S116 1155 958859 6579 0
0 0 0 1201 960060 -11567 0
0 0 0 1199 961259 -10368 0
0 0 0 1176 962435 -9192 0
0 0 0 1169 963604 -8023 0
0 0 0 1186 964790 -6837 0
0 0 0 1127 965917 -5710 0
0 0 0 1163 967080 -4547 0
0 0 0 1192 968272 -3355 0
0 0 0 1168 969440 -2187 0
46 1 S102 1107 970547 -1080 0
46 2 S102 1163 971710 83 0
46 2 S102 1208 972918 1291 0
46 2 S102 1208 974126 2499 0
46 2 S102 1176 975302 3675 0
46 2 S102 1166 976468 4841 0
46 2 S102 1169 977637 6010 0
0 0 0 1115 978752 -10299 0
0 0 0 1135 979887 -9164 0
0 0 0 1198 981085 -7966 0
0 0 0 1173 982258 -6793 0
0 0 0 1093 983351 -5700 0
0 0 0 1046 984397 -4654 0
0 0 0 1049 985446 -3605 0
0 0 0 1085 986531 -2520 0
47 1 S112 1107 987638 -1413 0
47 1 S112 1198 988836 -215 0
47 2 S112 1204 990040 989 0
47 2 S112 1168 991208 2157 0
47 2 S112 1135 992343 3292 0
47 2 S112 1188 993531 4480 0
47 2 S112 1202 994733 5682 0
47 2 S112 1180 995913 6862 0
0 0 0 1147 997060 -12432 0
0 0 0 1139 998199 -11293 0
0 0 0 1170 999369 -10123 0
0 0 0 1182 1000551 -8941 0
0 0 0 1103 1001654 -7838 0
0 0 0 1127 1002781 -6711 0
0 0 0 1160 1003941 -5551 0
0 0 0 1139 1005080 -4412 0
0 0 0 1136 1006216 -3276 0
0 0 0 1152 1007368 -2124 0
48 1 S116 1189 1008557 -935 0
48 2 S116 1145 1009702 210 0
48 2 S116 1105 1010807 1315 0
48 2 S116 1124 1011931 2439 0
48 2 S116 1140 1013071 3579 0
48 2 S116 1086 1014157 4665 0
48 2 S116 1124 1015281 5789 0
48 2 S116 1170 1016451 6959 0
0 0 0 1121 1017572 -8051 0
0 0 0 1105 1018677 -6946 0
0 0 0 1146 1019823 -5800 0
0 0 0 1148 1020971 -4652 0
0 0 0 1077 1022048 -3575 0
0 0 0 1110 1023158 -2465 0
49 1 S112 1120 1024278 -1345 0
49 1 S112 1120 1025398 -225 0
49 2 S112 1102 1026500 877 0
49 2 S112 1167 1027667 2044 0
49 2 S112 1191 1028858 3235 0
49 2 S112 1145 1030003 4380 0
49 2 S112 1118 1031121 5498 0
49 2 S112 1146 1032267 6644 0
0 0 0 1167 1033434 -11519 0
0 0 0 1133 1034567 -10386 0
0 0 0 1103 1035670 -9283 0
0 0 0 1132 1036802 -8151 0
0 0 0 1189 1037991 -6962 0
0 0 0 1155 1039146 -5807 0
0 0 0 1210 1040356 -4597 0
0 0 0 1231 1041587 -3366 0
0 0 0 1176 1042763 -2190 0
50 1 S106 1135 1043898 -1055 0
50 2 S106 1156 1045054 101 0
50 2 S106 1171 1046225 1272 0
50 2 S106 1121 1047346 2393 0
50 2 S106 1083 1048429 3476 0
50 2 S106 1105 1049534 4581 0
50 2 S106 1146 1050680 5727 0
50 2 S106 1137 1051817 6864 0
0 0 0 1119 1052936 -7418 0
0 0 0 1138 1054074 -6280 0
0 0 0 1171 1055245 -5109 0
0 0 0 1047 1056292 -4062 0
0 0 0 1020 1057312 -3042 0
51 1 S112 1050 1058362 -1992 0
51 1 S112 1055 1059417 -937 0
51 2 S112 1070 1060487 133 0
51 2 S112 1130 1061617 1263 0
51 2 S112 1120 1062737 2383 0
51 2 S112 1063 1063800 3446 0
51 2 S112 1077 1064877 4523 0
51 2 S112 1116 1065993 5639 0
51 2 S112 1100 1067093 6739 0
0 0 0 1080 1068173 -6770 0
0 0 0 1108 1069281 -5662 0
0 0 0 1123 1070404 -4539 0
0 0 0 1076 1071480 -3463 0
0 0 0 1057 1072537 -2406 0
52 1 S116 1091 1073628 -1315 0
52 1 S116 1182 1074810 -133 0
52 2 S116 1190 1076000 1057 0
52 2 S116 1147 1077147 2204 0
52 2 S116 1133 1078280 3337 0
52 2 S116 1123 1079403 4460 0
52 2 S116 1061 1080464 5521 0
52 2 S116 1037 1081501 6558 0
0 0 0 1085 1082586 -9035 0
0 0 0 1041 1083627 -7994 0
0 0 0 967 1084594 -7027 0
0 0 0 1037 1085631 -5990 0
0 0 0 1137 1086768 -4853 0
0 0 0 1160 1087928 -3693 0
0 0 0 1089 1089017 -2604 0
53 1 S106 1093 1090110 -1511 0
53 1 S106 1110 1091220 -401 0
53 2 S106 1110 1092330 709 0
53 2 S106 1071 1093401 1780 0
53 2 S106 1033 1094434 2813 0
53 2 S106 1034 1095468 3847 0
53 2 S106 1055 1096523 4902 0
53 2 S106 1087 1097610 5989 0
0 0 0 1047 1098657 -7105 0
0 0 0 1019 1099676 -6086 0
0 0 0 1036 1100712 -5050 0
0 0 0 1047 1101759 -4003 0
0 0 0 1046 1102805 -2957 0
54 1 S102 1068 1103873 -1889 0
54 1 S102 1150 1105023 -739 0
54 2 S102 1158 1106181 419 0
54 2 S102 1118 1107299 1537 0
54 2 S102 1100 1108399 2637 0
54 2 S102 1119 1109518 3756 0
54 2 S102 1109 1110627 4865 0
54 2 S102 1058 1111685 5923 0
54 2 S102 1034 1112719 6957 0
0 0 0 1095 1113814 -10782 0
0 0 0 1166 1114980 -9616 0
0 0 0 1150 1116130 -8466 0
0 0 0 1044 1117174 -7422 0
0 0 0 1022 1118196 -6400 0
0 0 0 1019 1119215 -5381 0
0 0 0 1007 1120222 -4374 0
0 0 0 957 1121179 -3417 0
0 0 0 1038 1122217 -2379 0
55 1 S106 1096 1123313 -1283 0
55 1 S106 1075 1124388 -208 0
55 2 S106 1099 1125487 891 0
55 2 S106 1104 1126591 1995 0
55 2 S106 1041 1127632 3036 0
55 2 S106 1049 1128681 4085 0
55 2 S106 1057 1129738 5142 0
55 2 S106 1047 1130785 6189 0
0 0 0 1019 1131804 -8259 0
0 0 0 1039 1132843 -7220 0
0 0 0 1056 1133899 -6164 0
0 0 0 1060 1134959 -5104 0
0 0 0 902 1135861 -4202 0
0 0 0 799 1136660 -3403 0
0 0 0 751 1137411 -2652 1
56 1 S116 714 1138125 -1938 1
56 1 S116 717 1138842 -1221 1
56 1 S116 730 1139572 -491 1
56 2 S116 716 1140288 225 1
56 2 S116 855 1141143 1080 0
56 2 S116 943 1142086 2023 0
56 2 S116 942 1143028 2965 0
56 2 S116 922 1143950 3887 0
56 2 S116 936 1144886 4823 0
56 2 S116 963 1145849 5786 0
56 2 S116 967 1146816 6753 0
0 0 0 951 1147767 -7018 0
0 0 0 908 1148675 -6110 0
0 0 0 941 1149616 -5169 0
0 0 0 938 1150554 -4231 0
0 0 0 928 1151482 -3303 0
0 0 0 888 1152370 -2415 0
57 1 S106 1014 1153384 -1401 0
57 1 S106 1238 1154622 -163 0
57 2 S106 1205 1155827 1042 0
57 2 S106 1156 1156983 2198 0
57 2 S106 1162 1158145 3360 0
57 2 S106 1133 1159278 4493 0
57 2 S106 1075 1160353 5568 0
57 2 S106 1164 1161517 6732 0
0 0 0 1156 1162673 -7596 0
0 0 0 1032 1163705 -6564 0
0 0 0 1029 1164734 -5535 0
0 0 0 1108 1165842 -4427 0
0 0 0 1133 1166975 -3294 0
0 0 0 1188 1168163 -2106 0
58 1 S102 1262 1169425 -844 0
58 2 S102 1258 1170683 414 0
58 2 S102 1144 1171827 1558 0
58 2 S102 1173 1173000 2731 0
58 2 S102 1227 1174227 3958 0
58 2 S102 1225 1175452 5183 0
58 2 S102 1197 1176649 6380 0
0 0 0 1313 1177962 -6797 0
0 0 0 1234 1179196 -5563 0
0 0 0 1157 1180353 -4406 0
0 0 0 1171 1181524 -3235 0
59 1 S112 1288 1182812 -1947 0
59 1 S112 1260 1184072 -687 0
59 2 S112 1272 1185344 585 0
59 2 S112 1266 1186610 1851 0
59 2 S112 1234 1187844 3085 0
59 2 S112 1172 1189016 4257 0
59 2 S112 1216 1190232 5473 0
59 2 S112 1256 1191488 6729 0
0 0 0 1202 1192690 -9343 0
0 0 0 1213 1193903 -8130 0
0 0 0 1260 1195163 -6870 0
0 0 0 1208 1196371 -5662 0
0 0 0 1119 1197490 -4543 0
0 0 0 1164 1198654 -3379 0
0 0 0 1271 1199925 -2108 0
60 1 S102 1198 1201123 -910 0
60 2 S102 1206 1202329 296 0
60 2 S102 1244 1203573 1540 0
60 2 S102 1231 1204804 2771 0
60 2 S102 1213 1206017 3984 0
60 2 S102 1240 1207257 5224 0
60 2 S102 1276 1208533 6500 0
0 0 0 1256 1209789 -10630 0
0 0 0 1194 1210983 -9436 0
0 0 0 1214 1212197 -8222 0
0 0 0 1292 1213489 -6930 0
0 0 0 1254 1214743 -5676 0
0 0 0 1249 1215992 -4427 0
0 0 0 1290 1217282 -3137 0
61 1 S106 1250 1218532 -1887 0
61 1 S106 1223 1219755 -664 0
61 2 S106 1291 1221046 627 0
61 2 S106 1270 1222316 1897 0
61 2 S106 1221 1223537 3118 0
61 2 S106 1270 1224807 4388 0
61 2 S106 1266 1226073 5654 0
61 2 S106 1186 1227259 6840 0
0 0 0 1221 1228480 -6577 0
0 0 0 1226 1229706 -5351 0
0 0 0 1161 1230867 -4190 0
0 0 0 1001 1231868 -3189 0
0 0 0 924 1232792 -2265 0
62 1 S112 953 1233745 -1312 0
62 1 S112 941 1234686 -371 0
62 2 S112 950 1235636 579 0
62 2 S112 1080 1236716 1659 0
62 2 S112 1088 1237804 2747 0
62 2 S112 1046 1238850 3793 0
62 2 S112 1014 1239864 4807 0
62 2 S112 1029 1240893 5836 0
62 2 S112 1024 1241917 6860 0
0 0 0 980 1242897 -11657 0
0 0 0 961 1243858 -10696 0
0 0 0 1002 1244860 -9694 0
0 0 0 1035 1245895 -8659 0
0 0 0 1009 1246904 -7650 0
0 0 0 985 1247889 -6665 0
0 0 0 986 1248875 -5679 0
0 0 0 1042 1249917 -4637 0
0 0 0 1100 1251017 -3537 0
0 0 0 1111 1252128 -2426 0
63 1 S102 1167 1253295 -1259 0
63 1 S102 1148 1254443 -111 0
63 2 S102 1128 1255571 1017 0
63 2 S102 1148 1256719 2165 0
63 2 S102 1147 1257866 3312 0
63 2 S102 1118 1258984 4430 0
63 2 S102 1068 1260052 5498 0
63 2 S102 1095 1261147 6593 0
0 0 0 1164 1262311 -9020 0
0 0 0 1238 1263549 -7782 0
0 0 0 1164 1264713 -6618 0
0 0 0 1165 1265878 -5453 0
0 0 0 1168 1267046 -4285 0
0 0 0 1080 1268126 -3205 0
0 0 0 1085 1269211 -2120 0
64 1 S112 1145 1270356 -975 0
64 2 S112 1135 1271491 160 0
64 2 S112 1215 1272706 1375 0
64 2 S112 1245 1273951 2620 0
64 2 S112 1230 1275181 3850 0
64 2 S112 1181 1276362 5031 0
64 2 S112 1208 1277570 6239 0
0 0 0 1208 1278778 -7971 0
0 0 0 1142 1279920 -6829 0
0 0 0 1090 1281010 -5739 0
0 0 0 1146 1282156 -4593 0
0 0 0 1079 1283235 -3514 0
0 0 0 993 1284228 -2521 0
65 1 S106 1027 1285255 -1494 0
65 1 S106 1218 1286473 -276 0
65 2 S106 1226 1287699 950 0
65 2 S106 1163 1288862 2113 0
65 2 S106 1156 1290018 3269 0
65 2 S106 1143 1291161 4412 0
65 2 S106 1078 1292239 5490 0
65 2 S106 1082 1293321 6572 0
0 0 0 1149 1294470 -6884 0
0 0 0 1151 1295621 -5733 0
0 0 0 1116 1296737 -4617 0
0 0 0 1064 1297801 -3553 0
0 0 0 1077 1298878 -2476 0
66 1 S116 1085 1299963 -1391 0
66 1 S116 1067 1301030 -324 0
66 2 S116 1100 1302130 776 0
66 2 S116 1203 1303333 1979 0
66 2 S116 1200 1304533 3179 0
66 2 S116 1115 1305648 4294 0
66 2 S116 1079 1306727 5373 0
66 2 S116 1104 1307831 6477 0
0 0 0 1187 1309018 -11683 0
0 0 0 1209 1310227 -10474 0
0 0 0 1199 1311426 -9275 0
0 0 0 1084 1312510 -8191 0
0 0 0 1130 1313640 -7061 0
0 0 0 1146 1314786 -5915 0
0 0 0 1132 1315918 -4783 0
0 0 0 1104 1317022 -3679 0
0 0 0 1120 1318142 -2559 0
67 1 S102 1171 1319313 -1388 0
67 1 S102 1131 1320444 -257 0
67 2 S102 1184 1321628 927 0
67 2 S102 1206 1322834 2133 0
67 2 S102 1152 1323986 3285 0
67 2 S102 1143 1325129 4428 0
67 2 S102 1175 1326304 5603 0
67 2 S102 1194 1327498 6797 0
0 0 0 1162 1328660 -5685 0
0 0 0 1104 1329764 -4581 0
0 0 0 1123 1330887 -3458 0
0 0 0 1120 1332007 -2338 0
68 1 S106 1120 1333127 -1218 0
68 1 S106 1113 1334240 -105 0
68 2 S106 1196 1335436 1091 0
68 2 S106 1167 1336603 2258 0
68 2 S106 1143 1337746 3401 0
68 2 S106 1077 1338823 4478 0
68 2 S106 1077 1339900 5555 0
68 2 S106 1115 1341015 6670 0
0 0 0 1112 1342127 -11167 0
0 0 0 1044 1343171 -10123 0
0 0 0 1018 1344189 -9105 0
0 0 0 1035 1345224 -8070 0
0 0 0 1069 1346293 -7001 0
0 0 0 1052 1347345 -5949 0
0 0 0 1129 1348474 -4820 0
0 0 0 1145 1349619 -3675 0
0 0 0 1111 1350730 -2564 0
69 1 S102 1131 1351861 -1433 0
69 1 S102 1138 1352999 -295 0
69 2 S102 1088 1354087 793 0
69 2 S102 1032 1355119 1825 0
69 2 S102 1044 1356163 2869 0
69 2 S102 1090 1357253 3959 0
69 2 S102 1053 1358306 5012 0
69 2 S102 1025 1359331 6037 0
0 0 0 1048 1360379 -10074 0
0 0 0 1063 1361442 -9011 0
0 0 0 1069 1362511 -7942 0
0 0 0 1025 1363536 -6917 0
0 0 0 1067 1364603 -5850 0
0 0 0 1100 1365703 -4750 0
0 0 0 1069 1366772 -3681 0
0 0 0 1056 1367828 -2625 0
70 1 S112 1108 1368936 -1517 0
70 1 S112 1112 1370048 -405 0
70 2 S112 1059 1371107 654 0
70 2 S112 1065 1372172 1719 0
70 2 S112 1069 1373241 2788 0
70 2 S112 1047 1374288 3835 0
70 2 S112 995 1375283 4830 0
70 2 S112 1024 1376307 5854 0
70 2 S112 1030 1377337 6884 0
0 0 0 1023 1378360 -11158 0
0 0 0 1047 1379407 -10111 0
0 0 0 1125 1380532 -8986 0
0 0 0 1071 1381603 -7915 0
0 0 0 1011 1382614 -6904 0
0 0 0 1052 1383666 -5852 0
0 0 0 1094 1384760 -4758 0
0 0 0 1101 1385861 -3657 0
0 0 0 1055 1386916 -2602 0
71 1 S116 1091 1388007 -1511 0
71 1 S116 1137 1389144 -374 0
71 2 S116 1114 1390258 740 0
71 2 S116 1068 1391326 1808 0
71 2 S116 1092 1392418 2900 0
71 2 S116 1152 1393570 4052 0
71 2 S116 1117 1394687 5169 0
71 2 S116 1103 1395790 6272 0
0 0 0 1148 1396938 -9673 0
0 0 0 1179 1398117 -8494 0
0 0 0 1118 1399235 -7376 0
0 0 0 1083 1400318 -6293 0
0 0 0 1173 1401491 -5120 0
0 0 0 1171 1402662 -3949 0
0 0 0 1113 1403775 -2836 0
72 1 S102 1138 1404913 -1698 0
72 1 S102 1172 1406085 -526 0
72 2 S102 1171 1407256 645 0
72 2 S102 1130 1408386 1775 0
72 2 S102 1166 1409552 2941 0
72 2 S102 1170 1410722 4111 0
72 2 S102 1189 1411911 5300 0
72 2 S102 1152 1413063 6452 0
0 0 0 1100 1414163 -7733 0
0 0 0 1076 1415239 -6657 0
0 0 0 1055 1416294 -5602 0
0 0 0 1064 1417358 -4538 0
0 0 0 995 1418353 -3543 0
0 0 0 1009 1419362 -2534 0
73 1 S116 1093 1420455 -1441 0
73 1 S116 1154 1421609 -287 0
73 2 S116 1128 1422737 841 0
73 2 S116 1101 1423838 1942 0
73 2 S116 1089 1424927 3031 0
73 2 S116 1046 1425973 4077 0
73 2 S116 938 1426911 5015 0
73 2 S116 926 1427837 5941 0
73 2 S116 1012 1428849 6953 0
0 0 0 1041 1429890 -8485 0
0 0 0 1023 1430913 -7462 0
0 0 0 985 1431898 -6477 0
0 0 0 1026 1432924 -5451 0
0 0 0 1072 1433996 -4379 0
0 0 0 1079 1435075 -3300 0
0 0 0 1109 1436184 -2191 0
74 1 S106 1152 1437336 -1039 0
74 2 S106 1148 1438484 109 0
74 2 S106 1104 1439588 1213 0
74 2 S106 1135 1440723 2348 0
74 2 S106 1053 1441776 3401 0
74 2 S106 962 1442738 4363 0
74 2 S106 979 1443717 5342 0
74 2 S106 859 1444576 6201 0
0 0 0 858 1445434 -8127 0
0 0 0 1084 1446518 -7043 0
0 0 0 1105 1447623 -5938 0
0 0 0 1081 1448704 -4857 0
0 0 0 1091 1449795 -3766 0
0 0 0 1095 1450890 -2671 0
75 1 S112 1061 1451951 -1610 0
75 1 S112 903 1452854 -707 0
75 2 S112 886 1453740 179 0
75 2 S112 914 1454654 1093 0
75 2 S112 1043 1455697 2136 0
75 2 S112 1192 1456889 3328 0
75 2 S112 1219 1458108 4547 0
75 2 S112 1139 1459247 5686 0
75 2 S112 1148 1460395 6834 0
0 0 0 1154 1461549 -7197 0
0 0 0 1115 1462664 -6082 0
0 0 0 1077 1463741 -5005 0
0 0 0 974 1464715 -4031 0
0 0 0 848 1465563 -3183 0
0 0 0 804 1466367 -2379 0
76 1 S116 801 1467168 -1578 0
76 1 S116 821 1467989 -757 0
76 2 S116 860 1468849 103 0
76 2 S116 962 1469811 1065 0
76 2 S116 1039 1470850 2104 0
76 2 S116 1058 1471908 3162 0
76 2 S116 1021 1472929 4183 0
76 2 S116 1036 1473965 5219 0
76 2 S116 1075 1475040 6294 0
0 0 0 1071 1476111 -8285 0
0 0 0 1085 1477196 -7200 0
0 0 0 1127 1478323 -6073 0
0 0 0 1112 1479435 -4961 0
0 0 0 990 1480425 -3971 0
0 0 0 926 1481351 -3045 0
0 0 0 993 1482344 -2052 0
77 1 S106 1059 1483403 -993 0
77 2 S106 1138 1484541 145 0
77 2 S106 1178 1485719 1323 0
77 2 S106 1167 1486886 2490 0
77 2 S106 1072 1487958 3562 0
77 2 S106 1080 1489038 4642 0
77 2 S106 1093 1490131 5735 0
77 2 S106 1048 1491179 6783 0
0 0 0 1037 1492216 -9024 0
0 0 0 1128 1493344 -7896 0
0 0 0 1161 1494505 -6735 0
0 0 0 1061 1495566 -5674 0
0 0 0 1052 1496618 -4622 0
0 0 0 1040 1497658 -3582 0
0 0 0 994 1498652 -2588 0
78 1 S112 867 1499519 -1721 0
78 1 S112 922 1500441 -799 0
78 2 S112 983 1501424 184 0
78 2 S112 1009 1502433 1193 0
78 2 S112 1093 1503526 2286 0
78 2 S112 1141 1504667 3427 0
78 2 S112 1111 1505778 4538 0
78 2 S112 1064 1506842 5602 0
78 2 S112 1097 1507939 6699 0
0 0 0 1160 1509099 -9814 0
0 0 0 1124 1510223 -8690 0
0 0 0 1084 1511307 -7606 0
0 0 0 1141 1512448 -6465 0
0 0 0 995 1513443 -5470 0
0 0 0 848 1514291 -4622 0
0 0 0 797 1515088 -3825 0
0 0 0 774 1515862 -3051 0
79 1 S102 1401 1517263 -1650 1
79 1 S102 1084 1518347 -566 0
79 2 S102 1193 1519540 627 0
79 2 S102 1223 1520763 1850 0
79 2 S102 1183 1521946 3033 0
79 2 S102 1155 1523101 4188 0
79 2 S102 1080 1524181 5268 0
79 2 S102 1043 1525224 6311 0
0 0 0 1086 1526310 -9579 0
0 0 0 1113 1527423 -8466 0
0 0 0 1120 1528543 -7346 0
0 0 0 1056 1529599 -6290 0
0 0 0 1041 1530640 -5249 0
0 0 0 1114 1531754 -4135 0
0 0 0 1220 1532974 -2915 0
80 1 S116 1189 1534163 -1726 0
80 1 S116 1203 1535366 -523 0
80 2 S116 1268 1536634 745 0
80 2 S116 1229 1537863 1974 0
80 2 S116 1227 1539090 3201 0
80 2 S116 1161 1540251 4362 0
80 2 S116 1286 1541537 5648 0
80 2 S116 1303 1542840 6951 0
