T_0175
BeatCount Mean SD BeatCountNoOutliers MeanNoOutliers SDNoOutliers
1638 959,845543345543 78,3026954135068 1613 961,924364538128 69,8690255906504

Trial TrialStatus Trialtype IBI AbsPosition RelPosition Outlier
0 0 0 957 1940 -14069 0
0 0 0 884 2824 -13185 0
0 0 0 793 3617 -12392 0
0 0 0 782 4399 -11610 0
0 0 0 791 5190 -10819 0
0 0 0 865 6055 -9954 0
0 0 0 873 6928 -9081 0
0 0 0 910 7838 -8171 0
0 0 0 987 8825 -7184 0
0 0 0 1024 9849 -6160 0
0 0 0 1015 10864 -5145 0
0 0 0 1021 11885 -4124 0
0 0 0 947 12832 -3177 0
0 0 0 881 13713 -2296 0
1 1 S112 870 14583 -1426 0
1 1 S112 868 15451 -558 0
1 2 S112 887 16338 329 0
1 2 S112 903 17241 1232 0
1 2 S112 900 18141 2132 0
1 2 S112 857 18998 2989 0
1 2 S112 899 19897 3888 0
1 2 S112 924 20821 4812 0
1 2 S112 963 21784 5775 0
1 2 S112 977 22761 6752 0
0 0 0 992 23753 -10227 0
0 0 0 951 24704 -9276 0
0 0 0 932 25636 -8344 0
0 0 0 915 26551 -7429 0
0 0 0 916 27467 -6513 0
0 0 0 926 28393 -5587 0
0 0 0 899 29292 -4688 0
0 0 0 907 30199 -3781 0
0 0 0 947 31146 -2834 0
2 1 S102 1003 32149 -1831 0
2 1 S102 1029 33178 -802 0
2 2 S102 1049 34227 247 0
2 2 S102 1037 35264 1284 0
2 2 S102 986 36250 2270 0
2 2 S102 920 37170 3190 0
2 2 S102 936 38106 4126 0
2 2 S102 958 39064 5084 0
2 2 S102 987 40051 6071 0
0 0 0 1017 41068 -9507 0
0 0 0 976 42044 -8531 0
0 0 0 1021 43065 -7510 0
0 0 0 1014 44079 -6496 0
0 0 0 1010 45089 -5486 0
0 0 0 962 46051 -4524 0
0 0 0 982 47033 -3542 0
0 0 0 1000 48033 -2542 0
3 1 S116 991 49024 -1551 0
3 1 S116 974 49998 -577 0
3 2 S116 909 50907 332 0
3 2 S116 914 51821 1246 0
3 2 S116 917 52738 2163 0
3 2 S116 938 53676 3101 0
3 2 S116 945 54621 4046 0
3 2 S116 913 55534 4959 0
3 2 S116 915 56449 5874 0
3 2 S116 937 57386 6811 0
0 0 0 974 58360 -11115 0
0 0 0 1004 59364 -10111 0
0 0 0 937 60301 -9174 0
0 0 0 970 61271 -8204 0
0 0 0 975 62246 -7229 0
0 0 0 977 63223 -6252 0
0 0 0 903 64126 -5349 0
0 0 0 928 65054 -4421 0
0 0 0 922 65976 -3499 0
0 0 0 940 66916 -2559 0
4 1 S106 953 67869 -1606 0
4 1 S106 914 68783 -692 0
4 2 S106 934 69717 242 0
4 2 S106 946 70663 1188 0
4 2 S106 947 71610 2135 0
4 2 S106 948 72558 3083 0
4 2 S106 962 73520 4045 0
4 2 S106 997 74517 5042 0
4 2 S106 946 75463 5988 0
4 2 S106 994 76457 6982 0
0 0 0 1021 77478 -6834 0
0 0 0 1035 78513 -5799 0
0 0 0 1019 79532 -4780 0
0 0 0 919 80451 -3861 0
0 0 0 934 81385 -2927 0
5 1 S116 933 82318 -1994 0
5 1 S116 918 83236 -1076 0
5 1 S116 922 84158 -154 0
5 2 S116 865 85023 711 0
5 2 S116 873 85896 1584 0
5 2 S116 870 86766 2454 0
5 2 S116 875 87641 3329 0
5 2 S116 864 88505 4193 0
5 2 S116 817 89322 5010 0
5 2 S116 875 90197 5885 0
5 2 S116 943 91140 6828 0
0 0 0 998 92138 -9499 0
0 0 0 1021 93159 -8478 0
0 0 0 1020 94179 -7458 0
0 0 0 983 95162 -6475 0
0 0 0 900 96062 -5575 0
0 0 0 902 96964 -4673 0
0 0 0 897 97861 -3776 0
0 0 0 899 98760 -2877 0
6 1 S106 898 99658 -1979 0
6 1 S106 859 100517 -1120 0
6 1 S106 865 101382 -255 0
6 2 S106 811 102193 556 0
6 2 S106 801 102994 1357 0
6 2 S106 871 103865 2228 0
6 2 S106 943 104808 3171 0
6 2 S106 992 105800 4163 0
6 2 S106 1010 106810 5173 0
6 2 S106 934 107744 6107 0
6 2 S106 855 108599 6962 0
0 0 0 875 109474 -10747 0
0 0 0 878 110352 -9869 0
0 0 0 922 111274 -8947 0
0 0 0 956 112230 -7991 0
0 0 0 982 113212 -7009 0
0 0 0 1013 114225 -5996 0
0 0 0 1022 115247 -4974 0
0 0 0 951 116198 -4023 0
0 0 0 881 117079 -3142 0
0 0 0 917 117996 -2225 0
7 1 S102 946 118942 -1279 0
7 1 S102 979 119921 -300 0
7 2 S102 1001 120922 701 0
7 2 S102 1029 121951 1730 0
7 2 S102 1046 122997 2776 0
7 2 S102 1066 124063 3842 0
7 2 S102 1037 125100 4879 0
7 2 S102 1018 126118 5897 0
7 2 S102 999 127117 6896 0
0 0 0 916 128033 -7606 0
0 0 0 873 128906 -6733 0
0 0 0 877 129783 -5856 0
0 0 0 888 130671 -4968 0
0 0 0 932 131603 -4036 0
0 0 0 980 132583 -3056 0
0 0 0 1033 133616 -2023 0
8 1 S112 1056 134672 -967 0
8 2 S112 1045 135717 78 0
8 2 S112 1030 136747 1108 0
8 2 S112 967 137714 2075 0
8 2 S112 979 138693 3054 0
8 2 S112 968 139661 4022 0
8 2 S112 966 140627 4988 0
8 2 S112 955 141582 5943 0
8 2 S112 926 142508 6869 0
0 0 0 893 143401 -7656 0
0 0 0 922 144323 -6734 0
0 0 0 949 145272 -5785 0
0 0 0 970 146242 -4815 0
0 0 0 916 147158 -3899 0
0 0 0 927 148085 -2972 0
0 0 0 918 149003 -2054 0
9 1 S116 927 149930 -1127 0
9 1 S116 921 150851 -206 0
9 2 S116 880 151731 674 0
9 2 S116 925 152656 1599 0
9 2 S116 973 153629 2572 0
9 2 S116 994 154623 3566 0
9 2 S116 1012 155635 4578 0
9 2 S116 940 156575 5518 0
9 2 S116 952 157527 6470 0
0 0 0 965 158492 -12393 0
0 0 0 977 159469 -11416 0
0 0 0 958 160427 -10458 0
0 0 0 930 161357 -9528 0
0 0 0 963 162320 -8565 0
0 0 0 963 163283 -7602 0
0 0 0 973 164256 -6629 0
0 0 0 913 165169 -5716 0
0 0 0 946 166115 -4770 0
0 0 0 977 167092 -3793 0
0 0 0 1000 168092 -2793 0
10 1 S102 1011 169103 -1782 0
10 1 S102 998 170101 -784 0
10 2 S102 965 171066 181 0
10 2 S102 920 171986 1101 0
10 2 S102 930 172916 2031 0
10 2 S102 944 173860 2975 0
10 2 S102 978 174838 3953 0
10 2 S102 1000 175838 4953 0
10 2 S102 960 176798 5913 0
10 2 S102 1009 177807 6922 0
0 0 0 1021 178828 -12664 0
0 0 0 1019 179847 -11645 0
0 0 0 955 180802 -10690 0
0 0 0 962 181764 -9728 0
0 0 0 960 182724 -8768 0
0 0 0 956 183680 -7812 0
0 0 0 935 184615 -6877 0
0 0 0 869 185484 -6008 0
0 0 0 885 186369 -5123 0
0 0 0 865 187234 -4258 0
0 0 0 896 188130 -3362 0
0 0 0 920 189050 -2442 0
11 1 S112 893 189943 -1549 0
11 1 S112 909 190852 -640 0
11 2 S112 939 191791 299 0
11 2 S112 951 192742 1250 0
11 2 S112 962 193704 2212 0
11 2 S112 992 194696 3204 0
11 2 S112 996 195692 4200 0
11 2 S112 940 196632 5140 0
11 2 S112 969 197601 6109 0
0 0 0 977 198578 -8597 0
0 0 0 992 199570 -7605 0
0 0 0 1002 200572 -6603 0
0 0 0 955 201527 -5648 0
0 0 0 996 202523 -4652 0
0 0 0 994 203517 -3658 0
0 0 0 997 204514 -2661 0
12 1 S116 959 205473 -1702 0
12 1 S116 907 206380 -795 0
12 2 S116 914 207294 119 0
12 2 S116 937 208231 1056 0
12 2 S116 945 209176 2001 0
12 2 S116 956 210132 2957 0
12 2 S116 909 211041 3866 0
12 2 S116 943 211984 4809 0
12 2 S116 968 212952 5777 0
12 2 S116 1013 213965 6790 0
0 0 0 1016 214981 -10662 0
0 0 0 952 215933 -9710 0
0 0 0 910 216843 -8800 0
0 0 0 927 217770 -7873 0
0 0 0 933 218703 -6940 0
0 0 0 947 219650 -5993 0
0 0 0 826 220476 -5167 0
0 0 0 772 221248 -4395 0
0 0 0 782 222030 -3613 0
0 0 0 754 222784 -2859 1
0 0 0 815 223599 -2044 0
13 1 S112 895 224494 -1149 0
13 1 S112 940 225434 -209 0
13 2 S112 981 226415 772 0
13 2 S112 1000 227415 1772 0
13 2 S112 989 228404 2761 0
13 2 S112 973 229377 3734 0
13 2 S112 963 230340 4697 0
13 2 S112 936 231276 5633 0
13 2 S112 856 232132 6489 0
0 0 0 877 233009 -11832 0
0 0 0 882 233891 -10950 0
0 0 0 916 234807 -10034 0
0 0 0 950 235757 -9084 0
0 0 0 968 236725 -8116 0
0 0 0 982 237707 -7134 0
0 0 0 987 238694 -6147 0
0 0 0 977 239671 -5170 0
0 0 0 914 240585 -4256 0
0 0 0 882 241467 -3374 0
0 0 0 883 242350 -2491 0
14 1 S106 900 243250 -1591 0
14 1 S106 929 244179 -662 0
14 2 S106 974 245153 312 0
14 2 S106 1008 246161 1320 0
14 2 S106 1010 247171 2330 0
14 2 S106 1007 248178 3337 0
14 2 S106 987 249165 4324 0
14 2 S106 922 250087 5246 0
14 2 S106 920 251007 6166 0
0 0 0 916 251923 -11005 0
0 0 0 918 252841 -10087 0
0 0 0 938 253779 -9149 0
0 0 0 946 254725 -8203 0
0 0 0 946 255671 -7257 0
0 0 0 939 256610 -6318 0
0 0 0 855 257465 -5463 0
0 0 0 862 258327 -4601 0
0 0 0 883 259210 -3718 0
0 0 0 946 260156 -2772 0
15 1 S116 1019 261175 -1753 0
15 1 S116 1045 262220 -708 0
15 2 S116 1036 263256 328 0
15 2 S116 1010 264266 1338 0
15 2 S116 977 265243 2315 0
15 2 S116 915 266158 3230 0
15 2 S116 860 267018 4090 0
15 2 S116 870 267888 4960 0
15 2 S116 896 268784 5856 0
15 2 S116 954 269738 6810 0
0 0 0 1033 270771 -9962 0
0 0 0 1048 271819 -8914 0
0 0 0 975 272794 -7939 0
0 0 0 1014 273808 -6925 0
0 0 0 992 274800 -5933 0
0 0 0 965 275765 -4968 0
0 0 0 933 276698 -4035 0
0 0 0 853 277551 -3182 0
0 0 0 816 278367 -2366 0
16 1 S116 808 279175 -1558 0
16 1 S116 800 279975 -758 0
16 2 S116 789 280764 31 0
16 2 S116 832 281596 863 0
16 2 S116 868 282464 1731 0
16 2 S116 909 283373 2640 0
16 2 S116 942 284315 3582 0
16 2 S116 912 285227 4494 0
16 2 S116 927 286154 5421 0
16 2 S116 925 287079 6346 0
0 0 0 925 288004 -10518 0
0 0 0 927 288931 -9591 0
0 0 0 932 289863 -8659 0
0 0 0 938 290801 -7721 0
0 0 0 905 291706 -6816 0
0 0 0 904 292610 -5912 0
0 0 0 917 293527 -4995 0
0 0 0 944 294471 -4051 0
0 0 0 959 295430 -3092 0
0 0 0 967 296397 -2125 0
17 1 S106 906 297303 -1219 0
17 1 S106 954 298257 -265 0
17 2 S106 991 299248 726 0
17 2 S106 1004 300252 1730 0
17 2 S106 1010 301262 2740 0
17 2 S106 972 302234 3712 0
17 2 S106 932 303166 4644 0
17 2 S106 924 304090 5568 0
17 2 S106 939 305029 6507 0
0 0 0 963 305992 -11462 0
0 0 0 938 306930 -10524 0
0 0 0 953 307883 -9571 0
0 0 0 968 308851 -8603 0
0 0 0 975 309826 -7628 0
0 0 0 919 310745 -6709 0
0 0 0 934 311679 -5775 0
0 0 0 961 312640 -4814 0
0 0 0 967 313607 -3847 0
0 0 0 958 314565 -2889 0
0 0 0 882 315447 -2007 0
18 1 S102 916 316363 -1091 0
18 1 S102 959 317322 -132 0
18 2 S102 1016 318338 884 0
18 2 S102 1036 319374 1920 0
18 2 S102 1022 320396 2942 0
18 2 S102 1001 321397 3943 0
18 2 S102 976 322373 4919 0
18 2 S102 954 323327 5873 0
18 2 S102 913 324240 6786 0
0 0 0 888 325128 -8275 0
0 0 0 888 326016 -7387 0
0 0 0 905 326921 -6482 0
0 0 0 945 327866 -5537 0
0 0 0 988 328854 -4549 0
0 0 0 1008 329862 -3541 0
0 0 0 935 330797 -2606 0
19 1 S106 979 331776 -1627 0
19 1 S106 1000 332776 -627 0
19 2 S106 1003 333779 376 0
19 2 S106 986 334765 1362 0
19 2 S106 967 335732 2329 0
19 2 S106 913 336645 3242 0
19 2 S106 891 337536 4133 0
19 2 S106 924 338460 5057 0
19 2 S106 987 339447 6044 0
0 0 0 1017 340464 -12916 0
0 0 0 1032 341496 -11884 0
0 0 0 1030 342526 -10854 0
0 0 0 1023 343549 -9831 0
0 0 0 983 344532 -8848 0
0 0 0 880 345412 -7968 0
0 0 0 882 346294 -7086 0
0 0 0 882 347176 -6204 0
0 0 0 895 348071 -5309 0
0 0 0 931 349002 -4378 0
0 0 0 929 349931 -3449 0
0 0 0 872 350803 -2577 0
20 1 S112 913 351716 -1664 0
20 1 S112 929 352645 -735 0
20 2 S112 962 353607 227 0
20 2 S112 976 354583 1203 0
20 2 S112 971 355554 2174 0
20 2 S112 944 356498 3118 0
20 2 S112 881 357379 3999 0
20 2 S112 872 358251 4871 0
20 2 S112 881 359132 5752 0
20 2 S112 912 360044 6664 0
0 0 0 942 360986 -9751 0
0 0 0 979 361965 -8772 0
0 0 0 951 362916 -7821 0
0 0 0 974 363890 -6847 0
0 0 0 976 364866 -5871 0
0 0 0 986 365852 -4885 0
0 0 0 974 366826 -3911 0
0 0 0 924 367750 -2987 0
0 0 0 933 368683 -2054 0
21 1 S106 924 369607 -1130 0
21 1 S106 929 370536 -201 0
21 2 S106 906 371442 705 0
21 2 S106 941 372383 1646 0
21 2 S106 967 373350 2613 0
21 2 S106 1010 374360 3623 0
21 2 S106 1017 375377 4640 0
21 2 S106 956 376333 5596 0
21 2 S106 955 377288 6551 0
0 0 0 945 378233 -13111 0
0 0 0 935 379168 -12176 0
0 0 0 927 380095 -11249 0
0 0 0 878 380973 -10371 0
0 0 0 914 381887 -9457 0
0 0 0 942 382829 -8515 0
0 0 0 962 383791 -7553 0
0 0 0 970 384761 -6583 0
0 0 0 922 385683 -5661 0
0 0 0 961 386644 -4700 0
0 0 0 988 387632 -3712 0
0 0 0 997 388629 -2715 0
22 1 S116 1003 389632 -1712 0
22 1 S116 951 390583 -761 0
22 2 S116 958 391541 197 0
22 2 S116 950 392491 1147 0
22 2 S116 954 393445 2101 0
22 2 S116 957 394402 3058 0
22 2 S116 917 395319 3975 0
22 2 S116 955 396274 4930 0
22 2 S116 978 397252 5908 0
22 2 S116 944 398196 6852 0
0 0 0 864 399060 -10123 0
0 0 0 876 399936 -9247 0
0 0 0 875 400811 -8372 0
0 0 0 837 401648 -7535 0
0 0 0 862 402510 -6673 0
0 0 0 874 403384 -5799 0
0 0 0 877 404261 -4922 0
0 0 0 836 405097 -4086 0
0 0 0 885 405982 -3201 0
0 0 0 985 406967 -2216 0
23 1 S112 1036 408003 -1180 0
23 1 S112 1043 409046 -137 0
23 2 S112 992 410038 855 0
23 2 S112 967 411005 1822 0
23 2 S112 946 411951 2768 0
23 2 S112 923 412874 3691 0
23 2 S112 899 413773 4590 0
23 2 S112 839 414612 5429 0
23 2 S112 849 415461 6278 0
0 0 0 858 416319 -10420 0
0 0 0 935 417254 -9485 0
0 0 0 1033 418287 -8452 0
0 0 0 1070 419357 -7382 0
0 0 0 1004 420361 -6378 0
0 0 0 1020 421381 -5358 0
0 0 0 1017 422398 -4341 0
0 0 0 1017 423415 -3324 0
0 0 0 933 424348 -2391 0
24 1 S106 931 425279 -1460 0
24 1 S106 918 426197 -542 0
24 2 S106 917 427114 375 0
24 2 S106 925 428039 1300 0
24 2 S106 871 428910 2171 0
24 2 S106 917 429827 3088 0
24 2 S106 956 430783 4044 0
24 2 S106 1027 431810 5071 0
24 2 S106 1057 432867 6128 0
0 0 0 1077 433944 -8512 0
0 0 0 1063 435007 -7449 0
0 0 0 1052 436059 -6397 0
0 0 0 1029 437088 -5368 0
0 0 0 1003 438091 -4365 0
0 0 0 944 439035 -3421 0
0 0 0 941 439976 -2480 0
25 1 S102 943 440919 -1537 0
25 1 S102 970 441889 -567 0
25 2 S102 1002 442891 435 0
25 2 S102 1025 443916 1460 0
25 2 S102 1057 444973 2517 0
25 2 S102 993 445966 3510 0
25 2 S102 972 446938 4482 0
25 2 S102 983 447921 5465 0
25 2 S102 988 448909 6453 0
0 0 0 994 449903 -9148 0
0 0 0 1007 450910 -8141 0
0 0 0 959 451869 -7182 0
0 0 0 928 452797 -6254 0
0 0 0 966 453763 -5288 0
0 0 0 1018 454781 -4270 0
0 0 0 1045 455826 -3225 0
0 0 0 1045 456871 -2180 0
26 1 S116 1017 457888 -1163 0
26 1 S116 958 458846 -205 0
26 2 S116 941 459787 736 0
26 2 S116 927 460714 1663 0
26 2 S116 921 461635 2584 0
26 2 S116 951 462586 3535 0
26 2 S116 988 463574 4523 0
26 2 S116 943 464517 5466 0
26 2 S116 1016 465533 6482 0
0 0 0 1062 466595 -7625 0
0 0 0 1066 467661 -6559 0
0 0 0 1026 468687 -5533 0
0 0 0 885 469572 -4648 0
0 0 0 814 470386 -3834 0
0 0 0 813 471199 -3021 0
0 0 0 781 471980 -2240 0
27 1 S106 804 472784 -1436 0
27 1 S106 820 473604 -616 0
27 2 S106 847 474451 231 0
27 2 S106 863 475314 1094 0
27 2 S106 857 476171 1951 0
27 2 S106 803 476974 2754 0
27 2 S106 823 477797 3577 0
27 2 S106 837 478634 4414 0
27 2 S106 868 479502 5282 0
27 2 S106 902 480404 6184 0
0 0 0 972 481376 -8295 0
0 0 0 999 482375 -7296 0
0 0 0 1004 483379 -6292 0
0 0 0 1008 484387 -5284 0
0 0 0 918 485305 -4366 0
0 0 0 914 486219 -3452 0
0 0 0 915 487134 -2537 0
28 1 S102 944 488078 -1593 0
28 1 S102 981 489059 -612 0
28 2 S102 1037 490096 425 0
28 2 S102 1065 491161 1490 0
28 2 S102 1074 492235 2564 0
28 2 S102 1063 493298 3627 0
28 2 S102 1029 494327 4656 0
28 2 S102 1035 495362 5691 0
28 2 S102 1037 496399 6728 0
0 0 0 1030 497429 -10080 0
0 0 0 1023 498452 -9057 0
0 0 0 1010 499462 -8047 0
0 0 0 1007 500469 -7040 0
0 0 0 931 501400 -6109 0
0 0 0 868 502268 -5241 0
0 0 0 878 503146 -4363 0
0 0 0 920 504066 -3443 0
0 0 0 1022 505088 -2421 0
29 1 S112 1110 506198 -1311 0
29 1 S112 1160 507358 -151 0
29 2 S112 1133 508491 982 0
29 2 S112 1032 509523 2014 0
29 2 S112 1035 510558 3049 0
29 2 S112 1024 511582 4073 0
29 2 S112 1008 512590 5081 0
29 2 S112 949 513539 6030 0
29 2 S112 975 514514 7005 0
0 0 0 973 515487 -7755 0
0 0 0 976 516463 -6779 0
0 0 0 906 517369 -5873 0
0 0 0 938 518307 -4935 0
0 0 0 917 519224 -4018 0
0 0 0 901 520125 -3117 0
0 0 0 838 520963 -2279 0
30 1 S112 808 521771 -1471 0
30 1 S112 790 522561 -681 0
30 2 S112 764 523325 83 0
30 2 S112 789 524114 872 0
30 2 S112 856 524970 1728 0
30 2 S112 940 525910 2668 0
30 2 S112 980 526890 3648 0
30 2 S112 1005 527895 4653 0
30 2 S112 988 528883 5641 0
30 2 S112 969 529852 6610 0
0 0 0 960 530812 -9158 0
0 0 0 957 531769 -8201 0
0 0 0 960 532729 -7241 0
0 0 0 957 533686 -6284 0
0 0 0 924 534610 -5360 0
0 0 0 933 535543 -4427 0
0 0 0 893 536436 -3534 0
0 0 0 883 537319 -2651 0
31 1 S106 882 538201 -1769 0
31 1 S106 846 539047 -923 0
31 1 S106 915 539962 -8 0
31 2 S106 1005 540967 997 0
31 2 S106 1074 542041 2071 0
31 2 S106 1068 543109 3139 0
31 2 S106 1003 544112 4142 0
31 2 S106 1032 545144 5174 0
31 2 S106 1028 546172 6202 0
0 0 0 1001 547173 -10237 0
0 0 0 974 548147 -9263 0
0 0 0 924 549071 -8339 0
0 0 0 914 549985 -7425 0
0 0 0 914 550899 -6511 0
0 0 0 926 551825 -5585 0
0 0 0 922 552747 -4663 0
0 0 0 956 553703 -3707 0
0 0 0 995 554698 -2712 0
32 1 S102 1038 555736 -1674 0
32 1 S102 1051 556787 -623 0
32 2 S102 1046 557833 423 0
32 2 S102 1026 558859 1449 0
32 2 S102 1008 559867 2457 0
32 2 S102 964 560831 3421 0
32 2 S102 970 561801 4391 0
32 2 S102 964 562765 5355 0
32 2 S102 984 563749 6339 0
0 0 0 996 564745 -12012 0
0 0 0 1009 565754 -11003 0
0 0 0 1009 566763 -9994 0
0 0 0 943 567706 -9051 0
0 0 0 987 568693 -8064 0
0 0 0 1022 569715 -7042 0
0 0 0 1051 570766 -5991 0
0 0 0 1062 571828 -4929 0
0 0 0 1058 572886 -3871 0
0 0 0 996 573882 -2875 0
33 1 S112 1023 574905 -1852 0
33 1 S112 1045 575950 -807 0
33 2 S112 1022 576972 215 0
33 2 S112 985 577957 1200 0
33 2 S112 915 578872 2115 0
33 2 S112 947 579819 3062 0
33 2 S112 984 580803 4046 0
33 2 S112 1019 581822 5065 0
33 2 S112 986 582808 6051 0
0 0 0 1005 583813 -12772 0
0 0 0 993 584806 -11779 0
0 0 0 977 585783 -10802 0
0 0 0 903 586686 -9899 0
0 0 0 890 587576 -9009 0
0 0 0 874 588450 -8135 0
0 0 0 874 589324 -7261 0
0 0 0 892 590216 -6369 0
0 0 0 839 591055 -5530 0
0 0 0 887 591942 -4643 0
0 0 0 909 592851 -3734 0
0 0 0 930 593781 -2804 0
34 1 S106 928 594709 -1876 0
34 1 S106 849 595558 -1027 0
34 1 S106 858 596416 -169 0
34 2 S106 848 597264 679 0
34 2 S106 870 598134 1549 0
34 2 S106 912 599046 2461 0
34 2 S106 956 600002 3417 0
34 2 S106 917 600919 4334 0
34 2 S106 975 601894 5309 0
34 2 S106 1011 602905 6320 0
0 0 0 1022 603927 -9833 0
0 0 0 985 604912 -8848 0
0 0 0 947 605859 -7901 0
0 0 0 948 606807 -6953 0
0 0 0 928 607735 -6025 0
0 0 0 918 608653 -5107 0
0 0 0 869 609522 -4238 0
0 0 0 893 610415 -3345 0
0 0 0 901 611316 -2444 0
35 1 S102 934 612250 -1510 0
35 1 S102 966 613216 -544 0
35 2 S102 1023 614239 479 0
35 2 S102 1043 615282 1522 0
35 2 S102 1044 616326 2566 0
35 2 S102 1050 617376 3616 0
35 2 S102 1042 618418 4658 0
35 2 S102 1021 619439 5679 0
35 2 S102 981 620420 6660 0
0 0 0 965 621385 -7047 0
0 0 0 955 622340 -6092 0
0 0 0 944 623284 -5148 0
0 0 0 934 624218 -4214 0
0 0 0 848 625066 -3366 0
0 0 0 857 625923 -2509 0
36 1 S106 813 626736 -1696 0
36 1 S106 834 627570 -862 0
36 1 S106 845 628415 -17 0
36 2 S106 858 629273 841 0
36 2 S106 860 630133 1701 0
36 2 S106 973 631106 2674 0
36 2 S106 1135 632241 3809 0
36 2 S106 1176 633417 4985 1
36 2 S106 1087 634504 6072 0
0 0 0 1032 635536 -8811 0
0 0 0 1042 636578 -7769 0
0 0 0 1022 637600 -6747 0
0 0 0 975 638575 -5772 0
0 0 0 878 639453 -4894 0
0 0 0 871 640324 -4023 0
0 0 0 869 641193 -3154 0
0 0 0 897 642090 -2257 0
37 1 S116 924 643014 -1333 0
37 1 S116 939 643953 -394 0
37 2 S116 941 644894 547 0
37 2 S116 973 645867 1520 0
37 2 S116 1003 646870 2523 0
37 2 S116 1019 647889 3542 0
37 2 S116 987 648876 4529 0
37 2 S116 1000 649876 5529 0
37 2 S116 1023 650899 6552 0
0 0 0 1047 651946 -12942 0
0 0 0 1047 652993 -11895 0
0 0 0 1053 654046 -10842 0
0 0 0 1035 655081 -9807 0
0 0 0 992 656073 -8815 0
0 0 0 965 657038 -7850 0
0 0 0 941 657979 -6909 0
0 0 0 936 658915 -5973 0
0 0 0 887 659802 -5086 0
0 0 0 926 660728 -4160 0
0 0 0 970 661698 -3190 0
0 0 0 1064 662762 -2126 0
38 1 S102 1110 663872 -1016 0
38 2 S102 1097 664969 81 0
38 2 S102 1047 666016 1128 0
38 2 S102 1062 667078 2190 0
38 2 S102 1059 668137 3249 0
38 2 S102 1047 669184 4296 0
38 2 S102 1028 670212 5324 0
38 2 S102 1005 671217 6329 0
0 0 0 977 672194 -11312 0
0 0 0 948 673142 -10364 0
0 0 0 990 674132 -9374 0
0 0 0 1043 675175 -8331 0
0 0 0 1076 676251 -7255 0
0 0 0 1088 677339 -6167 0
0 0 0 1078 678417 -5089 0
0 0 0 1088 679505 -4001 0
0 0 0 1072 680577 -2929 0
39 1 S116 999 681576 -1930 0
39 1 S116 1021 682597 -909 0
39 2 S116 1051 683648 142 0
39 2 S116 1068 684716 1210 0
39 2 S116 1061 685777 2271 0
39 2 S116 958 686735 3229 0
39 2 S116 971 687706 4200 0
39 2 S116 975 688681 5175 0
39 2 S116 1026 689707 6201 0
0 0 0 981 690688 -8534 0
0 0 0 974 691662 -7560 0
0 0 0 1006 692668 -6554 0
0 0 0 1034 693702 -5520 0
0 0 0 996 694698 -4524 0
0 0 0 854 695552 -3670 0
0 0 0 803 696355 -2867 0
0 0 0 801 697156 -2066 0
40 1 S112 785 697941 -1281 0
40 1 S112 822 698763 -459 0
40 2 S112 860 699623 401 0
40 2 S112 905 700528 1306 0
40 2 S112 964 701492 2270 0
40 2 S112 952 702444 3222 0
40 2 S112 960 703404 4182 0
40 2 S112 937 704341 5119 0
40 2 S112 892 705233 6011 0
40 2 S112 832 706065 6843 0
0 0 0 838 706903 -187878 0
0 0 0 853 707756 -187025 0
0 0 0 907 708663 -186118 0
0 0 0 977 709640 -185141 0
0 0 0 1003 710643 -184138 0
0 0 0 1029 711672 -183109 0
0 0 0 1011 712683 -182098 0
0 0 0 1023 713706 -181075 0
0 0 0 1031 714737 -180044 0
0 0 0 1015 715752 -179029 0
0 0 0 988 716740 -178041 0
0 0 0 926 717666 -177115 0
0 0 0 866 718532 -176249 0
0 0 0 829 719361 -175420 0
0 0 0 813 720174 -174607 0
0 0 0 815 720989 -173792 0
0 0 0 800 721789 -172992 0
0 0 0 874 722663 -172118 0
0 0 0 961 723624 -171157 0
0 0 0 1003 724627 -170154 0
0 0 0 1047 725674 -169107 0
0 0 0 1049 726723 -168058 0
0 0 0 1056 727779 -167002 0
0 0 0 1042 728821 -165960 0
0 0 0 1026 729847 -164934 0
0 0 0 1003 730850 -163931 0
0 0 0 994 731844 -162937 0
0 0 0 977 732821 -161960 0
0 0 0 891 733712 -161069 0
0 0 0 849 734561 -160220 0
0 0 0 815 735376 -159405 0
0 0 0 790 736166 -158615 0
0 0 0 773 736939 -157842 0
0 0 0 767 737706 -157075 0
0 0 0 744 738450 -156331 1
0 0 0 727 739177 -155604 1
0 0 0 728 739905 -154876 1
0 0 0 722 740627 -154154 1
0 0 0 716 741343 -153438 1
0 0 0 706 742049 -152732 1
0 0 0 693 742742 -152039 1
0 0 0 686 743428 -151353 1
0 0 0 675 744103 -150678 1
0 0 0 699 744802 -149979 1
0 0 0 739 745541 -149240 1
0 0 0 868 746409 -148372 0
0 0 0 901 747310 -147471 0
0 0 0 945 748255 -146526 0
0 0 0 987 749242 -145539 0
0 0 0 1002 750244 -144537 0
0 0 0 954 751198 -143583 0
0 0 0 973 752171 -142610 0
0 0 0 887 753058 -141723 0
0 0 0 802 753860 -140921 0
0 0 0 791 754651 -140130 0
0 0 0 729 755380 -139401 1
0 0 0 754 756134 -138647 1
0 0 0 823 756957 -137824 0
0 0 0 938 757895 -136886 0
0 0 0 1051 758946 -135835 0
0 0 0 1073 760019 -134762 0
0 0 0 1063 761082 -133699 0
0 0 0 1064 762146 -132635 0
0 0 0 1037 763183 -131598 0
0 0 0 1011 764194 -130587 0
0 0 0 991 765185 -129596 0
0 0 0 995 766180 -128601 0
0 0 0 1009 767189 -127592 0
0 0 0 1036 768225 -126556 0
0 0 0 1054 769279 -125502 0
0 0 0 1070 770349 -124432 0
0 0 0 1049 771398 -123383 0
0 0 0 1026 772424 -122357 0
0 0 0 1026 773450 -121331 0
0 0 0 996 774446 -120335 0
0 0 0 970 775416 -119365 0
0 0 0 1057 776473 -118308 0
0 0 0 1139 777612 -117169 0
0 0 0 1115 778727 -116054 0
0 0 0 1055 779782 -114999 0
0 0 0 1109 780891 -113890 0
0 0 0 1104 781995 -112786 0
0 0 0 995 782990 -111791 0
0 0 0 1021 784011 -110770 0
0 0 0 1878 785889 -108892 1
0 0 0 848 786737 -108044 0
0 0 0 790 787527 -107254 0
0 0 0 793 788320 -106461 0
0 0 0 878 789198 -105583 0
0 0 0 1158 790356 -104425 0
0 0 0 1196 791552 -103229 1
0 0 0 1179 792731 -102050 1
0 0 0 1091 793822 -100959 0
0 0 0 1116 794938 -99843 0
0 0 0 1095 796033 -98748 0
0 0 0 1048 797081 -97700 0
0 0 0 1008 798089 -96692 0
0 0 0 982 799071 -95710 0
0 0 0 969 800040 -94741 0
0 0 0 973 801013 -93768 0
0 0 0 963 801976 -92805 0
0 0 0 1014 802990 -91791 0
0 0 0 1075 804065 -90716 0
0 0 0 1104 805169 -89612 0
0 0 0 1106 806275 -88506 0
0 0 0 1106 807381 -87400 0
0 0 0 1055 808436 -86345 0
0 0 0 1054 809490 -85291 0
0 0 0 1055 810545 -84236 0
0 0 0 1048 811593 -83188 0
0 0 0 1058 812651 -82130 0
0 0 0 1055 813706 -81075 0
0 0 0 1060 814766 -80015 0
0 0 0 1064 815830 -78951 0
0 0 0 1096 816926 -77855 0
0 0 0 1124 818050 -76731 0
0 0 0 1109 819159 -75622 0
0 0 0 1104 820263 -74518 0
0 0 0 1107 821370 -73411 0
0 0 0 1118 822488 -72293 0
0 0 0 1123 823611 -71170 0
0 0 0 1098 824709 -70072 0
0 0 0 996 825705 -69076 0
0 0 0 1045 826750 -68031 0
0 0 0 1089 827839 -66942 0
0 0 0 1105 828944 -65837 0
0 0 0 1115 830059 -64722 0
0 0 0 1086 831145 -63636 0
0 0 0 981 832126 -62655 0
0 0 0 906 833032 -61749 0
0 0 0 890 833922 -60859 0
0 0 0 876 834798 -59983 0
0 0 0 908 835706 -59075 0
0 0 0 890 836596 -58185 0
0 0 0 936 837532 -57249 0
0 0 0 972 838504 -56277 0
0 0 0 1062 839566 -55215 0
0 0 0 1040 840606 -54175 0
0 0 0 981 841587 -53194 0
0 0 0 1008 842595 -52186 0
0 0 0 1008 843603 -51178 0
0 0 0 992 844595 -50186 0
0 0 0 932 845527 -49254 0
0 0 0 940 846467 -48314 0
0 0 0 919 847386 -47395 0
0 0 0 921 848307 -46474 0
0 0 0 887 849194 -45587 0
0 0 0 935 850129 -44652 0
0 0 0 980 851109 -43672 0
0 0 0 1029 852138 -42643 0
0 0 0 995 853133 -41648 0
0 0 0 1051 854184 -40597 0
0 0 0 1084 855268 -39513 0
0 0 0 1071 856339 -38442 0
0 0 0 1061 857400 -37381 0
0 0 0 1021 858421 -36360 0
0 0 0 999 859420 -35361 0
0 0 0 981 860401 -34380 0
0 0 0 981 861382 -33399 0
0 0 0 992 862374 -32407 0
0 0 0 1031 863405 -31376 0
0 0 0 1062 864467 -30314 0
0 0 0 1074 865541 -29240 0
0 0 0 1019 866560 -28221 0
0 0 0 1055 867615 -27166 0
0 0 0 1042 868657 -26124 0
0 0 0 1042 869699 -25082 0
0 0 0 1048 870747 -24034 0
0 0 0 997 871744 -23037 0
0 0 0 1001 872745 -22036 0
0 0 0 1013 873758 -21023 0
0 0 0 1043 874801 -19980 0
0 0 0 1067 875868 -18913 0
0 0 0 998 876866 -17915 0
0 0 0 941 877807 -16974 0
0 0 0 926 878733 -16048 0
0 0 0 926 879659 -15122 0
0 0 0 898 880557 -14224 0
0 0 0 848 881405 -13376 0
0 0 0 858 882263 -12518 0
0 0 0 862 883125 -11656 0
0 0 0 855 883980 -10801 0
0 0 0 794 884774 -10007 0
0 0 0 754 885528 -9253 1
0 0 0 731 886259 -8522 1
0 0 0 762 887021 -7760 0
0 0 0 772 887793 -6988 0
0 0 0 868 888661 -6120 0
0 0 0 956 889617 -5164 0
0 0 0 1010 890627 -4154 0
0 0 0 930 891557 -3224 0
0 0 0 877 892434 -2347 0
41 1 S102 901 893335 -1446 0
41 1 S102 896 894231 -550 0
41 2 S102 858 895089 308 0
41 2 S102 875 895964 1183 0
41 2 S102 849 896813 2032 0
41 2 S102 826 897639 2858 0
41 2 S102 838 898477 3696 0
41 2 S102 881 899358 4577 0
41 2 S102 932 900290 5509 0
41 2 S102 966 901256 6475 0
0 0 0 960 902216 -6491 0
0 0 0 971 903187 -5520 0
0 0 0 985 904172 -4535 0
0 0 0 977 905149 -3558 0
0 0 0 976 906125 -2582 0
42 1 S112 955 907080 -1627 0
42 1 S112 947 908027 -680 0
42 2 S112 965 908992 285 0
42 2 S112 999 909991 1284 0
42 2 S112 1033 911024 2317 0
42 2 S112 1040 912064 3357 0
42 2 S112 1036 913100 4393 0
42 2 S112 992 914092 5385 0
42 2 S112 1007 915099 6392 0
0 0 0 1001 916100 -9964 0
0 0 0 1003 917103 -8961 0
0 0 0 1000 918103 -7961 0
0 0 0 1000 919103 -6961 0
0 0 0 931 920034 -6030 0
0 0 0 935 920969 -5095 0
0 0 0 924 921893 -4171 0
0 0 0 949 922842 -3222 0
0 0 0 973 923815 -2249 0
43 1 S116 954 924769 -1295 0
43 1 S116 1068 925837 -227 0
43 2 S116 1138 926975 911 0
43 2 S116 1126 928101 2037 0
43 2 S116 1076 929177 3113 0
43 2 S116 1029 930206 4142 0
43 2 S116 1041 931247 5183 0
43 2 S116 1030 932277 6213 0
0 0 0 995 933272 -7696 0
0 0 0 961 934233 -6735 0
0 0 0 969 935202 -5766 0
0 0 0 988 936190 -4778 0
0 0 0 982 937172 -3796 0
0 0 0 920 938092 -2876 0
44 1 S102 978 939070 -1898 0
44 1 S102 1034 940104 -864 0
44 2 S102 1070 941174 206 0
44 2 S102 994 942168 1200 0
44 2 S102 1016 943184 2216 0
44 2 S102 1013 944197 3229 0
44 2 S102 1022 945219 4251 0
44 2 S102 1034 946253 5285 0
44 2 S102 1001 947254 6286 0
0 0 0 1034 948288 -8778 0
0 0 0 1062 949350 -7716 0
0 0 0 1068 950418 -6648 0
0 0 0 1053 951471 -5595 0
0 0 0 1056 952527 -4539 0
0 0 0 1052 953579 -3487 0
0 0 0 1054 954633 -2433 0
45 1 S116 1064 955697 -1369 0
45 1 S116 1051 956748 -318 0
45 2 S116 1045 957793 727 0
45 2 S116 1024 958817 1751 0
45 2 S116 981 959798 2732 0
45 2 S116 994 960792 3726 0
45 2 S116 1008 961800 4734 0
45 2 S116 1050 962850 5784 0
45 2 S116 977 963827 6761 0
0 0 0 1014 964841 -12716 0
0 0 0 1012 965853 -11704 0
0 0 0 1003 966856 -10701 0
0 0 0 931 967787 -9770 0
0 0 0 980 968767 -8790 0
0 0 0 995 969762 -7795 0
0 0 0 972 970734 -6823 0
0 0 0 906 971640 -5917 0
0 0 0 910 972550 -5007 0
0 0 0 877 973427 -4130 0
0 0 0 860 974287 -3270 0
0 0 0 822 975109 -2448 0
46 1 S102 845 975954 -1603 0
46 1 S102 875 976829 -728 0
46 2 S102 941 977770 213 0
46 2 S102 976 978746 1189 0
46 2 S102 999 979745 2188 0
46 2 S102 983 980728 3171 0
46 2 S102 993 981721 4164 0
46 2 S102 1001 982722 5165 0
46 2 S102 1019 983741 6184 0
0 0 0 1031 984772 -11054 0
0 0 0 996 985768 -10058 0
0 0 0 989 986757 -9069 0
0 0 0 996 987753 -8073 0
0 0 0 995 988748 -7078 0
0 0 0 971 989719 -6107 0
0 0 0 948 990667 -5159 0
0 0 0 945 991612 -4214 0
0 0 0 984 992596 -3230 0
0 0 0 1003 993599 -2227 0
47 1 S112 955 994554 -1272 0
47 1 S112 993 995547 -279 0
47 2 S112 986 996533 707 0
47 2 S112 992 997525 1699 0
47 2 S112 961 998486 2660 0
47 2 S112 1000 999486 3660 0
47 2 S112 1031 1000517 4691 0
47 2 S112 1029 1001546 5720 0
47 2 S112 1044 1002590 6764 0
0 0 0 1010 1003600 -12833 0
0 0 0 1027 1004627 -11806 0
0 0 0 1020 1005647 -10786 0
0 0 0 1008 1006655 -9778 0
0 0 0 957 1007612 -8821 0
0 0 0 950 1008562 -7871 0
0 0 0 934 1009496 -6937 0
0 0 0 953 1010449 -5984 0
0 0 0 926 1011375 -5058 0
0 0 0 987 1012362 -4071 0
0 0 0 1061 1013423 -3010 0
48 1 S116 1102 1014525 -1908 0
48 1 S116 1104 1015629 -804 0
48 2 S116 1080 1016709 276 0
48 2 S116 981 1017690 1257 0
48 2 S116 979 1018669 2236 0
48 2 S116 969 1019638 3205 0
48 2 S116 974 1020612 4179 0
48 2 S116 1000 1021612 5179 0
48 2 S116 959 1022571 6138 0
0 0 0 989 1023560 -8573 0
0 0 0 1003 1024563 -7570 0
0 0 0 1010 1025573 -6560 0
0 0 0 1025 1026598 -5535 0
0 0 0 958 1027556 -4577 0
0 0 0 943 1028499 -3634 0
0 0 0 937 1029436 -2697 0
49 1 S112 954 1030390 -1743 0
49 1 S112 881 1031271 -862 0
49 2 S112 880 1032151 18 0
49 2 S112 843 1032994 861 0
49 2 S112 797 1033791 1658 0
49 2 S112 789 1034580 2447 0
49 2 S112 785 1035365 3232 0
49 2 S112 746 1036111 3978 1
49 2 S112 718 1036829 4696 1
49 2 S112 708 1037537 5404 1
49 2 S112 736 1038273 6140 1
49 2 S112 767 1039040 6907 0
0 0 0 938 1039978 -11734 0
0 0 0 990 1040968 -10744 0
0 0 0 1015 1041983 -9729 0
0 0 0 1018 1043001 -8711 0
0 0 0 996 1043997 -7715 0
0 0 0 981 1044978 -6734 0
0 0 0 962 1045940 -5772 0
0 0 0 944 1046884 -4828 0
0 0 0 924 1047808 -3904 0
0 0 0 904 1048712 -3000 0
0 0 0 900 1049612 -2100 0
50 1 S106 898 1050510 -1202 0
50 1 S106 910 1051420 -292 0
50 2 S106 928 1052348 636 0
50 2 S106 951 1053299 1587 0
50 2 S106 978 1054277 2565 0
50 2 S106 1004 1055281 3569 0
50 2 S106 1009 1056290 4578 0
50 2 S106 987 1057277 5565 0
50 2 S106 973 1058250 6538 0
0 0 0 985 1059235 -7812 0
0 0 0 1004 1060239 -6808 0
0 0 0 1022 1061261 -5786 0
0 0 0 1032 1062293 -4754 0
0 0 0 1031 1063324 -3723 0
0 0 0 952 1064276 -2771 0
51 1 S112 953 1065229 -1818 0
51 1 S112 921 1066150 -897 0
51 2 S112 902 1067052 5 0
51 2 S112 866 1067918 871 0
51 2 S112 888 1068806 1759 0
51 2 S112 921 1069727 2680 0
51 2 S112 956 1070683 3636 0
51 2 S112 988 1071671 4624 0
51 2 S112 982 1072653 5606 0
51 2 S112 958 1073611 6564 0
0 0 0 966 1074577 -7623 0
0 0 0 971 1075548 -6652 0
0 0 0 972 1076520 -5680 0
0 0 0 973 1077493 -4707 0
0 0 0 900 1078393 -3807 0
0 0 0 918 1079311 -2889 0
52 1 S116 937 1080248 -1952 0
52 1 S116 975 1081223 -977 0
52 2 S116 1016 1082239 39 0
52 2 S116 1038 1083277 1077 0
52 2 S116 1039 1084316 2116 0
52 2 S116 1003 1085319 3119 0
52 2 S116 919 1086238 4038 0
52 2 S116 913 1087151 4951 0
52 2 S116 922 1088073 5873 0
52 2 S116 931 1089004 6804 0
0 0 0 960 1089964 -9610 0
0 0 0 934 1090898 -8676 0
0 0 0 977 1091875 -7699 0
0 0 0 1013 1092888 -6686 0
0 0 0 1009 1093897 -5677 0
0 0 0 948 1094845 -4729 0
0 0 0 974 1095819 -3755 0
0 0 0 983 1096802 -2772 0
53 1 S106 977 1097779 -1795 0
53 1 S106 957 1098736 -838 0
53 2 S106 901 1099637 63 0
53 2 S106 905 1100542 968 0
53 2 S106 914 1101456 1882 0
53 2 S106 936 1102392 2818 0
53 2 S106 952 1103344 3770 0
53 2 S106 954 1104298 4724 0
53 2 S106 1001 1105299 5725 0
53 2 S106 1048 1106347 6773 0
0 0 0 1058 1107405 -7902 0
0 0 0 1026 1108431 -6876 0
0 0 0 1004 1109435 -5872 0
0 0 0 997 1110432 -4875 0
0 0 0 978 1111410 -3897 0
0 0 0 962 1112372 -2935 0
54 1 S102 935 1113307 -2000 0
54 1 S102 955 1114262 -1045 0
54 1 S102 976 1115238 -69 0
54 2 S102 999 1116237 930 0
54 2 S102 1017 1117254 1947 0
54 2 S102 1024 1118278 2971 0
54 2 S102 1020 1119298 3991 0
54 2 S102 997 1120295 4988 0
54 2 S102 987 1121282 5975 0
54 2 S102 990 1122272 6965 0
0 0 0 1005 1123277 -11360 0
0 0 0 994 1124271 -10366 0
0 0 0 1012 1125283 -9354 0
0 0 0 1006 1126289 -8348 0
0 0 0 998 1127287 -7350 0
0 0 0 1048 1128335 -6302 0
0 0 0 1067 1129402 -5235 0
0 0 0 1091 1130493 -4144 0
0 0 0 1081 1131574 -3063 0
0 0 0 1031 1132605 -2032 0
55 1 S106 1066 1133671 -966 0
55 2 S106 1071 1134742 105 0
55 2 S106 1063 1135805 1168 0
55 2 S106 1003 1136808 2171 0
55 2 S106 1016 1137824 3187 0
55 2 S106 1040 1138864 4227 0
55 2 S106 1063 1139927 5290 0
55 2 S106 1066 1140993 6356 0
0 0 0 1065 1142058 -6704 0
0 0 0 952 1143010 -5752 0
0 0 0 970 1143980 -4782 0
0 0 0 914 1144894 -3868 0
0 0 0 893 1145787 -2975 0
0 0 0 843 1146630 -2132 0
56 1 S116 877 1147507 -1255 0
56 1 S116 912 1148419 -343 0
56 2 S116 950 1149369 607 0
56 2 S116 952 1150321 1559 0
56 2 S116 906 1151227 2465 0
56 2 S116 925 1152152 3390 0
56 2 S116 929 1153081 4319 0
56 2 S116 927 1154008 5246 0
56 2 S116 901 1154909 6147 0
56 2 S116 850 1155759 6997 0
0 0 0 863 1156622 -8155 0
0 0 0 873 1157495 -7282 0
0 0 0 899 1158394 -6383 0
0 0 0 890 1159284 -5493 0
0 0 0 932 1160216 -4561 0
0 0 0 953 1161169 -3608 0
0 0 0 997 1162166 -2611 0
57 1 S106 953 1163119 -1658 0
57 1 S106 968 1164087 -690 0
57 2 S106 996 1165083 306 0
57 2 S106 971 1166054 1277 0
57 2 S106 947 1167001 2224 0
57 2 S106 892 1167893 3116 0
57 2 S106 898 1168791 4014 0
57 2 S106 897 1169688 4911 0
57 2 S106 922 1170610 5833 0
57 2 S106 967 1171577 6800 0
0 0 0 953 1172530 -8792 0
0 0 0 1009 1173539 -7783 0
0 0 0 1042 1174581 -6741 0
0 0 0 1055 1175636 -5686 0
0 0 0 1044 1176680 -4642 0
0 0 0 991 1177671 -3651 0
0 0 0 1015 1178686 -2636 0
58 1 S102 1021 1179707 -1615 0
58 1 S102 1041 1180748 -574 0
58 2 S102 1071 1181819 497 0
58 2 S102 1079 1182898 1576 0
58 2 S102 1075 1183973 2651 0
58 2 S102 1021 1184994 3672 0
58 2 S102 1035 1186029 4707 0
58 2 S102 1040 1187069 5747 0
58 2 S102 1044 1188113 6791 0
0 0 0 1051 1189164 -8305 0
0 0 0 1040 1190204 -7265 0
0 0 0 980 1191184 -6285 0
0 0 0 1002 1192186 -5283 0
0 0 0 993 1193179 -4290 0
0 0 0 961 1194140 -3329 0
0 0 0 932 1195072 -2397 0
59 1 S112 882 1195954 -1515 0
59 1 S112 905 1196859 -610 0
59 2 S112 938 1197797 328 0
59 2 S112 1002 1198799 1330 0
59 2 S112 967 1199766 2297 0
59 2 S112 964 1200730 3261 0
59 2 S112 953 1201683 4214 0
59 2 S112 939 1202622 5153 0
59 2 S112 871 1203493 6024 0
59 2 S112 891 1204384 6915 0
0 0 0 900 1205284 -10786 0
0 0 0 928 1206212 -9858 0
0 0 0 955 1207167 -8903 0
0 0 0 929 1208096 -7974 0
0 0 0 979 1209075 -6995 0
0 0 0 989 1210064 -6006 0
0 0 0 921 1210985 -5085 0
0 0 0 866 1211851 -4219 0
0 0 0 884 1212735 -3335 0
0 0 0 900 1213635 -2435 0
60 1 S102 966 1214601 -1469 0
60 1 S102 996 1215597 -473 0
60 2 S102 968 1216565 495 0
60 2 S102 1008 1217573 1503 0
60 2 S102 1009 1218582 2512 0
60 2 S102 1008 1219590 3520 0
60 2 S102 967 1220557 4487 0
60 2 S102 969 1221526 5456 0
60 2 S102 956 1222482 6412 0
0 0 0 975 1223457 -11297 0
0 0 0 1022 1224479 -10275 0
0 0 0 968 1225447 -9307 0
0 0 0 981 1226428 -8326 0
0 0 0 982 1227410 -7344 0
0 0 0 1003 1228413 -6341 0
0 0 0 947 1229360 -5394 0
0 0 0 851 1230211 -4543 0
0 0 0 796 1231007 -3747 0
0 0 0 814 1231821 -2933 0
0 0 0 798 1232619 -2135 0
61 1 S106 863 1233482 -1272 0
61 1 S106 929 1234411 -343 0
61 2 S106 904 1235315 561 0
61 2 S106 869 1236184 1430 0
61 2 S106 819 1237003 2249 0
61 2 S106 827 1237830 3076 0
61 2 S106 846 1238676 3922 0
61 2 S106 876 1239552 4798 0
61 2 S106 898 1240450 5696 0
61 2 S106 911 1241361 6607 0
0 0 0 924 1242285 -8036 0
0 0 0 943 1243228 -7093 0
0 0 0 964 1244192 -6129 0
0 0 0 970 1245162 -5159 0
0 0 0 969 1246131 -4190 0
0 0 0 969 1247100 -3221 0
0 0 0 977 1248077 -2244 0
62 1 S112 979 1249056 -1265 0
62 1 S112 1024 1250080 -241 0
62 2 S112 1050 1251130 809 0
62 2 S112 1033 1252163 1842 0
62 2 S112 1021 1253184 2863 0
62 2 S112 952 1254136 3815 0
62 2 S112 1008 1255144 4823 0
62 2 S112 1067 1256211 5890 0
62 2 S112 1075 1257286 6965 0
0 0 0 1027 1258313 -11670 0
0 0 0 938 1259251 -10732 0
0 0 0 953 1260204 -9779 0
0 0 0 936 1261140 -8843 0
0 0 0 895 1262035 -7948 0
0 0 0 835 1262870 -7113 0
0 0 0 833 1263703 -6280 0
0 0 0 819 1264522 -5461 0
0 0 0 831 1265353 -4630 0
0 0 0 841 1266194 -3789 0
0 0 0 854 1267048 -2935 0
0 0 0 821 1267869 -2114 0
63 1 S102 868 1268737 -1246 0
63 1 S102 909 1269646 -337 0
63 2 S102 974 1270620 637 0
63 2 S102 1025 1271645 1662 0
63 2 S102 992 1272637 2654 0
63 2 S102 1034 1273671 3688 0
63 2 S102 1050 1274721 4738 0
63 2 S102 1048 1275769 5786 0
63 2 S102 1028 1276797 6814 0
0 0 0 1020 1277817 -9839 0
0 0 0 1002 1278819 -8837 0
0 0 0 986 1279805 -7851 0
0 0 0 974 1280779 -6877 0
0 0 0 969 1281748 -5908 0
0 0 0 953 1282701 -4955 0
0 0 0 984 1283685 -3971 0
0 0 0 1019 1284704 -2952 0
64 1 S112 1055 1285759 -1897 0
64 1 S112 1060 1286819 -837 0
64 2 S112 1024 1287843 187 0
64 2 S112 971 1288814 1158 0
64 2 S112 971 1289785 2129 0
64 2 S112 985 1290770 3114 0
64 2 S112 949 1291719 4063 0
64 2 S112 913 1292632 4976 0
64 2 S112 970 1293602 5946 0
64 2 S112 1046 1294648 6992 0
0 0 0 1015 1295663 -7411 0
0 0 0 930 1296593 -6481 0
0 0 0 928 1297521 -5553 0
0 0 0 932 1298453 -4621 0
0 0 0 922 1299375 -3699 0
0 0 0 860 1300235 -2839 0
65 1 S106 848 1301083 -1991 0
65 1 S106 843 1301926 -1148 0
65 1 S106 844 1302770 -304 0
65 2 S106 858 1303628 554 0
65 2 S106 868 1304496 1422 0
65 2 S106 853 1305349 2275 0
65 2 S106 909 1306258 3184 0
65 2 S106 982 1307240 4166 0
65 2 S106 1034 1308274 5200 0
65 2 S106 1046 1309320 6246 0
0 0 0 1020 1310340 -6626 0
0 0 0 1019 1311359 -5607 0
0 0 0 1017 1312376 -4590 0
0 0 0 1001 1313377 -3589 0
0 0 0 1004 1314381 -2585 0
66 1 S116 987 1315368 -1598 0
66 1 S116 997 1316365 -601 0
66 2 S116 1006 1317371 405 0
66 2 S116 1000 1318371 1405 0
66 2 S116 998 1319369 2403 0
66 2 S116 953 1320322 3356 0
66 2 S116 960 1321282 4316 0
66 2 S116 969 1322251 5285 0
66 2 S116 990 1323241 6275 0
0 0 0 1023 1324264 -12182 0
0 0 0 973 1325237 -11209 0
0 0 0 1013 1326250 -10196 0
0 0 0 1033 1327283 -9163 0
0 0 0 1028 1328311 -8135 0
0 0 0 955 1329266 -7180 0
0 0 0 986 1330252 -6194 0
0 0 0 1008 1331260 -5186 0
0 0 0 1010 1332270 -4176 0
0 0 0 986 1333256 -3190 0
0 0 0 917 1334173 -2273 0
67 1 S102 907 1335080 -1366 0
67 1 S102 885 1335965 -481 0
67 2 S102 880 1336845 399 0
67 2 S102 874 1337719 1273 0
67 2 S102 844 1338563 2117 0
67 2 S102 908 1339471 3025 0
67 2 S102 971 1340442 3996 0
67 2 S102 1047 1341489 5043 0
67 2 S102 1074 1342563 6117 0
0 0 0 1082 1343645 -6776 0
0 0 0 1064 1344709 -5712 0
0 0 0 1045 1345754 -4667 0
0 0 0 1013 1346767 -3654 0
0 0 0 990 1347757 -2664 0
68 1 S106 962 1348719 -1702 0
68 1 S106 953 1349672 -749 0
68 2 S106 949 1350621 200 0
68 2 S106 974 1351595 1174 0
68 2 S106 999 1352594 2173 0
68 2 S106 1028 1353622 3201 0
68 2 S106 1027 1354649 4228 0
68 2 S106 946 1355595 5174 0
68 2 S106 961 1356556 6135 0
0 0 0 960 1357516 -12949 0
0 0 0 949 1358465 -12000 0
0 0 0 911 1359376 -11089 0
0 0 0 880 1360256 -10209 0
0 0 0 932 1361188 -9277 0
0 0 0 971 1362159 -8306 0
0 0 0 972 1363131 -7334 0
0 0 0 893 1364024 -6441 0
0 0 0 870 1364894 -5571 0
0 0 0 835 1365729 -4736 0
0 0 0 819 1366548 -3917 0
0 0 0 790 1367338 -3127 0
0 0 0 808 1368146 -2319 0
69 1 S102 821 1368967 -1498 0
69 1 S102 876 1369843 -622 0
69 2 S102 919 1370762 297 0
69 2 S102 913 1371675 1210 0
69 2 S102 920 1372595 2130 0
69 2 S102 979 1373574 3109 0
69 2 S102 1008 1374582 4117 0
69 2 S102 1040 1375622 5157 0
69 2 S102 1069 1376691 6226 0
0 0 0 1004 1377695 -10757 0
0 0 0 1046 1378741 -9711 0
0 0 0 1055 1379796 -8656 0
0 0 0 1039 1380835 -7617 0
0 0 0 1031 1381866 -6586 0
0 0 0 989 1382855 -5597 0
0 0 0 921 1383776 -4676 0
0 0 0 946 1384722 -3730 0
0 0 0 974 1385696 -2756 0
70 1 S112 1023 1386719 -1733 0
70 1 S112 1068 1387787 -665 0
70 2 S112 1083 1388870 418 0
70 2 S112 1016 1389886 1434 0
70 2 S112 1020 1390906 2454 0
70 2 S112 1025 1391931 3479 0
70 2 S112 1055 1392986 4534 0
70 2 S112 1042 1394028 5576 0
70 2 S112 1020 1395048 6596 0
0 0 0 1042 1396090 -12008 0
0 0 0 1057 1397147 -10951 0
0 0 0 1053 1398200 -9898 0
0 0 0 1017 1399217 -8881 0
0 0 0 921 1400138 -7960 0
0 0 0 949 1401087 -7011 0
0 0 0 963 1402050 -6048 0
0 0 0 988 1403038 -5060 0
0 0 0 926 1403964 -4134 0
0 0 0 992 1404956 -3142 0
0 0 0 1046 1406002 -2096 0
71 1 S116 1073 1407075 -1023 0
71 1 S116 977 1408052 -46 0
71 2 S116 984 1409036 938 0
71 2 S116 992 1410028 1930 0
71 2 S116 957 1410985 2887 0
71 2 S116 931 1411916 3818 0
71 2 S116 911 1412827 4729 0
71 2 S116 901 1413728 5630 0
71 2 S116 885 1414613 6515 0
0 0 0 854 1415467 -9740 0
0 0 0 894 1416361 -8846 0
0 0 0 835 1417196 -8011 0
0 0 0 830 1418026 -7181 0
0 0 0 882 1418908 -6299 0
0 0 0 903 1419811 -5396 0
0 0 0 882 1420693 -4514 0
0 0 0 903 1421596 -3611 0
0 0 0 910 1422506 -2701 0
72 1 S102 929 1423435 -1772 0
72 1 S102 953 1424388 -819 0
72 2 S102 952 1425340 133 0
72 2 S102 1020 1426360 1153 0
72 2 S102 1009 1427369 2162 0
72 2 S102 1014 1428383 3176 0
72 2 S102 958 1429341 4134 0
72 2 S102 1032 1430373 5166 0
72 2 S102 1062 1431435 6228 0
0 0 0 1079 1432514 -6817 0
0 0 0 1039 1433553 -5778 0
0 0 0 1033 1434586 -4745 0
0 0 0 1005 1435591 -3740 0
0 0 0 1008 1436599 -2732 0
73 1 S116 1007 1437606 -1725 0
73 1 S116 962 1438568 -763 0
73 2 S116 949 1439517 186 0
73 2 S116 954 1440471 1140 0
73 2 S116 943 1441414 2083 0
73 2 S116 891 1442305 2974 0
73 2 S116 922 1443227 3896 0
73 2 S116 969 1444196 4865 0
73 2 S116 955 1445151 5820 0
73 2 S116 896 1446047 6716 0
0 0 0 837 1446884 -8678 0
0 0 0 858 1447742 -7820 0
0 0 0 886 1448628 -6934 0
0 0 0 898 1449526 -6036 0
0 0 0 913 1450439 -5123 0
0 0 0 922 1451361 -4201 0
0 0 0 879 1452240 -3322 0
0 0 0 897 1453137 -2425 0
74 1 S106 901 1454038 -1524 0
74 1 S106 904 1454942 -620 0
74 2 S106 934 1455876 314 0
74 2 S106 951 1456827 1265 0
74 2 S106 877 1457704 2142 0
74 2 S106 909 1458613 3051 0
74 2 S106 928 1459541 3979 0
74 2 S106 988 1460529 4967 0
74 2 S106 1031 1461560 5998 0
0 0 0 1079 1462639 -7644 0
0 0 0 1075 1463714 -6569 0
0 0 0 1056 1464770 -5513 0
0 0 0 1025 1465795 -4488 0
0 0 0 976 1466771 -3512 0
0 0 0 938 1467709 -2574 0
75 1 S112 953 1468662 -1621 0
75 1 S112 991 1469653 -630 0
75 2 S112 1028 1470681 398 0
75 2 S112 1055 1471736 1453 0
75 2 S112 1063 1472799 2516 0
75 2 S112 1048 1473847 3564 0
75 2 S112 1045 1474892 4609 0
75 2 S112 1021 1475913 5630 0
75 2 S112 945 1476858 6575 0
0 0 0 959 1477817 -7735 0
0 0 0 934 1478751 -6801 0
0 0 0 932 1479683 -5869 0
0 0 0 961 1480644 -4908 0
0 0 0 920 1481564 -3988 0
0 0 0 994 1482558 -2994 0
76 1 S116 1058 1483616 -1936 0
76 1 S116 1069 1484685 -867 0
76 2 S116 974 1485659 107 0
76 2 S116 955 1486614 1062 0
76 2 S116 948 1487562 2010 0
76 2 S116 944 1488506 2954 0
76 2 S116 939 1489445 3893 0
76 2 S116 894 1490339 4787 0
76 2 S116 931 1491270 5718 0
76 2 S116 966 1492236 6684 0
0 0 0 985 1493221 -8230 0
0 0 0 994 1494215 -7236 0
0 0 0 956 1495171 -6280 0
0 0 0 976 1496147 -5304 0
0 0 0 965 1497112 -4339 0
0 0 0 955 1498067 -3384 0
0 0 0 923 1498990 -2461 0
77 1 S106 992 1499982 -1469 0
77 1 S106 1061 1501043 -408 0
77 2 S106 1096 1502139 688 0
77 2 S106 1082 1503221 1770 0
77 2 S106 1014 1504235 2784 0
77 2 S106 1028 1505263 3812 0
77 2 S106 1021 1506284 4833 0
77 2 S106 1009 1507293 5842 0
77 2 S106 1002 1508295 6844 0
0 0 0 967 1509262 -10077 0
0 0 0 967 1510229 -9110 0
0 0 0 977 1511206 -8133 0
0 0 0 1007 1512213 -7126 0
0 0 0 1012 1513225 -6114 0
0 0 0 978 1514203 -5136 0
0 0 0 1008 1515211 -4128 0
0 0 0 1035 1516246 -3093 0
0 0 0 1063 1517309 -2030 0
78 1 S112 1082 1518391 -948 0
78 2 S112 1079 1519470 131 0
78 2 S112 1079 1520549 1210 0
78 2 S112 1051 1521600 2261 0
78 2 S112 995 1522595 3256 0
78 2 S112 976 1523571 4232 0
78 2 S112 993 1524564 5225 0
78 2 S112 1035 1525599 6260 0
0 0 0 1063 1526662 -11510 0
0 0 0 1082 1527744 -10428 0
0 0 0 1084 1528828 -9344 0
0 0 0 963 1529791 -8381 0
0 0 0 989 1530780 -7392 0
0 0 0 974 1531754 -6418 0
0 0 0 964 1532718 -5454 0
0 0 0 908 1533626 -4546 0
0 0 0 974 1534600 -3572 0
0 0 0 1020 1535620 -2552 0
79 1 S102 1031 1536651 -1521 0
79 1 S102 933 1537584 -588 0
79 2 S102 952 1538536 364 0
79 2 S102 923 1539459 1287 0
79 2 S102 909 1540368 2196 0
79 2 S102 881 1541249 3077 0
79 2 S102 803 1542052 3880 0
79 2 S102 760 1542812 4640 0
79 2 S102 773 1543585 5413 0
79 2 S102 749 1544334 6162 1
79 2 S102 783 1545117 6945 0
0 0 0 856 1545973 -10816 0
0 0 0 851 1546824 -9965 0
0 0 0 883 1547707 -9082 0
0 0 0 965 1548672 -8117 0
0 0 0 1019 1549691 -7098 0
0 0 0 1032 1550723 -6066 0
0 0 0 1007 1551730 -5059 0
0 0 0 973 1552703 -4086 0
0 0 0 914 1553617 -3172 0
0 0 0 903 1554520 -2269 0
80 1 S116 895 1555415 -1374 0
80 1 S116 899 1556314 -475 0
80 2 S116 899 1557213 424 0
80 2 S116 907 1558120 1331 0
80 2 S116 912 1559032 2243 0
80 2 S116 918 1559950 3161 0
80 2 S116 917 1560867 4078 0
80 2 S116 930 1561797 5008 0
80 2 S116 950 1562747 5958 0
80 2 S116 966 1563713 6924 0
