T_0142
BeatCount Mean SD BeatCountNoOutliers MeanNoOutliers SDNoOutliers
1900 793,090526315789 65,884592916056 1883 792,375464684015 63,033754216447

Trial TrialStatus Trialtype IBI AbsPosition RelPosition Outlier
0 0 0 754 809 -14686 0
0 0 0 727 1536 -13959 0
0 0 0 761 2297 -13198 0
0 0 0 783 3080 -12415 0
0 0 0 763 3843 -11652 0
0 0 0 762 4605 -10890 0
0 0 0 777 5382 -10113 0
0 0 0 760 6142 -9353 0
0 0 0 736 6878 -8617 0
0 0 0 767 7645 -7850 0
0 0 0 787 8432 -7063 0
0 0 0 799 9231 -6264 0
0 0 0 777 10008 -5487 0
0 0 0 782 10790 -4705 0
0 0 0 818 11608 -3887 0
0 0 0 863 12471 -3024 0
0 0 0 843 13314 -2181 0
1 1 S112 805 14119 -1376 0
1 1 S112 823 14942 -553 0
1 2 S112 844 15786 291 0
1 2 S112 865 16651 1156 0
1 2 S112 892 17543 2048 0
1 2 S112 874 18417 2922 0
1 2 S112 864 19281 3786 0
1 2 S112 852 20133 4638 0
1 2 S112 789 20922 5427 0
1 2 S112 787 21709 6214 0
0 0 0 847 22556 -11938 0
0 0 0 896 23452 -11042 0
0 0 0 913 24365 -10129 0
0 0 0 892 25257 -9237 0
0 0 0 904 26161 -8333 0
0 0 0 902 27063 -7431 0
0 0 0 876 27939 -6555 0
0 0 0 846 28785 -5709 0
0 0 0 865 29650 -4844 0
0 0 0 864 30514 -3980 0
0 0 0 869 31383 -3111 0
0 0 0 881 32264 -2230 0
2 1 S102 889 33153 -1341 0
2 1 S102 918 34071 -423 0
2 2 S102 868 34939 445 0
2 2 S102 829 35768 1274 0
2 2 S102 846 36614 2120 0
2 2 S102 864 37478 2984 0
2 2 S102 925 38403 3909 0
2 2 S102 914 39317 4823 0
2 2 S102 950 40267 5773 0
2 2 S102 936 41203 6709 0
0 0 0 941 42144 -8249 0
0 0 0 877 43021 -7372 0
0 0 0 875 43896 -6497 0
0 0 0 830 44726 -5667 0
0 0 0 804 45530 -4863 0
0 0 0 765 46295 -4098 0
0 0 0 742 47037 -3356 0
0 0 0 747 47784 -2609 0
3 1 S116 758 48542 -1851 0
3 1 S116 769 49311 -1082 0
3 1 S116 768 50079 -314 0
3 2 S116 768 50847 454 0
3 2 S116 781 51628 1235 0
3 2 S116 811 52439 2046 0
3 2 S116 844 53283 2890 0
3 2 S116 852 54135 3742 0
3 2 S116 856 54991 4598 0
3 2 S116 890 55881 5488 0
3 2 S116 894 56775 6382 0
0 0 0 899 57674 -11834 0
0 0 0 859 58533 -10975 0
0 0 0 853 59386 -10122 0
0 0 0 881 60267 -9241 0
0 0 0 877 61144 -8364 0
0 0 0 848 61992 -7516 0
0 0 0 805 62797 -6711 0
0 0 0 809 63606 -5902 0
0 0 0 841 64447 -5061 0
0 0 0 900 65347 -4161 0
0 0 0 902 66249 -3259 0
0 0 0 910 67159 -2349 0
4 1 S106 942 68101 -1407 0
4 1 S106 919 69020 -488 0
4 2 S106 863 69883 375 0
4 2 S106 861 70744 1236 0
4 2 S106 873 71617 2109 0
4 2 S106 877 72494 2986 0
4 2 S106 834 73328 3820 0
4 2 S106 797 74125 4617 0
4 2 S106 829 74954 5446 0
4 2 S106 898 75852 6344 0
0 0 0 885 76737 -7260 0
0 0 0 857 77594 -6403 0
0 0 0 883 78477 -5520 0
0 0 0 901 79378 -4619 0
0 0 0 861 80239 -3758 0
0 0 0 858 81097 -2900 0
0 0 0 830 81927 -2070 0
5 1 S116 802 82729 -1268 0
5 1 S116 793 83522 -475 0
5 2 S116 765 84287 290 0
5 2 S116 773 85060 1063 0
5 2 S116 757 85817 1820 0
5 2 S116 709 86526 2529 0
5 2 S116 714 87240 3243 0
5 2 S116 824 88064 4067 0
5 2 S116 914 88978 4981 0
5 2 S116 856 89834 5837 0
5 2 S116 782 90616 6619 0
0 0 0 803 91419 -8991 0
0 0 0 816 92235 -8175 0
0 0 0 836 93071 -7339 0
0 0 0 825 93896 -6514 0
0 0 0 760 94656 -5754 0
0 0 0 765 95421 -4989 0
0 0 0 771 96192 -4218 0
0 0 0 797 96989 -3421 0
0 0 0 814 97803 -2607 0
6 1 S106 779 98582 -1828 0
6 1 S106 787 99369 -1041 0
6 1 S106 816 100185 -225 0
6 2 S106 844 101029 619 0
6 2 S106 889 101918 1508 0
6 2 S106 868 102786 2376 0
6 2 S106 866 103652 3242 0
6 2 S106 897 104549 4139 0
6 2 S106 899 105448 5038 0
6 2 S106 883 106331 5921 0
6 2 S106 874 107205 6795 0
0 0 0 863 108068 -10562 0
0 0 0 895 108963 -9667 0
0 0 0 872 109835 -8795 0
0 0 0 832 110667 -7963 0
0 0 0 824 111491 -7139 0
0 0 0 819 112310 -6320 0
0 0 0 768 113078 -5552 0
0 0 0 749 113827 -4803 0
0 0 0 735 114562 -4068 0
0 0 0 757 115319 -3311 0
0 0 0 755 116074 -2556 0
7 1 S102 728 116802 -1828 0
7 1 S102 722 117524 -1106 0
7 1 S102 732 118256 -374 0
7 2 S102 751 119007 377 0
7 2 S102 765 119772 1142 0
7 2 S102 786 120558 1928 0
7 2 S102 781 121339 2709 0
7 2 S102 781 122120 3490 0
7 2 S102 787 122907 4277 0
7 2 S102 792 123699 5069 0
7 2 S102 793 124492 5862 0
7 2 S102 783 125275 6645 0
0 0 0 796 126071 -7612 0
0 0 0 840 126911 -6772 0
0 0 0 848 127759 -5924 0
0 0 0 849 128608 -5075 0
0 0 0 869 129477 -4206 0
0 0 0 876 130353 -3330 0
0 0 0 867 131220 -2463 0
8 1 S112 826 132046 -1637 0
8 1 S112 817 132863 -820 0
8 1 S112 801 133664 -19 0
8 2 S112 759 134423 740 0
8 2 S112 751 135174 1491 0
8 2 S112 770 135944 2261 0
8 2 S112 816 136760 3077 0
8 2 S112 830 137590 3907 0
8 2 S112 811 138401 4718 0
8 2 S112 838 139239 5556 0
8 2 S112 858 140097 6414 0
0 0 0 846 140943 -7627 0
0 0 0 786 141729 -6841 0
0 0 0 795 142524 -6046 0
0 0 0 844 143368 -5202 0
0 0 0 852 144220 -4350 0
0 0 0 799 145019 -3551 0
0 0 0 786 145805 -2765 0
9 1 S116 774 146579 -1991 0
9 1 S116 754 147333 -1237 0
9 1 S116 745 148078 -492 0
9 2 S116 765 148843 273 0
9 2 S116 775 149618 1048 0
9 2 S116 777 150395 1825 0
9 2 S116 748 151143 2573 0
9 2 S116 728 151871 3301 0
9 2 S116 740 152611 4041 0
9 2 S116 759 153370 4800 0
9 2 S116 758 154128 5558 0
9 2 S116 744 154872 6302 0
9 2 S116 719 155591 7021 0
0 0 0 737 156328 -9898 0
0 0 0 778 157106 -9120 0
0 0 0 786 157892 -8334 0
0 0 0 778 158670 -7556 0
0 0 0 802 159472 -6754 0
0 0 0 798 160270 -5956 0
0 0 0 775 161045 -5181 0
0 0 0 737 161782 -4444 0
0 0 0 737 162519 -3707 0
0 0 0 768 163287 -2939 0
0 0 0 825 164112 -2114 0
10 1 S102 860 164972 -1254 0
10 1 S102 827 165799 -427 0
10 2 S102 822 166621 395 0
10 2 S102 813 167434 1208 0
10 2 S102 803 168237 2011 0
10 2 S102 799 169036 2810 0
10 2 S102 797 169833 3607 0
10 2 S102 808 170641 4415 0
10 2 S102 814 171455 5229 0
10 2 S102 795 172250 6024 0
10 2 S102 801 173051 6825 0
0 0 0 831 173882 -10978 0
0 0 0 870 174752 -10108 0
0 0 0 857 175609 -9251 0
0 0 0 851 176460 -8400 0
0 0 0 818 177278 -7582 0
0 0 0 753 178031 -6829 0
0 0 0 706 178737 -6123 0
0 0 0 687 179424 -5436 0
0 0 0 666 180090 -4770 0
0 0 0 672 180762 -4098 0
0 0 0 765 181527 -3333 0
0 0 0 905 182432 -2428 0
11 1 S112 831 183263 -1597 0
11 1 S112 867 184130 -730 0
11 2 S112 942 185072 212 0
11 2 S112 951 186023 1163 0
11 2 S112 940 186963 2103 0
11 2 S112 896 187859 2999 0
11 2 S112 893 188752 3892 0
11 2 S112 877 189629 4769 0
11 2 S112 872 190501 5641 0
11 2 S112 823 191324 6464 0
0 0 0 838 192162 -7519 0
0 0 0 862 193024 -6657 0
0 0 0 880 193904 -5777 0
0 0 0 855 194759 -4922 0
0 0 0 847 195606 -4075 0
0 0 0 976 196582 -3099 1
0 0 0 825 197407 -2274 0
12 1 S116 749 198156 -1525 0
12 1 S116 709 198865 -816 0
12 1 S116 688 199553 -128 0
12 2 S116 681 200234 553 0
12 2 S116 699 200933 1252 0
12 2 S116 767 201700 2019 0
12 2 S116 902 202602 2921 0
12 2 S116 934 203536 3855 0
12 2 S116 948 204484 4803 0
12 2 S116 891 205375 5694 0
12 2 S116 851 206226 6545 0
0 0 0 868 207094 -11404 0
0 0 0 880 207974 -10524 0
0 0 0 901 208875 -9623 0
0 0 0 871 209746 -8752 0
0 0 0 856 210602 -7896 0
0 0 0 842 211444 -7054 0
0 0 0 811 212255 -6243 0
0 0 0 798 213053 -5445 0
0 0 0 869 213922 -4576 0
0 0 0 982 214904 -3594 1
0 0 0 987 215891 -2607 1
13 1 S112 879 216770 -1728 0
13 1 S112 838 217608 -890 0
13 1 S112 858 218466 -32 0
13 2 S112 901 219367 869 0
13 2 S112 921 220288 1790 0
13 2 S112 869 221157 2659 0
13 2 S112 903 222060 3562 0
13 2 S112 955 223015 4517 0
13 2 S112 941 223956 5458 0
13 2 S112 885 224841 6343 0
0 0 0 800 225641 -11706 0
0 0 0 826 226467 -10880 0
0 0 0 873 227340 -10007 0
0 0 0 923 228263 -9084 0
0 0 0 895 229158 -8189 0
0 0 0 836 229994 -7353 0
0 0 0 823 230817 -6530 0
0 0 0 844 231661 -5686 0
0 0 0 858 232519 -4828 0
0 0 0 846 233365 -3982 0
0 0 0 825 234190 -3157 0
0 0 0 822 235012 -2335 0
14 1 S106 830 235842 -1505 0
14 1 S106 875 236717 -630 0
14 2 S106 929 237646 299 0
14 2 S106 880 238526 1179 0
14 2 S106 863 239389 2042 0
14 2 S106 871 240260 2913 0
14 2 S106 853 241113 3766 0
14 2 S106 806 241919 4572 0
14 2 S106 778 242697 5350 0
14 2 S106 803 243500 6153 0
14 2 S106 844 244344 6997 0
0 0 0 845 245189 -10262 0
0 0 0 845 246034 -9417 0
0 0 0 858 246892 -8559 0
0 0 0 850 247742 -7709 0
0 0 0 865 248607 -6844 0
0 0 0 892 249499 -5952 0
0 0 0 858 250357 -5094 0
0 0 0 866 251223 -4228 0
0 0 0 892 252115 -3336 0
0 0 0 897 253012 -2439 0
15 1 S116 893 253905 -1546 0
15 1 S116 814 254719 -732 0
15 2 S116 781 255500 49 0
15 2 S116 830 256330 879 0
15 2 S116 869 257199 1748 0
15 2 S116 890 258089 2638 0
15 2 S116 810 258899 3448 0
15 2 S116 862 259761 4310 0
15 2 S116 889 260650 5199 0
15 2 S116 907 261557 6106 0
15 2 S116 901 262458 7007 0
0 0 0 859 263317 -8828 0
0 0 0 857 264174 -7971 0
0 0 0 856 265030 -7115 0
0 0 0 844 265874 -6271 0
0 0 0 824 266698 -5447 0
0 0 0 789 267487 -4658 0
0 0 0 768 268255 -3890 0
0 0 0 794 269049 -3096 0
0 0 0 848 269897 -2248 0
16 1 S116 912 270809 -1336 0
16 1 S116 944 271753 -392 0
16 2 S116 925 272678 533 0
16 2 S116 866 273544 1399 0
16 2 S116 855 274399 2254 0
16 2 S116 864 275263 3118 0
16 2 S116 839 276102 3957 0
16 2 S116 801 276903 4758 0
16 2 S116 806 277709 5564 0
16 2 S116 832 278541 6396 0
0 0 0 865 279406 -9533 0
0 0 0 868 280274 -8665 0
0 0 0 842 281116 -7823 0
0 0 0 864 281980 -6959 0
0 0 0 858 282838 -6101 0
0 0 0 845 283683 -5256 0
0 0 0 786 284469 -4470 0
0 0 0 754 285223 -3716 0
0 0 0 718 285941 -2998 0
0 0 0 691 286632 -2307 0
17 1 S106 669 287301 -1638 0
17 1 S106 655 287956 -983 0
17 1 S106 642 288598 -341 0
17 2 S106 628 289226 287 0
17 2 S106 619 289845 906 1
17 2 S106 619 290464 1525 1
17 2 S106 627 291091 2152 0
17 2 S106 643 291734 2795 0
17 2 S106 678 292412 3473 0
17 2 S106 704 293116 4177 0
17 2 S106 714 293830 4891 0
17 2 S106 707 294537 5598 0
17 2 S106 677 295214 6275 0
17 2 S106 682 295896 6957 0
0 0 0 700 296596 -10016 0
0 0 0 749 297345 -9267 0
0 0 0 790 298135 -8477 0
0 0 0 814 298949 -7663 0
0 0 0 792 299741 -6871 0
0 0 0 782 300523 -6089 0
0 0 0 829 301352 -5260 0
0 0 0 837 302189 -4423 0
0 0 0 806 302995 -3617 0
0 0 0 760 303755 -2857 0
0 0 0 751 304506 -2106 0
18 1 S102 764 305270 -1342 0
18 1 S102 802 306072 -540 0
18 2 S102 830 306902 290 0
18 2 S102 802 307704 1092 0
18 2 S102 788 308492 1880 0
18 2 S102 824 309316 2704 0
18 2 S102 850 310166 3554 0
18 2 S102 875 311041 4429 0
18 2 S102 815 311856 5244 0
18 2 S102 848 312704 6092 0
18 2 S102 865 313569 6957 0
0 0 0 870 314439 -6546 0
0 0 0 850 315289 -5696 0
0 0 0 872 316161 -4824 0
0 0 0 839 317000 -3985 0
0 0 0 816 317816 -3169 0
0 0 0 792 318608 -2377 0
19 1 S106 778 319386 -1599 0
19 1 S106 774 320160 -825 0
19 1 S106 743 320903 -82 0
19 2 S106 750 321653 668 0
19 2 S106 798 322451 1466 0
19 2 S106 841 323292 2307 0
19 2 S106 851 324143 3158 0
19 2 S106 809 324952 3967 0
19 2 S106 767 325719 4734 0
19 2 S106 783 326502 5517 0
19 2 S106 800 327302 6317 0
0 0 0 814 328116 -11636 0
0 0 0 803 328919 -10833 0
0 0 0 835 329754 -9998 0
0 0 0 876 330630 -9122 0
0 0 0 872 331502 -8250 0
0 0 0 834 332336 -7416 0
0 0 0 799 333135 -6617 0
0 0 0 793 333928 -5824 0
0 0 0 773 334701 -5051 0
0 0 0 722 335423 -4329 0
0 0 0 686 336109 -3643 0
0 0 0 668 336777 -2975 0
0 0 0 663 337440 -2312 0
20 1 S112 682 338122 -1630 0
20 1 S112 760 338882 -870 0
20 2 S112 928 339810 58 0
20 2 S112 950 340760 1008 0
20 2 S112 969 341729 1977 1
20 2 S112 927 342656 2904 0
20 2 S112 856 343512 3760 0
20 2 S112 852 344364 4612 0
20 2 S112 858 345222 5470 0
20 2 S112 847 346069 6317 0
0 0 0 815 346884 -10458 0
0 0 0 769 347653 -9689 0
0 0 0 777 348430 -8912 0
0 0 0 800 349230 -8112 0
0 0 0 867 350097 -7245 0
0 0 0 864 350961 -6381 0
0 0 0 808 351769 -5573 0
0 0 0 816 352585 -4757 0
0 0 0 833 353418 -3924 0
0 0 0 860 354278 -3064 0
0 0 0 867 355145 -2197 0
21 1 S106 836 355981 -1361 0
21 1 S106 852 356833 -509 0
21 2 S106 861 357694 352 0
21 2 S106 848 358542 1200 0
21 2 S106 822 359364 2022 0
21 2 S106 852 360216 2874 0
21 2 S106 895 361111 3769 0
21 2 S106 918 362029 4687 0
21 2 S106 857 362886 5544 0
21 2 S106 850 363736 6394 0
0 0 0 881 364617 -10149 0
0 0 0 896 365513 -9253 0
0 0 0 886 366399 -8367 0
0 0 0 826 367225 -7541 0
0 0 0 821 368046 -6720 0
0 0 0 820 368866 -5900 0
0 0 0 834 369700 -5066 0
0 0 0 834 370534 -4232 0
0 0 0 791 371325 -3441 0
0 0 0 831 372156 -2610 0
22 1 S116 862 373018 -1748 0
22 1 S116 882 373900 -866 0
22 1 S116 838 374738 -28 0
22 2 S116 820 375558 792 0
22 2 S116 847 376405 1639 0
22 2 S116 872 377277 2511 0
22 2 S116 894 378171 3405 0
22 2 S116 878 379049 4283 0
22 2 S116 834 379883 5117 0
22 2 S116 857 380740 5974 0
22 2 S116 874 381614 6848 0
0 0 0 875 382489 -9170 0
0 0 0 827 383316 -8343 0
0 0 0 859 384175 -7484 0
0 0 0 883 385058 -6601 0
0 0 0 839 385897 -5762 0
0 0 0 792 386689 -4970 0
0 0 0 757 387446 -4213 0
0 0 0 740 388186 -3473 0
0 0 0 731 388917 -2742 0
0 0 0 697 389614 -2045 0
23 1 S112 673 390287 -1372 0
23 1 S112 659 390946 -713 0
23 1 S112 661 391607 -52 0
23 2 S112 679 392286 627 0
23 2 S112 724 393010 1351 0
23 2 S112 763 393773 2114 0
23 2 S112 815 394588 2929 0
23 2 S112 842 395430 3771 0
23 2 S112 807 396237 4578 0
23 2 S112 807 397044 5385 0
23 2 S112 816 397860 6201 0
23 2 S112 819 398679 7020 0
0 0 0 820 399499 -8888 0
0 0 0 776 400275 -8112 0
0 0 0 812 401087 -7300 0
0 0 0 870 401957 -6430 0
0 0 0 852 402809 -5578 0
0 0 0 804 403613 -4774 0
0 0 0 822 404435 -3952 0
0 0 0 833 405268 -3119 0
0 0 0 816 406084 -2303 0
24 1 S106 765 406849 -1538 0
24 1 S106 761 407610 -777 0
24 2 S106 789 408399 12 0
24 2 S106 821 409220 833 0
24 2 S106 840 410060 1673 0
24 2 S106 827 410887 2500 0
24 2 S106 794 411681 3294 0
24 2 S106 832 412513 4126 0
24 2 S106 866 413379 4992 0
24 2 S106 876 414255 5868 0
24 2 S106 855 415110 6723 0
0 0 0 800 415910 -7480 0
0 0 0 842 416752 -6638 0
0 0 0 835 417587 -5803 0
0 0 0 934 418521 -4869 0
0 0 0 922 419443 -3947 0
0 0 0 842 420285 -3105 0
0 0 0 842 421127 -2263 0
25 1 S102 874 422001 -1389 0
25 1 S102 884 422885 -505 0
25 2 S102 875 423760 370 0
25 2 S102 821 424581 1191 0
25 2 S102 825 425406 2016 0
25 2 S102 878 426284 2894 0
25 2 S102 942 427226 3836 0
25 2 S102 948 428174 4784 0
25 2 S102 872 429046 5656 0
25 2 S102 863 429909 6519 0
0 0 0 864 430773 -5499 0
0 0 0 869 431642 -4630 0
0 0 0 827 432469 -3803 0
0 0 0 770 433239 -3033 0
0 0 0 750 433989 -2283 0
26 1 S116 738 434727 -1545 0
26 1 S116 704 435431 -841 0
26 1 S116 682 436113 -159 0
26 2 S116 677 436790 518 0
26 2 S116 688 437478 1206 0
26 2 S116 717 438195 1923 0
26 2 S116 795 438990 2718 0
26 2 S116 844 439834 3562 0
26 2 S116 851 440685 4413 0
26 2 S116 836 441521 5249 0
26 2 S116 791 442312 6040 0
26 2 S116 731 443043 6771 0
0 0 0 724 443767 -6397 0
0 0 0 736 444503 -5661 0
0 0 0 772 445275 -4889 0
0 0 0 792 446067 -4097 0
0 0 0 792 446859 -3305 0
0 0 0 742 447601 -2563 0
27 1 S106 727 448328 -1836 0
27 1 S106 738 449066 -1098 0
27 1 S106 782 449848 -316 0
27 2 S106 858 450706 542 0
27 2 S106 886 451592 1428 0
27 2 S106 831 452423 2259 0
27 2 S106 789 453212 3048 0
27 2 S106 806 454018 3854 0
27 2 S106 819 454837 4673 0
27 2 S106 808 455645 5481 0
27 2 S106 800 456445 6281 0
0 0 0 766 457211 -8023 0
0 0 0 778 457989 -7245 0
0 0 0 812 458801 -6433 0
0 0 0 855 459656 -5578 0
0 0 0 885 460541 -4693 0
0 0 0 824 461365 -3869 0
0 0 0 779 462144 -3090 0
0 0 0 788 462932 -2302 0
28 1 S102 783 463715 -1519 0
28 1 S102 798 464513 -721 0
28 2 S102 800 465313 79 0
28 2 S102 780 466093 859 0
28 2 S102 768 466861 1627 0
28 2 S102 767 467628 2394 0
28 2 S102 769 468397 3163 0
28 2 S102 771 469168 3934 0
28 2 S102 757 469925 4691 0
28 2 S102 845 470770 5536 0
28 2 S102 872 471642 6408 0
0 0 0 853 472495 -10312 0
0 0 0 825 473320 -9487 0
0 0 0 781 474101 -8706 0
0 0 0 713 474814 -7993 0
0 0 0 682 475496 -7311 0
0 0 0 664 476160 -6647 0
0 0 0 660 476820 -5987 0
0 0 0 645 477465 -5342 0
0 0 0 635 478100 -4707 0
0 0 0 634 478734 -4073 0
0 0 0 641 479375 -3432 0
0 0 0 664 480039 -2768 0
0 0 0 709 480748 -2059 0
29 1 S112 796 481544 -1263 0
29 1 S112 854 482398 -409 0
29 2 S112 864 483262 455 0
29 2 S112 864 484126 1319 0
29 2 S112 868 484994 2187 0
29 2 S112 850 485844 3037 0
29 2 S112 779 486623 3816 0
29 2 S112 768 487391 4584 0
29 2 S112 772 488163 5356 0
29 2 S112 772 488935 6128 0
29 2 S112 775 489710 6903 0
0 0 0 759 490469 -7557 0
0 0 0 720 491189 -6837 0
0 0 0 710 491899 -6127 0
0 0 0 725 492624 -5402 0
0 0 0 794 493418 -4608 0
0 0 0 825 494243 -3783 0
0 0 0 834 495077 -2949 0
0 0 0 794 495871 -2155 0
30 1 S112 769 496640 -1386 0
30 1 S112 778 497418 -608 0
30 2 S112 788 498206 180 0
30 2 S112 793 498999 973 0
30 2 S112 812 499811 1785 0
30 2 S112 806 500617 2591 0
30 2 S112 833 501450 3424 0
30 2 S112 870 502320 4294 0
30 2 S112 891 503211 5185 0
30 2 S112 890 504101 6075 0
30 2 S112 853 504954 6928 0
0 0 0 838 505792 -8995 0
0 0 0 832 506624 -8163 0
0 0 0 847 507471 -7316 0
0 0 0 804 508275 -6512 0
0 0 0 752 509027 -5760 0
0 0 0 770 509797 -4990 0
0 0 0 790 510587 -4200 0
0 0 0 860 511447 -3340 0
0 0 0 866 512313 -2474 0
31 1 S106 845 513158 -1629 0
31 1 S106 883 514041 -746 0
31 2 S106 914 514955 168 0
31 2 S106 903 515858 1071 0
31 2 S106 857 516715 1928 0
31 2 S106 774 517489 2702 0
31 2 S106 776 518265 3478 0
31 2 S106 777 519042 4255 0
31 2 S106 818 519860 5073 0
31 2 S106 827 520687 5900 0
31 2 S106 794 521481 6694 0
0 0 0 793 522274 -9870 0
0 0 0 813 523087 -9057 0
0 0 0 877 523964 -8180 0
0 0 0 907 524871 -7273 0
0 0 0 896 525767 -6377 0
0 0 0 822 526589 -5555 0
0 0 0 792 527381 -4763 0
0 0 0 778 528159 -3985 0
0 0 0 775 528934 -3210 0
0 0 0 716 529650 -2494 0
32 1 S102 691 530341 -1803 0
32 1 S102 682 531023 -1121 0
32 1 S102 682 531705 -439 0
32 2 S102 702 532407 263 0
32 2 S102 765 533172 1028 0
32 2 S102 860 534032 1888 0
32 2 S102 884 534916 2772 0
32 2 S102 896 535812 3668 0
32 2 S102 894 536706 4562 0
32 2 S102 838 537544 5400 0
32 2 S102 763 538307 6163 0
32 2 S102 762 539069 6925 0
0 0 0 772 539841 -10457 0
0 0 0 811 540652 -9646 0
0 0 0 882 541534 -8764 0
0 0 0 853 542387 -7911 0
0 0 0 843 543230 -7068 0
0 0 0 819 544049 -6249 0
0 0 0 816 544865 -5433 0
0 0 0 850 545715 -4583 0
0 0 0 848 546563 -3735 0
0 0 0 853 547416 -2882 0
0 0 0 817 548233 -2065 0
33 1 S112 820 549053 -1245 0
33 1 S112 826 549879 -419 0
33 2 S112 822 550701 403 0
33 2 S112 825 551526 1228 0
33 2 S112 813 552339 2041 0
33 2 S112 813 553152 2854 0
33 2 S112 862 554014 3716 0
33 2 S112 889 554903 4605 0
33 2 S112 883 555786 5488 0
33 2 S112 842 556628 6330 0
0 0 0 846 557474 -11126 0
0 0 0 852 558326 -10274 0
0 0 0 848 559174 -9426 0
0 0 0 796 559970 -8630 0
0 0 0 762 560732 -7868 0
0 0 0 780 561512 -7088 0
0 0 0 808 562320 -6280 0
0 0 0 826 563146 -5454 0
0 0 0 794 563940 -4660 0
0 0 0 792 564732 -3868 0
0 0 0 833 565565 -3035 0
0 0 0 874 566439 -2161 0
34 1 S106 900 567339 -1261 0
34 1 S106 864 568203 -397 0
34 2 S106 826 569029 429 0
34 2 S106 848 569877 1277 0
34 2 S106 859 570736 2136 0
34 2 S106 854 571590 2990 0
34 2 S106 831 572421 3821 0
34 2 S106 803 573224 4624 0
34 2 S106 817 574041 5441 0
34 2 S106 828 574869 6269 0
0 0 0 820 575689 -10136 0
0 0 0 827 576516 -9309 0
0 0 0 865 577381 -8444 0
0 0 0 896 578277 -7548 0
0 0 0 914 579191 -6634 0
0 0 0 834 580025 -5800 0
0 0 0 792 580817 -5008 0
0 0 0 750 581567 -4258 0
0 0 0 715 582282 -3543 0
0 0 0 688 582970 -2855 0
0 0 0 674 583644 -2181 0
35 1 S102 670 584314 -1511 0
35 1 S102 664 584978 -847 0
35 1 S102 664 585642 -183 0
35 2 S102 673 586315 490 0
35 2 S102 696 587011 1186 0
35 2 S102 744 587755 1930 0
35 2 S102 792 588547 2722 0
35 2 S102 793 589340 3515 0
35 2 S102 783 590123 4298 0
35 2 S102 742 590865 5040 0
35 2 S102 730 591595 5770 0
35 2 S102 731 592326 6501 0
0 0 0 751 593077 -6757 0
0 0 0 762 593839 -5995 0
0 0 0 794 594633 -5201 0
0 0 0 782 595415 -4419 0
0 0 0 741 596156 -3678 0
0 0 0 711 596867 -2967 0
0 0 0 726 597593 -2241 0
36 1 S106 785 598378 -1456 0
36 1 S106 852 599230 -604 0
36 2 S106 874 600104 270 0
36 2 S106 815 600919 1085 0
36 2 S106 762 601681 1847 0
36 2 S106 770 602451 2617 0
36 2 S106 795 603246 3412 0
36 2 S106 834 604080 4246 0
36 2 S106 859 604939 5105 0
36 2 S106 830 605769 5935 0
36 2 S106 791 606560 6726 0
0 0 0 810 607370 -9175 0
0 0 0 849 608219 -8326 0
0 0 0 863 609082 -7463 0
0 0 0 860 609942 -6603 0
0 0 0 778 610720 -5825 0
0 0 0 781 611501 -5044 0
0 0 0 781 612282 -4263 0
0 0 0 794 613076 -3469 0
0 0 0 811 613887 -2658 0
37 1 S116 784 614671 -1874 0
37 1 S116 724 615395 -1150 0
37 1 S116 706 616101 -444 0
37 2 S116 712 616813 268 0
37 2 S116 734 617547 1002 0
37 2 S116 788 618335 1790 0
37 2 S116 844 619179 2634 0
37 2 S116 879 620058 3513 0
37 2 S116 851 620909 4364 0
37 2 S116 833 621742 5197 0
37 2 S116 844 622586 6041 0
37 2 S116 841 623427 6882 0
0 0 0 851 624278 -10934 0
0 0 0 853 625131 -10081 0
0 0 0 865 625996 -9216 0
0 0 0 877 626873 -8339 0
0 0 0 839 627712 -7500 0
0 0 0 819 628531 -6681 0
0 0 0 839 629370 -5842 0
0 0 0 863 630233 -4979 0
0 0 0 894 631127 -4085 0
0 0 0 914 632041 -3171 0
0 0 0 889 632930 -2282 0
38 1 S102 825 633755 -1457 0
38 1 S102 817 634572 -640 0
38 2 S102 841 635413 201 0
38 2 S102 900 636313 1101 0
38 2 S102 947 637260 2048 0
38 2 S102 903 638163 2951 0
38 2 S102 819 638982 3770 0
38 2 S102 779 639761 4549 0
38 2 S102 789 640550 5338 0
38 2 S102 814 641364 6152 0
38 2 S102 830 642194 6982 0
0 0 0 853 643047 -8976 0
0 0 0 850 643897 -8126 0
0 0 0 821 644718 -7305 0
0 0 0 807 645525 -6498 0
0 0 0 803 646328 -5695 0
0 0 0 784 647112 -4911 0
0 0 0 734 647846 -4177 0
0 0 0 721 648567 -3456 0
0 0 0 702 649269 -2754 0
0 0 0 684 649953 -2070 0
39 1 S116 675 650628 -1395 0
39 1 S116 677 651305 -718 0
39 1 S116 700 652005 -18 0
39 2 S116 728 652733 710 0
39 2 S116 776 653509 1486 0
39 2 S116 829 654338 2315 0
39 2 S116 853 655191 3168 0
39 2 S116 867 656058 4035 0
39 2 S116 865 656923 4900 0
39 2 S116 829 657752 5729 0
39 2 S116 810 658562 6539 0
0 0 0 777 659339 -6328 0
0 0 0 744 660083 -5584 0
0 0 0 745 660828 -4839 0
0 0 0 746 661574 -4093 0
0 0 0 763 662337 -3330 0
0 0 0 784 663121 -2546 0
40 1 S112 765 663886 -1781 0
40 1 S112 765 664651 -1016 0
40 1 S112 791 665442 -225 0
40 2 S112 839 666281 614 0
40 2 S112 859 667140 1473 0
40 2 S112 865 668005 2338 0
40 2 S112 847 668852 3185 0
40 2 S112 810 669662 3995 0
40 2 S112 790 670452 4785 0
40 2 S112 786 671238 5571 0
40 2 S112 794 672032 6365 0
0 0 0 803 672835 -187711 0
0 0 0 789 673624 -186922 0
0 0 0 728 674352 -186194 0
0 0 0 747 675099 -185447 0
0 0 0 785 675884 -184662 0
0 0 0 843 676727 -183819 0
0 0 0 880 677607 -182939 0
0 0 0 907 678514 -182032 0
0 0 0 890 679404 -181142 0
0 0 0 894 680298 -180248 0
0 0 0 869 681167 -179379 0
0 0 0 839 682006 -178540 0
0 0 0 784 682790 -177756 0
0 0 0 777 683567 -176979 0
0 0 0 812 684379 -176167 0
0 0 0 847 685226 -175320 0
0 0 0 923 686149 -174397 0
0 0 0 918 687067 -173479 0
0 0 0 856 687923 -172623 0
0 0 0 855 688778 -171768 0
0 0 0 874 689652 -170894 0
0 0 0 859 690511 -170035 0
0 0 0 833 691344 -169202 0
0 0 0 792 692136 -168410 0
0 0 0 799 692935 -167611 0
0 0 0 837 693772 -166774 0
0 0 0 874 694646 -165900 0
0 0 0 867 695513 -165033 0
0 0 0 833 696346 -164200 0
0 0 0 860 697206 -163340 0
0 0 0 866 698072 -162474 0
0 0 0 861 698933 -161613 0
0 0 0 827 699760 -160786 0
0 0 0 837 700597 -159949 0
0 0 0 838 701435 -159111 0
0 0 0 845 702280 -158266 0
0 0 0 825 703105 -157441 0
0 0 0 793 703898 -156648 0
0 0 0 805 704703 -155843 0
0 0 0 790 705493 -155053 0
0 0 0 770 706263 -154283 0
0 0 0 743 707006 -153540 0
0 0 0 718 707724 -152822 0
0 0 0 682 708406 -152140 0
0 0 0 697 709103 -151443 0
0 0 0 749 709852 -150694 0
0 0 0 743 710595 -149951 0
0 0 0 729 711324 -149222 0
0 0 0 743 712067 -148479 0
0 0 0 770 712837 -147709 0
0 0 0 762 713599 -146947 0
0 0 0 734 714333 -146213 0
0 0 0 720 715053 -145493 0
0 0 0 723 715776 -144770 0
0 0 0 724 716500 -144046 0
0 0 0 740 717240 -143306 0
0 0 0 731 717971 -142575 0
0 0 0 750 718721 -141825 0
0 0 0 770 719491 -141055 0
0 0 0 790 720281 -140265 0
0 0 0 712 720993 -139553 0
0 0 0 691 721684 -138862 0
0 0 0 695 722379 -138167 0
0 0 0 682 723061 -137485 0
0 0 0 672 723733 -136813 0
0 0 0 678 724411 -136135 0
0 0 0 695 725106 -135440 0
0 0 0 725 725831 -134715 0
0 0 0 735 726566 -133980 0
0 0 0 735 727301 -133245 0
0 0 0 718 728019 -132527 0
0 0 0 703 728722 -131824 0
0 0 0 714 729436 -131110 0
0 0 0 728 730164 -130382 0
0 0 0 723 730887 -129659 0
0 0 0 726 731613 -128933 0
0 0 0 720 732333 -128213 0
0 0 0 707 733040 -127506 0
0 0 0 713 733753 -126793 0
0 0 0 725 734478 -126068 0
0 0 0 756 735234 -125312 0
0 0 0 775 736009 -124537 0
0 0 0 756 736765 -123781 0
0 0 0 772 737537 -123009 0
0 0 0 811 738348 -122198 0
0 0 0 831 739179 -121367 0
0 0 0 873 740052 -120494 0
0 0 0 853 740905 -119641 0
0 0 0 833 741738 -118808 0
0 0 0 862 742600 -117946 0
0 0 0 874 743474 -117072 0
0 0 0 862 744336 -116210 0
0 0 0 824 745160 -115386 0
0 0 0 837 745997 -114549 0
0 0 0 856 746853 -113693 0
0 0 0 849 747702 -112844 0
0 0 0 804 748506 -112040 0
0 0 0 747 749253 -111293 0
0 0 0 700 749953 -110593 0
0 0 0 717 750670 -109876 0
0 0 0 773 751443 -109103 0
0 0 0 744 752187 -108359 0
0 0 0 718 752905 -107641 0
0 0 0 694 753599 -106947 0
0 0 0 687 754286 -106260 0
0 0 0 686 754972 -105574 0
0 0 0 686 755658 -104888 0
0 0 0 670 756328 -104218 0
0 0 0 655 756983 -103563 0
0 0 0 655 757638 -102908 0
0 0 0 668 758306 -102240 0
0 0 0 692 758998 -101548 0
0 0 0 732 759730 -100816 0
0 0 0 782 760512 -100034 0
0 0 0 811 761323 -99223 0
0 0 0 827 762150 -98396 0
0 0 0 788 762938 -97608 0
0 0 0 796 763734 -96812 0
0 0 0 820 764554 -95992 0
0 0 0 839 765393 -95153 0
0 0 0 860 766253 -94293 0
0 0 0 839 767092 -93454 0
0 0 0 782 767874 -92672 0
0 0 0 773 768647 -91899 0
0 0 0 798 769445 -91101 0
0 0 0 806 770251 -90295 0
0 0 0 822 771073 -89473 0
0 0 0 808 771881 -88665 0
0 0 0 769 772650 -87896 0
0 0 0 774 773424 -87122 0
0 0 0 784 774208 -86338 0
0 0 0 794 775002 -85544 0
0 0 0 791 775793 -84753 0
0 0 0 765 776558 -83988 0
0 0 0 704 777262 -83284 0
0 0 0 687 777949 -82597 0
0 0 0 690 778639 -81907 0
0 0 0 674 779313 -81233 0
0 0 0 656 779969 -80577 0
0 0 0 645 780614 -79932 0
0 0 0 636 781250 -79296 0
0 0 0 630 781880 -78666 0
0 0 0 623 782503 -78043 1
0 0 0 616 783119 -77427 1
0 0 0 612 783731 -76815 1
0 0 0 618 784349 -76197 1
0 0 0 635 784984 -75562 0
0 0 0 654 785638 -74908 0
0 0 0 671 786309 -74237 0
0 0 0 699 787008 -73538 0
0 0 0 704 787712 -72834 0
0 0 0 722 788434 -72112 0
0 0 0 728 789162 -71384 0
0 0 0 732 789894 -70652 0
0 0 0 734 790628 -69918 0
0 0 0 733 791361 -69185 0
0 0 0 723 792084 -68462 0
0 0 0 709 792793 -67753 0
0 0 0 694 793487 -67059 0
0 0 0 689 794176 -66370 0
0 0 0 693 794869 -65677 0
0 0 0 709 795578 -64968 0
0 0 0 756 796334 -64212 0
0 0 0 786 797120 -63426 0
0 0 0 767 797887 -62659 0
0 0 0 742 798629 -61917 0
0 0 0 725 799354 -61192 0
0 0 0 707 800061 -60485 0
0 0 0 687 800748 -59798 0
0 0 0 670 801418 -59128 0
0 0 0 668 802086 -58460 0
0 0 0 692 802778 -57768 0
0 0 0 736 803514 -57032 0
0 0 0 756 804270 -56276 0
0 0 0 755 805025 -55521 0
0 0 0 748 805773 -54773 0
0 0 0 745 806518 -54028 0
0 0 0 745 807263 -53283 0
0 0 0 769 808032 -52514 0
0 0 0 791 808823 -51723 0
0 0 0 799 809622 -50924 0
0 0 0 795 810417 -50129 0
0 0 0 800 811217 -49329 0
0 0 0 772 811989 -48557 0
0 0 0 746 812735 -47811 0
0 0 0 751 813486 -47060 0
0 0 0 755 814241 -46305 0
0 0 0 768 815009 -45537 0
0 0 0 795 815804 -44742 0
0 0 0 776 816580 -43966 0
0 0 0 763 817343 -43203 0
0 0 0 767 818110 -42436 0
0 0 0 786 818896 -41650 0
0 0 0 799 819695 -40851 0
0 0 0 803 820498 -40048 0
0 0 0 785 821283 -39263 0
0 0 0 774 822057 -38489 0
0 0 0 763 822820 -37726 0
0 0 0 787 823607 -36939 0
0 0 0 797 824404 -36142 0
0 0 0 796 825200 -35346 0
0 0 0 777 825977 -34569 0
0 0 0 753 826730 -33816 0
0 0 0 750 827480 -33066 0
0 0 0 741 828221 -32325 0
0 0 0 710 828931 -31615 0
0 0 0 682 829613 -30933 0
0 0 0 673 830286 -30260 0
0 0 0 676 830962 -29584 0
0 0 0 691 831653 -28893 0
0 0 0 731 832384 -28162 0
0 0 0 771 833155 -27391 0
0 0 0 787 833942 -26604 0
0 0 0 768 834710 -25836 0
0 0 0 743 835453 -25093 0
0 0 0 710 836163 -24383 0
0 0 0 706 836869 -23677 0
0 0 0 714 837583 -22963 0
0 0 0 735 838318 -22228 0
0 0 0 762 839080 -21466 0
0 0 0 786 839866 -20680 0
0 0 0 766 840632 -19914 0
0 0 0 736 841368 -19178 0
0 0 0 714 842082 -18464 0
0 0 0 692 842774 -17772 0
0 0 0 684 843458 -17088 0
0 0 0 684 844142 -16404 0
0 0 0 720 844862 -15684 0
0 0 0 772 845634 -14912 0
0 0 0 799 846433 -14113 0
0 0 0 820 847253 -13293 0
0 0 0 832 848085 -12461 0
0 0 0 828 848913 -11633 0
0 0 0 842 849755 -10791 0
0 0 0 813 850568 -9978 0
0 0 0 777 851345 -9201 0
0 0 0 779 852124 -8422 0
0 0 0 787 852911 -7635 0
0 0 0 810 853721 -6825 0
0 0 0 792 854513 -6033 0
0 0 0 764 855277 -5269 0
0 0 0 749 856026 -4520 0
0 0 0 745 856771 -3775 0
0 0 0 745 857516 -3030 0
0 0 0 812 858328 -2218 0
41 1 S102 746 859074 -1472 0
41 1 S102 705 859779 -767 0
41 1 S102 697 860476 -70 0
41 2 S102 703 861179 633 0
41 2 S102 721 861900 1354 0
41 2 S102 750 862650 2104 0
41 2 S102 792 863442 2896 0
41 2 S102 812 864254 3708 0
41 2 S102 806 865060 4514 0
41 2 S102 787 865847 5301 0
41 2 S102 743 866590 6044 0
41 2 S102 724 867314 6768 0
0 0 0 722 868036 -7547 0
0 0 0 742 868778 -6805 0
0 0 0 774 869552 -6031 0
0 0 0 818 870370 -5213 0
0 0 0 814 871184 -4399 0
0 0 0 792 871976 -3607 0
0 0 0 774 872750 -2833 0
0 0 0 776 873526 -2057 0
42 1 S112 785 874311 -1272 0
42 1 S112 808 875119 -464 0
42 2 S112 826 875945 362 0
42 2 S112 822 876767 1184 0
42 2 S112 797 877564 1981 0
42 2 S112 784 878348 2765 0
42 2 S112 793 879141 3558 0
42 2 S112 807 879948 4365 0
42 2 S112 802 880750 5167 0
42 2 S112 809 881559 5976 0
42 2 S112 788 882347 6764 0
0 0 0 769 883116 -9642 0
0 0 0 781 883897 -8861 0
0 0 0 804 884701 -8057 0
0 0 0 845 885546 -7212 0
0 0 0 834 886380 -6378 0
0 0 0 773 887153 -5605 0
0 0 0 766 887919 -4839 0
0 0 0 780 888699 -4059 0
0 0 0 746 889445 -3313 0
0 0 0 710 890155 -2603 0
43 1 S116 694 890849 -1909 0
43 1 S116 696 891545 -1213 0
43 1 S116 694 892239 -519 0
43 2 S116 689 892928 170 0
43 2 S116 697 893625 867 0
43 2 S116 728 894353 1595 0
43 2 S116 810 895163 2405 0
43 2 S116 918 896081 3323 0
43 2 S116 935 897016 4258 0
43 2 S116 918 897934 5176 0
43 2 S116 852 898786 6028 0
43 2 S116 814 899600 6842 0
0 0 0 817 900417 -6963 0
0 0 0 817 901234 -6146 0
0 0 0 802 902036 -5344 0
0 0 0 773 902809 -4571 0
0 0 0 744 903553 -3827 0
0 0 0 757 904310 -3070 0
0 0 0 785 905095 -2285 0
44 1 S102 827 905922 -1458 0
44 1 S102 856 906778 -602 0
44 2 S102 844 907622 242 0
44 2 S102 787 908409 1029 0
44 2 S102 817 909226 1846 0
44 2 S102 843 910069 2689 0
44 2 S102 852 910921 3541 0
44 2 S102 847 911768 4388 0
44 2 S102 815 912583 5203 0
44 2 S102 763 913346 5966 0
44 2 S102 753 914099 6719 0
0 0 0 774 914873 -8372 0
0 0 0 806 915679 -7566 0
0 0 0 850 916529 -6716 0
0 0 0 815 917344 -5901 0
0 0 0 773 918117 -5128 0
0 0 0 768 918885 -4360 0
0 0 0 791 919676 -3569 0
0 0 0 808 920484 -2761 0
45 1 S116 834 921318 -1927 0
45 1 S116 828 922146 -1099 0
45 1 S116 792 922938 -307 0
45 2 S116 765 923703 458 0
45 2 S116 776 924479 1234 0
45 2 S116 781 925260 2015 0
45 2 S116 797 926057 2812 0
45 2 S116 817 926874 3629 0
45 2 S116 828 927702 4457 0
45 2 S116 807 928509 5264 0
45 2 S116 785 929294 6049 0
45 2 S116 774 930068 6823 0
0 0 0 765 930833 -12025 0
0 0 0 753 931586 -11272 0
0 0 0 751 932337 -10521 0
0 0 0 771 933108 -9750 0
0 0 0 809 933917 -8941 0
0 0 0 803 934720 -8138 0
0 0 0 760 935480 -7378 0
0 0 0 742 936222 -6636 0
0 0 0 722 936944 -5914 0
0 0 0 704 937648 -5210 0
0 0 0 696 938344 -4514 0
0 0 0 698 939042 -3816 0
0 0 0 707 939749 -3109 0
0 0 0 729 940478 -2380 0
46 1 S102 752 941230 -1628 0
46 1 S102 763 941993 -865 0
46 1 S102 759 942752 -106 0
46 2 S102 771 943523 665 0
46 2 S102 782 944305 1447 0
46 2 S102 784 945089 2231 0
46 2 S102 779 945868 3010 0
46 2 S102 748 946616 3758 0
46 2 S102 722 947338 4480 0
46 2 S102 717 948055 5197 0
46 2 S102 726 948781 5923 0
46 2 S102 734 949515 6657 0
0 0 0 757 950272 -8451 0
0 0 0 758 951030 -7693 0
0 0 0 761 951791 -6932 0
0 0 0 751 952542 -6181 0
0 0 0 743 953285 -5438 0
0 0 0 764 954049 -4674 0
0 0 0 750 954799 -3924 0
0 0 0 735 955534 -3189 0
0 0 0 732 956266 -2457 0
47 1 S112 707 956973 -1750 0
47 1 S112 690 957663 -1060 0
47 1 S112 676 958339 -384 0
47 2 S112 673 959012 289 0
47 2 S112 677 959689 966 0
47 2 S112 693 960382 1659 0
47 2 S112 727 961109 2386 0
47 2 S112 760 961869 3146 0
47 2 S112 791 962660 3937 0
47 2 S112 837 963497 4774 0
47 2 S112 861 964358 5635 0
47 2 S112 839 965197 6474 0
0 0 0 830 966027 -12043 0
0 0 0 816 966843 -11227 0
0 0 0 756 967599 -10471 0
0 0 0 754 968353 -9717 0
0 0 0 769 969122 -8948 0
0 0 0 776 969898 -8172 0
0 0 0 767 970665 -7405 0
0 0 0 736 971401 -6669 0
0 0 0 707 972108 -5962 0
0 0 0 692 972800 -5270 0
0 0 0 696 973496 -4574 0
0 0 0 707 974203 -3867 0
0 0 0 755 974958 -3112 0
0 0 0 799 975757 -2313 0
48 1 S116 813 976570 -1500 0
48 1 S116 799 977369 -701 0
48 2 S116 771 978140 70 0
48 2 S116 759 978899 829 0
48 2 S116 774 979673 1603 0
48 2 S116 788 980461 2391 0
48 2 S116 802 981263 3193 0
48 2 S116 799 982062 3992 0
48 2 S116 789 982851 4781 0
48 2 S116 777 983628 5558 0
48 2 S116 817 984445 6375 0
0 0 0 839 985284 -8221 0
0 0 0 848 986132 -7373 0
0 0 0 820 986952 -6553 0
0 0 0 810 987762 -5743 0
0 0 0 854 988616 -4889 0
0 0 0 829 989445 -4060 0
0 0 0 816 990261 -3244 0
0 0 0 780 991041 -2464 0
49 1 S112 761 991802 -1703 0
49 1 S112 785 992587 -918 0
49 1 S112 794 993381 -124 0
49 2 S112 815 994196 691 0
49 2 S112 835 995031 1526 0
49 2 S112 814 995845 2340 0
49 2 S112 819 996664 3159 0
49 2 S112 843 997507 4002 0
49 2 S112 852 998359 4854 0
49 2 S112 840 999199 5694 0
49 2 S112 807 1000006 6501 0
0 0 0 795 1000801 -10840 0
0 0 0 820 1001621 -10020 0
0 0 0 831 1002452 -9189 0
0 0 0 826 1003278 -8363 0
0 0 0 780 1004058 -7583 0
0 0 0 753 1004811 -6830 0
0 0 0 733 1005544 -6097 0
0 0 0 718 1006262 -5379 0
0 0 0 709 1006971 -4670 0
0 0 0 703 1007674 -3967 0
0 0 0 718 1008392 -3249 0
0 0 0 746 1009138 -2503 0
50 1 S106 807 1009945 -1696 0
50 1 S106 857 1010802 -839 0
50 2 S106 869 1011671 30 0
50 2 S106 857 1012528 887 0
50 2 S106 842 1013370 1729 0
50 2 S106 805 1014175 2534 0
50 2 S106 800 1014975 3334 0
50 2 S106 799 1015774 4133 0
50 2 S106 799 1016573 4932 0
50 2 S106 802 1017375 5734 0
50 2 S106 780 1018155 6514 0
0 0 0 760 1018915 -7282 0
0 0 0 736 1019651 -6546 0
0 0 0 723 1020374 -5823 0
0 0 0 743 1021117 -5080 0
0 0 0 771 1021888 -4309 0
0 0 0 862 1022750 -3447 0
0 0 0 908 1023658 -2539 0
51 1 S112 898 1024556 -1641 0
51 1 S112 818 1025374 -823 0
51 1 S112 770 1026144 -53 0
51 2 S112 728 1026872 675 0
51 2 S112 701 1027573 1376 0
51 2 S112 711 1028284 2087 0
51 2 S112 748 1029032 2835 0
51 2 S112 798 1029830 3633 0
51 2 S112 810 1030640 4443 0
51 2 S112 782 1031422 5225 0
51 2 S112 807 1032229 6032 0
51 2 S112 829 1033058 6861 0
0 0 0 820 1033878 -6030 0
0 0 0 801 1034679 -5229 0
0 0 0 770 1035449 -4459 0
0 0 0 778 1036227 -3681 0
0 0 0 785 1037012 -2896 0
0 0 0 821 1037833 -2075 0
52 1 S116 823 1038656 -1252 0
52 1 S116 816 1039472 -436 0
52 2 S116 811 1040283 375 0
52 2 S116 845 1041128 1220 0
52 2 S116 862 1041990 2082 0
52 2 S116 832 1042822 2914 0
52 2 S116 839 1043661 3753 0
52 2 S116 858 1044519 4611 0
52 2 S116 852 1045371 5463 0
52 2 S116 836 1046207 6299 0
0 0 0 837 1047044 -8845 0
0 0 0 862 1047906 -7983 0
0 0 0 850 1048756 -7133 0
0 0 0 833 1049589 -6300 0
0 0 0 774 1050363 -5526 0
0 0 0 755 1051118 -4771 0
0 0 0 740 1051858 -4031 0
0 0 0 739 1052597 -3292 0
0 0 0 706 1053303 -2586 0
53 1 S106 682 1053985 -1904 0
53 1 S106 667 1054652 -1237 0
53 1 S106 656 1055308 -581 0
53 2 S106 652 1055960 71 0
53 2 S106 656 1056616 727 0
53 2 S106 671 1057287 1398 0
53 2 S106 695 1057982 2093 0
53 2 S106 734 1058716 2827 0
53 2 S106 773 1059489 3600 0
53 2 S106 790 1060279 4390 0
53 2 S106 797 1061076 5187 0
53 2 S106 775 1061851 5962 0
53 2 S106 759 1062610 6721 0
0 0 0 777 1063387 -6378 0
0 0 0 792 1064179 -5586 0
0 0 0 789 1064968 -4797 0
0 0 0 756 1065724 -4041 0
0 0 0 713 1066437 -3328 0
0 0 0 691 1067128 -2637 0
54 1 S102 670 1067798 -1967 0
54 1 S102 650 1068448 -1317 0
54 1 S102 640 1069088 -677 0
54 1 S102 649 1069737 -28 0
54 2 S102 706 1070443 678 0
54 2 S102 1235 1071678 1913 1
54 2 S102 1036 1072714 2949 1
54 2 S102 941 1073655 3890 0
54 2 S102 871 1074526 4761 0
54 2 S102 811 1075337 5572 0
54 2 S102 802 1076139 6374 0
0 0 0 809 1076948 -11932 0
0 0 0 807 1077755 -11125 0
0 0 0 790 1078545 -10335 0
0 0 0 755 1079300 -9580 0
0 0 0 777 1080077 -8803 0
0 0 0 763 1080840 -8040 0
0 0 0 747 1081587 -7293 0
0 0 0 745 1082332 -6548 0
0 0 0 722 1083054 -5826 0
0 0 0 725 1083779 -5101 0
0 0 0 742 1084521 -4359 0
0 0 0 768 1085289 -3591 0
0 0 0 811 1086100 -2780 0
55 1 S106 818 1086918 -1962 0
55 1 S106 807 1087725 -1155 0
55 1 S106 779 1088504 -376 0
55 2 S106 781 1089285 405 0
55 2 S106 791 1090076 1196 0
55 2 S106 788 1090864 1984 0
55 2 S106 775 1091639 2759 0
55 2 S106 747 1092386 3506 0
55 2 S106 743 1093129 4249 0
55 2 S106 769 1093898 5018 0
55 2 S106 786 1094684 5804 0
55 2 S106 757 1095441 6561 0
0 0 0 766 1096207 -6931 0
0 0 0 765 1096972 -6166 0
0 0 0 773 1097745 -5393 0
0 0 0 788 1098533 -4605 0
0 0 0 774 1099307 -3831 0
0 0 0 749 1100056 -3082 0
0 0 0 711 1100767 -2371 0
56 1 S116 705 1101472 -1666 0
56 1 S116 699 1102171 -967 0
56 1 S116 686 1102857 -281 0
56 2 S116 668 1103525 387 0
56 2 S116 654 1104179 1041 0
56 2 S116 670 1104849 1711 0
56 2 S116 687 1105536 2398 0
56 2 S116 693 1106229 3091 0
56 2 S116 710 1106939 3801 0
56 2 S116 757 1107696 4558 0
56 2 S116 850 1108546 5408 0
56 2 S116 902 1109448 6310 0
0 0 0 895 1110343 -7715 0
0 0 0 843 1111186 -6872 0
0 0 0 765 1111951 -6107 0
0 0 0 751 1112702 -5356 0
0 0 0 760 1113462 -4596 0
0 0 0 755 1114217 -3841 0
0 0 0 754 1114971 -3087 0
0 0 0 749 1115720 -2338 0
57 1 S106 718 1116438 -1620 0
57 1 S106 714 1117152 -906 0
57 1 S106 716 1117868 -190 0
57 2 S106 739 1118607 549 0
57 2 S106 825 1119432 1374 0
57 2 S106 892 1120324 2266 0
57 2 S106 892 1121216 3158 0
57 2 S106 876 1122092 4034 0
57 2 S106 832 1122924 4866 0
57 2 S106 841 1123765 5707 0
57 2 S106 834 1124599 6541 0
0 0 0 841 1125440 -8964 0
0 0 0 827 1126267 -8137 0
0 0 0 817 1127084 -7320 0
0 0 0 824 1127908 -6496 0
0 0 0 816 1128724 -5680 0
0 0 0 794 1129518 -4886 0
0 0 0 776 1130294 -4110 0
0 0 0 776 1131070 -3334 0
0 0 0 804 1131874 -2530 0
58 1 S102 824 1132698 -1706 0
58 1 S102 799 1133497 -907 0
58 1 S102 781 1134278 -126 0
58 2 S102 777 1135055 651 0
58 2 S102 793 1135848 1444 0
58 2 S102 826 1136674 2270 0
58 2 S102 821 1137495 3091 0
58 2 S102 791 1138286 3882 0
58 2 S102 779 1139065 4661 0
58 2 S102 802 1139867 5463 0
58 2 S102 808 1140675 6271 0
0 0 0 809 1141484 -8023 0
0 0 0 796 1142280 -7227 0
0 0 0 760 1143040 -6467 0
0 0 0 774 1143814 -5693 0
0 0 0 781 1144595 -4912 0
0 0 0 773 1145368 -4139 0
0 0 0 754 1146122 -3385 0
0 0 0 731 1146853 -2654 0
59 1 S112 711 1147564 -1943 0
59 1 S112 697 1148261 -1246 0
59 1 S112 692 1148953 -554 0
59 2 S112 691 1149644 137 0
59 2 S112 689 1150333 826 0
59 2 S112 685 1151018 1511 0
59 2 S112 686 1151704 2197 0
59 2 S112 694 1152398 2891 0
59 2 S112 704 1153102 3595 0
59 2 S112 714 1153816 4309 0
59 2 S112 713 1154529 5022 0
59 2 S112 712 1155241 5734 0
59 2 S112 703 1155944 6437 0
0 0 0 686 1156630 -8875 0
0 0 0 672 1157302 -8203 0
0 0 0 671 1157973 -7532 0
0 0 0 682 1158655 -6850 0
0 0 0 713 1159368 -6137 0
0 0 0 745 1160113 -5392 0
0 0 0 785 1160898 -4607 0
0 0 0 796 1161694 -3811 0
0 0 0 751 1162445 -3060 0
0 0 0 739 1163184 -2321 0
60 1 S102 747 1163931 -1574 0
60 1 S102 765 1164696 -809 0
60 1 S102 785 1165481 -24 0
60 2 S102 824 1166305 800 0
60 2 S102 828 1167133 1628 0
60 2 S102 809 1167942 2437 0
60 2 S102 779 1168721 3216 0
60 2 S102 744 1169465 3960 0
60 2 S102 734 1170199 4694 0
60 2 S102 739 1170938 5433 0
60 2 S102 757 1171695 6190 0
60 2 S102 775 1172470 6965 0
0 0 0 775 1173245 -10546 0
0 0 0 781 1174026 -9765 0
0 0 0 797 1174823 -8968 0
0 0 0 808 1175631 -8160 0
0 0 0 780 1176411 -7380 0
0 0 0 762 1177173 -6618 0
0 0 0 735 1177908 -5883 0
0 0 0 711 1178619 -5172 0
0 0 0 702 1179321 -4470 0
0 0 0 703 1180024 -3767 0
0 0 0 712 1180736 -3055 0
0 0 0 728 1181464 -2327 0
61 1 S106 740 1182204 -1587 0
61 1 S106 756 1182960 -831 0
61 1 S106 740 1183700 -91 0
61 2 S106 743 1184443 652 0
61 2 S106 776 1185219 1428 0
61 2 S106 826 1186045 2254 0
61 2 S106 850 1186895 3104 0
61 2 S106 856 1187751 3960 0
61 2 S106 827 1188578 4787 0
61 2 S106 833 1189411 5620 0
61 2 S106 811 1190222 6431 0
0 0 0 797 1191019 -7494 0
0 0 0 771 1191790 -6723 0
0 0 0 764 1192554 -5959 0
0 0 0 780 1193334 -5179 0
0 0 0 811 1194145 -4368 0
0 0 0 778 1194923 -3590 0
0 0 0 760 1195683 -2830 0
0 0 0 745 1196428 -2085 0
62 1 S112 752 1197180 -1333 0
62 1 S112 754 1197934 -579 0
62 2 S112 776 1198710 197 0
62 2 S112 779 1199489 976 0
62 2 S112 783 1200272 1759 0
62 2 S112 815 1201087 2574 0
62 2 S112 847 1201934 3421 0
62 2 S112 858 1202792 4279 0
62 2 S112 822 1203614 5101 0
62 2 S112 801 1204415 5902 0
62 2 S112 807 1205222 6709 0
0 0 0 794 1206016 -11148 0
0 0 0 798 1206814 -10350 0
0 0 0 776 1207590 -9574 0
0 0 0 782 1208372 -8792 0
0 0 0 764 1209136 -8028 0
0 0 0 742 1209878 -7286 0
0 0 0 735 1210613 -6551 0
0 0 0 738 1211351 -5813 0
0 0 0 708 1212059 -5105 0
0 0 0 692 1212751 -4413 0
0 0 0 682 1213433 -3731 0
0 0 0 666 1214099 -3065 0
0 0 0 668 1214767 -2397 0
63 1 S102 703 1215470 -1694 0
63 1 S102 752 1216222 -942 0
63 1 S102 803 1217025 -139 0
63 2 S102 800 1217825 661 0
63 2 S102 778 1218603 1439 0
63 2 S102 791 1219394 2230 0
63 2 S102 799 1220193 3029 0
63 2 S102 819 1221012 3848 0
63 2 S102 813 1221825 4661 0
63 2 S102 799 1222624 5460 0
63 2 S102 761 1223385 6221 0
63 2 S102 748 1224133 6969 0
0 0 0 767 1224900 -8610 0
0 0 0 825 1225725 -7785 0
0 0 0 910 1226635 -6875 0
0 0 0 856 1227491 -6019 0
0 0 0 807 1228298 -5212 0
0 0 0 783 1229081 -4429 0
0 0 0 780 1229861 -3649 0
0 0 0 771 1230632 -2878 0
0 0 0 756 1231388 -2122 0
64 1 S112 728 1232116 -1394 0
64 1 S112 725 1232841 -669 0
64 2 S112 742 1233583 73 0
64 2 S112 818 1234401 891 0
64 2 S112 875 1235276 1766 0
64 2 S112 880 1236156 2646 0
64 2 S112 880 1237036 3526 0
64 2 S112 846 1237882 4372 0
64 2 S112 841 1238723 5213 0
64 2 S112 839 1239562 6052 0
64 2 S112 810 1240372 6862 0
0 0 0 783 1241155 -6944 0
0 0 0 793 1241948 -6151 0
0 0 0 808 1242756 -5343 0
0 0 0 803 1243559 -4540 0
0 0 0 762 1244321 -3778 0
0 0 0 730 1245051 -3048 0
0 0 0 708 1245759 -2340 0
65 1 S106 692 1246451 -1648 0
65 1 S106 676 1247127 -972 0
65 1 S106 678 1247805 -294 0
65 2 S106 730 1248535 436 0
65 2 S106 768 1249303 1204 0
65 2 S106 755 1250058 1959 0
65 2 S106 774 1250832 2733 0
65 2 S106 793 1251625 3526 0
65 2 S106 786 1252411 4312 0
65 2 S106 765 1253176 5077 0
65 2 S106 739 1253915 5816 0
65 2 S106 708 1254623 6524 0
0 0 0 704 1255327 -8306 0
0 0 0 715 1256042 -7591 0
0 0 0 772 1256814 -6819 0
0 0 0 869 1257683 -5950 0
0 0 0 1004 1258687 -4946 1
0 0 0 930 1259617 -4016 0
0 0 0 843 1260460 -3173 0
0 0 0 822 1261282 -2351 0
66 1 S116 815 1262097 -1536 0
66 1 S116 828 1262925 -708 0
66 2 S116 802 1263727 94 0
66 2 S116 762 1264489 856 0
66 2 S116 763 1265252 1619 0
66 2 S116 784 1266036 2403 0
66 2 S116 815 1266851 3218 0
66 2 S116 866 1267717 4084 0
66 2 S116 880 1268597 4964 0
66 2 S116 849 1269446 5813 0
66 2 S116 816 1270262 6629 0
0 0 0 834 1271096 -10823 0
0 0 0 837 1271933 -9986 0
0 0 0 843 1272776 -9143 0
0 0 0 800 1273576 -8343 0
0 0 0 789 1274365 -7554 0
0 0 0 805 1275170 -6749 0
0 0 0 819 1275989 -5930 0
0 0 0 834 1276823 -5096 0
0 0 0 804 1277627 -4292 0
0 0 0 792 1278419 -3500 0
0 0 0 826 1279245 -2674 0
67 1 S102 844 1280089 -1830 0
67 1 S102 876 1280965 -954 0
67 1 S102 889 1281854 -65 0
67 2 S102 858 1282712 793 0
67 2 S102 844 1283556 1637 0
67 2 S102 835 1284391 2472 0
67 2 S102 805 1285196 3277 0
67 2 S102 769 1285965 4046 0
67 2 S102 736 1286701 4782 0
67 2 S102 733 1287434 5515 0
67 2 S102 709 1288143 6224 0
67 2 S102 699 1288842 6923 0
0 0 0 694 1289536 -6989 0
0 0 0 703 1290239 -6286 0
0 0 0 764 1291003 -5522 0
0 0 0 866 1291869 -4656 0
0 0 0 840 1292709 -3816 0
0 0 0 826 1293535 -2990 0
0 0 0 783 1294318 -2207 0
68 1 S106 752 1295070 -1455 0
68 1 S106 753 1295823 -702 0
68 2 S106 764 1296587 62 0
68 2 S106 783 1297370 845 0
68 2 S106 801 1298171 1646 0
68 2 S106 808 1298979 2454 0
68 2 S106 804 1299783 3258 0
68 2 S106 780 1300563 4038 0
68 2 S106 797 1301360 4835 0
68 2 S106 801 1302161 5636 0
68 2 S106 787 1302948 6423 0
0 0 0 766 1303714 -11014 0
0 0 0 766 1304480 -10248 0
0 0 0 788 1305268 -9460 0
0 0 0 820 1306088 -8640 0
0 0 0 834 1306922 -7806 0
0 0 0 836 1307758 -6970 0
0 0 0 799 1308557 -6171 0
0 0 0 769 1309326 -5402 0
0 0 0 776 1310102 -4626 0
0 0 0 788 1310890 -3838 0
0 0 0 829 1311719 -3009 0
0 0 0 817 1312536 -2192 0
69 1 S102 805 1313341 -1387 0
69 1 S102 836 1314177 -551 0
69 2 S102 833 1315010 282 0
69 2 S102 835 1315845 1117 0
69 2 S102 806 1316651 1923 0
69 2 S102 777 1317428 2700 0
69 2 S102 746 1318174 3446 0
69 2 S102 752 1318926 4198 0
69 2 S102 742 1319668 4940 0
69 2 S102 735 1320403 5675 0
69 2 S102 724 1321127 6399 0
0 0 0 730 1321857 -9665 0
0 0 0 729 1322586 -8936 0
0 0 0 731 1323317 -8205 0
0 0 0 748 1324065 -7457 0
0 0 0 771 1324836 -6686 0
0 0 0 738 1325574 -5948 0
0 0 0 723 1326297 -5225 0
0 0 0 708 1327005 -4517 0
0 0 0 692 1327697 -3825 0
0 0 0 678 1328375 -3147 0
0 0 0 668 1329043 -2479 0
70 1 S112 656 1329699 -1823 0
70 1 S112 660 1330359 -1163 0
70 1 S112 696 1331055 -467 0
70 2 S112 746 1331801 279 0
70 2 S112 757 1332558 1036 0
70 2 S112 768 1333326 1804 0
70 2 S112 804 1334130 2608 0
70 2 S112 861 1334991 3469 0
70 2 S112 890 1335881 4359 0
70 2 S112 912 1336793 5271 0
70 2 S112 869 1337662 6140 0
70 2 S112 809 1338471 6949 0
0 0 0 781 1339252 -10638 0
0 0 0 786 1340038 -9852 0
0 0 0 812 1340850 -9040 0
0 0 0 795 1341645 -8245 0
0 0 0 765 1342410 -7480 0
0 0 0 744 1343154 -6736 0
0 0 0 753 1343907 -5983 0
0 0 0 784 1344691 -5199 0
0 0 0 833 1345524 -4366 0
0 0 0 824 1346348 -3542 0
0 0 0 787 1347135 -2755 0
71 1 S116 782 1347917 -1973 0
71 1 S116 809 1348726 -1164 0
71 1 S116 836 1349562 -328 0
71 2 S116 859 1350421 531 0
71 2 S116 835 1351256 1366 0
71 2 S116 800 1352056 2166 0
71 2 S116 788 1352844 2954 0
71 2 S116 802 1353646 3756 0
71 2 S116 859 1354505 4615 0
71 2 S116 898 1355403 5513 0
71 2 S116 891 1356294 6404 0
0 0 0 846 1357140 -9859 0
0 0 0 795 1357935 -9064 0
0 0 0 820 1358755 -8244 0
0 0 0 850 1359605 -7394 0
0 0 0 869 1360474 -6525 0
0 0 0 821 1361295 -5704 0
0 0 0 780 1362075 -4924 0
0 0 0 746 1362821 -4178 0
0 0 0 732 1363553 -3446 0
0 0 0 747 1364300 -2699 0
72 1 S102 790 1365090 -1909 0
72 1 S102 839 1365929 -1070 0
72 1 S102 874 1366803 -196 0
72 2 S102 843 1367646 647 0
72 2 S102 792 1368438 1439 0
72 2 S102 778 1369216 2217 0
72 2 S102 783 1369999 3000 0
72 2 S102 789 1370788 3789 0
72 2 S102 788 1371576 4577 0
72 2 S102 768 1372344 5345 0
72 2 S102 768 1373112 6113 0
72 2 S102 785 1373897 6898 0
0 0 0 793 1374690 -6003 0
0 0 0 786 1375476 -5217 0
0 0 0 805 1376281 -4412 0
0 0 0 802 1377083 -3610 0
0 0 0 803 1377886 -2807 0
0 0 0 789 1378675 -2018 0
73 1 S116 772 1379447 -1246 0
73 1 S116 763 1380210 -483 0
73 2 S116 751 1380961 268 0
73 2 S116 733 1381694 1001 0
73 2 S116 721 1382415 1722 0
73 2 S116 713 1383128 2435 0
73 2 S116 714 1383842 3149 0
73 2 S116 705 1384547 3854 0
73 2 S116 713 1385260 4567 0
73 2 S116 733 1385993 5300 0
73 2 S116 759 1386752 6059 0
73 2 S116 778 1387530 6837 0
0 0 0 786 1388316 -9320 0
0 0 0 785 1389101 -8535 0
0 0 0 768 1389869 -7767 0
0 0 0 748 1390617 -7019 0
0 0 0 743 1391360 -6276 0
0 0 0 730 1392090 -5546 0
0 0 0 727 1392817 -4819 0
0 0 0 721 1393538 -4098 0
0 0 0 719 1394257 -3379 0
0 0 0 725 1394982 -2654 0
74 1 S106 756 1395738 -1898 0
74 1 S106 817 1396555 -1081 0
74 1 S106 893 1397448 -188 0
74 2 S106 928 1398376 740 0
74 2 S106 907 1399283 1647 0
74 2 S106 831 1400114 2478 0
74 2 S106 821 1400935 3299 0
74 2 S106 813 1401748 4112 0
74 2 S106 790 1402538 4902 0
74 2 S106 763 1403301 5665 0
74 2 S106 744 1404045 6409 0
0 0 0 745 1404790 -6921 0
0 0 0 760 1405550 -6161 0
0 0 0 760 1406310 -5401 0
0 0 0 760 1407070 -4641 0
0 0 0 729 1407799 -3912 0
0 0 0 703 1408502 -3209 0
0 0 0 682 1409184 -2527 0
75 1 S112 664 1409848 -1863 0
75 1 S112 648 1410496 -1215 0
75 1 S112 643 1411139 -572 0
75 2 S112 653 1411792 81 0
75 2 S112 708 1412500 789 0
75 2 S112 861 1413361 1650 0
75 2 S112 983 1414344 2633 1
75 2 S112 985 1415329 3618 1
75 2 S112 985 1416314 4603 1
75 2 S112 980 1417294 5583 1
75 2 S112 940 1418234 6523 0
0 0 0 861 1419095 -6741 0
0 0 0 832 1419927 -5909 0
0 0 0 851 1420778 -5058 0
0 0 0 850 1421628 -4208 0
0 0 0 815 1422443 -3393 0
0 0 0 769 1423212 -2624 0
76 1 S116 754 1423966 -1870 0
76 1 S116 772 1424738 -1098 0
76 1 S116 814 1425552 -284 0
76 2 S116 886 1426438 602 0
76 2 S116 898 1427336 1500 0
76 2 S116 854 1428190 2354 0
76 2 S116 818 1429008 3172 0
76 2 S116 840 1429848 4012 0
76 2 S116 850 1430698 4862 0
76 2 S116 853 1431551 5715 0
76 2 S116 830 1432381 6545 0
0 0 0 807 1433188 -6823 0
0 0 0 813 1434001 -6010 0
0 0 0 835 1434836 -5175 0
0 0 0 831 1435667 -4344 0
0 0 0 785 1436452 -3559 0
0 0 0 747 1437199 -2812 0
0 0 0 762 1437961 -2050 0
77 1 S106 803 1438764 -1247 0
77 1 S106 831 1439595 -416 0
77 2 S106 815 1440410 399 0
77 2 S106 783 1441193 1182 0
77 2 S106 745 1441938 1927 0
77 2 S106 747 1442685 2674 0
77 2 S106 761 1443446 3435 0
77 2 S106 784 1444230 4219 0
77 2 S106 805 1445035 5024 0
77 2 S106 826 1445861 5850 0
77 2 S106 836 1446697 6686 0
0 0 0 831 1447528 -9724 0
0 0 0 815 1448343 -8909 0
0 0 0 789 1449132 -8120 0
0 0 0 795 1449927 -7325 0
0 0 0 814 1450741 -6511 0
0 0 0 799 1451540 -5712 0
0 0 0 784 1452324 -4928 0
0 0 0 780 1453104 -4148 0
0 0 0 792 1453896 -3356 0
0 0 0 824 1454720 -2532 0
78 1 S112 828 1455548 -1704 0
78 1 S112 804 1456352 -900 0
78 1 S112 782 1457134 -118 0
78 2 S112 785 1457919 667 0
78 2 S112 808 1458727 1475 0
78 2 S112 853 1459580 2328 0
78 2 S112 827 1460407 3155 0
78 2 S112 797 1461204 3952 0
78 2 S112 759 1461963 4711 0
78 2 S112 776 1462739 5487 0
78 2 S112 826 1463565 6313 0
0 0 0 873 1464438 -11199 0
0 0 0 937 1465375 -10262 0
0 0 0 935 1466310 -9327 0
0 0 0 868 1467178 -8459 0
0 0 0 792 1467970 -7667 0
0 0 0 766 1468736 -6901 0
0 0 0 744 1469480 -6157 0
0 0 0 716 1470196 -5441 0
0 0 0 693 1470889 -4748 0
0 0 0 681 1471570 -4067 0
0 0 0 672 1472242 -3395 0
0 0 0 677 1472919 -2718 0
0 0 0 704 1473623 -2014 0
79 1 S102 775 1474398 -1239 0
79 1 S102 762 1475160 -477 0
79 2 S102 728 1475888 251 0
79 2 S102 702 1476590 953 0
79 2 S102 756 1477346 1709 0
79 2 S102 808 1478154 2517 0
79 2 S102 785 1478939 3302 0
79 2 S102 771 1479710 4073 0
79 2 S102 784 1480494 4857 0
79 2 S102 782 1481276 5639 0
79 2 S102 776 1482052 6415 0
0 0 0 752 1482804 -8716 0
0 0 0 732 1483536 -7984 0
0 0 0 729 1484265 -7255 0
0 0 0 732 1484997 -6523 0
0 0 0 717 1485714 -5806 0
0 0 0 713 1486427 -5093 0
0 0 0 722 1487149 -4371 0
0 0 0 693 1487842 -3678 0
0 0 0 683 1488525 -2995 0
0 0 0 678 1489203 -2317 0
80 1 S116 686 1489889 -1631 0
80 1 S116 715 1490604 -916 0
80 1 S116 766 1491370 -150 0
80 2 S116 810 1492180 660 0
80 2 S116 854 1493034 1514 0
80 2 S116 894 1493928 2408 0
80 2 S116 917 1494845 3325 0
80 2 S116 916 1495761 4241 0
80 2 S116 875 1496636 5116 0
80 2 S116 818 1497454 5934 0
80 2 S116 811 1498265 6745 0
