T_0108
BeatCount Mean SD BeatCountNoOutliers MeanNoOutliers SDNoOutliers
2054 741,703505355404 43,4947322829673 2030 742,068472906404 41,1980388321288

Trial TrialStatus Trialtype IBI AbsPosition RelPosition Outlier
0 0 0 671 1016 -14841 0
0 0 0 645 1661 -14196 0
0 0 0 655 2316 -13541 0
0 0 0 671 2987 -12870 0
0 0 0 709 3696 -12161 0
0 0 0 686 4382 -11475 0
0 0 0 697 5079 -10778 0
0 0 0 753 5832 -10025 0
0 0 0 767 6599 -9258 0
0 0 0 726 7325 -8532 0
0 0 0 673 7998 -7859 0
0 0 0 695 8693 -7164 0
0 0 0 700 9393 -6464 0
0 0 0 714 10107 -5750 0
0 0 0 697 10804 -5053 0
0 0 0 653 11457 -4400 0
0 0 0 687 12144 -3713 0
0 0 0 692 12836 -3021 0
0 0 0 727 13563 -2294 0
1 1 S112 714 14277 -1580 0
1 1 S112 681 14958 -899 0
1 1 S112 708 15666 -191 0
1 2 S112 721 16387 530 0
1 2 S112 723 17110 1253 0
1 2 S112 692 17802 1945 0
1 2 S112 659 18461 2604 0
1 2 S112 697 19158 3301 0
1 2 S112 724 19882 4025 0
1 2 S112 752 20634 4777 0
1 2 S112 732 21366 5509 0
1 2 S112 698 22064 6207 0
1 2 S112 730 22794 6937 0
0 0 0 729 23523 -11200 0
0 0 0 739 24262 -10461 0
0 0 0 679 24941 -9782 0
0 0 0 706 25647 -9076 0
0 0 0 708 26355 -8368 0
0 0 0 744 27099 -7624 0
0 0 0 719 27818 -6905 0
0 0 0 721 28539 -6184 0
0 0 0 773 29312 -5411 0
0 0 0 807 30119 -4604 0
0 0 0 770 30889 -3834 0
0 0 0 719 31608 -3115 0
0 0 0 743 32351 -2372 0
2 1 S102 750 33101 -1622 0
2 1 S102 744 33845 -878 0
2 1 S102 691 34536 -187 0
2 2 S102 762 35298 575 0
2 2 S102 814 36112 1389 0
2 2 S102 825 36937 2214 0
2 2 S102 745 37682 2959 0
2 2 S102 776 38458 3735 0
2 2 S102 780 39238 4515 0
2 2 S102 753 39991 5268 0
2 2 S102 695 40686 5963 0
2 2 S102 723 41409 6686 0
0 0 0 732 42141 -8779 0
0 0 0 760 42901 -8019 0
0 0 0 708 43609 -7311 0
0 0 0 759 44368 -6552 0
0 0 0 791 45159 -5761 0
0 0 0 765 45924 -4996 0
0 0 0 694 46618 -4302 0
0 0 0 701 47319 -3601 0
0 0 0 759 48078 -2842 0
0 0 0 817 48895 -2025 0
3 1 S116 831 49726 -1194 0
3 1 S116 800 50526 -394 0
3 2 S116 764 51290 370 0
3 2 S116 793 52083 1163 0
3 2 S116 798 52881 1961 0
3 2 S116 787 53668 2748 0
3 2 S116 731 54399 3479 0
3 2 S116 744 55143 4223 0
3 2 S116 766 55909 4989 0
3 2 S116 842 56751 5831 0
3 2 S116 812 57563 6643 0
0 0 0 751 58314 -10859 0
0 0 0 798 59112 -10061 0
0 0 0 818 59930 -9243 0
0 0 0 767 60697 -8476 0
0 0 0 748 61445 -7728 0
0 0 0 771 62216 -6957 0
0 0 0 778 62994 -6179 0
0 0 0 766 63760 -5413 0
0 0 0 725 64485 -4688 0
0 0 0 775 65260 -3913 0
0 0 0 796 66056 -3117 0
0 0 0 820 66876 -2297 0
4 1 S106 760 67636 -1537 0
4 1 S106 737 68373 -800 0
4 2 S106 808 69181 8 0
4 2 S106 847 70028 855 0
4 2 S106 843 70871 1698 0
4 2 S106 769 71640 2467 0
4 2 S106 796 72436 3263 0
4 2 S106 804 73240 4067 0
4 2 S106 817 74057 4884 0
4 2 S106 785 74842 5669 0
4 2 S106 745 75587 6414 0
0 0 0 776 76363 -7648 0
0 0 0 805 77168 -6843 0
0 0 0 795 77963 -6048 0
0 0 0 750 78713 -5298 0
0 0 0 799 79512 -4499 0
0 0 0 821 80333 -3678 0
0 0 0 830 81163 -2848 0
0 0 0 763 81926 -2085 0
5 1 S116 786 82712 -1299 0
5 1 S116 789 83501 -510 0
5 2 S116 792 84293 282 0
5 2 S116 765 85058 1047 0
5 2 S116 736 85794 1783 0
5 2 S116 774 86568 2557 0
5 2 S116 799 87367 3356 0
5 2 S116 802 88169 4158 0
5 2 S116 757 88926 4915 0
5 2 S116 783 89709 5698 0
5 2 S116 798 90507 6496 0
0 0 0 805 91312 -8564 0
0 0 0 765 92077 -7799 0
0 0 0 775 92852 -7024 0
0 0 0 780 93632 -6244 0
0 0 0 781 94413 -5463 0
0 0 0 816 95229 -4647 0
0 0 0 741 95970 -3906 0
0 0 0 756 96726 -3150 0
0 0 0 772 97498 -2378 0
6 1 S106 795 98293 -1583 0
6 1 S106 800 99093 -783 0
6 1 S106 746 99839 -37 0
6 2 S106 743 100582 706 0
6 2 S106 802 101384 1508 0
6 2 S106 783 102167 2291 0
6 2 S106 778 102945 3069 0
6 2 S106 702 103647 3771 0
6 2 S106 737 104384 4508 0
6 2 S106 716 105100 5224 0
6 2 S106 706 105806 5930 0
6 2 S106 735 106541 6665 0
0 0 0 720 107261 -10238 0
0 0 0 734 107995 -9504 0
0 0 0 803 108798 -8701 0
0 0 0 816 109614 -7885 0
0 0 0 823 110437 -7062 0
0 0 0 794 111231 -6268 0
0 0 0 765 111996 -5503 0
0 0 0 798 112794 -4705 0
0 0 0 795 113589 -3910 0
0 0 0 804 114393 -3106 0
0 0 0 760 115153 -2346 0
7 1 S102 736 115889 -1610 0
7 1 S102 792 116681 -818 0
7 1 S102 800 117481 -18 0
7 2 S102 818 118299 800 0
7 2 S102 812 119111 1612 0
7 2 S102 769 119880 2381 0
7 2 S102 825 120705 3206 0
7 2 S102 844 121549 4050 0
7 2 S102 850 122399 4900 0
7 2 S102 813 123212 5713 0
7 2 S102 774 123986 6487 0
0 0 0 787 124773 -8326 0
0 0 0 779 125552 -7547 0
0 0 0 791 126343 -6756 0
0 0 0 772 127115 -5984 0
0 0 0 725 127840 -5259 0
0 0 0 770 128610 -4489 0
0 0 0 802 129412 -3687 0
0 0 0 834 130246 -2853 0
0 0 0 759 131005 -2094 0
8 1 S112 788 131793 -1306 0
8 1 S112 813 132606 -493 0
8 2 S112 820 133426 327 0
8 2 S112 795 134221 1122 0
8 2 S112 753 134974 1875 0
8 2 S112 786 135760 2661 0
8 2 S112 818 136578 3479 0
8 2 S112 837 137415 4316 0
8 2 S112 828 138243 5144 0
8 2 S112 776 139019 5920 0
8 2 S112 779 139798 6699 0
0 0 0 796 140594 -6912 0
0 0 0 787 141381 -6125 0
0 0 0 737 142118 -5388 0
0 0 0 740 142858 -4648 0
0 0 0 775 143633 -3873 0
0 0 0 816 144449 -3057 0
0 0 0 823 145272 -2234 0
9 1 S116 786 146058 -1448 0
9 1 S116 809 146867 -639 0
9 2 S116 834 147701 195 0
9 2 S116 830 148531 1025 0
9 2 S116 784 149315 1809 0
9 2 S116 744 150059 2553 0
9 2 S116 754 150813 3307 0
9 2 S116 759 151572 4066 0
9 2 S116 780 152352 4846 0
9 2 S116 741 153093 5587 0
9 2 S116 771 153864 6358 0
0 0 0 803 154667 -11257 0
0 0 0 833 155500 -10424 0
0 0 0 777 156277 -9647 0
0 0 0 791 157068 -8856 0
0 0 0 792 157860 -8064 0
0 0 0 785 158645 -7279 0
0 0 0 739 159384 -6540 0
0 0 0 725 160109 -5815 0
0 0 0 721 160830 -5094 0
0 0 0 702 161532 -4392 0
0 0 0 664 162196 -3728 0
0 0 0 648 162844 -3080 0
0 0 0 640 163484 -2440 0
10 1 S102 628 164112 -1812 1
10 1 S102 668 164780 -1144 0
10 1 S102 715 165495 -429 0
10 2 S102 737 166232 308 0
10 2 S102 755 166987 1063 0
10 2 S102 700 167687 1763 0
10 2 S102 676 168363 2439 0
10 2 S102 715 169078 3154 0
10 2 S102 716 169794 3870 0
10 2 S102 730 170524 4600 0
10 2 S102 713 171237 5313 0
10 2 S102 666 171903 5979 0
10 2 S102 686 172589 6665 0
0 0 0 697 173286 -11737 0
0 0 0 737 174023 -11000 0
0 0 0 730 174753 -10270 0
0 0 0 709 175462 -9561 0
0 0 0 784 176246 -8777 0
0 0 0 828 177074 -7949 0
0 0 0 836 177910 -7113 0
0 0 0 766 178676 -6347 0
0 0 0 799 179475 -5548 0
0 0 0 803 180278 -4745 0
0 0 0 797 181075 -3948 0
0 0 0 749 181824 -3199 0
0 0 0 730 182554 -2469 0
11 1 S112 762 183316 -1707 0
11 1 S112 783 184099 -924 0
11 1 S112 789 184888 -135 0
11 2 S112 744 185632 609 0
11 2 S112 785 186417 1394 0
11 2 S112 809 187226 2203 0
11 2 S112 824 188050 3027 0
11 2 S112 773 188823 3800 0
11 2 S112 751 189574 4551 0
11 2 S112 765 190339 5316 0
11 2 S112 794 191133 6110 0
11 2 S112 811 191944 6921 0
0 0 0 777 192721 -7388 0
0 0 0 713 193434 -6675 0
0 0 0 685 194119 -5990 0
0 0 0 710 194829 -5280 0
0 0 0 745 195574 -4535 0
0 0 0 770 196344 -3765 0
0 0 0 797 197141 -2968 0
0 0 0 775 197916 -2193 0
12 1 S116 707 198623 -1486 0
12 1 S116 689 199312 -797 0
12 1 S116 698 200010 -99 0
12 2 S116 730 200740 631 0
12 2 S116 743 201483 1374 0
12 2 S116 756 202239 2130 0
12 2 S116 741 202980 2871 0
12 2 S116 688 203668 3559 0
12 2 S116 712 204380 4271 0
12 2 S116 731 205111 5002 0
12 2 S116 773 205884 5775 0
12 2 S116 788 206672 6563 0
0 0 0 769 207441 -12065 0
0 0 0 720 208161 -11345 0
0 0 0 749 208910 -10596 0
0 0 0 754 209664 -9842 0
0 0 0 764 210428 -9078 0
0 0 0 734 211162 -8344 0
0 0 0 688 211850 -7656 0
0 0 0 727 212577 -6929 0
0 0 0 759 213336 -6170 0
0 0 0 781 214117 -5389 0
0 0 0 790 214907 -4599 0
0 0 0 725 215632 -3874 0
0 0 0 711 216343 -3163 0
0 0 0 741 217084 -2422 0
13 1 S112 775 217859 -1647 0
13 1 S112 787 218646 -860 0
13 1 S112 758 219404 -102 0
13 2 S112 702 220106 600 0
13 2 S112 748 220854 1348 0
13 2 S112 785 221639 2133 0
13 2 S112 785 222424 2918 0
13 2 S112 773 223197 3691 0
13 2 S112 732 223929 4423 0
13 2 S112 682 224611 5105 0
13 2 S112 721 225332 5826 0
13 2 S112 735 226067 6561 0
0 0 0 774 226841 -11896 0
0 0 0 791 227632 -11105 0
0 0 0 722 228354 -10383 0
0 0 0 725 229079 -9658 0
0 0 0 742 229821 -8916 0
0 0 0 745 230566 -8171 0
0 0 0 739 231305 -7432 0
0 0 0 690 231995 -6742 0
0 0 0 634 232629 -6108 0
0 0 0 654 233283 -5454 0
0 0 0 658 233941 -4796 0
0 0 0 708 234649 -4088 0
0 0 0 783 235432 -3305 0
0 0 0 789 236221 -2516 0
14 1 S106 735 236956 -1781 0
14 1 S106 720 237676 -1061 0
14 1 S106 751 238427 -310 0
14 2 S106 770 239197 460 0
14 2 S106 777 239974 1237 0
14 2 S106 754 240728 1991 0
14 2 S106 686 241414 2677 0
14 2 S106 706 242120 3383 0
14 2 S106 720 242840 4103 0
14 2 S106 706 243546 4809 0
14 2 S106 638 244184 5447 0
14 2 S106 646 244830 6093 0
14 2 S106 670 245500 6763 0
0 0 0 757 246257 -11694 0
0 0 0 828 247085 -10866 0
0 0 0 817 247902 -10049 0
0 0 0 780 248682 -9269 0
0 0 0 772 249454 -8497 0
0 0 0 766 250220 -7731 0
0 0 0 761 250981 -6970 0
0 0 0 775 251756 -6195 0
0 0 0 739 252495 -5456 0
0 0 0 719 253214 -4737 0
0 0 0 743 253957 -3994 0
0 0 0 761 254718 -3233 0
0 0 0 777 255495 -2456 0
15 1 S116 791 256286 -1665 0
15 1 S116 737 257023 -928 0
15 1 S116 766 257789 -162 0
15 2 S116 780 258569 618 0
15 2 S116 803 259372 1421 0
15 2 S116 794 260166 2215 0
15 2 S116 760 260926 2975 0
15 2 S116 739 261665 3714 0
15 2 S116 773 262438 4487 0
15 2 S116 786 263224 5273 0
15 2 S116 801 264025 6074 0
15 2 S116 737 264762 6811 0
0 0 0 715 265477 -9484 0
0 0 0 751 266228 -8733 0
0 0 0 772 267000 -7961 0
0 0 0 782 267782 -7179 0
0 0 0 733 268515 -6446 0
0 0 0 742 269257 -5704 0
0 0 0 764 270021 -4940 0
0 0 0 758 270779 -4182 0
0 0 0 767 271546 -3415 0
0 0 0 725 272271 -2690 0
16 1 S116 755 273026 -1935 0
16 1 S116 791 273817 -1144 0
16 1 S116 789 274606 -355 0
16 2 S116 780 275386 425 0
16 2 S116 718 276104 1143 0
16 2 S116 738 276842 1881 0
16 2 S116 746 277588 2627 0
16 2 S116 758 278346 3385 0
16 2 S116 756 279102 4141 0
16 2 S116 695 279797 4836 0
16 2 S116 747 280544 5583 0
16 2 S116 787 281331 6370 0
0 0 0 817 282148 -9308 0
0 0 0 777 282925 -8531 0
0 0 0 740 283665 -7791 0
0 0 0 750 284415 -7041 0
0 0 0 740 285155 -6301 0
0 0 0 728 285883 -5573 0
0 0 0 678 286561 -4895 0
0 0 0 675 287236 -4220 0
0 0 0 691 287927 -3529 0
0 0 0 699 288626 -2830 0
0 0 0 711 289337 -2119 0
17 1 S106 696 290033 -1423 0
17 1 S106 659 290692 -764 0
17 1 S106 690 291382 -74 0
17 2 S106 717 292099 643 0
17 2 S106 763 292862 1406 0
17 2 S106 794 293656 2200 0
17 2 S106 739 294395 2939 0
17 2 S106 728 295123 3667 0
17 2 S106 775 295898 4442 0
17 2 S106 790 296688 5232 0
17 2 S106 781 297469 6013 0
17 2 S106 729 298198 6742 0
0 0 0 705 298903 -11254 0
0 0 0 725 299628 -10529 0
0 0 0 721 300349 -9808 0
0 0 0 741 301090 -9067 0
0 0 0 717 301807 -8350 0
0 0 0 738 302545 -7612 0
0 0 0 755 303300 -6857 0
0 0 0 773 304073 -6084 0
0 0 0 762 304835 -5322 0
0 0 0 723 305558 -4599 0
0 0 0 767 306325 -3832 0
0 0 0 785 307110 -3047 0
0 0 0 802 307912 -2245 0
18 1 S102 769 308681 -1476 0
18 1 S102 739 309420 -737 0
18 2 S102 758 310178 21 0
18 2 S102 771 310949 792 0
18 2 S102 722 311671 1514 0
18 2 S102 709 312380 2223 0
18 2 S102 777 313157 3000 0
18 2 S102 786 313943 3786 0
18 2 S102 779 314722 4565 0
18 2 S102 705 315427 5270 0
18 2 S102 748 316175 6018 0
18 2 S102 763 316938 6781 0
0 0 0 765 317703 -6943 0
0 0 0 736 318439 -6207 0
0 0 0 713 319152 -5494 0
0 0 0 747 319899 -4747 0
0 0 0 713 320612 -4034 0
0 0 0 668 321280 -3366 0
0 0 0 678 321958 -2688 0
19 1 S106 705 322663 -1983 0
19 1 S106 758 323421 -1225 0
19 1 S106 743 324164 -482 0
19 2 S106 751 324915 269 0
19 2 S106 781 325696 1050 0
19 2 S106 780 326476 1830 0
19 2 S106 698 327174 2528 0
19 2 S106 662 327836 3190 0
19 2 S106 645 328481 3835 0
19 2 S106 647 329128 4482 0
19 2 S106 683 329811 5165 0
19 2 S106 695 330506 5860 0
19 2 S106 723 331229 6583 0
0 0 0 748 331977 -10922 0
0 0 0 754 332731 -10168 0
0 0 0 756 333487 -9412 0
0 0 0 761 334248 -8651 0
0 0 0 737 334985 -7914 0
0 0 0 707 335692 -7207 0
0 0 0 652 336344 -6555 0
0 0 0 687 337031 -5868 0
0 0 0 707 337738 -5161 0
0 0 0 735 338473 -4426 0
0 0 0 823 339296 -3603 0
0 0 0 810 340106 -2793 0
0 0 0 771 340877 -2022 0
20 1 S112 831 341708 -1191 0
20 1 S112 892 342600 -299 1
20 2 S112 903 343503 604 1
20 2 S112 872 344375 1476 1
20 2 S112 797 345172 2273 0
20 2 S112 801 345973 3074 0
20 2 S112 814 346787 3888 0
20 2 S112 814 347601 4702 0
20 2 S112 820 348421 5522 0
20 2 S112 748 349169 6270 0
20 2 S112 726 349895 6996 0
0 0 0 763 350658 -9399 0
0 0 0 764 351422 -8635 0
0 0 0 794 352216 -7841 0
0 0 0 768 352984 -7073 0
0 0 0 707 353691 -6366 0
0 0 0 744 354435 -5622 0
0 0 0 742 355177 -4880 0
0 0 0 755 355932 -4125 0
0 0 0 742 356674 -3383 0
0 0 0 711 357385 -2672 0
21 1 S106 761 358146 -1911 0
21 1 S106 757 358903 -1154 0
21 1 S106 736 359639 -418 0
21 2 S106 682 360321 264 0
21 2 S106 652 360973 916 0
21 2 S106 640 361613 1556 0
21 2 S106 632 362245 2188 0
21 2 S106 698 362943 2886 0
21 2 S106 786 363729 3672 0
21 2 S106 852 364581 4524 0
21 2 S106 834 365415 5358 0
21 2 S106 753 366168 6111 0
21 2 S106 792 366960 6903 0
0 0 0 817 367777 -10185 0
0 0 0 815 368592 -9370 0
0 0 0 773 369365 -8597 0
0 0 0 733 370098 -7864 0
0 0 0 728 370826 -7136 0
0 0 0 724 371550 -6412 0
0 0 0 698 372248 -5714 0
0 0 0 659 372907 -5055 0
0 0 0 641 373548 -4414 0
0 0 0 687 374235 -3727 0
0 0 0 754 374989 -2973 0
0 0 0 848 375837 -2125 0
22 1 S116 839 376676 -1286 0
22 1 S116 737 377413 -549 0
22 2 S116 712 378125 163 0
22 2 S116 754 378879 917 0
22 2 S116 772 379651 1689 0
22 2 S116 791 380442 2480 0
22 2 S116 791 381233 3271 0
22 2 S116 778 382011 4049 0
22 2 S116 710 382721 4759 0
22 2 S116 726 383447 5485 0
22 2 S116 746 384193 6231 0
22 2 S116 767 384960 6998 0
0 0 0 766 385726 -8881 0
0 0 0 757 386483 -8124 0
0 0 0 717 387200 -7407 0
0 0 0 750 387950 -6657 0
0 0 0 756 388706 -5901 0
0 0 0 780 389486 -5121 0
0 0 0 783 390269 -4338 0
0 0 0 753 391022 -3585 0
0 0 0 748 391770 -2837 0
0 0 0 776 392546 -2061 0
23 1 S112 775 393321 -1286 0
23 1 S112 782 394103 -504 0
23 2 S112 780 394883 276 0
23 2 S112 723 395606 999 0
23 2 S112 736 396342 1735 0
23 2 S112 749 397091 2484 0
23 2 S112 794 397885 3278 0
23 2 S112 801 398686 4079 0
23 2 S112 781 399467 4860 0
23 2 S112 711 400178 5571 0
23 2 S112 743 400921 6314 0
0 0 0 770 401691 -9312 0
0 0 0 796 402487 -8516 0
0 0 0 766 403253 -7750 0
0 0 0 705 403958 -7045 0
0 0 0 734 404692 -6311 0
0 0 0 751 405443 -5560 0
0 0 0 756 406199 -4804 0
0 0 0 753 406952 -4051 0
0 0 0 703 407655 -3348 0
0 0 0 705 408360 -2643 0
24 1 S106 724 409084 -1919 0
24 1 S106 760 409844 -1159 0
24 1 S106 794 410638 -365 0
24 2 S106 741 411379 376 0
24 2 S106 715 412094 1091 0
24 2 S106 741 412835 1832 0
24 2 S106 764 413599 2596 0
24 2 S106 772 414371 3368 0
24 2 S106 749 415120 4117 0
24 2 S106 692 415812 4809 0
24 2 S106 727 416539 5536 0
24 2 S106 742 417281 6278 0
0 0 0 755 418036 -9114 0
0 0 0 747 418783 -8367 0
0 0 0 701 419484 -7666 0
0 0 0 747 420231 -6919 0
0 0 0 765 420996 -6154 0
0 0 0 778 421774 -5376 0
0 0 0 775 422549 -4601 0
0 0 0 704 423253 -3897 0
0 0 0 726 423979 -3171 0
0 0 0 723 424702 -2448 0
25 1 S102 718 425420 -1730 0
25 1 S102 712 426132 -1018 0
25 1 S102 671 426803 -347 0
25 2 S102 735 427538 388 0
25 2 S102 787 428325 1175 0
25 2 S102 794 429119 1969 0
25 2 S102 763 429882 2732 0
25 2 S102 728 430610 3460 0
25 2 S102 764 431374 4224 0
25 2 S102 765 432139 4989 0
25 2 S102 757 432896 5746 0
25 2 S102 738 433634 6484 0
0 0 0 685 434319 -6757 0
0 0 0 706 435025 -6051 0
0 0 0 695 435720 -5356 0
0 0 0 682 436402 -4674 0
0 0 0 653 437055 -4021 0
0 0 0 640 437695 -3381 0
0 0 0 660 438355 -2721 0
0 0 0 680 439035 -2041 0
26 1 S116 710 439745 -1331 0
26 1 S116 671 440416 -660 0
26 2 S116 663 441079 3 0
26 2 S116 698 441777 701 0
26 2 S116 713 442490 1414 0
26 2 S116 722 443212 2136 0
26 2 S116 705 443917 2841 0
26 2 S116 660 444577 3501 0
26 2 S116 685 445262 4186 0
26 2 S116 688 445950 4874 0
26 2 S116 729 446679 5603 0
26 2 S116 717 447396 6320 0
26 2 S116 700 448096 7020 0
0 0 0 656 448752 -6283 0
0 0 0 685 449437 -5598 0
0 0 0 697 450134 -4901 0
0 0 0 723 450857 -4178 0
0 0 0 722 451579 -3456 0
0 0 0 678 452257 -2778 0
0 0 0 713 452970 -2065 0
27 1 S106 737 453707 -1328 0
27 1 S106 747 454454 -581 0
27 2 S106 710 455164 129 0
27 2 S106 681 455845 810 0
27 2 S106 713 456558 1523 0
27 2 S106 726 457284 2249 0
27 2 S106 728 458012 2977 0
27 2 S106 700 458712 3677 0
27 2 S106 654 459366 4331 0
27 2 S106 685 460051 5016 0
27 2 S106 702 460753 5718 0
27 2 S106 732 461485 6450 0
0 0 0 740 462225 -6968 0
0 0 0 688 462913 -6280 0
0 0 0 717 463630 -5563 0
0 0 0 729 464359 -4834 0
0 0 0 750 465109 -4084 0
0 0 0 762 465871 -3322 0
0 0 0 701 466572 -2621 0
28 1 S102 721 467293 -1900 0
28 1 S102 732 468025 -1168 0
28 1 S102 731 468756 -437 0
28 2 S102 743 469499 306 0
28 2 S102 703 470202 1009 0
28 2 S102 673 470875 1682 0
28 2 S102 703 471578 2385 0
28 2 S102 724 472302 3109 0
28 2 S102 773 473075 3882 0
28 2 S102 763 473838 4645 0
28 2 S102 713 474551 5358 0
28 2 S102 744 475295 6102 0
28 2 S102 757 476052 6859 0
0 0 0 759 476811 -11232 0
0 0 0 739 477550 -10493 0
0 0 0 685 478235 -9808 0
0 0 0 718 478953 -9090 0
0 0 0 722 479675 -8368 0
0 0 0 738 480413 -7630 0
0 0 0 728 481141 -6902 0
0 0 0 699 481840 -6203 0
0 0 0 747 482587 -5456 0
0 0 0 770 483357 -4686 0
0 0 0 785 484142 -3901 0
0 0 0 752 484894 -3149 0
0 0 0 727 485621 -2422 0
29 1 S112 758 486379 -1664 0
29 1 S112 755 487134 -909 0
29 1 S112 765 487899 -144 0
29 2 S112 736 488635 592 0
29 2 S112 690 489325 1282 0
29 2 S112 716 490041 1998 0
29 2 S112 707 490748 2705 0
29 2 S112 725 491473 3430 0
29 2 S112 748 492221 4178 0
29 2 S112 715 492936 4893 0
29 2 S112 720 493656 5613 0
29 2 S112 765 494421 6378 0
0 0 0 802 495223 -7475 0
0 0 0 796 496019 -6679 0
0 0 0 729 496748 -5950 0
0 0 0 751 497499 -5199 0
0 0 0 760 498259 -4439 0
0 0 0 742 499001 -3697 0
0 0 0 707 499708 -2990 0
0 0 0 664 500372 -2326 0
30 1 S112 690 501062 -1636 0
30 1 S112 709 501771 -927 0
30 1 S112 722 502493 -205 0
30 2 S112 712 503205 507 0
30 2 S112 677 503882 1184 0
30 2 S112 724 504606 1908 0
30 2 S112 762 505368 2670 0
30 2 S112 786 506154 3456 0
30 2 S112 814 506968 4270 0
30 2 S112 800 507768 5070 0
30 2 S112 741 508509 5811 0
30 2 S112 736 509245 6547 0
0 0 0 736 509981 -9643 0
0 0 0 757 510738 -8886 0
0 0 0 745 511483 -8141 0
0 0 0 703 512186 -7438 0
0 0 0 682 512868 -6756 0
0 0 0 722 513590 -6034 0
0 0 0 745 514335 -5289 0
0 0 0 758 515093 -4531 0
0 0 0 704 515797 -3827 0
0 0 0 639 516436 -3188 0
0 0 0 633 517069 -2555 0
31 1 S106 766 517835 -1789 0
31 1 S106 828 518663 -961 0
31 1 S106 826 519489 -135 0
31 2 S106 802 520291 667 0
31 2 S106 790 521081 1457 0
31 2 S106 773 521854 2230 0
31 2 S106 761 522615 2991 0
31 2 S106 744 523359 3735 0
31 2 S106 741 524100 4476 0
31 2 S106 714 524814 5190 0
31 2 S106 658 525472 5848 0
31 2 S106 677 526149 6525 0
0 0 0 699 526848 -9471 0
0 0 0 763 527611 -8708 0
0 0 0 822 528433 -7886 0
0 0 0 839 529272 -7047 0
0 0 0 815 530087 -6232 0
0 0 0 753 530840 -5479 0
0 0 0 728 531568 -4751 0
0 0 0 750 532318 -4001 0
0 0 0 767 533085 -3234 0
0 0 0 780 533865 -2454 0
32 1 S102 761 534626 -1693 0
32 1 S102 713 535339 -980 0
32 1 S102 736 536075 -244 0
32 2 S102 759 536834 515 0
32 2 S102 790 537624 1305 0
32 2 S102 802 538426 2107 0
32 2 S102 796 539222 2903 0
32 2 S102 746 539968 3649 0
32 2 S102 732 540700 4381 0
32 2 S102 729 541429 5110 0
32 2 S102 722 542151 5832 0
32 2 S102 734 542885 6566 0
0 0 0 747 543632 -10641 0
0 0 0 722 544354 -9919 0
0 0 0 710 545064 -9209 0
0 0 0 726 545790 -8483 0
0 0 0 725 546515 -7758 0
0 0 0 740 547255 -7018 0
0 0 0 745 548000 -6273 0
0 0 0 705 548705 -5568 0
0 0 0 685 549390 -4883 0
0 0 0 716 550106 -4167 0
0 0 0 738 550844 -3429 0
0 0 0 746 551590 -2683 0
33 1 S112 730 552320 -1953 0
33 1 S112 685 553005 -1268 0
33 1 S112 701 553706 -567 0
33 2 S112 711 554417 144 0
33 2 S112 739 555156 883 0
33 2 S112 735 555891 1618 0
33 2 S112 716 556607 2334 0
33 2 S112 763 557370 3097 0
33 2 S112 786 558156 3883 0
33 2 S112 807 558963 4690 0
33 2 S112 795 559758 5485 0
33 2 S112 729 560487 6214 0
33 2 S112 744 561231 6958 0
0 0 0 759 561990 -10752 0
0 0 0 754 562744 -9998 0
0 0 0 725 563469 -9273 0
0 0 0 690 564159 -8583 0
0 0 0 693 564852 -7890 0
0 0 0 707 565559 -7183 0
0 0 0 701 566260 -6482 0
0 0 0 671 566931 -5811 0
0 0 0 650 567581 -5161 0
0 0 0 702 568283 -4459 0
0 0 0 737 569020 -3722 0
0 0 0 836 569856 -2886 0
0 0 0 823 570679 -2063 0
34 1 S106 762 571441 -1301 0
34 1 S106 802 572243 -499 0
34 2 S106 805 573048 306 0
34 2 S106 805 573853 1111 0
34 2 S106 732 574585 1843 0
34 2 S106 725 575310 2568 0
34 2 S106 711 576021 3279 0
34 2 S106 711 576732 3990 0
34 2 S106 720 577452 4710 0
34 2 S106 671 578123 5381 0
34 2 S106 675 578798 6056 0
34 2 S106 717 579515 6773 0
0 0 0 791 580306 -8782 0
0 0 0 800 581106 -7982 0
0 0 0 749 581855 -7233 0
0 0 0 785 582640 -6448 0
0 0 0 803 583443 -5645 0
0 0 0 799 584242 -4846 0
0 0 0 758 585000 -4088 0
0 0 0 697 585697 -3391 0
0 0 0 716 586413 -2675 0
35 1 S102 714 587127 -1961 0
35 1 S102 715 587842 -1246 0
35 1 S102 731 588573 -515 0
35 2 S102 690 589263 175 0
35 2 S102 699 589962 874 0
35 2 S102 740 590702 1614 0
35 2 S102 769 591471 2383 0
35 2 S102 776 592247 3159 0
35 2 S102 722 592969 3881 0
35 2 S102 712 593681 4593 0
35 2 S102 736 594417 5329 0
35 2 S102 739 595156 6068 0
35 2 S102 729 595885 6797 0
0 0 0 677 596562 -7115 0
0 0 0 714 597276 -6401 0
0 0 0 721 597997 -5680 0
0 0 0 732 598729 -4948 0
0 0 0 725 599454 -4223 0
0 0 0 687 600141 -3536 0
0 0 0 724 600865 -2812 0
0 0 0 719 601584 -2093 0
36 1 S106 730 602314 -1363 0
36 1 S106 721 603035 -642 0
36 2 S106 678 603713 36 0
36 2 S106 692 604405 728 0
36 2 S106 712 605117 1440 0
36 2 S106 740 605857 2180 0
36 2 S106 741 606598 2921 0
36 2 S106 700 607298 3621 0
36 2 S106 713 608011 4334 0
36 2 S106 738 608749 5072 0
36 2 S106 737 609486 5809 0
36 2 S106 739 610225 6548 0
0 0 0 685 610910 -9064 0
0 0 0 700 611610 -8364 0
0 0 0 714 612324 -7650 0
0 0 0 728 613052 -6922 0
0 0 0 712 613764 -6210 0
0 0 0 669 614433 -5541 0
0 0 0 698 615131 -4843 0
0 0 0 703 615834 -4140 0
0 0 0 725 616559 -3415 0
0 0 0 713 617272 -2702 0
0 0 0 688 617960 -2014 0
37 1 S116 722 618682 -1292 0
37 1 S116 749 619431 -543 0
37 2 S116 760 620191 217 0
37 2 S116 744 620935 961 0
37 2 S116 731 621666 1692 0
37 2 S116 726 622392 2418 0
37 2 S116 732 623124 3150 0
37 2 S116 718 623842 3868 0
37 2 S116 685 624527 4553 0
37 2 S116 712 625239 5265 0
37 2 S116 721 625960 5986 0
37 2 S116 725 626685 6711 0
0 0 0 736 627421 -10407 0
0 0 0 680 628101 -9727 0
0 0 0 714 628815 -9013 0
0 0 0 729 629544 -8284 0
0 0 0 693 630237 -7591 0
0 0 0 670 630907 -6921 0
0 0 0 641 631548 -6280 0
0 0 0 633 632181 -5647 0
0 0 0 614 632795 -5033 1
0 0 0 644 633439 -4389 0
0 0 0 690 634129 -3699 0
0 0 0 707 634836 -2992 0
0 0 0 726 635562 -2266 0
38 1 S102 654 636216 -1612 0
38 1 S102 681 636897 -931 0
38 1 S102 692 637589 -239 0
38 2 S102 714 638303 475 0
38 2 S102 719 639022 1194 0
38 2 S102 705 639727 1899 0
38 2 S102 690 640417 2589 0
38 2 S102 709 641126 3298 0
38 2 S102 722 641848 4020 0
38 2 S102 743 642591 4763 0
38 2 S102 723 643314 5486 0
38 2 S102 695 644009 6181 0
38 2 S102 731 644740 6912 0
0 0 0 751 645491 -9446 0
0 0 0 760 646251 -8686 0
0 0 0 715 646966 -7971 0
0 0 0 726 647692 -7245 0
0 0 0 732 648424 -6513 0
0 0 0 723 649147 -5790 0
0 0 0 704 649851 -5086 0
0 0 0 659 650510 -4427 0
0 0 0 649 651159 -3778 0
0 0 0 663 651822 -3115 0
0 0 0 688 652510 -2427 0
39 1 S116 774 653284 -1653 0
39 1 S116 776 654060 -877 0
39 1 S116 725 654785 -152 0
39 2 S116 768 655553 616 0
39 2 S116 790 656343 1406 0
39 2 S116 793 657136 2199 0
39 2 S116 761 657897 2960 0
39 2 S116 715 658612 3675 0
39 2 S116 723 659335 4398 0
39 2 S116 727 660062 5125 0
39 2 S116 725 660787 5850 0
39 2 S116 686 661473 6536 0
0 0 0 696 662169 -7822 0
0 0 0 717 662886 -7105 0
0 0 0 724 663610 -6381 0
0 0 0 706 664316 -5675 0
0 0 0 702 665018 -4973 0
0 0 0 752 665770 -4221 0
0 0 0 775 666545 -3446 0
0 0 0 781 667326 -2665 0
40 1 S112 736 668062 -1929 0
40 1 S112 768 668830 -1161 0
40 1 S112 772 669602 -389 0
40 2 S112 763 670365 374 0
40 2 S112 731 671096 1105 0
40 2 S112 696 671792 1801 0
40 2 S112 716 672508 2517 0
40 2 S112 723 673231 3240 0
40 2 S112 728 673959 3968 0
40 2 S112 745 674704 4713 0
40 2 S112 713 675417 5426 0
40 2 S112 761 676178 6187 0
40 2 S112 763 676941 6950 0
0 0 0 782 677723 -187113 0
0 0 0 751 678474 -186362 0
0 0 0 722 679196 -185640 0
0 0 0 750 679946 -184890 0
0 0 0 757 680703 -184133 0
0 0 0 719 681422 -183414 0
0 0 0 658 682080 -182756 0
0 0 0 645 682725 -182111 0
0 0 0 649 683374 -181462 0
0 0 0 644 684018 -180818 0
0 0 0 629 684647 -180189 1
0 0 0 603 685250 -179586 1
0 0 0 607 685857 -178979 1
0 0 0 712 686569 -178267 0
0 0 0 631 687200 -177636 0
0 0 0 637 687837 -176999 0
0 0 0 661 688498 -176338 0
0 0 0 629 689127 -175709 1
0 0 0 662 689789 -175047 0
0 0 0 655 690444 -174392 0
0 0 0 654 691098 -173738 0
0 0 0 697 691795 -173041 0
0 0 0 705 692500 -172336 0
0 0 0 689 693189 -171647 0
0 0 0 679 693868 -170968 0
0 0 0 642 694510 -170326 0
0 0 0 608 695118 -169718 1
0 0 0 593 695711 -169125 1
0 0 0 610 696321 -168515 1
0 0 0 617 696938 -167898 1
0 0 0 618 697556 -167280 1
0 0 0 653 698209 -166627 0
0 0 0 684 698893 -165943 0
0 0 0 701 699594 -165242 0
0 0 0 701 700295 -164541 0
0 0 0 650 700945 -163891 0
0 0 0 684 701629 -163207 0
0 0 0 690 702319 -162517 0
0 0 0 767 703086 -161750 0
0 0 0 760 703846 -160990 0
0 0 0 698 704544 -160292 0
0 0 0 736 705280 -159556 0
0 0 0 786 706066 -158770 0
0 0 0 809 706875 -157961 0
0 0 0 796 707671 -157165 0
0 0 0 748 708419 -156417 0
0 0 0 723 709142 -155694 0
0 0 0 722 709864 -154972 0
0 0 0 713 710577 -154259 0
0 0 0 716 711293 -153543 0
0 0 0 689 711982 -152854 0
0 0 0 667 712649 -152187 0
0 0 0 687 713336 -151500 0
0 0 0 698 714034 -150802 0
0 0 0 724 714758 -150078 0
0 0 0 700 715458 -149378 0
0 0 0 689 716147 -148689 0
0 0 0 720 716867 -147969 0
0 0 0 737 717604 -147232 0
0 0 0 735 718339 -146497 0
0 0 0 695 719034 -145802 0
0 0 0 737 719771 -145065 0
0 0 0 754 720525 -144311 0
0 0 0 768 721293 -143543 0
0 0 0 720 722013 -142823 0
0 0 0 738 722751 -142085 0
0 0 0 738 723489 -141347 0
0 0 0 746 724235 -140601 0
0 0 0 734 724969 -139867 0
0 0 0 685 725654 -139182 0
0 0 0 710 726364 -138472 0
0 0 0 715 727079 -137757 0
0 0 0 720 727799 -137037 0
0 0 0 685 728484 -136352 0
0 0 0 724 729208 -135628 0
0 0 0 769 729977 -134859 0
0 0 0 807 730784 -134052 0
0 0 0 779 731563 -133273 0
0 0 0 736 732299 -132537 0
0 0 0 752 733051 -131785 0
0 0 0 767 733818 -131018 0
0 0 0 766 734584 -130252 0
0 0 0 743 735327 -129509 0
0 0 0 691 736018 -128818 0
0 0 0 700 736718 -128118 0
0 0 0 698 737416 -127420 0
0 0 0 710 738126 -126710 0
0 0 0 743 738869 -125967 0
0 0 0 718 739587 -125249 0
0 0 0 689 740276 -124560 0
0 0 0 719 740995 -123841 0
0 0 0 748 741743 -123093 0
0 0 0 771 742514 -122322 0
0 0 0 732 743246 -121590 0
0 0 0 729 743975 -120861 0
0 0 0 756 744731 -120105 0
0 0 0 752 745483 -119353 0
0 0 0 746 746229 -118607 0
0 0 0 685 746914 -117922 0
0 0 0 703 747617 -117219 0
0 0 0 703 748320 -116516 0
0 0 0 711 749031 -115805 0
0 0 0 691 749722 -115114 0
0 0 0 686 750408 -114428 0
0 0 0 705 751113 -113723 0
0 0 0 729 751842 -112994 0
0 0 0 706 752548 -112288 0
0 0 0 674 753222 -111614 0
0 0 0 720 753942 -110894 0
0 0 0 733 754675 -110161 0
0 0 0 753 755428 -109408 0
0 0 0 723 756151 -108685 0
0 0 0 765 756916 -107920 0
0 0 0 787 757703 -107133 0
0 0 0 766 758469 -106367 0
0 0 0 707 759176 -105660 0
0 0 0 715 759891 -104945 0
0 0 0 713 760604 -104232 0
0 0 0 703 761307 -103529 0
0 0 0 667 761974 -102862 0
0 0 0 694 762668 -102168 0
0 0 0 683 763351 -101485 0
0 0 0 697 764048 -100788 0
0 0 0 694 764742 -100094 0
0 0 0 671 765413 -99423 0
0 0 0 700 766113 -98723 0
0 0 0 713 766826 -98010 0
0 0 0 752 767578 -97258 0
0 0 0 754 768332 -96504 0
0 0 0 711 769043 -95793 0
0 0 0 739 769782 -95054 0
0 0 0 746 770528 -94308 0
0 0 0 755 771283 -93553 0
0 0 0 748 772031 -92805 0
0 0 0 700 772731 -92105 0
0 0 0 702 773433 -91403 0
0 0 0 706 774139 -90697 0
0 0 0 720 774859 -89977 0
0 0 0 740 775599 -89237 0
0 0 0 709 776308 -88528 0
0 0 0 710 777018 -87818 0
0 0 0 740 777758 -87078 0
0 0 0 784 778542 -86294 0
0 0 0 797 779339 -85497 0
0 0 0 768 780107 -84729 0
0 0 0 742 780849 -83987 0
0 0 0 749 781598 -83238 0
0 0 0 754 782352 -82484 0
0 0 0 736 783088 -81748 0
0 0 0 683 783771 -81065 0
0 0 0 683 784454 -80382 0
0 0 0 685 785139 -79697 0
0 0 0 701 785840 -78996 0
0 0 0 649 786489 -78347 0
0 0 0 623 787112 -77724 1
0 0 0 660 787772 -77064 0
0 0 0 687 788459 -76377 0
0 0 0 740 789199 -75637 0
0 0 0 756 789955 -74881 0
0 0 0 762 790717 -74119 0
0 0 0 798 791515 -73321 0
0 0 0 805 792320 -72516 0
0 0 0 792 793112 -71724 0
0 0 0 775 793887 -70949 0
0 0 0 726 794613 -70223 0
0 0 0 686 795299 -69537 0
0 0 0 713 796012 -68824 0
0 0 0 729 796741 -68095 0
0 0 0 735 797476 -67360 0
0 0 0 699 798175 -66661 0
0 0 0 659 798834 -66002 0
0 0 0 644 799478 -65358 0
0 0 0 670 800148 -64688 0
0 0 0 704 800852 -63984 0
0 0 0 754 801606 -63230 0
0 0 0 722 802328 -62508 0
0 0 0 703 803031 -61805 0
0 0 0 747 803778 -61058 0
0 0 0 801 804579 -60257 0
0 0 0 826 805405 -59431 0
0 0 0 819 806224 -58612 0
0 0 0 764 806988 -57848 0
0 0 0 726 807714 -57122 0
0 0 0 744 808458 -56378 0
0 0 0 748 809206 -55630 0
0 0 0 762 809968 -54868 0
0 0 0 745 810713 -54123 0
0 0 0 684 811397 -53439 0
0 0 0 687 812084 -52752 0
0 0 0 696 812780 -52056 0
0 0 0 737 813517 -51319 0
0 0 0 727 814244 -50592 0
0 0 0 692 814936 -49900 0
0 0 0 712 815648 -49188 0
0 0 0 711 816359 -48477 0
0 0 0 712 817071 -47765 0
0 0 0 678 817749 -47087 0
0 0 0 655 818404 -46432 0
0 0 0 678 819082 -45754 0
0 0 0 711 819793 -45043 0
0 0 0 760 820553 -44283 0
0 0 0 691 821244 -43592 0
0 0 0 716 821960 -42876 0
0 0 0 708 822668 -42168 0
0 0 0 712 823380 -41456 0
0 0 0 697 824077 -40759 0
0 0 0 658 824735 -40101 0
0 0 0 700 825435 -39401 0
0 0 0 732 826167 -38669 0
0 0 0 767 826934 -37902 0
0 0 0 791 827725 -37111 0
0 0 0 780 828505 -36331 0
0 0 0 713 829218 -35618 0
0 0 0 738 829956 -34880 0
0 0 0 735 830691 -34145 0
0 0 0 743 831434 -33402 0
0 0 0 761 832195 -32641 0
0 0 0 721 832916 -31920 0
0 0 0 669 833585 -31251 0
0 0 0 668 834253 -30583 0
0 0 0 689 834942 -29894 0
0 0 0 757 835699 -29137 0
0 0 0 826 836525 -28311 0
0 0 0 813 837338 -27498 0
0 0 0 800 838138 -26698 0
0 0 0 764 838902 -25934 0
0 0 0 718 839620 -25216 0
0 0 0 664 840284 -24552 0
0 0 0 630 840914 -23922 0
0 0 0 594 841508 -23328 1
0 0 0 576 842084 -22752 1
0 0 0 602 842686 -22150 1
0 0 0 726 843412 -21424 0
0 0 0 949 844361 -20475 1
0 0 0 809 845170 -19666 0
0 0 0 751 845921 -18915 0
0 0 0 833 846754 -18082 0
0 0 0 866 847620 -17216 1
0 0 0 861 848481 -16355 1
0 0 0 775 849256 -15580 0
0 0 0 795 850051 -14785 0
0 0 0 775 850826 -14010 0
0 0 0 770 851596 -13240 0
0 0 0 739 852335 -12501 0
0 0 0 699 853034 -11802 0
0 0 0 726 853760 -11076 0
0 0 0 747 854507 -10329 0
0 0 0 769 855276 -9560 0
0 0 0 726 856002 -8834 0
0 0 0 701 856703 -8133 0
0 0 0 743 857446 -7390 0
0 0 0 782 858228 -6608 0
0 0 0 806 859034 -5802 0
0 0 0 774 859808 -5028 0
0 0 0 740 860548 -4288 0
0 0 0 775 861323 -3513 0
0 0 0 805 862128 -2708 0
41 1 S102 799 862927 -1909 0
41 1 S102 754 863681 -1155 0
41 1 S102 794 864475 -361 0
41 2 S102 806 865281 445 0
41 2 S102 803 866084 1248 0
41 2 S102 730 866814 1978 0
41 2 S102 740 867554 2718 0
41 2 S102 745 868299 3463 0
41 2 S102 750 869049 4213 0
41 2 S102 709 869758 4922 0
41 2 S102 697 870455 5619 0
41 2 S102 735 871190 6354 0
0 0 0 777 871967 -8652 0
0 0 0 771 872738 -7881 0
0 0 0 696 873434 -7185 0
0 0 0 742 874176 -6443 0
0 0 0 752 874928 -5691 0
0 0 0 778 875706 -4913 0
0 0 0 709 876415 -4204 0
0 0 0 671 877086 -3533 0
0 0 0 648 877734 -2885 0
0 0 0 639 878373 -2246 0
42 1 S112 682 879055 -1564 0
42 1 S112 730 879785 -834 0
42 1 S112 804 880589 -30 0
42 2 S112 763 881352 733 0
42 2 S112 761 882113 1494 0
42 2 S112 797 882910 2291 0
42 2 S112 791 883701 3082 0
42 2 S112 733 884434 3815 0
42 2 S112 695 885129 4510 0
42 2 S112 756 885885 5266 0
42 2 S112 751 886636 6017 0
42 2 S112 739 887375 6756 0
0 0 0 711 888086 -9277 0
0 0 0 664 888750 -8613 0
0 0 0 710 889460 -7903 0
0 0 0 725 890185 -7178 0
0 0 0 729 890914 -6449 0
0 0 0 698 891612 -5751 0
0 0 0 719 892331 -5032 0
0 0 0 808 893139 -4224 0
0 0 0 814 893953 -3410 0
0 0 0 818 894771 -2592 0
43 1 S116 751 895522 -1841 0
43 1 S116 781 896303 -1060 0
43 1 S116 811 897114 -249 0
43 2 S116 813 897927 564 0
43 2 S116 807 898734 1371 0
43 2 S116 736 899470 2107 0
43 2 S116 803 900273 2910 0
43 2 S116 809 901082 3719 0
43 2 S116 817 901899 4536 0
43 2 S116 770 902669 5306 0
43 2 S116 768 903437 6074 0
43 2 S116 816 904253 6890 0
0 0 0 807 905060 -7257 0
0 0 0 737 905797 -6520 0
0 0 0 740 906537 -5780 0
0 0 0 782 907319 -4998 0
0 0 0 780 908099 -4218 0
0 0 0 729 908828 -3489 0
0 0 0 697 909525 -2792 0
0 0 0 777 910302 -2015 0
44 1 S102 782 911084 -1233 0
44 1 S102 801 911885 -432 0
44 2 S102 776 912661 344 0
44 2 S102 714 913375 1058 0
44 2 S102 775 914150 1833 0
44 2 S102 763 914913 2596 0
44 2 S102 769 915682 3365 0
44 2 S102 734 916416 4099 0
44 2 S102 689 917105 4788 0
44 2 S102 758 917863 5546 0
44 2 S102 775 918638 6321 0
0 0 0 784 919422 -9606 0
0 0 0 746 920168 -8860 0
0 0 0 759 920927 -8101 0
0 0 0 814 921741 -7287 0
0 0 0 809 922550 -6478 0
0 0 0 786 923336 -5692 0
0 0 0 724 924060 -4968 0
0 0 0 791 924851 -4177 0
0 0 0 773 925624 -3404 0
0 0 0 767 926391 -2637 0
45 1 S116 745 927136 -1892 0
45 1 S116 716 927852 -1176 0
45 1 S116 750 928602 -426 0
45 2 S116 794 929396 368 0
45 2 S116 818 930214 1186 0
45 2 S116 778 930992 1964 0
45 2 S116 791 931783 2755 0
45 2 S116 801 932584 3556 0
45 2 S116 807 933391 4363 0
45 2 S116 774 934165 5137 0
45 2 S116 778 934943 5915 0
45 2 S116 775 935718 6690 0
0 0 0 775 936493 -11832 0
0 0 0 735 937228 -11097 0
0 0 0 739 937967 -10358 0
0 0 0 744 938711 -9614 0
0 0 0 755 939466 -8859 0
0 0 0 734 940200 -8125 0
0 0 0 740 940940 -7385 0
0 0 0 752 941692 -6633 0
0 0 0 764 942456 -5869 0
0 0 0 743 943199 -5126 0
0 0 0 717 943916 -4409 0
0 0 0 737 944653 -3672 0
0 0 0 736 945389 -2936 0
0 0 0 764 946153 -2172 0
46 1 S102 762 946915 -1410 0
46 1 S102 744 947659 -666 0
46 2 S102 776 948435 110 0
46 2 S102 788 949223 898 0
46 2 S102 801 950024 1699 0
46 2 S102 783 950807 2482 0
46 2 S102 737 951544 3219 0
46 2 S102 763 952307 3982 0
46 2 S102 763 953070 4745 0
46 2 S102 763 953833 5508 0
46 2 S102 726 954559 6234 0
46 2 S102 746 955305 6980 0
0 0 0 767 956072 -9909 0
0 0 0 779 956851 -9130 0
0 0 0 777 957628 -8353 0
0 0 0 745 958373 -7608 0
0 0 0 781 959154 -6827 0
0 0 0 781 959935 -6046 0
0 0 0 769 960704 -5277 0
0 0 0 724 961428 -4553 0
0 0 0 751 962179 -3802 0
0 0 0 741 962920 -3061 0
0 0 0 738 963658 -2323 0
47 1 S112 718 964376 -1605 0
47 1 S112 678 965054 -927 0
47 1 S112 709 965763 -218 0
47 2 S112 732 966495 514 0
47 2 S112 757 967252 1271 0
47 2 S112 747 967999 2018 0
47 2 S112 721 968720 2739 0
47 2 S112 717 969437 3456 0
47 2 S112 716 970153 4172 0
47 2 S112 730 970883 4902 0
47 2 S112 695 971578 5597 0
47 2 S112 691 972269 6288 0
47 2 S112 705 972974 6993 0
0 0 0 726 973700 -11761 0
0 0 0 754 974454 -11007 0
0 0 0 682 975136 -10325 0
0 0 0 713 975849 -9612 0
0 0 0 736 976585 -8876 0
0 0 0 741 977326 -8135 0
0 0 0 775 978101 -7360 0
0 0 0 746 978847 -6614 0
0 0 0 702 979549 -5912 0
0 0 0 739 980288 -5173 0
0 0 0 744 981032 -4429 0
0 0 0 747 981779 -3682 0
0 0 0 753 982532 -2929 0
0 0 0 710 983242 -2219 0
48 1 S116 736 983978 -1483 0
48 1 S116 746 984724 -737 0
48 2 S116 774 985498 37 0
48 2 S116 801 986299 838 0
48 2 S116 759 987058 1597 0
48 2 S116 741 987799 2338 0
48 2 S116 764 988563 3102 0
48 2 S116 762 989325 3864 0
48 2 S116 775 990100 4639 0
48 2 S116 739 990839 5378 0
48 2 S116 719 991558 6097 0
48 2 S116 748 992306 6845 0
0 0 0 763 993069 -7246 0
0 0 0 777 993846 -6469 0
0 0 0 736 994582 -5733 0
0 0 0 754 995336 -4979 0
0 0 0 760 996096 -4219 0
0 0 0 770 996866 -3449 0
0 0 0 774 997640 -2675 0
49 1 S112 715 998355 -1960 0
49 1 S112 737 999092 -1223 0
49 1 S112 737 999829 -486 0
49 2 S112 747 1000576 261 0
49 2 S112 762 1001338 1023 0
49 2 S112 720 1002058 1743 0
49 2 S112 741 1002799 2484 0
49 2 S112 751 1003550 3235 0
49 2 S112 757 1004307 3992 0
49 2 S112 762 1005069 4754 0
49 2 S112 706 1005775 5460 0
49 2 S112 737 1006512 6197 0
49 2 S112 756 1007268 6953 0
0 0 0 777 1008045 -10672 0
0 0 0 773 1008818 -9899 0
0 0 0 724 1009542 -9175 0
0 0 0 704 1010246 -8471 0
0 0 0 742 1010988 -7729 0
0 0 0 758 1011746 -6971 0
0 0 0 770 1012516 -6201 0
0 0 0 774 1013290 -5427 0
0 0 0 727 1014017 -4700 0
0 0 0 741 1014758 -3959 0
0 0 0 757 1015515 -3202 0
0 0 0 773 1016288 -2429 0
50 1 S106 770 1017058 -1659 0
50 1 S106 747 1017805 -912 0
50 1 S106 738 1018543 -174 0
50 2 S106 767 1019310 593 0
50 2 S106 772 1020082 1365 0
50 2 S106 773 1020855 2138 0
50 2 S106 730 1021585 2868 0
50 2 S106 702 1022287 3570 0
50 2 S106 731 1023018 4301 0
50 2 S106 731 1023749 5032 0
50 2 S106 746 1024495 5778 0
50 2 S106 729 1025224 6507 0
0 0 0 738 1025962 -7576 0
0 0 0 774 1026736 -6802 0
0 0 0 792 1027528 -6010 0
0 0 0 770 1028298 -5240 0
0 0 0 730 1029028 -4510 0
0 0 0 747 1029775 -3763 0
0 0 0 753 1030528 -3010 0
0 0 0 738 1031266 -2272 0
51 1 S112 705 1031971 -1567 0
51 1 S112 674 1032645 -893 0
51 1 S112 702 1033347 -191 0
51 2 S112 724 1034071 533 0
51 2 S112 742 1034813 1275 0
51 2 S112 745 1035558 2020 0
51 2 S112 712 1036270 2732 0
51 2 S112 754 1037024 3486 0
51 2 S112 794 1037818 4280 0
51 2 S112 801 1038619 5081 0
51 2 S112 784 1039403 5865 0
51 2 S112 750 1040153 6615 0
0 0 0 740 1040893 -7499 0
0 0 0 738 1041631 -6761 0
0 0 0 728 1042359 -6033 0
0 0 0 704 1043063 -5329 0
0 0 0 695 1043758 -4634 0
0 0 0 725 1044483 -3909 0
0 0 0 743 1045226 -3166 0
0 0 0 771 1045997 -2395 0
52 1 S116 734 1046731 -1661 0
52 1 S116 730 1047461 -931 0
52 1 S116 766 1048227 -165 0
52 2 S116 791 1049018 626 0
52 2 S116 790 1049808 1416 0
52 2 S116 753 1050561 2169 0
52 2 S116 730 1051291 2899 0
52 2 S116 739 1052030 3638 0
52 2 S116 741 1052771 4379 0
52 2 S116 744 1053515 5123 0
52 2 S116 704 1054219 5827 0
52 2 S116 686 1054905 6513 0
0 0 0 719 1055624 -8866 0
0 0 0 730 1056354 -8136 0
0 0 0 727 1057081 -7409 0
0 0 0 693 1057774 -6716 0
0 0 0 729 1058503 -5987 0
0 0 0 743 1059246 -5244 0
0 0 0 771 1060017 -4473 0
0 0 0 754 1060771 -3719 0
0 0 0 688 1061459 -3031 0
0 0 0 648 1062107 -2383 0
53 1 S106 673 1062780 -1710 0
53 1 S106 687 1063467 -1023 0
53 1 S106 743 1064210 -280 0
53 2 S106 814 1065024 534 0
53 2 S106 813 1065837 1347 0
53 2 S106 799 1066636 2146 0
53 2 S106 785 1067421 2931 0
53 2 S106 726 1068147 3657 0
53 2 S106 755 1068902 4412 0
53 2 S106 751 1069653 5163 0
53 2 S106 737 1070390 5900 0
53 2 S106 723 1071113 6623 0
0 0 0 686 1071799 -7413 0
0 0 0 714 1072513 -6699 0
0 0 0 714 1073227 -5985 0
0 0 0 754 1073981 -5231 0
0 0 0 767 1074748 -4464 0
0 0 0 731 1075479 -3733 0
0 0 0 757 1076236 -2976 0
0 0 0 772 1077008 -2204 0
54 1 S102 774 1077782 -1430 0
54 1 S102 757 1078539 -673 0
54 2 S102 767 1079306 94 0
54 2 S102 783 1080089 877 0
54 2 S102 784 1080873 1661 0
54 2 S102 784 1081657 2445 0
54 2 S102 730 1082387 3175 0
54 2 S102 751 1083138 3926 0
54 2 S102 750 1083888 4676 0
54 2 S102 750 1084638 5426 0
54 2 S102 725 1085363 6151 0
54 2 S102 696 1086059 6847 0
0 0 0 756 1086815 -12175 0
0 0 0 785 1087600 -11390 0
0 0 0 804 1088404 -10586 0
0 0 0 746 1089150 -9840 0
0 0 0 776 1089926 -9064 0
0 0 0 772 1090698 -8292 0
0 0 0 782 1091480 -7510 0
0 0 0 725 1092205 -6785 0
0 0 0 760 1092965 -6025 0
0 0 0 756 1093721 -5269 0
0 0 0 752 1094473 -4517 0
0 0 0 735 1095208 -3782 0
0 0 0 702 1095910 -3080 0
0 0 0 722 1096632 -2358 0
55 1 S106 711 1097343 -1647 0
55 1 S106 735 1098078 -912 0
55 1 S106 732 1098810 -180 0
55 2 S106 722 1099532 542 0
55 2 S106 758 1100290 1300 0
55 2 S106 801 1101091 2101 0
55 2 S106 813 1101904 2914 0
55 2 S106 761 1102665 3675 0
55 2 S106 779 1103444 4454 0
55 2 S106 785 1104229 5239 0
55 2 S106 775 1105004 6014 0
55 2 S106 741 1105745 6755 0
0 0 0 715 1106460 -7865 0
0 0 0 737 1107197 -7128 0
0 0 0 745 1107942 -6383 0
0 0 0 750 1108692 -5633 0
0 0 0 705 1109397 -4928 0
0 0 0 764 1110161 -4164 0
0 0 0 787 1110948 -3377 0
0 0 0 783 1111731 -2594 0
56 1 S116 742 1112473 -1852 0
56 1 S116 759 1113232 -1093 0
56 1 S116 762 1113994 -331 0
56 2 S116 765 1114759 434 0
56 2 S116 730 1115489 1164 0
56 2 S116 723 1116212 1887 0
56 2 S116 747 1116959 2634 0
56 2 S116 754 1117713 3388 0
56 2 S116 778 1118491 4166 0
56 2 S116 720 1119211 4886 0
56 2 S116 728 1119939 5614 0
56 2 S116 679 1120618 6293 0
56 2 S116 646 1121264 6939 0
0 0 0 650 1121914 -6585 0
0 0 0 691 1122605 -5894 0
0 0 0 665 1123270 -5229 0
0 0 0 732 1124002 -4497 0
0 0 0 765 1124767 -3732 0
0 0 0 775 1125542 -2957 0
0 0 0 769 1126311 -2188 0
57 1 S106 713 1127024 -1475 0
57 1 S106 741 1127765 -734 0
57 2 S106 750 1128515 16 0
57 2 S106 762 1129277 778 0
57 2 S106 754 1130031 1532 0
57 2 S106 693 1130724 2225 0
57 2 S106 723 1131447 2948 0
57 2 S106 719 1132166 3667 0
57 2 S106 748 1132914 4415 0
57 2 S106 755 1133669 5170 0
57 2 S106 716 1134385 5886 0
57 2 S106 782 1135167 6668 0
0 0 0 813 1135980 -8998 0
0 0 0 823 1136803 -8175 0
0 0 0 767 1137570 -7408 0
0 0 0 789 1138359 -6619 0
0 0 0 795 1139154 -5824 0
0 0 0 789 1139943 -5035 0
0 0 0 743 1140686 -4292 0
0 0 0 764 1141450 -3528 0
0 0 0 764 1142214 -2764 0
58 1 S102 770 1142984 -1994 0
58 1 S102 767 1143751 -1227 0
58 1 S102 713 1144464 -514 0
58 2 S102 735 1145199 221 0
58 2 S102 715 1145914 936 0
58 2 S102 712 1146626 1648 0
58 2 S102 666 1147292 2314 0
58 2 S102 722 1148014 3036 0
58 2 S102 767 1148781 3803 0
58 2 S102 818 1149599 4621 0
58 2 S102 749 1150348 5370 0
58 2 S102 778 1151126 6148 0
58 2 S102 774 1151900 6922 0
0 0 0 757 1152657 -7739 0
0 0 0 713 1153370 -7026 0
0 0 0 733 1154103 -6293 0
0 0 0 756 1154859 -5537 0
0 0 0 744 1155603 -4793 0
0 0 0 699 1156302 -4094 0
0 0 0 667 1156969 -3427 0
0 0 0 696 1157665 -2731 0
0 0 0 704 1158369 -2027 0
59 1 S112 747 1159116 -1280 0
59 1 S112 769 1159885 -511 0
59 2 S112 726 1160611 215 0
59 2 S112 758 1161369 973 0
59 2 S112 761 1162130 1734 0
59 2 S112 771 1162901 2505 0
59 2 S112 762 1163663 3267 0
59 2 S112 715 1164378 3982 0
59 2 S112 769 1165147 4751 0
59 2 S112 780 1165927 5531 0
59 2 S112 783 1166710 6314 0
0 0 0 742 1167452 -9439 0
0 0 0 700 1168152 -8739 0
0 0 0 774 1168926 -7965 0
0 0 0 776 1169702 -7189 0
0 0 0 766 1170468 -6423 0
0 0 0 713 1171181 -5710 0
0 0 0 745 1171926 -4965 0
0 0 0 732 1172658 -4233 0
0 0 0 757 1173415 -3476 0
0 0 0 762 1174177 -2714 0
0 0 0 705 1174882 -2009 0
60 1 S102 748 1175630 -1261 0
60 1 S102 786 1176416 -475 0
60 2 S102 803 1177219 328 0
60 2 S102 805 1178024 1133 0
60 2 S102 761 1178785 1894 0
60 2 S102 781 1179566 2675 0
60 2 S102 791 1180357 3466 0
60 2 S102 782 1181139 4248 0
60 2 S102 773 1181912 5021 0
60 2 S102 719 1182631 5740 0
60 2 S102 721 1183352 6461 0
0 0 0 736 1184088 -11769 0
0 0 0 761 1184849 -11008 0
0 0 0 776 1185625 -10232 0
0 0 0 736 1186361 -9496 0
0 0 0 794 1187155 -8702 0
0 0 0 809 1187964 -7893 0
0 0 0 808 1188772 -7085 0
0 0 0 773 1189545 -6312 0
0 0 0 790 1190335 -5522 0
0 0 0 795 1191130 -4727 0
0 0 0 797 1191927 -3930 0
0 0 0 785 1192712 -3145 0
0 0 0 744 1193456 -2401 0
61 1 S106 769 1194225 -1632 0
61 1 S106 772 1194997 -860 0
61 1 S106 795 1195792 -65 0
61 2 S106 781 1196573 716 0
61 2 S106 804 1197377 1520 0
61 2 S106 837 1198214 2357 0
61 2 S106 857 1199071 3214 1
61 2 S106 809 1199880 4023 0
61 2 S106 825 1200705 4848 0
61 2 S106 823 1201528 5671 0
61 2 S106 825 1202353 6496 0
0 0 0 788 1203141 -6343 0
0 0 0 733 1203874 -5610 0
0 0 0 776 1204650 -4834 0
0 0 0 783 1205433 -4051 0
0 0 0 767 1206200 -3284 0
0 0 0 698 1206898 -2586 0
62 1 S112 710 1207608 -1876 0
62 1 S112 707 1208315 -1169 0
62 1 S112 679 1208994 -490 0
62 2 S112 672 1209666 182 0
62 2 S112 667 1210333 849 0
62 2 S112 640 1210973 1489 0
62 2 S112 707 1211680 2196 0
62 2 S112 728 1212408 2924 0
62 2 S112 737 1213145 3661 0
62 2 S112 737 1213882 4398 0
62 2 S112 676 1214558 5074 0
62 2 S112 713 1215271 5787 0
62 2 S112 717 1215988 6504 0
0 0 0 713 1216701 -11683 0
0 0 0 693 1217394 -10990 0
0 0 0 644 1218038 -10346 0
0 0 0 695 1218733 -9651 0
0 0 0 701 1219434 -8950 0
0 0 0 700 1220134 -8250 0
0 0 0 690 1220824 -7560 0
0 0 0 664 1221488 -6896 0
0 0 0 719 1222207 -6177 0
0 0 0 768 1222975 -5409 0
0 0 0 830 1223805 -4579 0
0 0 0 854 1224659 -3725 1
0 0 0 779 1225438 -2946 0
0 0 0 774 1226212 -2172 0
63 1 S102 819 1227031 -1353 0
63 1 S102 816 1227847 -537 0
63 2 S102 802 1228649 265 0
63 2 S102 745 1229394 1010 0
63 2 S102 741 1230135 1751 0
63 2 S102 768 1230903 2519 0
63 2 S102 771 1231674 3290 0
63 2 S102 777 1232451 4067 0
63 2 S102 703 1233154 4770 0
63 2 S102 742 1233896 5512 0
63 2 S102 782 1234678 6294 0
0 0 0 813 1235491 -8294 0
0 0 0 756 1236247 -7538 0
0 0 0 721 1236968 -6817 0
0 0 0 781 1237749 -6036 0
0 0 0 789 1238538 -5247 0
0 0 0 800 1239338 -4447 0
0 0 0 765 1240103 -3682 0
0 0 0 722 1240825 -2960 0
0 0 0 782 1241607 -2178 0
64 1 S112 782 1242389 -1396 0
64 1 S112 811 1243200 -585 0
64 2 S112 802 1244002 217 0
64 2 S112 742 1244744 959 0
64 2 S112 768 1245512 1727 0
64 2 S112 786 1246298 2513 0
64 2 S112 804 1247102 3317 0
64 2 S112 799 1247901 4116 0
64 2 S112 728 1248629 4844 0
64 2 S112 777 1249406 5621 0
64 2 S112 795 1250201 6416 0
0 0 0 803 1251004 -7602 0
0 0 0 771 1251775 -6831 0
0 0 0 710 1252485 -6121 0
0 0 0 783 1253268 -5338 0
0 0 0 797 1254065 -4541 0
0 0 0 794 1254859 -3747 0
0 0 0 738 1255597 -3009 0
0 0 0 702 1256299 -2307 0
65 1 S106 759 1257058 -1548 0
65 1 S106 760 1257818 -788 0
65 1 S106 771 1258589 -17 0
65 2 S106 743 1259332 726 0
65 2 S106 699 1260031 1425 0
65 2 S106 770 1260801 2195 0
65 2 S106 779 1261580 2974 0
65 2 S106 791 1262371 3765 0
65 2 S106 751 1263122 4516 0
65 2 S106 704 1263826 5220 0
65 2 S106 758 1264584 5978 0
65 2 S106 747 1265331 6725 0
0 0 0 800 1266131 -6650 0
0 0 0 771 1266902 -5879 0
0 0 0 714 1267616 -5165 0
0 0 0 738 1268354 -4427 0
0 0 0 731 1269085 -3696 0
0 0 0 732 1269817 -2964 0
0 0 0 724 1270541 -2240 0
66 1 S116 687 1271228 -1553 0
66 1 S116 712 1271940 -841 0
66 1 S116 720 1272660 -121 0
66 2 S116 745 1273405 624 0
66 2 S116 735 1274140 1359 0
66 2 S116 708 1274848 2067 0
66 2 S116 767 1275615 2834 0
66 2 S116 792 1276407 3626 0
66 2 S116 825 1277232 4451 0
66 2 S116 807 1278039 5258 0
66 2 S116 761 1278800 6019 0
66 2 S116 763 1279563 6782 0
0 0 0 782 1280345 -11368 0
0 0 0 765 1281110 -10603 0
0 0 0 713 1281823 -9890 0
0 0 0 683 1282506 -9207 0
0 0 0 716 1283222 -8491 0
0 0 0 716 1283938 -7775 0
0 0 0 734 1284672 -7041 0
0 0 0 702 1285374 -6339 0
0 0 0 687 1286061 -5652 0
0 0 0 740 1286801 -4912 0
0 0 0 805 1287606 -4107 0
0 0 0 822 1288428 -3285 0
0 0 0 804 1289232 -2481 0
67 1 S102 759 1289991 -1722 0
67 1 S102 768 1290759 -954 0
67 1 S102 788 1291547 -166 0
67 2 S102 776 1292323 610 0
67 2 S102 761 1293084 1371 0
67 2 S102 705 1293789 2076 0
67 2 S102 743 1294532 2819 0
67 2 S102 784 1295316 3603 0
67 2 S102 800 1296116 4403 0
67 2 S102 787 1296903 5190 0
67 2 S102 736 1297639 5926 0
67 2 S102 767 1298406 6693 0
0 0 0 784 1299190 -7676 0
0 0 0 806 1299996 -6870 0
0 0 0 787 1300783 -6083 0
0 0 0 758 1301541 -5325 0
0 0 0 775 1302316 -4550 0
0 0 0 778 1303094 -3772 0
0 0 0 785 1303879 -2987 0
0 0 0 739 1304618 -2248 0
68 1 S106 720 1305338 -1528 0
68 1 S106 735 1306073 -793 0
68 1 S106 758 1306831 -35 0
68 2 S106 798 1307629 763 0
68 2 S106 766 1308395 1529 0
68 2 S106 755 1309150 2284 0
68 2 S106 781 1309931 3065 0
68 2 S106 797 1310728 3862 0
68 2 S106 800 1311528 4662 0
68 2 S106 755 1312283 5417 0
68 2 S106 766 1313049 6183 0
68 2 S106 757 1313806 6940 0
0 0 0 752 1314558 -10611 0
0 0 0 699 1315257 -9912 0
0 0 0 719 1315976 -9193 0
0 0 0 712 1316688 -8481 0
0 0 0 728 1317416 -7753 0
0 0 0 727 1318143 -7026 0
0 0 0 680 1318823 -6346 0
0 0 0 720 1319543 -5626 0
0 0 0 738 1320281 -4888 0
0 0 0 775 1321056 -4113 0
0 0 0 783 1321839 -3330 0
0 0 0 733 1322572 -2597 0
69 1 S102 755 1323327 -1842 0
69 1 S102 771 1324098 -1071 0
69 1 S102 773 1324871 -298 0
69 2 S102 748 1325619 450 0
69 2 S102 756 1326375 1206 0
69 2 S102 777 1327152 1983 0
69 2 S102 781 1327933 2764 0
69 2 S102 777 1328710 3541 0
69 2 S102 733 1329443 4274 0
69 2 S102 751 1330194 5025 0
69 2 S102 763 1330957 5788 0
69 2 S102 767 1331724 6555 0
0 0 0 736 1332460 -9204 0
0 0 0 676 1333136 -8528 0
0 0 0 744 1333880 -7784 0
0 0 0 753 1334633 -7031 0
0 0 0 757 1335390 -6274 0
0 0 0 704 1336094 -5570 0
0 0 0 708 1336802 -4862 0
0 0 0 756 1337558 -4106 0
0 0 0 754 1338312 -3352 0
0 0 0 725 1339037 -2627 0
70 1 S112 677 1339714 -1950 0
70 1 S112 719 1340433 -1231 0
70 1 S112 736 1341169 -495 0
70 2 S112 764 1341933 269 0
70 2 S112 773 1342706 1042 0
70 2 S112 735 1343441 1777 0
70 2 S112 763 1344204 2540 0
70 2 S112 759 1344963 3299 0
70 2 S112 773 1345736 4072 0
70 2 S112 752 1346488 4824 0
70 2 S112 714 1347202 5538 0
70 2 S112 749 1347951 6287 0
0 0 0 762 1348713 -12165 0
0 0 0 783 1349496 -11382 0
0 0 0 744 1350240 -10638 0
0 0 0 739 1350979 -9899 0
0 0 0 762 1351741 -9137 0
0 0 0 764 1352505 -8373 0
0 0 0 747 1353252 -7626 0
0 0 0 704 1353956 -6922 0
0 0 0 639 1354595 -6283 0
0 0 0 648 1355243 -5635 0
0 0 0 670 1355913 -4965 0
0 0 0 690 1356603 -4275 0
0 0 0 695 1357298 -3580 0
0 0 0 657 1357955 -2923 0
0 0 0 690 1358645 -2233 0
71 1 S116 741 1359386 -1492 0
71 1 S116 734 1360120 -758 0
71 1 S116 693 1360813 -65 0
71 2 S116 732 1361545 667 0
71 2 S116 748 1362293 1415 0
71 2 S116 759 1363052 2174 0
71 2 S116 757 1363809 2931 0
71 2 S116 711 1364520 3642 0
71 2 S116 713 1365233 4355 0
71 2 S116 722 1365955 5077 0
71 2 S116 717 1366672 5794 0
71 2 S116 752 1367424 6546 0
0 0 0 726 1368150 -9290 0
0 0 0 726 1368876 -8564 0
0 0 0 733 1369609 -7831 0
0 0 0 754 1370363 -7077 0
0 0 0 711 1371074 -6366 0
0 0 0 711 1371785 -5655 0
0 0 0 737 1372522 -4918 0
0 0 0 782 1373304 -4136 0
0 0 0 787 1374091 -3349 0
0 0 0 748 1374839 -2601 0
72 1 S102 733 1375572 -1868 0
72 1 S102 750 1376322 -1118 0
72 1 S102 746 1377068 -372 0
72 2 S102 767 1377835 395 0
72 2 S102 721 1378556 1116 0
72 2 S102 760 1379316 1876 0
72 2 S102 773 1380089 2649 0
72 2 S102 785 1380874 3434 0
72 2 S102 787 1381661 4221 0
72 2 S102 738 1382399 4959 0
72 2 S102 754 1383153 5713 0
72 2 S102 775 1383928 6488 0
0 0 0 777 1384705 -8335 0
0 0 0 762 1385467 -7573 0
0 0 0 703 1386170 -6870 0
0 0 0 735 1386905 -6135 0
0 0 0 747 1387652 -5388 0
0 0 0 775 1388427 -4613 0
0 0 0 712 1389139 -3901 0
0 0 0 720 1389859 -3181 0
0 0 0 718 1390577 -2463 0
73 1 S116 711 1391288 -1752 0
73 1 S116 670 1391958 -1082 0
73 1 S116 655 1392613 -427 0
73 2 S116 695 1393308 268 0
73 2 S116 717 1394025 985 0
73 2 S116 744 1394769 1729 0
73 2 S116 686 1395455 2415 0
73 2 S116 726 1396181 3141 0
73 2 S116 753 1396934 3894 0
73 2 S116 781 1397715 4675 0
73 2 S116 751 1398466 5426 0
73 2 S116 754 1399220 6180 0
73 2 S116 771 1399991 6951 0
0 0 0 760 1400751 -9879 0
0 0 0 736 1401487 -9143 0
0 0 0 685 1402172 -8458 0
0 0 0 713 1402885 -7745 0
0 0 0 712 1403597 -7033 0
0 0 0 708 1404305 -6325 0
0 0 0 677 1404982 -5648 0
0 0 0 726 1405708 -4922 0
0 0 0 760 1406468 -4162 0
0 0 0 791 1407259 -3371 0
0 0 0 783 1408042 -2588 0
74 1 S106 716 1408758 -1872 0
74 1 S106 789 1409547 -1083 0
74 1 S106 792 1410339 -291 0
74 2 S106 790 1411129 499 0
74 2 S106 745 1411874 1244 0
74 2 S106 723 1412597 1967 0
74 2 S106 745 1413342 2712 0
74 2 S106 740 1414082 3452 0
74 2 S106 746 1414828 4198 0
74 2 S106 697 1415525 4895 0
74 2 S106 739 1416264 5634 0
74 2 S106 762 1417026 6396 0
0 0 0 784 1417810 -6829 0
0 0 0 750 1418560 -6079 0
0 0 0 720 1419280 -5359 0
0 0 0 784 1420064 -4575 0
0 0 0 790 1420854 -3785 0
0 0 0 799 1421653 -2986 0
0 0 0 747 1422400 -2239 0
75 1 S112 714 1423114 -1525 0
75 1 S112 763 1423877 -762 0
75 1 S112 761 1424638 -1 0
75 2 S112 731 1425369 730 0
75 2 S112 688 1426057 1418 0
75 2 S112 709 1426766 2127 0
75 2 S112 722 1427488 2849 0
75 2 S112 773 1428261 3622 0
75 2 S112 789 1429050 4411 0
75 2 S112 715 1429765 5126 0
75 2 S112 764 1430529 5890 0
75 2 S112 785 1431314 6675 0
0 0 0 798 1432112 -7729 0
0 0 0 766 1432878 -6963 0
0 0 0 724 1433602 -6239 0
0 0 0 747 1434349 -5492 0
0 0 0 758 1435107 -4734 0
0 0 0 736 1435843 -3998 0
0 0 0 656 1436499 -3342 0
0 0 0 670 1437169 -2672 0
76 1 S116 673 1437842 -1999 0
76 1 S116 695 1438537 -1304 0
76 1 S116 691 1439228 -613 0
76 2 S116 654 1439882 41 0
76 2 S116 666 1440548 707 0
76 2 S116 725 1441273 1432 0
76 2 S116 821 1442094 2253 0
76 2 S116 855 1442949 3108 1
76 2 S116 826 1443775 3934 0
76 2 S116 749 1444524 4683 0
76 2 S116 739 1445263 5422 0
76 2 S116 685 1445948 6107 0
76 2 S116 672 1446620 6779 0
0 0 0 695 1447315 -6717 0
0 0 0 673 1447988 -6044 0
0 0 0 647 1448635 -5397 0
0 0 0 678 1449313 -4719 0
0 0 0 710 1450023 -4009 0
0 0 0 728 1450751 -3281 0
0 0 0 728 1451479 -2553 0
77 1 S106 673 1452152 -1880 0
77 1 S106 697 1452849 -1183 0
77 1 S106 714 1453563 -469 0
77 2 S106 771 1454334 302 0
77 2 S106 788 1455122 1090 0
77 2 S106 759 1455881 1849 0
77 2 S106 739 1456620 2588 0
77 2 S106 771 1457391 3359 0
77 2 S106 801 1458192 4160 0
77 2 S106 824 1459016 4984 0
77 2 S106 766 1459782 5750 0
77 2 S106 799 1460581 6549 0
0 0 0 805 1461386 -9672 0
0 0 0 788 1462174 -8884 0
0 0 0 740 1462914 -8144 0
0 0 0 762 1463676 -7382 0
0 0 0 760 1464436 -6622 0
0 0 0 748 1465184 -5874 0
0 0 0 710 1465894 -5164 0
0 0 0 729 1466623 -4435 0
0 0 0 724 1467347 -3711 0
0 0 0 747 1468094 -2964 0
0 0 0 745 1468839 -2219 0
78 1 S112 699 1469538 -1520 0
78 1 S112 734 1470272 -786 0
78 1 S112 754 1471026 -32 0
78 2 S112 771 1471797 739 0
78 2 S112 773 1472570 1512 0
78 2 S112 709 1473279 2221 0
78 2 S112 743 1474022 2964 0
78 2 S112 731 1474753 3695 0
78 2 S112 752 1475505 4447 0
78 2 S112 766 1476271 5213 0
78 2 S112 704 1476975 5917 0
78 2 S112 712 1477687 6629 0
0 0 0 744 1478431 -11543 0
0 0 0 772 1479203 -10771 0
0 0 0 749 1479952 -10022 0
0 0 0 694 1480646 -9328 0
0 0 0 736 1481382 -8592 0
0 0 0 745 1482127 -7847 0
0 0 0 744 1482871 -7103 0
0 0 0 691 1483562 -6412 0
0 0 0 711 1484273 -5701 0
0 0 0 709 1484982 -4992 0
0 0 0 741 1485723 -4251 0
0 0 0 746 1486469 -3505 0
0 0 0 704 1487173 -2801 0
0 0 0 770 1487943 -2031 0
79 1 S102 786 1488729 -1245 0
79 1 S102 806 1489535 -439 0
79 2 S102 787 1490322 348 0
79 2 S102 738 1491060 1086 0
79 2 S102 759 1491819 1845 0
79 2 S102 770 1492589 2615 0
79 2 S102 760 1493349 3375 0
79 2 S102 744 1494093 4119 0
79 2 S102 703 1494796 4822 0
79 2 S102 728 1495524 5550 0
79 2 S102 730 1496254 6280 0
79 2 S102 744 1496998 7024 0
0 0 0 740 1497738 -9544 0
0 0 0 690 1498428 -8854 0
0 0 0 732 1499160 -8122 0
0 0 0 747 1499907 -7375 0
0 0 0 765 1500672 -6610 0
0 0 0 754 1501426 -5856 0
0 0 0 703 1502129 -5153 0
0 0 0 693 1502822 -4460 0
0 0 0 706 1503528 -3754 0
0 0 0 730 1504258 -3024 0
0 0 0 753 1505011 -2271 0
80 1 S116 703 1505714 -1568 0
80 1 S116 678 1506392 -890 0
80 1 S116 719 1507111 -171 0
80 2 S116 741 1507852 570 0
80 2 S116 784 1508636 1354 0
80 2 S116 749 1509385 2103 0
80 2 S116 711 1510096 2814 0
80 2 S116 744 1510840 3558 0
80 2 S116 742 1511582 4300 0
80 2 S116 753 1512335 5053 0
80 2 S116 706 1513041 5759 0
80 2 S116 674 1513715 6433 0
