T_0166
BeatCount Mean SD BeatCountNoOutliers MeanNoOutliers SDNoOutliers
1847 800,574986464537 66,6188011081809 1814 800,5 61,7216216327911

Trial TrialStatus Trialtype IBI AbsPosition RelPosition Outlier
0 0 0 847 860 -14744 0
0 0 0 887 1747 -13857 0
0 0 0 916 2663 -12941 0
0 0 0 932 3595 -12009 0
0 0 0 872 4467 -11137 0
0 0 0 871 5338 -10266 0
0 0 0 878 6216 -9388 0
0 0 0 850 7066 -8538 0
0 0 0 904 7970 -7634 0
0 0 0 891 8861 -6743 0
0 0 0 896 9757 -5847 0
0 0 0 956 10713 -4891 0
0 0 0 935 11648 -3956 0
0 0 0 927 12575 -3029 0
0 0 0 952 13527 -2077 0
1 1 S112 919 14446 -1158 0
1 1 S112 914 15360 -244 0
1 2 S112 1011 16371 767 1
1 2 S112 991 17362 1758 1
1 2 S112 931 18293 2689 0
1 2 S112 881 19174 3570 0
1 2 S112 924 20098 4494 0
1 2 S112 922 21020 5416 0
1 2 S112 878 21898 6294 0
0 0 0 924 22822 -11018 0
0 0 0 950 23772 -10068 0
0 0 0 877 24649 -9191 0
0 0 0 862 25511 -8329 0
0 0 0 869 26380 -7460 0
0 0 0 847 27227 -6613 0
0 0 0 879 28106 -5734 0
0 0 0 894 29000 -4840 0
0 0 0 873 29873 -3967 0
0 0 0 927 30800 -3040 0
0 0 0 912 31712 -2128 0
2 1 S102 863 32575 -1265 0
2 1 S102 872 33447 -393 0
2 2 S102 880 34327 487 0
2 2 S102 838 35165 1325 0
2 2 S102 865 36030 2190 0
2 2 S102 875 36905 3065 0
2 2 S102 853 37758 3918 0
2 2 S102 848 38606 4766 0
2 2 S102 804 39410 5570 0
2 2 S102 762 40172 6332 0
0 0 0 793 40965 -9620 0
0 0 0 885 41850 -8735 0
0 0 0 1000 42850 -7735 1
0 0 0 902 43752 -6833 0
0 0 0 865 44617 -5968 0
0 0 0 808 45425 -5160 0
0 0 0 756 46181 -4404 0
0 0 0 754 46935 -3650 0
0 0 0 751 47686 -2899 0
0 0 0 728 48414 -2171 0
3 1 S116 734 49148 -1437 0
3 1 S116 756 49904 -681 0
3 2 S116 809 50713 128 0
3 2 S116 802 51515 930 0
3 2 S116 845 52360 1775 0
3 2 S116 877 53237 2652 0
3 2 S116 874 54111 3526 0
3 2 S116 842 54953 4368 0
3 2 S116 883 55836 5251 0
3 2 S116 918 56754 6169 0
3 2 S116 853 57607 7022 0
0 0 0 896 58503 -10417 0
0 0 0 896 59399 -9521 0
0 0 0 878 60277 -8643 0
0 0 0 873 61150 -7770 0
0 0 0 859 62009 -6911 0
0 0 0 846 62855 -6065 0
0 0 0 815 63670 -5250 0
0 0 0 746 64416 -4504 0
0 0 0 716 65132 -3788 0
0 0 0 755 65887 -3033 0
0 0 0 743 66630 -2290 0
4 1 S106 783 67413 -1507 0
4 1 S106 790 68203 -717 0
4 2 S106 813 69016 96 0
4 2 S106 789 69805 885 0
4 2 S106 800 70605 1685 0
4 2 S106 819 71424 2504 0
4 2 S106 787 72211 3291 0
4 2 S106 801 73012 4092 0
4 2 S106 824 73836 4916 0
4 2 S106 815 74651 5731 0
4 2 S106 797 75448 6528 0
0 0 0 897 76345 -6700 0
0 0 0 917 77262 -5783 0
0 0 0 922 78184 -4861 0
0 0 0 910 79094 -3951 0
0 0 0 843 79937 -3108 0
0 0 0 916 80853 -2192 0
5 1 S116 932 81785 -1260 0
5 1 S116 862 82647 -398 0
5 2 S116 869 83516 471 0
5 2 S116 897 84413 1368 0
5 2 S116 910 85323 2278 0
5 2 S116 876 86199 3154 0
5 2 S116 908 87107 4062 0
5 2 S116 896 88003 4958 0
5 2 S116 857 88860 5815 0
5 2 S116 896 89756 6711 0
0 0 0 914 90670 -7876 0
0 0 0 849 91519 -7027 0
0 0 0 883 92402 -6144 0
0 0 0 893 93295 -5251 0
0 0 0 854 94149 -4397 0
0 0 0 887 95036 -3510 0
0 0 0 1010 96046 -2500 1
6 1 S106 942 96988 -1558 0
6 1 S106 953 97941 -605 0
6 2 S106 987 98928 382 1
6 2 S106 932 99860 1314 0
6 2 S106 891 100751 2205 0
6 2 S106 925 101676 3130 0
6 2 S106 951 102627 4081 0
6 2 S106 887 103514 4968 0
6 2 S106 949 104463 5917 0
6 2 S106 938 105401 6855 0
0 0 0 960 106361 -9775 0
0 0 0 988 107349 -8787 1
0 0 0 906 108255 -7881 0
0 0 0 882 109137 -6999 0
0 0 0 922 110059 -6077 0
0 0 0 912 110971 -5165 0
0 0 0 884 111855 -4281 0
0 0 0 918 112773 -3363 0
0 0 0 997 113770 -2366 1
7 1 S102 893 114663 -1473 0
7 1 S102 904 115567 -569 0
7 2 S102 965 116532 396 0
7 2 S102 988 117520 1384 1
7 2 S102 940 118460 2324 0
7 2 S102 953 119413 3277 0
7 2 S102 937 120350 4214 0
7 2 S102 884 121234 5098 0
7 2 S102 930 122164 6028 0
7 2 S102 953 123117 6981 0
0 0 0 896 124013 -8452 0
0 0 0 900 124913 -7552 0
0 0 0 921 125834 -6631 0
0 0 0 853 126687 -5778 0
0 0 0 896 127583 -4882 0
0 0 0 911 128494 -3971 0
0 0 0 856 129350 -3115 0
0 0 0 874 130224 -2241 0
8 1 S112 963 131187 -1278 0
8 1 S112 909 132096 -369 0
8 2 S112 891 132987 522 0
8 2 S112 910 133897 1432 0
8 2 S112 900 134797 2332 0
8 2 S112 853 135650 3185 0
8 2 S112 871 136521 4056 0
8 2 S112 867 137388 4923 0
8 2 S112 835 138223 5758 0
8 2 S112 861 139084 6619 0
0 0 0 900 139984 -6706 0
0 0 0 868 140852 -5838 0
0 0 0 877 141729 -4961 0
0 0 0 854 142583 -4107 0
0 0 0 812 143395 -3295 0
0 0 0 850 144245 -2445 0
9 1 S116 895 145140 -1550 0
9 1 S116 837 145977 -713 0
9 2 S116 803 146780 90 0
9 2 S116 832 147612 922 0
9 2 S116 895 148507 1817 0
9 2 S116 837 149344 2654 0
9 2 S116 870 150214 3524 0
9 2 S116 867 151081 4391 0
9 2 S116 826 151907 5217 0
9 2 S116 850 152757 6067 0
9 2 S116 881 153638 6948 0
0 0 0 848 154486 -9926 0
0 0 0 869 155355 -9057 0
0 0 0 859 156214 -8198 0
0 0 0 800 157014 -7398 0
0 0 0 803 157817 -6595 0
0 0 0 785 158602 -5810 0
0 0 0 736 159338 -5074 0
0 0 0 717 160055 -4357 0
0 0 0 752 160807 -3605 0
0 0 0 808 161615 -2797 0
10 1 S102 835 162450 -1962 0
10 1 S102 825 163275 -1137 0
10 1 S102 817 164092 -320 0
10 2 S102 865 164957 545 0
10 2 S102 881 165838 1426 0
10 2 S102 797 166635 2223 0
10 2 S102 779 167414 3002 0
10 2 S102 795 168209 3797 0
10 2 S102 829 169038 4626 0
10 2 S102 813 169851 5439 0
10 2 S102 872 170723 6311 0
0 0 0 938 171661 -11418 0
0 0 0 929 172590 -10489 0
0 0 0 933 173523 -9556 0
0 0 0 949 174472 -8607 0
0 0 0 887 175359 -7720 0
0 0 0 879 176238 -6841 0
0 0 0 938 177176 -5903 0
0 0 0 920 178096 -4983 0
0 0 0 897 178993 -4086 0
0 0 0 1014 180007 -3072 1
0 0 0 983 180990 -2089 1
11 1 S112 933 181923 -1156 0
11 1 S112 970 182893 -186 0
11 2 S112 1025 183918 839 1
11 2 S112 923 184841 1762 0
11 2 S112 892 185733 2654 0
11 2 S112 909 186642 3563 0
11 2 S112 868 187510 4431 0
11 2 S112 845 188355 5276 0
11 2 S112 897 189252 6173 0
0 0 0 905 190157 -7445 0
0 0 0 874 191031 -6571 0
0 0 0 949 191980 -5622 0
0 0 0 913 192893 -4709 0
0 0 0 858 193751 -3851 0
0 0 0 879 194630 -2972 0
0 0 0 916 195546 -2056 0
12 1 S116 833 196379 -1223 0
12 1 S116 873 197252 -350 0
12 2 S116 876 198128 526 0
12 2 S116 846 198974 1372 0
12 2 S116 905 199879 2277 0
12 2 S116 925 200804 3202 0
12 2 S116 870 201674 4072 0
12 2 S116 855 202529 4927 0
12 2 S116 874 203403 5801 0
12 2 S116 835 204238 6636 0
0 0 0 839 205077 -10828 0
0 0 0 876 205953 -9952 0
0 0 0 854 206807 -9098 0
0 0 0 825 207632 -8273 0
0 0 0 850 208482 -7423 0
0 0 0 866 209348 -6557 0
0 0 0 829 210177 -5728 0
0 0 0 851 211028 -4877 0
0 0 0 838 211866 -4039 0
0 0 0 820 212686 -3219 0
0 0 0 855 213541 -2364 0
13 1 S112 893 214434 -1471 0
13 1 S112 836 215270 -635 0
13 2 S112 841 216111 206 0
13 2 S112 897 217008 1103 0
13 2 S112 866 217874 1969 0
13 2 S112 844 218718 2813 0
13 2 S112 854 219572 3667 0
13 2 S112 842 220414 4509 0
13 2 S112 806 221220 5315 0
13 2 S112 835 222055 6150 0
0 0 0 888 222943 -11380 0
0 0 0 893 223836 -10487 0
0 0 0 919 224755 -9568 0
0 0 0 914 225669 -8654 0
0 0 0 860 226529 -7794 0
0 0 0 823 227352 -6971 0
0 0 0 856 228208 -6115 0
0 0 0 855 229063 -5260 0
0 0 0 822 229885 -4438 0
0 0 0 854 230739 -3584 0
0 0 0 870 231609 -2714 0
14 1 S106 846 232455 -1868 0
14 1 S106 826 233281 -1042 0
14 1 S106 850 234131 -192 0
14 2 S106 876 235007 684 0
14 2 S106 842 235849 1526 0
14 2 S106 854 236703 2380 0
14 2 S106 866 237569 3246 0
14 2 S106 833 238402 4079 0
14 2 S106 839 239241 4918 0
14 2 S106 849 240090 5767 0
14 2 S106 836 240926 6603 0
0 0 0 837 241763 -10200 0
0 0 0 861 242624 -9339 0
0 0 0 832 243456 -8507 0
0 0 0 820 244276 -7687 0
0 0 0 870 245146 -6817 0
0 0 0 868 246014 -5949 0
0 0 0 824 246838 -5125 0
0 0 0 791 247629 -4334 0
0 0 0 791 248420 -3543 0
0 0 0 834 249254 -2709 0
15 1 S116 843 250097 -1866 0
15 1 S116 795 250892 -1071 0
15 1 S116 820 251712 -251 0
15 2 S116 770 252482 519 0
15 2 S116 719 253201 1238 0
15 2 S116 720 253921 1958 0
15 2 S116 805 254726 2763 0
15 2 S116 802 255528 3565 0
15 2 S116 831 256359 4396 0
15 2 S116 843 257202 5239 0
15 2 S116 868 258070 6107 0
15 2 S116 839 258909 6946 0
0 0 0 862 259771 -8356 0
0 0 0 869 260640 -7487 0
0 0 0 842 261482 -6645 0
0 0 0 849 262331 -5796 0
0 0 0 831 263162 -4965 0
0 0 0 873 264035 -4092 0
0 0 0 907 264942 -3185 0
0 0 0 862 265804 -2323 0
16 1 S116 866 266670 -1457 0
16 1 S116 893 267563 -564 0
16 2 S116 839 268402 275 0
16 2 S116 840 269242 1115 0
16 2 S116 878 270120 1993 0
16 2 S116 917 271037 2910 0
16 2 S116 840 271877 3750 0
16 2 S116 845 272722 4595 0
16 2 S116 889 273611 5484 0
16 2 S116 852 274463 6336 0
0 0 0 865 275328 -9460 0
0 0 0 922 276250 -8538 0
0 0 0 909 277159 -7629 0
0 0 0 888 278047 -6741 0
0 0 0 879 278926 -5862 0
0 0 0 834 279760 -5028 0
0 0 0 833 280593 -4195 0
0 0 0 836 281429 -3359 0
0 0 0 829 282258 -2530 0
17 1 S106 829 283087 -1701 0
17 1 S106 851 283938 -850 0
17 1 S106 849 284787 -1 0
17 2 S106 800 285587 799 0
17 2 S106 823 286410 1622 0
17 2 S106 836 287246 2458 0
17 2 S106 836 288082 3294 0
17 2 S106 790 288872 4084 0
17 2 S106 805 289677 4889 0
17 2 S106 842 290519 5731 0
17 2 S106 854 291373 6585 0
0 0 0 848 292221 -10157 0
0 0 0 875 293096 -9282 0
0 0 0 838 293934 -8444 0
0 0 0 788 294722 -7656 0
0 0 0 832 295554 -6824 0
0 0 0 869 296423 -5955 0
0 0 0 805 297228 -5150 0
0 0 0 821 298049 -4329 0
0 0 0 837 298886 -3492 0
0 0 0 817 299703 -2675 0
18 1 S102 810 300513 -1865 0
18 1 S102 847 301360 -1018 0
18 1 S102 906 302266 -112 0
18 2 S102 867 303133 755 0
18 2 S102 866 303999 1621 0
18 2 S102 874 304873 2495 0
18 2 S102 861 305734 3356 0
18 2 S102 841 306575 4197 0
18 2 S102 879 307454 5076 0
18 2 S102 897 308351 5973 0
18 2 S102 846 309197 6819 0
0 0 0 891 310088 -6746 0
0 0 0 897 310985 -5849 0
0 0 0 842 311827 -5007 0
0 0 0 831 312658 -4176 0
0 0 0 831 313489 -3345 0
0 0 0 819 314308 -2526 0
19 1 S106 832 315140 -1694 0
19 1 S106 880 316020 -814 0
19 2 S106 831 316851 17 0
19 2 S106 832 317683 849 0
19 2 S106 877 318560 1726 0
19 2 S106 893 319453 2619 0
19 2 S106 838 320291 3457 0
19 2 S106 856 321147 4313 0
19 2 S106 870 322017 5183 0
19 2 S106 829 322846 6012 0
19 2 S106 837 323683 6849 0
0 0 0 870 324553 -9605 0
0 0 0 874 325427 -8731 0
0 0 0 818 326245 -7913 0
0 0 0 839 327084 -7074 0
0 0 0 840 327924 -6234 0
0 0 0 759 328683 -5475 0
0 0 0 784 329467 -4691 0
0 0 0 810 330277 -3881 0
0 0 0 917 331194 -2964 0
0 0 0 931 332125 -2033 0
20 1 S112 935 333060 -1098 0
20 1 S112 939 333999 -159 0
20 2 S112 885 334884 726 0
20 2 S112 856 335740 1582 0
20 2 S112 857 336597 2439 0
20 2 S112 884 337481 3323 0
20 2 S112 855 338336 4178 0
20 2 S112 837 339173 5015 0
20 2 S112 863 340036 5878 0
20 2 S112 863 340899 6741 0
0 0 0 888 341787 -8801 0
0 0 0 941 342728 -7860 0
0 0 0 931 343659 -6929 0
0 0 0 821 344480 -6108 0
0 0 0 826 345306 -5282 0
0 0 0 819 346125 -4463 0
0 0 0 834 346959 -3629 0
0 0 0 819 347778 -2810 0
21 1 S106 815 348593 -1995 0
21 1 S106 797 349390 -1198 0
21 1 S106 794 350184 -404 0
21 2 S106 816 351000 412 0
21 2 S106 862 351862 1274 0
21 2 S106 826 352688 2100 0
21 2 S106 845 353533 2945 0
21 2 S106 862 354395 3807 0
21 2 S106 817 355212 4624 0
21 2 S106 814 356026 5438 0
21 2 S106 845 356871 6283 0
0 0 0 828 357699 -10694 0
0 0 0 810 358509 -9884 0
0 0 0 841 359350 -9043 0
0 0 0 821 360171 -8222 0
0 0 0 774 360945 -7448 0
0 0 0 787 361732 -6661 0
0 0 0 804 362536 -5857 0
0 0 0 786 363322 -5071 0
0 0 0 778 364100 -4293 0
0 0 0 777 364877 -3516 0
0 0 0 783 365660 -2733 0
22 1 S116 759 366419 -1974 0
22 1 S116 767 367186 -1207 0
22 1 S116 798 367984 -409 0
22 2 S116 811 368795 402 0
22 2 S116 797 369592 1199 0
22 2 S116 847 370439 2046 0
22 2 S116 870 371309 2916 0
22 2 S116 849 372158 3765 0
22 2 S116 865 373023 4630 0
22 2 S116 829 373852 5459 0
22 2 S116 783 374635 6242 0
0 0 0 814 375449 -10152 0
0 0 0 846 376295 -9306 0
0 0 0 859 377154 -8447 0
0 0 0 833 377987 -7614 0
0 0 0 884 378871 -6730 0
0 0 0 832 379703 -5898 0
0 0 0 771 380474 -5127 0
0 0 0 779 381253 -4348 0
0 0 0 818 382071 -3530 0
0 0 0 786 382857 -2744 0
23 1 S112 814 383671 -1930 0
23 1 S112 846 384517 -1084 0
23 1 S112 848 385365 -236 0
23 2 S112 820 386185 584 0
23 2 S112 845 387030 1429 0
23 2 S112 851 387881 2280 0
23 2 S112 794 388675 3074 0
23 2 S112 798 389473 3872 0
23 2 S112 824 390297 4696 0
23 2 S112 837 391134 5533 0
23 2 S112 818 391952 6351 0
0 0 0 849 392801 -9445 0
0 0 0 860 393661 -8585 0
0 0 0 844 394505 -7741 0
0 0 0 872 395377 -6869 0
0 0 0 848 396225 -6021 0
0 0 0 797 397022 -5224 0
0 0 0 817 397839 -4407 0
0 0 0 816 398655 -3591 0
0 0 0 782 399437 -2809 0
0 0 0 778 400215 -2031 0
24 1 S106 774 400989 -1257 0
24 1 S106 829 401818 -428 0
24 2 S106 783 402601 355 0
24 2 S106 802 403403 1157 0
24 2 S106 807 404210 1964 0
24 2 S106 816 405026 2780 0
24 2 S106 785 405811 3565 0
24 2 S106 813 406624 4378 0
24 2 S106 824 407448 5202 0
24 2 S106 809 408257 6011 0
24 2 S106 810 409067 6821 0
0 0 0 851 409918 -8625 0
0 0 0 847 410765 -7778 0
0 0 0 846 411611 -6932 0
0 0 0 806 412417 -6126 0
0 0 0 773 413190 -5353 0
0 0 0 764 413954 -4589 0
0 0 0 766 414720 -3823 0
0 0 0 815 415535 -3008 0
0 0 0 846 416381 -2162 0
25 1 S102 780 417161 -1382 0
25 1 S102 726 417887 -656 0
25 2 S102 738 418625 82 0
25 2 S102 770 419395 852 0
25 2 S102 794 420189 1646 0
25 2 S102 796 420985 2442 0
25 2 S102 774 421759 3216 0
25 2 S102 835 422594 4051 0
25 2 S102 839 423433 4890 0
25 2 S102 820 424253 5710 0
25 2 S102 792 425045 6502 0
0 0 0 815 425860 -6194 0
0 0 0 826 426686 -5368 0
0 0 0 787 427473 -4581 0
0 0 0 819 428292 -3762 0
0 0 0 819 429111 -2943 0
0 0 0 823 429934 -2120 0
26 1 S116 803 430737 -1317 0
26 1 S116 859 431596 -458 0
26 2 S116 878 432474 420 0
26 2 S116 829 433303 1249 0
26 2 S116 854 434157 2103 0
26 2 S116 845 435002 2948 0
26 2 S116 796 435798 3744 0
26 2 S116 803 436601 4547 0
26 2 S116 795 437396 5342 0
26 2 S116 767 438163 6109 0
26 2 S116 777 438940 6886 0
0 0 0 798 439738 -6076 0
0 0 0 820 440558 -5256 0
0 0 0 802 441360 -4454 0
0 0 0 810 442170 -3644 0
0 0 0 781 442951 -2863 0
0 0 0 811 443762 -2052 0
27 1 S106 864 444626 -1188 0
27 1 S106 896 445522 -292 0
27 2 S106 865 446387 573 0
27 2 S106 864 447251 1437 0
27 2 S106 874 448125 2311 0
27 2 S106 844 448969 3155 0
27 2 S106 835 449804 3990 0
27 2 S106 795 450599 4785 0
27 2 S106 757 451356 5542 0
27 2 S106 747 452103 6289 0
0 0 0 794 452897 -7373 0
0 0 0 934 453831 -6439 0
0 0 0 1132 454963 -5307 1
0 0 0 996 455959 -4311 1
0 0 0 899 456858 -3412 0
0 0 0 846 457704 -2566 0
28 1 S102 797 458501 -1769 0
28 1 S102 778 459279 -991 0
28 1 S102 745 460024 -246 0
28 2 S102 716 460740 470 0
28 2 S102 690 461430 1160 0
28 2 S102 664 462094 1824 0
28 2 S102 652 462746 2476 0
28 2 S102 667 463413 3143 0
28 2 S102 671 464084 3814 0
28 2 S102 685 464769 4499 0
28 2 S102 708 465477 5207 0
28 2 S102 787 466264 5994 0
28 2 S102 846 467110 6840 0
0 0 0 841 467951 -11103 0
0 0 0 914 468865 -10189 0
0 0 0 953 469818 -9236 0
0 0 0 875 470693 -8361 0
0 0 0 828 471521 -7533 0
0 0 0 815 472336 -6718 0
0 0 0 801 473137 -5917 0
0 0 0 756 473893 -5161 0
0 0 0 768 474661 -4393 0
0 0 0 771 475432 -3622 0
0 0 0 743 476175 -2879 0
0 0 0 755 476930 -2124 0
29 1 S112 773 477703 -1351 0
29 1 S112 793 478496 -558 0
29 2 S112 768 479264 210 0
29 2 S112 802 480066 1012 0
29 2 S112 866 480932 1878 0
29 2 S112 837 481769 2715 0
29 2 S112 820 482589 3535 0
29 2 S112 807 483396 4342 0
29 2 S112 793 484189 5135 0
29 2 S112 772 484961 5907 0
29 2 S112 786 485747 6693 0
0 0 0 815 486562 -7081 0
0 0 0 796 487358 -6285 0
0 0 0 842 488200 -5443 0
0 0 0 849 489049 -4594 0
0 0 0 784 489833 -3810 0
0 0 0 759 490592 -3051 0
0 0 0 755 491347 -2296 0
30 1 S112 753 492100 -1543 0
30 1 S112 733 492833 -810 0
30 1 S112 745 493578 -65 0
30 2 S112 741 494319 676 0
30 2 S112 742 495061 1418 0
30 2 S112 745 495806 2163 0
30 2 S112 779 496585 2942 0
30 2 S112 838 497423 3780 0
30 2 S112 818 498241 4598 0
30 2 S112 787 499028 5385 0
30 2 S112 786 499814 6171 0
30 2 S112 795 500609 6966 0
0 0 0 754 501363 -9555 0
0 0 0 777 502140 -8778 0
0 0 0 785 502925 -7993 0
0 0 0 785 503710 -7208 0
0 0 0 777 504487 -6431 0
0 0 0 809 505296 -5622 0
0 0 0 860 506156 -4762 0
0 0 0 820 506976 -3942 0
0 0 0 790 507766 -3152 0
0 0 0 784 508550 -2368 0
31 1 S106 786 509336 -1582 0
31 1 S106 777 510113 -805 0
31 1 S106 781 510894 -24 0
31 2 S106 800 511694 776 0
31 2 S106 802 512496 1578 0
31 2 S106 768 513264 2346 0
31 2 S106 794 514058 3140 0
31 2 S106 806 514864 3946 0
31 2 S106 793 515657 4739 0
31 2 S106 783 516440 5522 0
31 2 S106 775 517215 6297 0
0 0 0 772 517987 -8166 0
0 0 0 746 518733 -7420 0
0 0 0 757 519490 -6663 0
0 0 0 756 520246 -5907 0
0 0 0 736 520982 -5171 0
0 0 0 725 521707 -4446 0
0 0 0 736 522443 -3710 0
0 0 0 762 523205 -2948 0
0 0 0 775 523980 -2173 0
32 1 S102 749 524729 -1424 0
32 1 S102 767 525496 -657 0
32 2 S102 815 526311 158 0
32 2 S102 788 527099 946 0
32 2 S102 777 527876 1723 0
32 2 S102 795 528671 2518 0
32 2 S102 836 529507 3354 0
32 2 S102 806 530313 4160 0
32 2 S102 778 531091 4938 0
32 2 S102 778 531869 5716 0
32 2 S102 776 532645 6492 0
0 0 0 757 533402 -11137 0
0 0 0 763 534165 -10374 0
0 0 0 766 534931 -9608 0
0 0 0 763 535694 -8845 0
0 0 0 727 536421 -8118 0
0 0 0 718 537139 -7400 0
0 0 0 687 537826 -6713 0
0 0 0 667 538493 -6046 0
0 0 0 651 539144 -5395 0
0 0 0 656 539800 -4739 0
0 0 0 677 540477 -4062 0
0 0 0 673 541150 -3389 0
0 0 0 662 541812 -2727 0
0 0 0 675 542487 -2052 0
33 1 S112 691 543178 -1361 0
33 1 S112 752 543930 -609 0
33 2 S112 795 544725 186 0
33 2 S112 787 545512 973 0
33 2 S112 874 546386 1847 0
33 2 S112 902 547288 2749 0
33 2 S112 848 548136 3597 0
33 2 S112 872 549008 4469 0
33 2 S112 861 549869 5330 0
33 2 S112 793 550662 6123 0
33 2 S112 770 551432 6893 0
0 0 0 783 552215 -10643 0
0 0 0 795 553010 -9848 0
0 0 0 767 553777 -9081 0
0 0 0 747 554524 -8334 0
0 0 0 746 555270 -7588 0
0 0 0 764 556034 -6824 0
0 0 0 749 556783 -6075 0
0 0 0 787 557570 -5288 0
0 0 0 808 558378 -4480 0
0 0 0 783 559161 -3697 0
0 0 0 789 559950 -2908 0
0 0 0 811 560761 -2097 0
34 1 S106 846 561607 -1251 0
34 1 S106 815 562422 -436 0
34 2 S106 846 563268 410 0
34 2 S106 873 564141 1283 0
34 2 S106 813 564954 2096 0
34 2 S106 827 565781 2923 0
34 2 S106 826 566607 3749 0
34 2 S106 825 567432 4574 0
34 2 S106 807 568239 5381 0
34 2 S106 855 569094 6236 0
0 0 0 862 569956 -8883 0
0 0 0 811 570767 -8072 0
0 0 0 856 571623 -7216 0
0 0 0 840 572463 -6376 0
0 0 0 776 573239 -5600 0
0 0 0 768 574007 -4832 0
0 0 0 777 574784 -4055 0
0 0 0 856 575640 -3199 0
0 0 0 828 576468 -2371 0
35 1 S102 803 577271 -1568 0
35 1 S102 859 578130 -709 0
35 2 S102 864 578994 155 0
35 2 S102 831 579825 986 0
35 2 S102 830 580655 1816 0
35 2 S102 840 581495 2656 0
35 2 S102 848 582343 3504 0
35 2 S102 809 583152 4313 0
35 2 S102 815 583967 5128 0
35 2 S102 823 584790 5951 0
35 2 S102 790 585580 6741 0
0 0 0 791 586371 -6792 0
0 0 0 807 587178 -5985 0
0 0 0 808 587986 -5177 0
0 0 0 774 588760 -4403 0
0 0 0 781 589541 -3622 0
0 0 0 773 590314 -2849 0
0 0 0 791 591105 -2058 0
36 1 S106 779 591884 -1279 0
36 1 S106 805 592689 -474 0
36 2 S106 801 593490 327 0
36 2 S106 781 594271 1108 0
36 2 S106 792 595063 1900 0
36 2 S106 807 595870 2707 0
36 2 S106 795 596665 3502 0
36 2 S106 780 597445 4282 0
36 2 S106 804 598249 5086 0
36 2 S106 800 599049 5886 0
36 2 S106 780 599829 6666 0
0 0 0 779 600608 -7675 0
0 0 0 792 601400 -6883 0
0 0 0 775 602175 -6108 0
0 0 0 774 602949 -5334 0
0 0 0 767 603716 -4567 0
0 0 0 806 604522 -3761 0
0 0 0 807 605329 -2954 0
0 0 0 810 606139 -2144 0
37 1 S116 755 606894 -1389 0
37 1 S116 753 607647 -636 0
37 2 S116 748 608395 112 0
37 2 S116 749 609144 861 0
37 2 S116 713 609857 1574 0
37 2 S116 720 610577 2294 0
37 2 S116 723 611300 3017 0
37 2 S116 748 612048 3765 0
37 2 S116 732 612780 4497 0
37 2 S116 746 613526 5243 0
37 2 S116 758 614284 6001 0
37 2 S116 765 615049 6766 0
0 0 0 769 615818 -10071 0
0 0 0 790 616608 -9281 0
0 0 0 754 617362 -8527 0
0 0 0 699 618061 -7828 0
0 0 0 708 618769 -7120 0
0 0 0 707 619476 -6413 0
0 0 0 701 620177 -5712 0
0 0 0 665 620842 -5047 0
0 0 0 652 621494 -4395 0
0 0 0 662 622156 -3733 0
0 0 0 663 622819 -3070 0
0 0 0 677 623496 -2393 0
38 1 S102 695 624191 -1698 0
38 1 S102 728 624919 -970 0
38 1 S102 741 625660 -229 0
38 2 S102 751 626411 522 0
38 2 S102 756 627167 1278 0
38 2 S102 774 627941 2052 0
38 2 S102 771 628712 2823 0
38 2 S102 768 629480 3591 0
38 2 S102 796 630276 4387 0
38 2 S102 805 631081 5192 0
38 2 S102 760 631841 5952 0
38 2 S102 786 632627 6738 0
0 0 0 779 633406 -8000 0
0 0 0 790 634196 -7210 0
0 0 0 765 634961 -6445 0
0 0 0 770 635731 -5675 0
0 0 0 776 636507 -4899 0
0 0 0 755 637262 -4144 0
0 0 0 734 637996 -3410 0
0 0 0 730 638726 -2680 0
39 1 S116 755 639481 -1925 0
39 1 S116 786 640267 -1139 0
39 1 S116 774 641041 -365 0
39 2 S116 792 641833 427 0
39 2 S116 808 642641 1235 0
39 2 S116 790 643431 2025 0
39 2 S116 789 644220 2814 0
39 2 S116 796 645016 3610 0
39 2 S116 794 645810 4404 0
39 2 S116 749 646559 5153 0
39 2 S116 770 647329 5923 0
39 2 S116 775 648104 6698 0
0 0 0 787 648891 -6408 0
0 0 0 797 649688 -5611 0
0 0 0 799 650487 -4812 0
0 0 0 810 651297 -4002 0
0 0 0 763 652060 -3239 0
0 0 0 767 652827 -2472 0
40 1 S112 784 653611 -1688 0
40 1 S112 786 654397 -902 0
40 1 S112 734 655131 -168 0
40 2 S112 741 655872 573 0
40 2 S112 752 656624 1325 0
40 2 S112 778 657402 2103 0
40 2 S112 753 658155 2856 0
40 2 S112 796 658951 3652 0
40 2 S112 795 659746 4447 0
40 2 S112 788 660534 5235 0
40 2 S112 765 661299 6000 0
40 2 S112 802 662101 6802 0
0 0 0 815 662916 -186980 0
0 0 0 815 663731 -186165 0
0 0 0 809 664540 -185356 0
0 0 0 802 665342 -184554 0
0 0 0 828 666170 -183726 0
0 0 0 750 666920 -182976 0
0 0 0 758 667678 -182218 0
0 0 0 842 668520 -181376 0
0 0 0 820 669340 -180556 0
0 0 0 722 670062 -179834 0
0 0 0 683 670745 -179151 0
0 0 0 697 671442 -178454 0
0 0 0 676 672118 -177778 0
0 0 0 708 672826 -177070 0
0 0 0 724 673550 -176346 0
0 0 0 711 674261 -175635 0
0 0 0 681 674942 -174954 0
0 0 0 674 675616 -174280 0
0 0 0 659 676275 -173621 0
0 0 0 641 676916 -172980 0
0 0 0 627 677543 -172353 1
0 0 0 616 678159 -171737 1
0 0 0 604 678763 -171133 1
0 0 0 600 679363 -170533 1
0 0 0 595 679958 -169938 1
0 0 0 606 680564 -169332 1
0 0 0 631 681195 -168701 0
0 0 0 665 681860 -168036 0
0 0 0 704 682564 -167332 0
0 0 0 747 683311 -166585 0
0 0 0 786 684097 -165799 0
0 0 0 799 684896 -165000 0
0 0 0 859 685755 -164141 0
0 0 0 831 686586 -163310 0
0 0 0 726 687312 -162584 0
0 0 0 681 687993 -161903 0
0 0 0 664 688657 -161239 0
0 0 0 642 689299 -160597 0
0 0 0 621 689920 -159976 1
0 0 0 619 690539 -159357 1
0 0 0 763 691302 -158594 0
0 0 0 832 692134 -157762 0
0 0 0 847 692981 -156915 0
0 0 0 824 693805 -156091 0
0 0 0 800 694605 -155291 0
0 0 0 776 695381 -154515 0
0 0 0 741 696122 -153774 0
0 0 0 727 696849 -153047 0
0 0 0 690 697539 -152357 0
0 0 0 675 698214 -151682 0
0 0 0 669 698883 -151013 0
0 0 0 664 699547 -150349 0
0 0 0 648 700195 -149701 0
0 0 0 698 700893 -149003 0
0 0 0 789 701682 -148214 0
0 0 0 809 702491 -147405 0
0 0 0 863 703354 -146542 0
0 0 0 758 704112 -145784 0
0 0 0 711 704823 -145073 0
0 0 0 705 705528 -144368 0
0 0 0 690 706218 -143678 0
0 0 0 691 706909 -142987 0
0 0 0 678 707587 -142309 0
0 0 0 681 708268 -141628 0
0 0 0 686 708954 -140942 0
0 0 0 711 709665 -140231 0
0 0 0 737 710402 -139494 0
0 0 0 872 711274 -138622 0
0 0 0 921 712195 -137701 0
0 0 0 894 713089 -136807 0
0 0 0 840 713929 -135967 0
0 0 0 789 714718 -135178 0
0 0 0 774 715492 -134404 0
0 0 0 772 716264 -133632 0
0 0 0 778 717042 -132854 0
0 0 0 887 717929 -131967 0
0 0 0 867 718796 -131100 0
0 0 0 797 719593 -130303 0
0 0 0 770 720363 -129533 0
0 0 0 795 721158 -128738 0
0 0 0 802 721960 -127936 0
0 0 0 751 722711 -127185 0
0 0 0 758 723469 -126427 0
0 0 0 771 724240 -125656 0
0 0 0 756 724996 -124900 0
0 0 0 753 725749 -124147 0
0 0 0 757 726506 -123390 0
0 0 0 769 727275 -122621 0
0 0 0 717 727992 -121904 0
0 0 0 721 728713 -121183 0
0 0 0 729 729442 -120454 0
0 0 0 782 730224 -119672 0
0 0 0 780 731004 -118892 0
0 0 0 788 731792 -118104 0
0 0 0 780 732572 -117324 0
0 0 0 746 733318 -116578 0
0 0 0 742 734060 -115836 0
0 0 0 736 734796 -115100 0
0 0 0 705 735501 -114395 0
0 0 0 719 736220 -113676 0
0 0 0 722 736942 -112954 0
0 0 0 702 737644 -112252 0
0 0 0 668 738312 -111584 0
0 0 0 649 738961 -110935 0
0 0 0 639 739600 -110296 0
0 0 0 625 740225 -109671 1
0 0 0 617 740842 -109054 1
0 0 0 608 741450 -108446 1
0 0 0 707 742157 -107739 0
0 0 0 955 743112 -106784 0
0 0 0 906 744018 -105878 0
0 0 0 806 744824 -105072 0
0 0 0 746 745570 -104326 0
0 0 0 727 746297 -103599 0
0 0 0 703 747000 -102896 0
0 0 0 686 747686 -102210 0
0 0 0 677 748363 -101533 0
0 0 0 670 749033 -100863 0
0 0 0 684 749717 -100179 0
0 0 0 682 750399 -99497 0
0 0 0 715 751114 -98782 0
0 0 0 735 751849 -98047 0
0 0 0 728 752577 -97319 0
0 0 0 740 753317 -96579 0
0 0 0 772 754089 -95807 0
0 0 0 833 754922 -94974 0
0 0 0 818 755740 -94156 0
0 0 0 838 756578 -93318 0
0 0 0 832 757410 -92486 0
0 0 0 812 758222 -91674 0
0 0 0 754 758976 -90920 0
0 0 0 704 759680 -90216 0
0 0 0 700 760380 -89516 0
0 0 0 742 761122 -88774 0
0 0 0 734 761856 -88040 0
0 0 0 703 762559 -87337 0
0 0 0 719 763278 -86618 0
0 0 0 718 763996 -85900 0
0 0 0 748 764744 -85152 0
0 0 0 762 765506 -84390 0
0 0 0 806 766312 -83584 0
0 0 0 769 767081 -82815 0
0 0 0 803 767884 -82012 0
0 0 0 829 768713 -81183 0
0 0 0 829 769542 -80354 0
0 0 0 792 770334 -79562 0
0 0 0 805 771139 -78757 0
0 0 0 792 771931 -77965 0
0 0 0 861 772792 -77104 0
0 0 0 784 773576 -76320 0
0 0 0 803 774379 -75517 0
0 0 0 833 775212 -74684 0
0 0 0 831 776043 -73853 0
0 0 0 785 776828 -73068 0
0 0 0 800 777628 -72268 0
0 0 0 820 778448 -71448 0
0 0 0 793 779241 -70655 0
0 0 0 779 780020 -69876 0
0 0 0 779 780799 -69097 0
0 0 0 756 781555 -68341 0
0 0 0 702 782257 -67639 0
0 0 0 675 782932 -66964 0
0 0 0 657 783589 -66307 0
0 0 0 642 784231 -65665 0
0 0 0 625 784856 -65040 1
0 0 0 615 785471 -64425 1
0 0 0 606 786077 -63819 1
0 0 0 681 786758 -63138 0
0 0 0 1027 787785 -62111 1
0 0 0 928 788713 -61183 0
0 0 0 870 789583 -60313 0
0 0 0 857 790440 -59456 0
0 0 0 852 791292 -58604 0
0 0 0 784 792076 -57820 0
0 0 0 726 792802 -57094 0
0 0 0 722 793524 -56372 0
0 0 0 723 794247 -55649 0
0 0 0 715 794962 -54934 0
0 0 0 701 795663 -54233 0
0 0 0 705 796368 -53528 0
0 0 0 728 797096 -52800 0
0 0 0 737 797833 -52063 0
0 0 0 775 798608 -51288 0
0 0 0 762 799370 -50526 0
0 0 0 881 800251 -49645 0
0 0 0 891 801142 -48754 0
0 0 0 863 802005 -47891 0
0 0 0 902 802907 -46989 0
0 0 0 876 803783 -46113 0
0 0 0 813 804596 -45300 0
0 0 0 794 805390 -44506 0
0 0 0 808 806198 -43698 0
0 0 0 818 807016 -42880 0
0 0 0 799 807815 -42081 0
0 0 0 843 808658 -41238 0
0 0 0 851 809509 -40387 0
0 0 0 840 810349 -39547 0
0 0 0 816 811165 -38731 0
0 0 0 813 811978 -37918 0
0 0 0 786 812764 -37132 0
0 0 0 757 813521 -36375 0
0 0 0 787 814308 -35588 0
0 0 0 826 815134 -34762 0
0 0 0 765 815899 -33997 0
0 0 0 738 816637 -33259 0
0 0 0 740 817377 -32519 0
0 0 0 734 818111 -31785 0
0 0 0 692 818803 -31093 0
0 0 0 738 819541 -30355 0
0 0 0 722 820263 -29633 0
0 0 0 706 820969 -28927 0
0 0 0 685 821654 -28242 0
0 0 0 668 822322 -27574 0
0 0 0 668 822990 -26906 0
0 0 0 699 823689 -26207 0
0 0 0 745 824434 -25462 0
0 0 0 754 825188 -24708 0
0 0 0 748 825936 -23960 0
0 0 0 747 826683 -23213 0
0 0 0 765 827448 -22448 0
0 0 0 760 828208 -21688 0
0 0 0 763 828971 -20925 0
0 0 0 756 829727 -20169 0
0 0 0 727 830454 -19442 0
0 0 0 728 831182 -18714 0
0 0 0 732 831914 -17982 0
0 0 0 728 832642 -17254 0
0 0 0 734 833376 -16520 0
0 0 0 746 834122 -15774 0
0 0 0 747 834869 -15027 0
0 0 0 806 835675 -14221 0
0 0 0 858 836533 -13363 0
0 0 0 863 837396 -12500 0
0 0 0 824 838220 -11676 0
0 0 0 822 839042 -10854 0
0 0 0 780 839822 -10074 0
0 0 0 779 840601 -9295 0
0 0 0 795 841396 -8500 0
0 0 0 759 842155 -7741 0
0 0 0 744 842899 -6997 0
0 0 0 735 843634 -6262 0
0 0 0 734 844368 -5528 0
0 0 0 701 845069 -4827 0
0 0 0 695 845764 -4132 0
0 0 0 663 846427 -3469 0
0 0 0 653 847080 -2816 0
0 0 0 641 847721 -2175 0
41 1 S102 626 848347 -1549 1
41 1 S102 618 848965 -931 1
41 1 S102 625 849590 -306 1
41 2 S102 909 850499 603 0
41 2 S102 976 851475 1579 1
41 2 S102 878 852353 2457 0
41 2 S102 812 853165 3269 0
41 2 S102 836 854001 4105 0
41 2 S102 802 854803 4907 0
41 2 S102 733 855536 5640 0
41 2 S102 708 856244 6348 0
0 0 0 693 856937 -6421 0
0 0 0 691 857628 -5730 0
0 0 0 681 858309 -5049 0
0 0 0 679 858988 -4370 0
0 0 0 682 859670 -3688 0
0 0 0 692 860362 -2996 0
0 0 0 699 861061 -2297 0
42 1 S112 658 861719 -1639 0
42 1 S112 651 862370 -988 0
42 1 S112 664 863034 -324 0
42 2 S112 720 863754 396 0
42 2 S112 780 864534 1176 0
42 2 S112 823 865357 1999 0
42 2 S112 828 866185 2827 0
42 2 S112 867 867052 3694 0
42 2 S112 844 867896 4538 0
42 2 S112 799 868695 5337 0
42 2 S112 817 869512 6154 0
42 2 S112 812 870324 6966 0
0 0 0 809 871133 -7577 0
0 0 0 783 871916 -6794 0
0 0 0 754 872670 -6040 0
0 0 0 758 873428 -5282 0
0 0 0 734 874162 -4548 0
0 0 0 745 874907 -3803 0
0 0 0 769 875676 -3034 0
0 0 0 779 876455 -2255 0
43 1 S116 772 877227 -1483 0
43 1 S116 804 878031 -679 0
43 2 S116 828 878859 149 0
43 2 S116 830 879689 979 0
43 2 S116 841 880530 1820 0
43 2 S116 894 881424 2714 0
43 2 S116 883 882307 3597 0
43 2 S116 833 883140 4430 0
43 2 S116 833 883973 5263 0
43 2 S116 855 884828 6118 0
43 2 S116 835 885663 6953 0
0 0 0 790 886453 -5635 0
0 0 0 795 887248 -4840 0
0 0 0 789 888037 -4051 0
0 0 0 766 888803 -3285 0
0 0 0 785 889588 -2500 0
44 1 S102 830 890418 -1670 0
44 1 S102 812 891230 -858 0
44 1 S102 841 892071 -17 0
44 2 S102 845 892916 828 0
44 2 S102 794 893710 1622 0
44 2 S102 798 894508 2420 0
44 2 S102 791 895299 3211 0
44 2 S102 775 896074 3986 0
44 2 S102 760 896834 4746 0
44 2 S102 757 897591 5503 0
44 2 S102 765 898356 6268 0
44 2 S102 725 899081 6993 0
0 0 0 716 899797 -7958 0
0 0 0 694 900491 -7264 0
0 0 0 675 901166 -6589 0
0 0 0 660 901826 -5929 0
0 0 0 649 902475 -5280 0
0 0 0 637 903112 -4643 0
0 0 0 634 903746 -4009 0
0 0 0 772 904518 -3237 0
0 0 0 845 905363 -2392 0
45 1 S116 825 906188 -1567 0
45 1 S116 773 906961 -794 0
45 2 S116 816 907777 22 0
45 2 S116 786 908563 808 0
45 2 S116 742 909305 1550 0
45 2 S116 722 910027 2272 0
45 2 S116 716 910743 2988 0
45 2 S116 721 911464 3709 0
45 2 S116 697 912161 4406 0
45 2 S116 710 912871 5116 0
45 2 S116 731 913602 5847 0
45 2 S116 761 914363 6608 0
0 0 0 722 915085 -10243 0
0 0 0 715 915800 -9528 0
0 0 0 730 916530 -8798 0
0 0 0 676 917206 -8122 0
0 0 0 680 917886 -7442 0
0 0 0 689 918575 -6753 0
0 0 0 687 919262 -6066 0
0 0 0 683 919945 -5383 0
0 0 0 704 920649 -4679 0
0 0 0 678 921327 -4001 0
0 0 0 663 921990 -3338 0
0 0 0 659 922649 -2679 0
0 0 0 667 923316 -2012 0
46 1 S102 658 923974 -1354 0
46 1 S102 674 924648 -680 0
46 2 S102 688 925336 8 0
46 2 S102 678 926014 686 0
46 2 S102 692 926706 1378 0
46 2 S102 714 927420 2092 0
46 2 S102 739 928159 2831 0
46 2 S102 756 928915 3587 0
46 2 S102 735 929650 4322 0
46 2 S102 745 930395 5067 0
46 2 S102 774 931169 5841 0
46 2 S102 729 931898 6570 0
0 0 0 714 932612 -8151 0
0 0 0 737 933349 -7414 0
0 0 0 794 934143 -6620 0
0 0 0 783 934926 -5837 0
0 0 0 751 935677 -5086 0
0 0 0 780 936457 -4306 0
0 0 0 783 937240 -3523 0
0 0 0 774 938014 -2749 0
0 0 0 741 938755 -2008 0
47 1 S112 781 939536 -1227 0
47 1 S112 766 940302 -461 0
47 2 S112 747 941049 286 0
47 2 S112 747 941796 1033 0
47 2 S112 798 942594 1831 0
47 2 S112 841 943435 2672 0
47 2 S112 833 944268 3505 0
47 2 S112 873 945141 4378 0
47 2 S112 855 945996 5233 0
47 2 S112 847 946843 6080 0
47 2 S112 807 947650 6887 0
0 0 0 814 948464 -9739 0
0 0 0 837 949301 -8902 0
0 0 0 753 950054 -8149 0
0 0 0 751 950805 -7398 0
0 0 0 747 951552 -6651 0
0 0 0 755 952307 -5896 0
0 0 0 751 953058 -5145 0
0 0 0 765 953823 -4380 0
0 0 0 772 954595 -3608 0
0 0 0 770 955365 -2838 0
0 0 0 744 956109 -2094 0
48 1 S116 755 956864 -1339 0
48 1 S116 766 957630 -573 0
48 2 S116 748 958378 175 0
48 2 S116 757 959135 932 0
48 2 S116 770 959905 1702 0
48 2 S116 765 960670 2467 0
48 2 S116 779 961449 3246 0
48 2 S116 803 962252 4049 0
48 2 S116 810 963062 4859 0
48 2 S116 770 963832 5629 0
48 2 S116 790 964622 6419 0
0 0 0 788 965410 -6835 0
0 0 0 784 966194 -6051 0
0 0 0 799 966993 -5252 0
0 0 0 792 967785 -4460 0
0 0 0 772 968557 -3688 0
0 0 0 735 969292 -2953 0
0 0 0 745 970037 -2208 0
49 1 S112 745 970782 -1463 0
49 1 S112 751 971533 -712 0
49 2 S112 748 972281 36 0
49 2 S112 770 973051 806 0
49 2 S112 799 973850 1605 0
49 2 S112 807 974657 2412 0
49 2 S112 833 975490 3245 0
49 2 S112 834 976324 4079 0
49 2 S112 824 977148 4903 0
49 2 S112 791 977939 5694 0
49 2 S112 801 978740 6495 0
0 0 0 815 979555 -11208 0
0 0 0 821 980376 -10387 0
0 0 0 804 981180 -9583 0
0 0 0 808 981988 -8775 0
0 0 0 770 982758 -8005 0
0 0 0 754 983512 -7251 0
0 0 0 749 984261 -6502 0
0 0 0 769 985030 -5733 0
0 0 0 769 985799 -4964 0
0 0 0 742 986541 -4222 0
0 0 0 755 987296 -3467 0
0 0 0 747 988043 -2720 0
50 1 S106 758 988801 -1962 0
50 1 S106 780 989581 -1182 0
50 1 S106 824 990405 -358 0
50 2 S106 858 991263 500 0
50 2 S106 799 992062 1299 0
50 2 S106 830 992892 2129 0
50 2 S106 801 993693 2930 0
50 2 S106 790 994483 3720 0
50 2 S106 770 995253 4490 0
50 2 S106 790 996043 5280 0
50 2 S106 808 996851 6088 0
50 2 S106 798 997649 6886 0
0 0 0 803 998452 -5789 0
0 0 0 808 999260 -4981 0
0 0 0 767 1000027 -4214 0
0 0 0 731 1000758 -3483 0
0 0 0 746 1001504 -2737 0
51 1 S112 749 1002253 -1988 0
51 1 S112 763 1003016 -1225 0
51 1 S112 733 1003749 -492 0
51 2 S112 753 1004502 261 0
51 2 S112 760 1005262 1021 0
51 2 S112 772 1006034 1793 0
51 2 S112 760 1006794 2553 0
51 2 S112 771 1007565 3324 0
51 2 S112 814 1008379 4138 0
51 2 S112 777 1009156 4915 0
51 2 S112 711 1009867 5626 0
51 2 S112 719 1010586 6345 0
0 0 0 724 1011310 -7669 0
0 0 0 697 1012007 -6972 0
0 0 0 723 1012730 -6249 0
0 0 0 757 1013487 -5492 0
0 0 0 758 1014245 -4734 0
0 0 0 732 1014977 -4002 0
0 0 0 740 1015717 -3262 0
0 0 0 751 1016468 -2511 0
52 1 S116 754 1017222 -1757 0
52 1 S116 782 1018004 -975 0
52 1 S116 806 1018810 -169 0
52 2 S116 827 1019637 658 0
52 2 S116 812 1020449 1470 0
52 2 S116 862 1021311 2332 0
52 2 S116 852 1022163 3184 0
52 2 S116 806 1022969 3990 0
52 2 S116 820 1023789 4810 0
52 2 S116 867 1024656 5677 0
52 2 S116 831 1025487 6508 0
0 0 0 802 1026289 -9418 0
0 0 0 804 1027093 -8614 0
0 0 0 815 1027908 -7799 0
0 0 0 792 1028700 -7007 0
0 0 0 769 1029469 -6238 0
0 0 0 752 1030221 -5486 0
0 0 0 713 1030934 -4773 0
0 0 0 749 1031683 -4024 0
0 0 0 789 1032472 -3235 0
0 0 0 857 1033329 -2378 0
53 1 S106 822 1034151 -1556 0
53 1 S106 907 1035058 -649 0
53 2 S106 930 1035988 281 0
53 2 S106 835 1036823 1116 0
53 2 S106 813 1037636 1929 0
53 2 S106 795 1038431 2724 0
53 2 S106 764 1039195 3488 0
53 2 S106 749 1039944 4237 0
53 2 S106 738 1040682 4975 0
53 2 S106 751 1041433 5726 0
53 2 S106 714 1042147 6440 0
0 0 0 739 1042886 -6167 0
0 0 0 761 1043647 -5406 0
0 0 0 813 1044460 -4593 0
0 0 0 776 1045236 -3817 0
0 0 0 806 1046042 -3011 0
0 0 0 814 1046856 -2197 0
54 1 S102 816 1047672 -1381 0
54 1 S102 773 1048445 -608 0
54 2 S102 767 1049212 159 0
54 2 S102 747 1049959 906 0
54 2 S102 717 1050676 1623 0
54 2 S102 722 1051398 2345 0
54 2 S102 720 1052118 3065 0
54 2 S102 749 1052867 3814 0
54 2 S102 731 1053598 4545 0
54 2 S102 765 1054363 5310 0
54 2 S102 818 1055181 6128 0
54 2 S102 882 1056063 7010 0
0 0 0 821 1056884 -9278 0
0 0 0 822 1057706 -8456 0
0 0 0 794 1058500 -7662 0
0 0 0 751 1059251 -6911 0
0 0 0 770 1060021 -6141 0
0 0 0 774 1060795 -5367 0
0 0 0 813 1061608 -4554 0
0 0 0 810 1062418 -3744 0
0 0 0 816 1063234 -2928 0
0 0 0 779 1064013 -2149 0
55 1 S106 778 1064791 -1371 0
55 1 S106 745 1065536 -626 0
55 2 S106 774 1066310 148 0
55 2 S106 781 1067091 929 0
55 2 S106 778 1067869 1707 0
55 2 S106 772 1068641 2479 0
55 2 S106 807 1069448 3286 0
55 2 S106 837 1070285 4123 0
55 2 S106 810 1071095 4933 0
55 2 S106 846 1071941 5779 0
55 2 S106 884 1072825 6663 0
0 0 0 821 1073646 -6093 0
0 0 0 785 1074431 -5308 0
0 0 0 760 1075191 -4548 0
0 0 0 730 1075921 -3818 0
0 0 0 710 1076631 -3108 0
0 0 0 738 1077369 -2370 0
56 1 S116 764 1078133 -1606 0
56 1 S116 752 1078885 -854 0
56 1 S116 751 1079636 -103 0
56 2 S116 764 1080400 661 0
56 2 S116 806 1081206 1467 0
56 2 S116 845 1082051 2312 0
56 2 S116 827 1082878 3139 0
56 2 S116 868 1083746 4007 0
56 2 S116 887 1084633 4894 0
56 2 S116 858 1085491 5752 0
56 2 S116 835 1086326 6587 0
0 0 0 826 1087152 -6231 0
0 0 0 801 1087953 -5430 0
0 0 0 771 1088724 -4659 0
0 0 0 765 1089489 -3894 0
0 0 0 784 1090273 -3110 0
0 0 0 753 1091026 -2357 0
57 1 S106 763 1091789 -1594 0
57 1 S106 761 1092550 -833 0
57 1 S106 822 1093372 -11 0
57 2 S106 792 1094164 781 0
57 2 S106 835 1094999 1616 0
57 2 S106 829 1095828 2445 0
57 2 S106 811 1096639 3256 0
57 2 S106 774 1097413 4030 0
57 2 S106 796 1098209 4826 0
57 2 S106 812 1099021 5638 0
57 2 S106 796 1099817 6434 0
0 0 0 786 1100603 -8331 0
0 0 0 791 1101394 -7540 0
0 0 0 794 1102188 -6746 0
0 0 0 737 1102925 -6009 0
0 0 0 747 1103672 -5262 0
0 0 0 735 1104407 -4527 0
0 0 0 758 1105165 -3769 0
0 0 0 751 1105916 -3018 0
0 0 0 779 1106695 -2239 0
58 1 S102 773 1107468 -1466 0
58 1 S102 757 1108225 -709 0
58 2 S102 788 1109013 79 0
58 2 S102 790 1109803 869 0
58 2 S102 791 1110594 1660 0
58 2 S102 793 1111387 2453 0
58 2 S102 829 1112216 3282 0
58 2 S102 836 1113052 4118 0
58 2 S102 813 1113865 4931 0
58 2 S102 795 1114660 5726 0
58 2 S102 802 1115462 6528 0
0 0 0 803 1116265 -5948 0
0 0 0 748 1117013 -5200 0
0 0 0 747 1117760 -4453 0
0 0 0 747 1118507 -3706 0
0 0 0 765 1119272 -2941 0
0 0 0 736 1120008 -2205 0
59 1 S112 751 1120759 -1454 0
59 1 S112 754 1121513 -700 0
59 2 S112 753 1122266 53 0
59 2 S112 738 1123004 791 0
59 2 S112 760 1123764 1551 0
59 2 S112 767 1124531 2318 0
59 2 S112 760 1125291 3078 0
59 2 S112 752 1126043 3830 0
59 2 S112 754 1126797 4584 0
59 2 S112 769 1127566 5353 0
59 2 S112 791 1128357 6144 0
59 2 S112 762 1129119 6906 0
0 0 0 787 1129906 -8687 0
0 0 0 796 1130702 -7891 0
0 0 0 855 1131557 -7036 0
0 0 0 788 1132345 -6248 0
0 0 0 791 1133136 -5457 0
0 0 0 774 1133910 -4683 0
0 0 0 764 1134674 -3919 0
0 0 0 754 1135428 -3165 0
0 0 0 766 1136194 -2399 0
60 1 S102 777 1136971 -1622 0
60 1 S102 784 1137755 -838 0
60 1 S102 793 1138548 -45 0
60 2 S102 794 1139342 749 0
60 2 S102 782 1140124 1531 0
60 2 S102 768 1140892 2299 0
60 2 S102 759 1141651 3058 0
60 2 S102 765 1142416 3823 0
60 2 S102 714 1143130 4537 0
60 2 S102 713 1143843 5250 0
60 2 S102 707 1144550 5957 0
60 2 S102 730 1145280 6687 0
0 0 0 716 1145996 -10468 0
0 0 0 715 1146711 -9753 0
0 0 0 719 1147430 -9034 0
0 0 0 709 1148139 -8325 0
0 0 0 703 1148842 -7622 0
0 0 0 742 1149584 -6880 0
0 0 0 747 1150331 -6133 0
0 0 0 754 1151085 -5379 0
0 0 0 744 1151829 -4635 0
0 0 0 755 1152584 -3880 0
0 0 0 768 1153352 -3112 0
0 0 0 796 1154148 -2316 0
61 1 S106 785 1154933 -1531 0
61 1 S106 772 1155705 -759 0
61 1 S106 747 1156452 -12 0
61 2 S106 744 1157196 732 0
61 2 S106 755 1157951 1487 0
61 2 S106 828 1158779 2315 0
61 2 S106 892 1159671 3207 0
61 2 S106 828 1160499 4035 0
61 2 S106 826 1161325 4861 0
61 2 S106 809 1162134 5670 0
61 2 S106 790 1162924 6460 0
0 0 0 785 1163709 -7096 0
0 0 0 793 1164502 -6303 0
0 0 0 824 1165326 -5479 0
0 0 0 780 1166106 -4699 0
0 0 0 771 1166877 -3928 0
0 0 0 801 1167678 -3127 0
0 0 0 828 1168506 -2299 0
62 1 S112 835 1169341 -1464 0
62 1 S112 884 1170225 -580 0
62 2 S112 852 1171077 272 0
62 2 S112 811 1171888 1083 0
62 2 S112 822 1172710 1905 0
62 2 S112 819 1173529 2724 0
62 2 S112 786 1174315 3510 0
62 2 S112 756 1175071 4266 0
62 2 S112 760 1175831 5026 0
62 2 S112 780 1176611 5806 0
62 2 S112 752 1177363 6558 0
0 0 0 771 1178134 -11951 0
0 0 0 813 1178947 -11138 0
0 0 0 901 1179848 -10237 0
0 0 0 920 1180768 -9317 0
0 0 0 887 1181655 -8430 0
0 0 0 863 1182518 -7567 0
0 0 0 819 1183337 -6748 0
0 0 0 830 1184167 -5918 0
0 0 0 842 1185009 -5076 0
0 0 0 834 1185843 -4242 0
0 0 0 835 1186678 -3407 0
0 0 0 839 1187517 -2568 0
63 1 S102 847 1188364 -1721 0
63 1 S102 796 1189160 -925 0
63 1 S102 797 1189957 -128 0
63 2 S102 824 1190781 696 0
63 2 S102 811 1191592 1507 0
63 2 S102 852 1192444 2359 0
63 2 S102 871 1193315 3230 0
63 2 S102 849 1194164 4079 0
63 2 S102 815 1194979 4894 0
63 2 S102 854 1195833 5748 0
63 2 S102 862 1196695 6610 0
0 0 0 823 1197518 -8250 0
0 0 0 841 1198359 -7409 0
0 0 0 794 1199153 -6615 0
0 0 0 730 1199883 -5885 0
0 0 0 727 1200610 -5158 0
0 0 0 726 1201336 -4432 0
0 0 0 733 1202069 -3699 0
0 0 0 722 1202791 -2977 0
0 0 0 689 1203480 -2288 0
64 1 S112 684 1204164 -1604 0
64 1 S112 705 1204869 -899 0
64 1 S112 722 1205591 -177 0
64 2 S112 737 1206328 560 0
64 2 S112 746 1207074 1306 0
64 2 S112 744 1207818 2050 0
64 2 S112 744 1208562 2794 0
64 2 S112 765 1209327 3559 0
64 2 S112 814 1210141 4373 0
64 2 S112 769 1210910 5142 0
64 2 S112 808 1211718 5950 0
64 2 S112 846 1212564 6796 0
0 0 0 915 1213479 -6630 0
0 0 0 857 1214336 -5773 0
0 0 0 869 1215205 -4904 0
0 0 0 809 1216014 -4095 0
0 0 0 787 1216801 -3308 0
0 0 0 802 1217603 -2506 0
65 1 S106 809 1218412 -1697 0
65 1 S106 817 1219229 -880 0
65 1 S106 783 1220012 -97 0
65 2 S106 846 1220858 749 0
65 2 S106 911 1221769 1660 0
65 2 S106 881 1222650 2541 0
65 2 S106 844 1223494 3385 0
65 2 S106 842 1224336 4227 0
65 2 S106 847 1225183 5074 0
65 2 S106 802 1225985 5876 0
65 2 S106 845 1226830 6721 0
0 0 0 883 1227713 -6239 0
0 0 0 862 1228575 -5377 0
0 0 0 808 1229383 -4569 0
0 0 0 794 1230177 -3775 0
0 0 0 810 1230987 -2965 0
0 0 0 796 1231783 -2169 0
66 1 S116 820 1232603 -1349 0
66 1 S116 848 1233451 -501 0
66 2 S116 790 1234241 289 0
66 2 S116 791 1235032 1080 0
66 2 S116 839 1235871 1919 0
66 2 S116 887 1236758 2806 0
66 2 S116 833 1237591 3639 0
66 2 S116 865 1238456 4504 0
66 2 S116 938 1239394 5442 0
66 2 S116 882 1240276 6324 0
0 0 0 883 1241159 -11062 0
0 0 0 880 1242039 -10182 0
0 0 0 833 1242872 -9349 0
0 0 0 785 1243657 -8564 0
0 0 0 785 1244442 -7779 0
0 0 0 791 1245233 -6988 0
0 0 0 778 1246011 -6210 0
0 0 0 790 1246801 -5420 0
0 0 0 856 1247657 -4564 0
0 0 0 862 1248519 -3702 0
0 0 0 844 1249363 -2858 0
67 1 S102 859 1250222 -1999 0
67 1 S102 841 1251063 -1158 0
67 1 S102 797 1251860 -361 0
67 2 S102 841 1252701 480 0
67 2 S102 841 1253542 1321 0
67 2 S102 791 1254333 2112 0
67 2 S102 733 1255066 2845 0
67 2 S102 744 1255810 3589 0
67 2 S102 772 1256582 4361 0
67 2 S102 844 1257426 5205 0
67 2 S102 825 1258251 6030 0
67 2 S102 784 1259035 6814 0
0 0 0 799 1259834 -6346 0
0 0 0 833 1260667 -5513 0
0 0 0 778 1261445 -4735 0
0 0 0 755 1262200 -3980 0
0 0 0 771 1262971 -3209 0
0 0 0 777 1263748 -2432 0
68 1 S106 781 1264529 -1651 0
68 1 S106 788 1265317 -863 0
68 1 S106 781 1266098 -82 0
68 2 S106 815 1266913 733 0
68 2 S106 767 1267680 1500 0
68 2 S106 817 1268497 2317 0
68 2 S106 916 1269413 3233 0
68 2 S106 909 1270322 4142 0
68 2 S106 835 1271157 4977 0
68 2 S106 834 1271991 5811 0
68 2 S106 836 1272827 6647 0
0 0 0 813 1273640 -10710 0
0 0 0 788 1274428 -9922 0
0 0 0 789 1275217 -9133 0
0 0 0 775 1275992 -8358 0
0 0 0 743 1276735 -7615 0
0 0 0 766 1277501 -6849 0
0 0 0 790 1278291 -6059 0
0 0 0 827 1279118 -5232 0
0 0 0 837 1279955 -4395 0
0 0 0 864 1280819 -3531 0
0 0 0 873 1281692 -2658 0
69 1 S102 820 1282512 -1838 0
69 1 S102 817 1283329 -1021 0
69 1 S102 800 1284129 -221 0
69 2 S102 794 1284923 573 0
69 2 S102 776 1285699 1349 0
69 2 S102 769 1286468 2118 0
69 2 S102 764 1287232 2882 0
69 2 S102 752 1287984 3634 0
69 2 S102 745 1288729 4379 0
69 2 S102 748 1289477 5127 0
69 2 S102 782 1290259 5909 0
69 2 S102 757 1291016 6666 0
0 0 0 772 1291788 -7997 0
0 0 0 801 1292589 -7196 0
0 0 0 790 1293379 -6406 0
0 0 0 759 1294138 -5647 0
0 0 0 764 1294902 -4883 0
0 0 0 772 1295674 -4111 0
0 0 0 768 1296442 -3343 0
0 0 0 701 1297143 -2642 0
70 1 S112 708 1297851 -1934 0
70 1 S112 706 1298557 -1228 0
70 1 S112 780 1299337 -448 0
70 2 S112 829 1300166 381 0
70 2 S112 809 1300975 1190 0
70 2 S112 800 1301775 1990 0
70 2 S112 797 1302572 2787 0
70 2 S112 823 1303395 3610 0
70 2 S112 839 1304234 4449 0
70 2 S112 791 1305025 5240 0
70 2 S112 782 1305807 6022 0
70 2 S112 792 1306599 6814 0
0 0 0 779 1307378 -9996 0
0 0 0 750 1308128 -9246 0
0 0 0 721 1308849 -8525 0
0 0 0 701 1309550 -7824 0
0 0 0 680 1310230 -7144 0
0 0 0 664 1310894 -6480 0
0 0 0 701 1311595 -5779 0
0 0 0 725 1312320 -5054 0
0 0 0 736 1313056 -4318 0
0 0 0 756 1313812 -3562 0
0 0 0 785 1314597 -2777 0
0 0 0 754 1315351 -2023 0
71 1 S116 782 1316133 -1241 0
71 1 S116 804 1316937 -437 0
71 2 S116 822 1317759 385 0
71 2 S116 809 1318568 1194 0
71 2 S116 883 1319451 2077 0
71 2 S116 918 1320369 2995 0
71 2 S116 893 1321262 3888 0
71 2 S116 923 1322185 4811 0
71 2 S116 911 1323096 5722 0
71 2 S116 853 1323949 6575 0
0 0 0 825 1324774 -9328 0
0 0 0 841 1325615 -8487 0
0 0 0 851 1326466 -7636 0
0 0 0 840 1327306 -6796 0
0 0 0 811 1328117 -5985 0
0 0 0 823 1328940 -5162 0
0 0 0 826 1329766 -4336 0
0 0 0 977 1330743 -3359 1
0 0 0 904 1331647 -2455 0
72 1 S102 825 1332472 -1630 0
72 1 S102 833 1333305 -797 0
72 2 S102 823 1334128 26 0
72 2 S102 787 1334915 813 0
72 2 S102 797 1335712 1610 0
72 2 S102 808 1336520 2418 0
72 2 S102 800 1337320 3218 0
72 2 S102 809 1338129 4027 0
72 2 S102 797 1338926 4824 0
72 2 S102 807 1339733 5631 0
72 2 S102 782 1340515 6413 0
0 0 0 807 1341322 -6573 0
0 0 0 824 1342146 -5749 0
0 0 0 804 1342950 -4945 0
0 0 0 753 1343703 -4192 0
0 0 0 761 1344464 -3431 0
0 0 0 767 1345231 -2664 0
73 1 S116 786 1346017 -1878 0
73 1 S116 820 1346837 -1058 0
73 1 S116 821 1347658 -237 0
73 2 S116 817 1348475 580 0
73 2 S116 823 1349298 1403 0
73 2 S116 905 1350203 2308 0
73 2 S116 898 1351101 3206 0
73 2 S116 837 1351938 4043 0
73 2 S116 850 1352788 4893 0
73 2 S116 891 1353679 5784 0
73 2 S116 866 1354545 6650 0
0 0 0 837 1355382 -9025 0
0 0 0 855 1356237 -8170 0
0 0 0 865 1357102 -7305 0
0 0 0 770 1357872 -6535 0
0 0 0 789 1358661 -5746 0
0 0 0 782 1359443 -4964 0
0 0 0 781 1360224 -4183 0
0 0 0 794 1361018 -3389 0
0 0 0 843 1361861 -2546 0
74 1 S106 862 1362723 -1684 0
74 1 S106 799 1363522 -885 0
74 1 S106 808 1364330 -77 0
74 2 S106 828 1365158 751 0
74 2 S106 807 1365965 1558 0
74 2 S106 771 1366736 2329 0
74 2 S106 771 1367507 3100 0
74 2 S106 789 1368296 3889 0
74 2 S106 782 1369078 4671 0
74 2 S106 782 1369860 5453 0
74 2 S106 814 1370674 6267 0
0 0 0 849 1371523 -7473 0
0 0 0 811 1372334 -6662 0
0 0 0 829 1373163 -5833 0
0 0 0 889 1374052 -4944 0
0 0 0 842 1374894 -4102 0
0 0 0 812 1375706 -3290 0
0 0 0 819 1376525 -2471 0
75 1 S112 818 1377343 -1653 0
75 1 S112 790 1378133 -863 0
75 1 S112 813 1378946 -50 0
75 2 S112 816 1379762 766 0
75 2 S112 828 1380590 1594 0
75 2 S112 792 1381382 2386 0
75 2 S112 814 1382196 3200 0
75 2 S112 857 1383053 4057 0
75 2 S112 824 1383877 4881 0
75 2 S112 796 1384673 5677 0
75 2 S112 805 1385478 6482 0
0 0 0 814 1386292 -6663 0
0 0 0 797 1387089 -5866 0
0 0 0 799 1387888 -5067 0
0 0 0 802 1388690 -4265 0
0 0 0 776 1389466 -3489 0
0 0 0 779 1390245 -2710 0
76 1 S116 805 1391050 -1905 0
76 1 S116 834 1391884 -1071 0
76 1 S116 806 1392690 -265 0
76 2 S116 828 1393518 563 0
76 2 S116 861 1394379 1424 0
76 2 S116 856 1395235 2280 0
76 2 S116 814 1396049 3094 0
76 2 S116 798 1396847 3892 0
76 2 S116 780 1397627 4672 0
76 2 S116 741 1398368 5413 0
76 2 S116 764 1399132 6177 0
76 2 S116 786 1399918 6963 0
0 0 0 837 1400755 -7336 0
0 0 0 832 1401587 -6504 0
0 0 0 874 1402461 -5630 0
0 0 0 893 1403354 -4737 0
0 0 0 794 1404148 -3943 0
0 0 0 763 1404911 -3180 0
0 0 0 723 1405634 -2457 0
77 1 S106 699 1406333 -1758 0
77 1 S106 671 1407004 -1087 0
77 1 S106 651 1407655 -436 0
77 2 S106 636 1408291 200 0
77 2 S106 655 1408946 855 0
77 2 S106 679 1409625 1534 0
77 2 S106 721 1410346 2255 0
77 2 S106 715 1411061 2970 0
77 2 S106 742 1411803 3712 0
77 2 S106 791 1412594 4503 0
77 2 S106 815 1413409 5318 0
77 2 S106 782 1414191 6100 0
77 2 S106 782 1414973 6882 0
0 0 0 815 1415788 -7191 0
0 0 0 769 1416557 -6422 0
0 0 0 780 1417337 -5642 0
0 0 0 796 1418133 -4846 0
0 0 0 796 1418929 -4050 0
0 0 0 781 1419710 -3269 0
0 0 0 811 1420521 -2458 0
78 1 S112 857 1421378 -1601 0
78 1 S112 831 1422209 -770 0
78 2 S112 856 1423065 86 0
78 2 S112 876 1423941 962 0
78 2 S112 857 1424798 1819 0
78 2 S112 795 1425593 2614 0
78 2 S112 797 1426390 3411 0
78 2 S112 797 1427187 4208 0
78 2 S112 815 1428002 5023 0
78 2 S112 780 1428782 5803 0
78 2 S112 797 1429579 6600 0
0 0 0 825 1430404 -11142 0
0 0 0 845 1431249 -10297 0
0 0 0 836 1432085 -9461 0
0 0 0 853 1432938 -8608 0
0 0 0 808 1433746 -7800 0
0 0 0 774 1434520 -7026 0
0 0 0 786 1435306 -6240 0
0 0 0 777 1436083 -5463 0
0 0 0 810 1436893 -4653 0
0 0 0 775 1437668 -3878 0
0 0 0 786 1438454 -3092 0
0 0 0 807 1439261 -2285 0
79 1 S102 827 1440088 -1458 0
79 1 S102 787 1440875 -671 0
79 2 S102 783 1441658 112 0
79 2 S102 776 1442434 888 0
79 2 S102 749 1443183 1637 0
79 2 S102 763 1443946 2400 0
79 2 S102 768 1444714 3168 0
79 2 S102 776 1445490 3944 0
79 2 S102 749 1446239 4693 0
79 2 S102 755 1446994 5448 0
79 2 S102 794 1447788 6242 0
0 0 0 836 1448624 -8589 0
0 0 0 822 1449446 -7767 0
0 0 0 808 1450254 -6959 0
0 0 0 773 1451027 -6186 0
0 0 0 725 1451752 -5461 0
0 0 0 753 1452505 -4708 0
0 0 0 753 1453258 -3955 0
0 0 0 763 1454021 -3192 0
0 0 0 765 1454786 -2427 0
80 1 S116 760 1455546 -1667 0
80 1 S116 772 1456318 -895 0
80 1 S116 844 1457162 -51 0
80 2 S116 785 1457947 734 0
80 2 S116 830 1458777 1564 0
80 2 S116 866 1459643 2430 0
80 2 S116 870 1460513 3300 0
80 2 S116 812 1461325 4112 0
80 2 S116 832 1462157 4944 0
80 2 S116 808 1462965 5752 0
80 2 S116 792 1463757 6544 0
