T_0180
BeatCount Mean SD BeatCountNoOutliers MeanNoOutliers SDNoOutliers
1699 895,747498528546 85,0767846797359 1666 899,001200480192 79,3173851555063

Trial TrialStatus Trialtype IBI AbsPosition RelPosition Outlier
0 0 0 902 969 -15323 0
0 0 0 938 1907 -14385 0
0 0 0 928 2835 -13457 0
0 0 0 907 3742 -12550 0
0 0 0 892 4634 -11658 0
0 0 0 833 5467 -10825 0
0 0 0 755 6222 -10070 0
0 0 0 762 6984 -9308 0
0 0 0 743 7727 -8565 0
0 0 0 814 8541 -7751 0
0 0 0 803 9344 -6948 0
0 0 0 745 10089 -6203 0
0 0 0 704 10793 -5499 0
0 0 0 815 11608 -4684 0
0 0 0 816 12424 -3868 0
0 0 0 783 13207 -3085 0
0 0 0 739 13946 -2346 0
1 1 S112 875 14821 -1471 0
1 1 S112 934 15755 -537 0
1 2 S112 998 16753 461 0
1 2 S112 943 17696 1404 0
1 2 S112 876 18572 2280 0
1 2 S112 812 19384 3092 0
1 2 S112 694 20078 3786 0
1 2 S112 732 20810 4518 0
1 2 S112 721 21531 5239 0
1 2 S112 890 22421 6129 0
0 0 0 976 23397 -10485 0
0 0 0 930 24327 -9555 0
0 0 0 820 25147 -8735 0
0 0 0 862 26009 -7873 0
0 0 0 914 26923 -6959 0
0 0 0 912 27835 -6047 0
0 0 0 887 28722 -5160 0
0 0 0 978 29700 -4182 0
0 0 0 1066 30766 -3116 0
0 0 0 1020 31786 -2096 0
2 1 S102 884 32670 -1212 0
2 1 S102 901 33571 -311 0
2 2 S102 934 34505 623 0
2 2 S102 960 35465 1583 0
2 2 S102 937 36402 2520 0
2 2 S102 837 37239 3357 0
2 2 S102 875 38114 4232 0
2 2 S102 948 39062 5180 0
2 2 S102 984 40046 6164 0
0 0 0 974 41020 -8644 0
0 0 0 896 41916 -7748 0
0 0 0 930 42846 -6818 0
0 0 0 892 43738 -5926 0
0 0 0 858 44596 -5068 0
0 0 0 830 45426 -4238 0
0 0 0 934 46360 -3304 0
0 0 0 1041 47401 -2263 0
3 1 S116 1031 48432 -1232 0
3 1 S116 973 49405 -259 0
3 2 S116 908 50313 649 0
3 2 S116 958 51271 1607 0
3 2 S116 1002 52273 2609 0
3 2 S116 991 53264 3600 0
3 2 S116 894 54158 4494 0
3 2 S116 902 55060 5396 0
3 2 S116 932 55992 6328 0
0 0 0 943 56935 -11562 0
0 0 0 949 57884 -10613 0
0 0 0 832 58716 -9781 0
0 0 0 880 59596 -8901 0
0 0 0 877 60473 -8024 0
0 0 0 893 61366 -7131 0
0 0 0 830 62196 -6301 0
0 0 0 895 63091 -5406 0
0 0 0 962 64053 -4444 0
0 0 0 950 65003 -3494 0
0 0 0 939 65942 -2555 0
4 1 S106 864 66806 -1691 0
4 1 S106 877 67683 -814 0
4 2 S106 911 68594 97 0
4 2 S106 933 69527 1030 0
4 2 S106 944 70471 1974 0
4 2 S106 893 71364 2867 0
4 2 S106 899 72263 3766 0
4 2 S106 934 73197 4700 0
4 2 S106 950 74147 5650 0
4 2 S106 950 75097 6600 0
0 0 0 848 75945 -6395 0
0 0 0 859 76804 -5536 0
0 0 0 893 77697 -4643 0
0 0 0 899 78596 -3744 0
0 0 0 853 79449 -2891 0
0 0 0 799 80248 -2092 0
5 1 S116 845 81093 -1247 0
5 1 S116 894 81987 -353 0
5 2 S116 956 82943 603 0
5 2 S116 958 83901 1561 0
5 2 S116 950 84851 2511 0
5 2 S116 914 85765 3425 0
5 2 S116 793 86558 4218 0
5 2 S116 811 87369 5029 0
5 2 S116 875 88244 5904 0
5 2 S116 972 89216 6876 0
0 0 0 987 90203 -8368 0
0 0 0 928 91131 -7440 0
0 0 0 872 92003 -6568 0
0 0 0 869 92872 -5699 0
0 0 0 905 93777 -4794 0
0 0 0 924 94701 -3870 0
0 0 0 916 95617 -2954 0
0 0 0 875 96492 -2079 0
6 1 S106 923 97415 -1156 0
6 1 S106 987 98402 -169 0
6 2 S106 1011 99413 842 0
6 2 S106 939 100352 1781 0
6 2 S106 864 101216 2645 0
6 2 S106 879 102095 3524 0
6 2 S106 908 103003 4432 0
6 2 S106 944 103947 5376 0
6 2 S106 949 104896 6325 0
0 0 0 853 105749 -10925 0
0 0 0 911 106660 -10014 0
0 0 0 963 107623 -9051 0
0 0 0 926 108549 -8125 0
0 0 0 834 109383 -7291 0
0 0 0 859 110242 -6432 0
0 0 0 880 111122 -5552 0
0 0 0 886 112008 -4666 0
0 0 0 851 112859 -3815 0
0 0 0 847 113706 -2968 0
0 0 0 881 114587 -2087 0
7 1 S102 897 115484 -1190 0
7 1 S102 890 116374 -300 0
7 2 S102 819 117193 519 0
7 2 S102 856 118049 1375 0
7 2 S102 885 118934 2260 0
7 2 S102 916 119850 3176 0
7 2 S102 938 120788 4114 0
7 2 S102 864 121652 4978 0
7 2 S102 906 122558 5884 0
7 2 S102 942 123500 6826 0
0 0 0 1013 124513 -9021 0
0 0 0 946 125459 -8075 0
0 0 0 893 126352 -7182 0
0 0 0 907 127259 -6275 0
0 0 0 905 128164 -5370 0
0 0 0 869 129033 -4501 0
0 0 0 821 129854 -3680 0
0 0 0 868 130722 -2812 0
8 1 S112 880 131602 -1932 0
8 1 S112 888 132490 -1044 0
8 1 S112 816 133306 -228 0
8 2 S112 830 134136 602 0
8 2 S112 838 134974 1440 0
8 2 S112 820 135794 2260 0
8 2 S112 784 136578 3044 0
8 2 S112 707 137285 3751 0
8 2 S112 695 137980 4446 0
8 2 S112 675 138655 5121 1
8 2 S112 685 139340 5806 0
8 2 S112 738 140078 6544 0
0 0 0 849 140927 -8075 0
0 0 0 909 141836 -7166 0
0 0 0 822 142658 -6344 0
0 0 0 846 143504 -5498 0
0 0 0 866 144370 -4632 0
0 0 0 861 145231 -3771 0
0 0 0 838 146069 -2933 0
0 0 0 758 146827 -2175 0
9 1 S116 875 147702 -1300 0
9 1 S116 889 148591 -411 0
9 2 S116 965 149556 554 0
9 2 S116 984 150540 1538 0
9 2 S116 877 151417 2415 0
9 2 S116 884 152301 3299 0
9 2 S116 935 153236 4234 0
9 2 S116 955 154191 5189 0
9 2 S116 934 155125 6123 0
9 2 S116 854 155979 6977 0
0 0 0 916 156895 -11421 0
0 0 0 950 157845 -10471 0
0 0 0 982 158827 -9489 0
0 0 0 904 159731 -8585 0
0 0 0 845 160576 -7740 0
0 0 0 869 161445 -6871 0
0 0 0 921 162366 -5950 0
0 0 0 940 163306 -5010 0
0 0 0 883 164189 -4127 0
0 0 0 841 165030 -3286 0
0 0 0 899 165929 -2387 0
10 1 S102 957 166886 -1430 0
10 1 S102 1002 167888 -428 0
10 2 S102 984 168872 556 0
10 2 S102 888 169760 1444 0
10 2 S102 896 170656 2340 0
10 2 S102 928 171584 3268 0
10 2 S102 942 172526 4210 0
10 2 S102 929 173455 5139 0
10 2 S102 848 174303 5987 0
10 2 S102 800 175103 6787 0
0 0 0 824 175927 -11437 0
0 0 0 851 176778 -10586 0
0 0 0 881 177659 -9705 0
0 0 0 825 178484 -8880 0
0 0 0 827 179311 -8053 0
0 0 0 871 180182 -7182 0
0 0 0 903 181085 -6279 0
0 0 0 882 181967 -5397 0
0 0 0 877 182844 -4520 0
0 0 0 954 183798 -3566 0
0 0 0 1044 184842 -2522 0
11 1 S112 1001 185843 -1521 0
11 1 S112 899 186742 -622 0
11 2 S112 916 187658 294 0
11 2 S112 920 188578 1214 0
11 2 S112 929 189507 2143 0
11 2 S112 896 190403 3039 0
11 2 S112 810 191213 3849 0
11 2 S112 846 192059 4695 0
11 2 S112 877 192936 5572 0
11 2 S112 923 193859 6495 0
0 0 0 899 194758 -7941 0
0 0 0 808 195566 -7133 0
0 0 0 852 196418 -6281 0
0 0 0 915 197333 -5366 0
0 0 0 944 198277 -4422 0
0 0 0 878 199155 -3544 0
0 0 0 879 200034 -2665 0
12 1 S116 907 200941 -1758 0
12 1 S116 941 201882 -817 0
12 2 S116 887 202769 70 0
12 2 S116 835 203604 905 0
12 2 S116 868 204472 1773 0
12 2 S116 901 205373 2674 0
12 2 S116 923 206296 3597 0
12 2 S116 879 207175 4476 0
12 2 S116 877 208052 5353 0
12 2 S116 930 208982 6283 0
0 0 0 961 209943 -11540 0
0 0 0 959 210902 -10581 0
0 0 0 849 211751 -9732 0
0 0 0 862 212613 -8870 0
0 0 0 891 213504 -7979 0
0 0 0 892 214396 -7087 0
0 0 0 849 215245 -6238 0
0 0 0 878 216123 -5360 0
0 0 0 924 217047 -4436 0
0 0 0 974 218021 -3462 0
0 0 0 969 218990 -2493 0
13 1 S112 876 219866 -1617 0
13 1 S112 907 220773 -710 0
13 2 S112 932 221705 222 0
13 2 S112 940 222645 1162 0
13 2 S112 871 223516 2033 0
13 2 S112 804 224320 2837 0
13 2 S112 852 225172 3689 0
13 2 S112 893 226065 4582 0
13 2 S112 981 227046 5563 0
13 2 S112 962 228008 6525 0
0 0 0 902 228910 -12019 0
0 0 0 828 229738 -11191 0
0 0 0 877 230615 -10314 0
0 0 0 947 231562 -9367 0
0 0 0 952 232514 -8415 0
0 0 0 915 233429 -7500 0
0 0 0 952 234381 -6548 0
0 0 0 991 235372 -5557 0
0 0 0 1020 236392 -4537 0
0 0 0 998 237390 -3539 0
0 0 0 916 238306 -2623 0
14 1 S106 881 239187 -1742 0
14 1 S106 892 240079 -850 0
14 2 S106 923 241002 73 0
14 2 S106 952 241954 1025 0
14 2 S106 960 242914 1985 0
14 2 S106 878 243792 2863 0
14 2 S106 838 244630 3701 0
14 2 S106 880 245510 4581 0
14 2 S106 922 246432 5503 0
14 2 S106 966 247398 6469 0
0 0 0 959 248357 -10411 0
0 0 0 855 249212 -9556 0
0 0 0 889 250101 -8667 0
0 0 0 908 251009 -7759 0
0 0 0 950 251959 -6809 0
0 0 0 924 252883 -5885 0
0 0 0 883 253766 -5002 0
0 0 0 923 254689 -4079 0
0 0 0 933 255622 -3146 0
0 0 0 933 256555 -2213 0
15 1 S116 878 257433 -1335 0
15 1 S116 915 258348 -420 0
15 2 S116 964 259312 544 0
15 2 S116 954 260266 1498 0
15 2 S116 872 261138 2370 0
15 2 S116 864 262002 3234 0
15 2 S116 888 262890 4122 0
15 2 S116 913 263803 5035 0
15 2 S116 869 264672 5904 0
15 2 S116 847 265519 6751 0
0 0 0 877 266396 -9049 0
0 0 0 901 267297 -8148 0
0 0 0 862 268159 -7286 0
0 0 0 817 268976 -6469 0
0 0 0 843 269819 -5626 0
0 0 0 840 270659 -4786 0
0 0 0 862 271521 -3924 0
0 0 0 813 272334 -3111 0
0 0 0 818 273152 -2293 0
16 1 S116 850 274002 -1443 0
16 1 S116 888 274890 -555 0
16 2 S116 894 275784 339 0
16 2 S116 796 276580 1135 0
16 2 S116 842 277422 1977 0
16 2 S116 833 278255 2810 0
16 2 S116 877 279132 3687 0
16 2 S116 907 280039 4594 0
16 2 S116 797 280836 5391 0
16 2 S116 782 281618 6173 0
0 0 0 865 282483 -10353 0
0 0 0 887 283370 -9466 0
0 0 0 931 284301 -8535 0
0 0 0 847 285148 -7688 0
0 0 0 852 286000 -6836 0
0 0 0 848 286848 -5988 0
0 0 0 854 287702 -5134 0
0 0 0 742 288444 -4392 0
0 0 0 855 289299 -3537 0
0 0 0 859 290158 -2678 0
17 1 S106 922 291080 -1756 0
17 1 S106 941 292021 -815 0
17 2 S106 863 292884 48 0
17 2 S106 886 293770 934 0
17 2 S106 900 294670 1834 0
17 2 S106 900 295570 2734 0
17 2 S106 832 296402 3566 0
17 2 S106 738 297140 4304 0
17 2 S106 824 297964 5128 0
17 2 S106 779 298743 5907 0
17 2 S106 946 299689 6853 0
0 0 0 901 300590 -10400 0
0 0 0 819 301409 -9581 0
0 0 0 892 302301 -8689 0
0 0 0 900 303201 -7789 0
0 0 0 892 304093 -6897 0
0 0 0 820 304913 -6077 0
0 0 0 890 305803 -5187 0
0 0 0 942 306745 -4245 0
0 0 0 977 307722 -3268 0
0 0 0 882 308604 -2386 0
18 1 S102 879 309483 -1507 0
18 1 S102 912 310395 -595 0
18 2 S102 937 311332 342 0
18 2 S102 946 312278 1288 0
18 2 S102 854 313132 2142 0
18 2 S102 856 313988 2998 0
18 2 S102 885 314873 3883 0
18 2 S102 922 315795 4805 0
18 2 S102 926 316721 5731 0
18 2 S102 835 317556 6566 0
0 0 0 846 318402 -5552 0
0 0 0 873 319275 -4679 0
0 0 0 884 320159 -3795 0
0 0 0 862 321021 -2933 0
0 0 0 878 321899 -2055 0
19 1 S106 918 322817 -1137 0
19 1 S106 936 323753 -201 0
19 2 S106 937 324690 736 0
19 2 S106 842 325532 1578 0
19 2 S106 848 326380 2426 0
19 2 S106 870 327250 3296 0
19 2 S106 889 328139 4185 0
19 2 S106 877 329016 5062 0
19 2 S106 844 329860 5906 0
19 2 S106 899 330759 6805 0
0 0 0 954 331713 -10825 0
0 0 0 982 332695 -9843 0
0 0 0 915 333610 -8928 0
0 0 0 869 334479 -8059 0
0 0 0 877 335356 -7182 0
0 0 0 896 336252 -6286 0
0 0 0 886 337138 -5400 0
0 0 0 826 337964 -4574 0
0 0 0 881 338845 -3693 0
0 0 0 904 339749 -2789 0
20 1 S112 928 340677 -1861 0
20 1 S112 870 341547 -991 0
20 1 S112 855 342402 -136 0
20 2 S112 897 343299 761 0
20 2 S112 925 344224 1686 0
20 2 S112 942 345166 2628 0
20 2 S112 862 346028 3490 0
20 2 S112 907 346935 4397 0
20 2 S112 933 347868 5330 0
20 2 S112 942 348810 6272 0
0 0 0 875 349685 -10294 0
0 0 0 899 350584 -9395 0
0 0 0 883 351467 -8512 0
0 0 0 885 352352 -7627 0
0 0 0 804 353156 -6823 0
0 0 0 773 353929 -6050 0
0 0 0 752 354681 -5298 0
0 0 0 717 355398 -4581 0
0 0 0 724 356122 -3857 0
0 0 0 684 356806 -3173 0
0 0 0 736 357542 -2437 0
21 1 S106 732 358274 -1705 0
21 1 S106 847 359121 -858 0
21 1 S106 846 359967 -12 0
21 2 S106 777 360744 765 0
21 2 S106 798 361542 1563 0
21 2 S106 837 362379 2400 0
21 2 S106 722 363101 3122 0
21 2 S106 719 363820 3841 0
21 2 S106 688 364508 4529 0
21 2 S106 815 365323 5344 0
21 2 S106 743 366066 6087 0
21 2 S106 796 366862 6883 0
0 0 0 734 367596 -11348 0
0 0 0 733 368329 -10615 0
0 0 0 712 369041 -9903 0
0 0 0 688 369729 -9215 0
0 0 0 715 370444 -8500 0
0 0 0 716 371160 -7784 0
0 0 0 718 371878 -7066 0
0 0 0 683 372561 -6383 0
0 0 0 660 373221 -5723 1
0 0 0 664 373885 -5059 1
0 0 0 671 374556 -4388 1
0 0 0 706 375262 -3682 0
0 0 0 810 376072 -2872 0
0 0 0 798 376870 -2074 0
22 1 S116 725 377595 -1349 0
22 1 S116 817 378412 -532 0
22 2 S116 872 379284 340 0
22 2 S116 996 380280 1336 0
22 2 S116 971 381251 2307 0
22 2 S116 889 382140 3196 0
22 2 S116 962 383102 4158 0
22 2 S116 971 384073 5129 0
22 2 S116 986 385059 6115 0
22 2 S116 886 385945 7001 0
0 0 0 862 386807 -8533 0
0 0 0 895 387702 -7638 0
0 0 0 924 388626 -6714 0
0 0 0 805 389431 -5909 0
0 0 0 787 390218 -5122 0
0 0 0 810 391028 -4312 0
0 0 0 868 391896 -3444 0
0 0 0 898 392794 -2546 0
23 1 S112 808 393602 -1738 0
23 1 S112 867 394469 -871 0
23 2 S112 933 395402 62 0
23 2 S112 1029 396431 1091 0
23 2 S112 950 397381 2041 0
23 2 S112 842 398223 2883 0
23 2 S112 883 399106 3766 0
23 2 S112 935 400041 4701 0
23 2 S112 951 400992 5652 0
23 2 S112 900 401892 6552 0
0 0 0 850 402742 -9691 0
0 0 0 913 403655 -8778 0
0 0 0 1003 404658 -7775 0
0 0 0 1002 405660 -6773 0
0 0 0 856 406516 -5917 0
0 0 0 886 407402 -5031 0
0 0 0 953 408355 -4078 0
0 0 0 1021 409376 -3057 0
0 0 0 954 410330 -2103 0
24 1 S106 916 411246 -1187 0
24 1 S106 1000 412246 -187 0
24 2 S106 1073 413319 886 0
24 2 S106 1052 414371 1938 0
24 2 S106 977 415348 2915 0
24 2 S106 858 416206 3773 0
24 2 S106 803 417009 4576 0
24 2 S106 835 417844 5411 0
24 2 S106 848 418692 6259 0
0 0 0 888 419580 -9879 0
0 0 0 930 420510 -8949 0
0 0 0 924 421434 -8025 0
0 0 0 849 422283 -7176 0
0 0 0 886 423169 -6290 0
0 0 0 873 424042 -5417 0
0 0 0 843 424885 -4574 0
0 0 0 846 425731 -3728 0
0 0 0 782 426513 -2946 0
0 0 0 821 427334 -2125 0
25 1 S102 920 428254 -1205 0
25 1 S102 1086 429340 -119 0
25 2 S102 1085 430425 966 0
25 2 S102 1027 431452 1993 0
25 2 S102 964 432416 2957 0
25 2 S102 877 433293 3834 0
25 2 S102 909 434202 4743 0
25 2 S102 938 435140 5681 0
25 2 S102 964 436104 6645 0
0 0 0 906 437010 -8381 0
0 0 0 885 437895 -7496 0
0 0 0 933 438828 -6563 0
0 0 0 956 439784 -5607 0
0 0 0 947 440731 -4660 0
0 0 0 811 441542 -3849 0
0 0 0 847 442389 -3002 0
0 0 0 885 443274 -2117 0
26 1 S116 916 444190 -1201 0
26 1 S116 942 445132 -259 0
26 2 S116 831 445963 572 0
26 2 S116 858 446821 1430 0
26 2 S116 930 447751 2360 0
26 2 S116 991 448742 3351 0
26 2 S116 960 449702 4311 0
26 2 S116 946 450648 5257 0
26 2 S116 1015 451663 6272 0
0 0 0 1069 452732 -7795 0
0 0 0 1016 453748 -6779 0
0 0 0 854 454602 -5925 0
0 0 0 884 455486 -5041 0
0 0 0 855 456341 -4186 0
0 0 0 862 457203 -3324 0
0 0 0 777 457980 -2547 0
27 1 S106 796 458776 -1751 0
27 1 S106 835 459611 -916 0
27 1 S106 908 460519 -8 0
27 2 S106 971 461490 963 0
27 2 S106 904 462394 1867 0
27 2 S106 859 463253 2726 0
27 2 S106 943 464196 3669 0
27 2 S106 988 465184 4657 0
27 2 S106 1000 466184 5657 0
27 2 S106 991 467175 6648 0
0 0 0 861 468036 -7793 0
0 0 0 941 468977 -6852 0
0 0 0 992 469969 -5860 0
0 0 0 1046 471015 -4814 0
0 0 0 883 471898 -3931 0
0 0 0 872 472770 -3059 0
0 0 0 895 473665 -2164 0
28 1 S102 949 474614 -1215 0
28 1 S102 926 475540 -289 0
28 2 S102 904 476444 615 0
28 2 S102 970 477414 1585 0
28 2 S102 1013 478427 2598 0
28 2 S102 980 479407 3578 0
28 2 S102 860 480267 4438 0
28 2 S102 907 481174 5345 0
28 2 S102 938 482112 6283 0
0 0 0 957 483069 -11427 0
0 0 0 931 484000 -10496 0
0 0 0 847 484847 -9649 0
0 0 0 901 485748 -8748 0
0 0 0 915 486663 -7833 0
0 0 0 902 487565 -6931 0
0 0 0 827 488392 -6104 0
0 0 0 893 489285 -5211 0
0 0 0 958 490243 -4253 0
0 0 0 1026 491269 -3227 0
0 0 0 973 492242 -2254 0
29 1 S112 873 493115 -1381 0
29 1 S112 909 494024 -472 0
29 2 S112 974 494998 502 0
29 2 S112 1042 496040 1544 0
29 2 S112 1034 497074 2578 0
29 2 S112 939 498013 3517 0
29 2 S112 990 499003 4507 0
29 2 S112 1038 500041 5545 0
29 2 S112 986 501027 6531 0
0 0 0 894 501921 -7595 0
0 0 0 968 502889 -6627 0
0 0 0 1014 503903 -5613 0
0 0 0 982 504885 -4631 0
0 0 0 837 505722 -3794 0
0 0 0 882 506604 -2912 0
30 1 S112 953 507557 -1959 0
30 1 S112 1020 508577 -939 0
30 2 S112 1024 509601 85 0
30 2 S112 911 510512 996 0
30 2 S112 927 511439 1923 0
30 2 S112 964 512403 2887 0
30 2 S112 980 513383 3867 0
30 2 S112 907 514290 4774 0
30 2 S112 813 515103 5587 0
30 2 S112 801 515904 6388 0
0 0 0 797 516701 -9509 0
0 0 0 698 517399 -8811 0
0 0 0 753 518152 -8058 0
0 0 0 863 519015 -7195 0
0 0 0 856 519871 -6339 0
0 0 0 803 520674 -5536 0
0 0 0 723 521397 -4813 0
0 0 0 764 522161 -4049 0
0 0 0 753 522914 -3296 0
0 0 0 841 523755 -2455 0
31 1 S106 723 524478 -1732 0
31 1 S106 718 525196 -1014 0
31 1 S106 679 525875 -335 0
31 2 S106 665 526540 330 1
31 2 S106 673 527213 1003 1
31 2 S106 660 527873 1663 1
31 2 S106 671 528544 2334 1
31 2 S106 766 529310 3100 0
31 2 S106 908 530218 4008 0
31 2 S106 1035 531253 5043 0
31 2 S106 989 532242 6032 0
31 2 S106 892 533134 6924 0
0 0 0 935 534069 -10013 0
0 0 0 969 535038 -9044 0
0 0 0 988 536026 -8056 0
0 0 0 905 536931 -7151 0
0 0 0 886 537817 -6265 0
0 0 0 870 538687 -5395 0
0 0 0 878 539565 -4517 0
0 0 0 845 540410 -3672 0
0 0 0 793 541203 -2879 0
0 0 0 814 542017 -2065 0
32 1 S102 824 542841 -1241 0
32 1 S102 837 543678 -404 0
32 2 S102 889 544567 485 0
32 2 S102 837 545404 1322 0
32 2 S102 839 546243 2161 0
32 2 S102 920 547163 3081 0
32 2 S102 1017 548180 4098 0
32 2 S102 1035 549215 5133 0
32 2 S102 1012 550227 6145 0
0 0 0 890 551117 -10637 0
0 0 0 914 552031 -9723 0
0 0 0 953 552984 -8770 0
0 0 0 958 553942 -7812 0
0 0 0 934 554876 -6878 0
0 0 0 843 555719 -6035 0
0 0 0 879 556598 -5156 0
0 0 0 963 557561 -4193 0
0 0 0 994 558555 -3199 0
0 0 0 931 559486 -2268 0
33 1 S112 915 560401 -1353 0
33 1 S112 950 561351 -403 0
33 2 S112 975 562326 572 0
33 2 S112 981 563307 1553 0
33 2 S112 926 564233 2479 0
33 2 S112 972 565205 3451 0
33 2 S112 1044 566249 4495 0
33 2 S112 1053 567302 5548 0
33 2 S112 1001 568303 6549 0
0 0 0 948 569251 -12663 0
0 0 0 975 570226 -11688 0
0 0 0 979 571205 -10709 0
0 0 0 949 572154 -9760 0
0 0 0 846 573000 -8914 0
0 0 0 880 573880 -8034 0
0 0 0 920 574800 -7114 0
0 0 0 974 575774 -6140 0
0 0 0 1018 576792 -5122 0
0 0 0 910 577702 -4212 0
0 0 0 892 578594 -3320 0
0 0 0 923 579517 -2397 0
34 1 S106 1008 580525 -1389 0
34 1 S106 1001 581526 -388 0
34 2 S106 915 582441 527 0
34 2 S106 958 583399 1485 0
34 2 S106 994 584393 2479 0
34 2 S106 990 585383 3469 0
34 2 S106 983 586366 4452 0
34 2 S106 880 587246 5332 0
34 2 S106 891 588137 6223 0
0 0 0 931 589068 -10469 0
0 0 0 964 590032 -9505 0
0 0 0 932 590964 -8573 0
0 0 0 886 591850 -7687 0
0 0 0 916 592766 -6771 0
0 0 0 912 593678 -5859 0
0 0 0 839 594517 -5020 0
0 0 0 854 595371 -4166 0
0 0 0 883 596254 -3283 0
0 0 0 923 597177 -2360 0
35 1 S102 940 598117 -1420 0
35 1 S102 871 598988 -549 0
35 2 S102 906 599894 357 0
35 2 S102 930 600824 1287 0
35 2 S102 951 601775 2238 0
35 2 S102 936 602711 3174 0
35 2 S102 821 603532 3995 0
35 2 S102 855 604387 4850 0
35 2 S102 905 605292 5755 0
35 2 S102 931 606223 6686 0
0 0 0 918 607141 -5509 0
0 0 0 850 607991 -4659 0
0 0 0 874 608865 -3785 0
0 0 0 888 609753 -2897 0
36 1 S106 932 610685 -1965 0
36 1 S106 912 611597 -1053 0
36 1 S106 837 612434 -216 0
36 2 S106 880 613314 664 0
36 2 S106 916 614230 1580 0
36 2 S106 926 615156 2506 0
36 2 S106 883 616039 3389 0
36 2 S106 845 616884 4234 0
36 2 S106 900 617784 5134 0
36 2 S106 918 618702 6052 0
36 2 S106 893 619595 6945 0
0 0 0 824 620419 -8793 0
0 0 0 855 621274 -7938 0
0 0 0 885 622159 -7053 0
0 0 0 874 623033 -6179 0
0 0 0 806 623839 -5373 0
0 0 0 852 624691 -4521 0
0 0 0 908 625599 -3613 0
0 0 0 938 626537 -2675 0
37 1 S116 874 627411 -1801 0
37 1 S116 921 628332 -880 0
37 2 S116 959 629291 79 0
37 2 S116 1013 630304 1092 0
37 2 S116 925 631229 2017 0
37 2 S116 862 632091 2879 0
37 2 S116 887 632978 3766 0
37 2 S116 934 633912 4700 0
37 2 S116 912 634824 5612 0
37 2 S116 832 635656 6444 0
0 0 0 853 636509 -12995 0
0 0 0 887 637396 -12108 0
0 0 0 896 638292 -11212 0
0 0 0 892 639184 -10320 0
0 0 0 818 640002 -9502 0
0 0 0 856 640858 -8646 0
0 0 0 851 641709 -7795 0
0 0 0 820 642529 -6975 0
0 0 0 799 643328 -6176 0
0 0 0 816 644144 -5360 0
0 0 0 848 644992 -4512 0
0 0 0 910 645902 -3602 0
0 0 0 970 646872 -2632 0
38 1 S102 874 647746 -1758 0
38 1 S102 885 648631 -873 0
38 2 S102 888 649519 15 0
38 2 S102 890 650409 905 0
38 2 S102 858 651267 1763 0
38 2 S102 861 652128 2624 0
38 2 S102 918 653046 3542 0
38 2 S102 947 653993 4489 0
38 2 S102 980 654973 5469 0
38 2 S102 897 655870 6366 0
0 0 0 884 656754 -9759 0
0 0 0 899 657653 -8860 0
0 0 0 917 658570 -7943 0
0 0 0 896 659466 -7047 0
0 0 0 826 660292 -6221 0
0 0 0 872 661164 -5349 0
0 0 0 903 662067 -4446 0
0 0 0 921 662988 -3525 0
0 0 0 850 663838 -2675 0
39 1 S116 883 664721 -1792 0
39 1 S116 925 665646 -867 0
39 2 S116 948 666594 81 0
39 2 S116 899 667493 980 0
39 2 S116 879 668372 1859 0
39 2 S116 936 669308 2795 0
39 2 S116 981 670289 3776 0
39 2 S116 997 671286 4773 0
39 2 S116 951 672237 5724 0
39 2 S116 898 673135 6622 0
0 0 0 913 674048 -8613 0
0 0 0 922 674970 -7691 0
0 0 0 892 675862 -6799 0
0 0 0 806 676668 -5993 0
0 0 0 861 677529 -5132 0
0 0 0 870 678399 -4262 0
0 0 0 909 679308 -3353 0
0 0 0 852 680160 -2501 0
40 1 S112 926 681086 -1575 0
40 1 S112 1004 682090 -571 0
40 2 S112 1071 683161 500 0
40 2 S112 989 684150 1489 0
40 2 S112 867 685017 2356 0
40 2 S112 866 685883 3222 0
40 2 S112 864 686747 4086 0
40 2 S112 868 687615 4954 0
40 2 S112 851 688466 5805 0
40 2 S112 796 689262 6601 0
0 0 0 826 690088 -186109 0
0 0 0 851 690939 -185258 0
0 0 0 866 691805 -184392 0
0 0 0 830 692635 -183562 0
0 0 0 778 693413 -182784 0
0 0 0 845 694258 -181939 0
0 0 0 874 695132 -181065 0
0 0 0 827 695959 -180238 0
0 0 0 682 696641 -179556 0
0 0 0 670 697311 -178886 1
0 0 0 665 697976 -178221 1
0 0 0 668 698644 -177553 1
0 0 0 673 699317 -176880 1
0 0 0 717 700034 -176163 0
0 0 0 811 700845 -175352 0
0 0 0 716 701561 -174636 0
0 0 0 702 702263 -173934 0
0 0 0 674 702937 -173260 1
0 0 0 660 703597 -172600 1
0 0 0 653 704250 -171947 1
0 0 0 654 704904 -171293 1
0 0 0 641 705545 -170652 1
0 0 0 635 706180 -170017 1
0 0 0 644 706824 -169373 1
0 0 0 649 707473 -168724 1
0 0 0 659 708132 -168065 1
0 0 0 672 708804 -167393 1
0 0 0 675 709479 -166718 1
0 0 0 678 710157 -166040 0
0 0 0 678 710835 -165362 0
0 0 0 677 711512 -164685 0
0 0 0 683 712195 -164002 0
0 0 0 862 713057 -163140 0
0 0 0 1046 714103 -162094 0
0 0 0 1006 715109 -161088 0
0 0 0 1040 716149 -160048 0
0 0 0 983 717132 -159065 0
0 0 0 972 718104 -158093 0
0 0 0 1014 719118 -157079 0
0 0 0 1019 720137 -156060 0
0 0 0 1010 721147 -155050 0
0 0 0 950 722097 -154100 0
0 0 0 962 723059 -153138 0
0 0 0 972 724031 -152166 0
0 0 0 953 724984 -151213 0
0 0 0 923 725907 -150290 0
0 0 0 814 726721 -149476 0
0 0 0 840 727561 -148636 0
0 0 0 929 728490 -147707 0
0 0 0 988 729478 -146719 0
0 0 0 977 730455 -145742 0
0 0 0 886 731341 -144856 0
0 0 0 948 732289 -143908 0
0 0 0 1017 733306 -142891 0
0 0 0 1023 734329 -141868 0
0 0 0 951 735280 -140917 0
0 0 0 866 736146 -140051 0
0 0 0 888 737034 -139163 0
0 0 0 934 737968 -138229 0
0 0 0 973 738941 -137256 0
0 0 0 867 739808 -136389 0
0 0 0 850 740658 -135539 0
0 0 0 872 741530 -134667 0
0 0 0 906 742436 -133761 0
0 0 0 913 743349 -132848 0
0 0 0 826 744175 -132022 0
0 0 0 884 745059 -131138 0
0 0 0 931 745990 -130207 0
0 0 0 912 746902 -129295 0
0 0 0 856 747758 -128439 0
0 0 0 889 748647 -127550 0
0 0 0 910 749557 -126640 0
0 0 0 905 750462 -125735 0
0 0 0 840 751302 -124895 0
0 0 0 882 752184 -124013 0
0 0 0 889 753073 -123124 0
0 0 0 888 753961 -122236 0
0 0 0 848 754809 -121388 0
0 0 0 785 755594 -120603 0
0 0 0 830 756424 -119773 0
0 0 0 869 757293 -118904 0
0 0 0 901 758194 -118003 0
0 0 0 844 759038 -117159 0
0 0 0 868 759906 -116291 0
0 0 0 896 760802 -115395 0
0 0 0 920 761722 -114475 0
0 0 0 854 762576 -113621 0
0 0 0 837 763413 -112784 0
0 0 0 853 764266 -111931 0
0 0 0 879 765145 -111052 0
0 0 0 898 766043 -110154 0
0 0 0 841 766884 -109313 0
0 0 0 860 767744 -108453 0
0 0 0 867 768611 -107586 0
0 0 0 905 769516 -106681 0
0 0 0 889 770405 -105792 0
0 0 0 848 771253 -104944 0
0 0 0 885 772138 -104059 0
0 0 0 942 773080 -103117 0
0 0 0 957 774037 -102160 0
0 0 0 879 774916 -101281 0
0 0 0 883 775799 -100398 0
0 0 0 912 776711 -99486 0
0 0 0 933 777644 -98553 0
0 0 0 895 778539 -97658 0
0 0 0 883 779422 -96775 0
0 0 0 913 780335 -95862 0
0 0 0 946 781281 -94916 0
0 0 0 922 782203 -93994 0
0 0 0 860 783063 -93134 0
0 0 0 880 783943 -92254 0
0 0 0 907 784850 -91347 0
0 0 0 907 785757 -90440 0
0 0 0 849 786606 -89591 0
0 0 0 851 787457 -88740 0
0 0 0 880 788337 -87860 0
0 0 0 905 789242 -86955 0
0 0 0 932 790174 -86023 0
0 0 0 880 791054 -85143 0
0 0 0 874 791928 -84269 0
0 0 0 924 792852 -83345 0
0 0 0 955 793807 -82390 0
0 0 0 953 794760 -81437 0
0 0 0 895 795655 -80542 0
0 0 0 935 796590 -79607 0
0 0 0 936 797526 -78671 0
0 0 0 938 798464 -77733 0
0 0 0 884 799348 -76849 0
0 0 0 896 800244 -75953 0
0 0 0 907 801151 -75046 0
0 0 0 910 802061 -74136 0
0 0 0 855 802916 -73281 0
0 0 0 805 803721 -72476 0
0 0 0 831 804552 -71645 0
0 0 0 850 805402 -70795 0
0 0 0 892 806294 -69903 0
0 0 0 856 807150 -69047 0
0 0 0 844 807994 -68203 0
0 0 0 895 808889 -67308 0
0 0 0 946 809835 -66362 0
0 0 0 960 810795 -65402 0
0 0 0 932 811727 -64470 0
0 0 0 918 812645 -63552 0
0 0 0 936 813581 -62616 0
0 0 0 942 814523 -61674 0
0 0 0 934 815457 -60740 0
0 0 0 865 816322 -59875 0
0 0 0 895 817217 -58980 0
0 0 0 909 818126 -58071 0
0 0 0 912 819038 -57159 0
0 0 0 826 819864 -56333 0
0 0 0 863 820727 -55470 0
0 0 0 889 821616 -54581 0
0 0 0 905 822521 -53676 0
0 0 0 826 823347 -52850 0
0 0 0 774 824121 -52076 0
0 0 0 773 824894 -51303 0
0 0 0 825 825719 -50478 0
0 0 0 854 826573 -49624 0
0 0 0 856 827429 -48768 0
0 0 0 750 828179 -48018 0
0 0 0 882 829061 -47136 0
0 0 0 896 829957 -46240 0
0 0 0 1032 830989 -45208 0
0 0 0 932 831921 -44276 0
0 0 0 869 832790 -43407 0
0 0 0 938 833728 -42469 0
0 0 0 955 834683 -41514 0
0 0 0 947 835630 -40567 0
0 0 0 860 836490 -39707 0
0 0 0 810 837300 -38897 0
0 0 0 813 838113 -38084 0
0 0 0 817 838930 -37267 0
0 0 0 805 839735 -36462 0
0 0 0 745 840480 -35717 0
0 0 0 865 841345 -34852 0
0 0 0 877 842222 -33975 0
0 0 0 878 843100 -33097 0
0 0 0 784 843884 -32313 0
0 0 0 762 844646 -31551 0
0 0 0 736 845382 -30815 0
0 0 0 861 846243 -29954 0
0 0 0 797 847040 -29157 0
0 0 0 735 847775 -28422 0
0 0 0 783 848558 -27639 0
0 0 0 765 849323 -26874 0
0 0 0 833 850156 -26041 0
0 0 0 767 850923 -25274 0
0 0 0 739 851662 -24535 0
0 0 0 722 852384 -23813 0
0 0 0 747 853131 -23066 0
0 0 0 848 853979 -22218 0
0 0 0 915 854894 -21303 0
0 0 0 885 855779 -20418 0
0 0 0 865 856644 -19553 0
0 0 0 901 857545 -18652 0
0 0 0 928 858473 -17724 0
0 0 0 897 859370 -16827 0
0 0 0 932 860302 -15895 0
0 0 0 990 861292 -14905 0
0 0 0 1012 862304 -13893 0
0 0 0 942 863246 -12951 0
0 0 0 980 864226 -11971 0
0 0 0 1030 865256 -10941 0
0 0 0 1024 866280 -9917 0
0 0 0 933 867213 -8984 0
0 0 0 993 868206 -7991 0
0 0 0 1020 869226 -6971 0
0 0 0 1019 870245 -5952 0
0 0 0 960 871205 -4992 0
0 0 0 877 872082 -4115 0
0 0 0 914 872996 -3201 0
0 0 0 887 873883 -2314 0
41 1 S102 842 874725 -1472 0
41 1 S102 817 875542 -655 0
41 2 S102 890 876432 235 0
41 2 S102 973 877405 1208 0
41 2 S102 980 878385 2188 0
41 2 S102 868 879253 3056 0
41 2 S102 837 880090 3893 0
41 2 S102 821 880911 4714 0
41 2 S102 824 881735 5538 0
41 2 S102 817 882552 6355 0
0 0 0 695 883247 -6743 0
0 0 0 767 884014 -5976 0
0 0 0 769 884783 -5207 0
0 0 0 874 885657 -4333 0
0 0 0 835 886492 -3498 0
0 0 0 751 887243 -2747 0
42 1 S112 828 888071 -1919 0
42 1 S112 842 888913 -1077 0
42 1 S112 919 889832 -158 0
42 2 S112 1016 890848 858 0
42 2 S112 917 891765 1775 0
42 2 S112 963 892728 2738 0
42 2 S112 990 893718 3728 0
42 2 S112 984 894702 4712 0
42 2 S112 854 895556 5566 0
42 2 S112 891 896447 6457 0
0 0 0 917 897364 -9022 0
0 0 0 952 898316 -8070 0
0 0 0 897 899213 -7173 0
0 0 0 858 900071 -6315 0
0 0 0 913 900984 -5402 0
0 0 0 963 901947 -4439 0
0 0 0 968 902915 -3471 0
0 0 0 906 903821 -2565 0
43 1 S116 959 904780 -1606 0
43 1 S116 1007 905787 -599 0
43 2 S116 981 906768 382 0
43 2 S116 916 907684 1298 0
43 2 S116 974 908658 2272 0
43 2 S116 1015 909673 3287 0
43 2 S116 928 910601 4215 0
43 2 S116 906 911507 5121 0
43 2 S116 955 912462 6076 0
0 0 0 1031 913493 -8278 0
0 0 0 1049 914542 -7229 0
0 0 0 940 915482 -6289 0
0 0 0 926 916408 -5363 0
0 0 0 933 917341 -4430 0
0 0 0 969 918310 -3461 0
0 0 0 955 919265 -2506 0
44 1 S102 875 920140 -1631 0
44 1 S102 943 921083 -688 0
44 2 S102 1012 922095 324 0
44 2 S102 1032 923127 1356 0
44 2 S102 979 924106 2335 0
44 2 S102 872 924978 3207 0
44 2 S102 915 925893 4122 0
44 2 S102 979 926872 5101 0
44 2 S102 1005 927877 6106 0
0 0 0 963 928840 -9426 0
0 0 0 838 929678 -8588 0
0 0 0 883 930561 -7705 0
0 0 0 914 931475 -6791 0
0 0 0 907 932382 -5884 0
0 0 0 822 933204 -5062 0
0 0 0 877 934081 -4185 0
0 0 0 897 934978 -3288 0
0 0 0 881 935859 -2407 0
45 1 S116 812 936671 -1595 0
45 1 S116 860 937531 -735 0
45 2 S116 909 938440 174 0
45 2 S116 955 939395 1129 0
45 2 S116 901 940296 2030 0
45 2 S116 946 941242 2976 0
45 2 S116 985 942227 3961 0
45 2 S116 989 943216 4950 0
45 2 S116 922 944138 5872 0
45 2 S116 941 945079 6813 0
0 0 0 976 946055 -12454 0
0 0 0 934 946989 -11520 0
0 0 0 839 947828 -10681 0
0 0 0 864 948692 -9817 0
0 0 0 896 949588 -8921 0
0 0 0 891 950479 -8030 0
0 0 0 828 951307 -7202 0
0 0 0 861 952168 -6341 0
0 0 0 937 953105 -5404 0
0 0 0 958 954063 -4446 0
0 0 0 925 954988 -3521 0
0 0 0 910 955898 -2611 0
46 1 S102 964 956862 -1647 0
46 1 S102 1001 957863 -646 0
46 2 S102 976 958839 330 0
46 2 S102 892 959731 1222 0
46 2 S102 905 960636 2127 0
46 2 S102 919 961555 3046 0
46 2 S102 939 962494 3985 0
46 2 S102 843 963337 4828 0
46 2 S102 840 964177 5668 0
46 2 S102 873 965050 6541 0
0 0 0 934 965984 -9932 0
0 0 0 939 966923 -8993 0
0 0 0 870 967793 -8123 0
0 0 0 949 968742 -7174 0
0 0 0 935 969677 -6239 0
0 0 0 866 970543 -5373 0
0 0 0 868 971411 -4505 0
0 0 0 870 972281 -3635 0
0 0 0 859 973140 -2776 0
47 1 S112 832 973972 -1944 0
47 1 S112 836 974808 -1108 0
47 1 S112 876 975684 -232 0
47 2 S112 913 976597 681 0
47 2 S112 927 977524 1608 0
47 2 S112 887 978411 2495 0
47 2 S112 922 979333 3417 0
47 2 S112 977 980310 4394 0
47 2 S112 997 981307 5391 0
47 2 S112 973 982280 6364 0
0 0 0 889 983169 -12575 0
0 0 0 935 984104 -11640 0
0 0 0 945 985049 -10695 0
0 0 0 930 985979 -9765 0
0 0 0 841 986820 -8924 0
0 0 0 841 987661 -8083 0
0 0 0 909 988570 -7174 0
0 0 0 945 989515 -6229 0
0 0 0 969 990484 -5260 0
0 0 0 873 991357 -4387 0
0 0 0 887 992244 -3500 0
0 0 0 947 993191 -2553 0
48 1 S116 1008 994199 -1545 0
48 1 S116 1062 995261 -483 0
48 2 S116 1022 996283 539 0
48 2 S116 911 997194 1450 0
48 2 S116 936 998130 2386 0
48 2 S116 987 999117 3373 0
48 2 S116 981 1000098 4354 0
48 2 S116 885 1000983 5239 0
48 2 S116 917 1001900 6156 0
0 0 0 964 1002864 -8795 0
0 0 0 1008 1003872 -7787 0
0 0 0 899 1004771 -6888 0
0 0 0 872 1005643 -6016 0
0 0 0 892 1006535 -5124 0
0 0 0 887 1007422 -4237 0
0 0 0 858 1008280 -3379 0
0 0 0 838 1009118 -2541 0
49 1 S112 897 1010015 -1644 0
49 1 S112 936 1010951 -708 0
49 2 S112 955 1011906 247 0
49 2 S112 867 1012773 1114 0
49 2 S112 918 1013691 2032 0
49 2 S112 971 1014662 3003 0
49 2 S112 964 1015626 3967 0
49 2 S112 883 1016509 4850 0
49 2 S112 911 1017420 5761 0
49 2 S112 937 1018357 6698 0
0 0 0 975 1019332 -11773 0
0 0 0 915 1020247 -10858 0
0 0 0 807 1021054 -10051 0
0 0 0 854 1021908 -9197 0
0 0 0 874 1022782 -8323 0
0 0 0 895 1023677 -7428 0
0 0 0 871 1024548 -6557 0
0 0 0 836 1025384 -5721 0
0 0 0 904 1026288 -4817 0
0 0 0 1026 1027314 -3791 0
0 0 0 999 1028313 -2792 0
50 1 S106 858 1029171 -1934 0
50 1 S106 853 1030024 -1081 0
50 1 S106 882 1030906 -199 0
50 2 S106 915 1031821 716 0
50 2 S106 918 1032739 1634 0
50 2 S106 824 1033563 2458 0
50 2 S106 882 1034445 3340 0
50 2 S106 958 1035403 4298 0
50 2 S106 1002 1036405 5300 0
50 2 S106 958 1037363 6258 0
0 0 0 894 1038257 -8416 0
0 0 0 912 1039169 -7504 0
0 0 0 921 1040090 -6583 0
0 0 0 920 1041010 -5663 0
0 0 0 849 1041859 -4814 0
0 0 0 864 1042723 -3950 0
0 0 0 885 1043608 -3065 0
0 0 0 891 1044499 -2174 0
51 1 S112 831 1045330 -1343 0
51 1 S112 911 1046241 -432 0
51 2 S112 950 1047191 518 0
51 2 S112 957 1048148 1475 0
51 2 S112 879 1049027 2354 0
51 2 S112 891 1049918 3245 0
51 2 S112 875 1050793 4120 0
51 2 S112 873 1051666 4993 0
51 2 S112 822 1052488 5815 0
51 2 S112 827 1053315 6642 0
0 0 0 875 1054190 -7022 0
0 0 0 913 1055103 -6109 0
0 0 0 846 1055949 -5263 0
0 0 0 849 1056798 -4414 0
0 0 0 834 1057632 -3580 0
0 0 0 806 1058438 -2774 0
0 0 0 734 1059172 -2040 0
52 1 S116 742 1059914 -1298 0
52 1 S116 709 1060623 -589 0
52 2 S116 697 1061320 108 0
52 2 S116 713 1062033 821 0
52 2 S116 724 1062757 1545 0
52 2 S116 806 1063563 2351 0
52 2 S116 803 1064366 3154 0
52 2 S116 725 1065091 3879 0
52 2 S116 699 1065790 4578 0
52 2 S116 708 1066498 5286 0
52 2 S116 721 1067219 6007 0
52 2 S116 751 1067970 6758 0
0 0 0 811 1068781 -8396 0
0 0 0 715 1069496 -7681 0
0 0 0 753 1070249 -6928 0
0 0 0 768 1071017 -6160 0
0 0 0 914 1071931 -5246 0
0 0 0 1013 1072944 -4233 0
0 0 0 906 1073850 -3327 0
0 0 0 975 1074825 -2352 0
53 1 S106 1013 1075838 -1339 0
53 1 S106 1006 1076844 -333 0
53 2 S106 955 1077799 622 0
53 2 S106 883 1078682 1505 0
53 2 S106 927 1079609 2432 0
53 2 S106 955 1080564 3387 0
53 2 S106 949 1081513 4336 0
53 2 S106 851 1082364 5187 0
53 2 S106 869 1083233 6056 0
53 2 S106 909 1084142 6965 0
0 0 0 942 1085084 -5538 0
0 0 0 914 1085998 -4624 0
0 0 0 848 1086846 -3776 0
0 0 0 881 1087727 -2895 0
54 1 S102 917 1088644 -1978 0
54 1 S102 928 1089572 -1050 0
54 1 S102 858 1090430 -192 0
54 2 S102 913 1091343 721 0
54 2 S102 970 1092313 1691 0
54 2 S102 1005 1093318 2696 0
54 2 S102 1015 1094333 3711 0
54 2 S102 938 1095271 4649 0
54 2 S102 947 1096218 5596 0
54 2 S102 963 1097181 6559 0
0 0 0 963 1098144 -11361 0
0 0 0 919 1099063 -10442 0
0 0 0 843 1099906 -9599 0
0 0 0 862 1100768 -8737 0
0 0 0 848 1101616 -7889 0
0 0 0 849 1102465 -7040 0
0 0 0 820 1103285 -6220 0
0 0 0 880 1104165 -5340 0
0 0 0 943 1105108 -4397 0
0 0 0 983 1106091 -3414 0
0 0 0 916 1107007 -2498 0
55 1 S106 875 1107882 -1623 0
55 1 S106 901 1108783 -722 0
55 2 S106 939 1109722 217 0
55 2 S106 865 1110587 1082 0
55 2 S106 751 1111338 1833 0
55 2 S106 756 1112094 2589 0
55 2 S106 714 1112808 3303 0
55 2 S106 744 1113552 4047 0
55 2 S106 701 1114253 4748 0
55 2 S106 842 1115095 5590 0
55 2 S106 863 1115958 6453 0
0 0 0 1085 1117043 -6371 0
0 0 0 988 1118031 -5383 0
0 0 0 915 1118946 -4468 0
0 0 0 913 1119859 -3555 0
0 0 0 891 1120750 -2664 0
56 1 S116 811 1121561 -1853 0
56 1 S116 796 1122357 -1057 0
56 1 S116 757 1123114 -300 0
56 2 S116 800 1123914 500 0
56 2 S116 818 1124732 1318 0
56 2 S116 765 1125497 2083 0
56 2 S116 732 1126229 2815 0
56 2 S116 832 1127061 3647 0
56 2 S116 857 1127918 4504 0
56 2 S116 1121 1129039 5625 1
56 2 S116 1026 1130065 6651 0
0 0 0 894 1130959 -6845 0
0 0 0 905 1131864 -5940 0
0 0 0 1001 1132865 -4939 0
0 0 0 959 1133824 -3980 0
0 0 0 900 1134724 -3080 0
0 0 0 1031 1135755 -2049 0
57 1 S106 1091 1136846 -958 0
57 2 S106 1026 1137872 68 0
57 2 S106 944 1138816 1012 0
57 2 S106 982 1139798 1994 0
57 2 S106 1006 1140804 3000 0
57 2 S106 1047 1141851 4047 0
57 2 S106 961 1142812 5008 0
57 2 S106 843 1143655 5851 0
57 2 S106 859 1144514 6710 0
0 0 0 862 1145376 -8111 0
0 0 0 907 1146283 -7204 0
0 0 0 846 1147129 -6358 0
0 0 0 872 1148001 -5486 0
0 0 0 912 1148913 -4574 0
0 0 0 960 1149873 -3614 0
0 0 0 908 1150781 -2706 0
58 1 S102 986 1151767 -1720 0
58 1 S102 1129 1152896 -591 1
58 2 S102 1117 1154013 526 1
58 2 S102 1027 1155040 1553 0
58 2 S102 909 1155949 2462 0
58 2 S102 951 1156900 3413 0
58 2 S102 930 1157830 4343 0
58 2 S102 1029 1158859 5372 0
58 2 S102 977 1159836 6349 0
0 0 0 882 1160718 -6844 0
0 0 0 953 1161671 -5891 0
0 0 0 1011 1162682 -4880 0
0 0 0 892 1163574 -3988 0
0 0 0 804 1164378 -3184 0
0 0 0 798 1165176 -2386 0
59 1 S112 725 1165901 -1661 0
59 1 S112 906 1166807 -755 0
59 2 S112 1127 1167934 372 1
59 2 S112 991 1168925 1363 0
59 2 S112 891 1169816 2254 0
59 2 S112 983 1170799 3237 0
59 2 S112 1029 1171828 4266 0
59 2 S112 1023 1172851 5289 0
59 2 S112 956 1173807 6245 0
0 0 0 838 1174645 -9612 0
0 0 0 900 1175545 -8712 0
0 0 0 954 1176499 -7758 0
0 0 0 1010 1177509 -6748 0
0 0 0 965 1178474 -5783 0
0 0 0 879 1179353 -4904 0
0 0 0 971 1180324 -3933 0
0 0 0 1018 1181342 -2915 0
60 1 S102 1038 1182380 -1877 0
60 1 S102 911 1183291 -966 0
60 1 S102 887 1184178 -79 0
60 2 S102 1016 1185194 937 0
60 2 S102 1000 1186194 1937 0
60 2 S102 892 1187086 2829 0
60 2 S102 980 1188066 3809 0
60 2 S102 1113 1189179 4922 0
60 2 S102 1099 1190278 6021 0
0 0 0 1020 1191298 -11444 0
0 0 0 887 1192185 -10557 0
0 0 0 903 1193088 -9654 0
0 0 0 967 1194055 -8687 0
0 0 0 978 1195033 -7709 0
0 0 0 908 1195941 -6801 0
0 0 0 972 1196913 -5829 0
0 0 0 1007 1197920 -4822 0
0 0 0 1036 1198956 -3786 0
0 0 0 1028 1199984 -2758 0
61 1 S106 932 1200916 -1826 0
61 1 S106 991 1201907 -835 0
61 2 S106 1032 1202939 197 0
61 2 S106 1065 1204004 1262 0
61 2 S106 1023 1205027 2285 0
61 2 S106 918 1205945 3203 0
61 2 S106 953 1206898 4156 0
61 2 S106 1031 1207929 5187 0
61 2 S106 1081 1209010 6268 0
0 0 0 1020 1210030 -7251 0
0 0 0 902 1210932 -6349 0
0 0 0 976 1211908 -5373 0
0 0 0 986 1212894 -4387 0
0 0 0 939 1213833 -3448 0
0 0 0 878 1214711 -2570 0
62 1 S112 949 1215660 -1621 0
62 1 S112 998 1216658 -623 0
62 2 S112 987 1217645 364 0
62 2 S112 903 1218548 1267 0
62 2 S112 960 1219508 2227 0
62 2 S112 1034 1220542 3261 0
62 2 S112 1005 1221547 4266 0
62 2 S112 955 1222502 5221 0
62 2 S112 1005 1223507 6226 0
0 0 0 1002 1224509 -11936 0
0 0 0 993 1225502 -10943 0
0 0 0 860 1226362 -10083 0
0 0 0 887 1227249 -9196 0
0 0 0 902 1228151 -8294 0
0 0 0 919 1229070 -7375 0
0 0 0 843 1229913 -6532 0
0 0 0 907 1230820 -5625 0
0 0 0 980 1231800 -4645 0
0 0 0 996 1232796 -3649 0
0 0 0 894 1233690 -2755 0
63 1 S102 961 1234651 -1794 0
63 1 S102 1034 1235685 -760 0
63 2 S102 1085 1236770 325 0
63 2 S102 1014 1237784 1339 0
63 2 S102 982 1238766 2321 0
63 2 S102 1016 1239782 3337 0
63 2 S102 985 1240767 4322 0
63 2 S102 928 1241695 5250 0
63 2 S102 847 1242542 6097 0
63 2 S102 900 1243442 6997 0
0 0 0 964 1244406 -7573 0
0 0 0 973 1245379 -6600 0
0 0 0 814 1246193 -5786 0
0 0 0 811 1247004 -4975 0
0 0 0 788 1247792 -4187 0
0 0 0 749 1248541 -3438 0
0 0 0 728 1249269 -2710 0
64 1 S112 749 1250018 -1961 0
64 1 S112 840 1250858 -1121 0
64 1 S112 833 1251691 -288 0
64 2 S112 804 1252495 516 0
64 2 S112 779 1253274 1295 0
64 2 S112 760 1254034 2055 0
64 2 S112 782 1254816 2837 0
64 2 S112 845 1255661 3682 0
64 2 S112 796 1256457 4478 0
64 2 S112 774 1257231 5252 0
64 2 S112 729 1257960 5981 0
64 2 S112 790 1258750 6771 0
0 0 0 834 1259584 -7449 0
0 0 0 857 1260441 -6592 0
0 0 0 847 1261288 -5745 0
0 0 0 764 1262052 -4981 0
0 0 0 802 1262854 -4179 0
0 0 0 759 1263613 -3420 0
0 0 0 750 1264363 -2670 0
65 1 S106 737 1265100 -1933 0
65 1 S106 719 1265819 -1214 0
65 1 S106 867 1266686 -347 0
65 2 S106 862 1267548 515 0
65 2 S106 840 1268388 1355 0
65 2 S106 932 1269320 2287 0
65 2 S106 1040 1270360 3327 0
65 2 S106 949 1271309 4276 0
65 2 S106 854 1272163 5130 0
65 2 S106 848 1273011 5978 0
65 2 S106 874 1273885 6852 0
0 0 0 870 1274755 -6054 0
0 0 0 860 1275615 -5194 0
0 0 0 782 1276397 -4412 0
0 0 0 799 1277196 -3613 0
0 0 0 824 1278020 -2789 0
66 1 S116 898 1278918 -1891 0
66 1 S116 940 1279858 -951 0
66 1 S116 863 1280721 -88 0
66 2 S116 921 1281642 833 0
66 2 S116 1053 1282695 1886 0
66 2 S116 1111 1283806 2997 0
66 2 S116 1051 1284857 4048 0
66 2 S116 1097 1285954 5145 0
66 2 S116 1085 1287039 6230 0
0 0 0 985 1288024 -10872 0
0 0 0 888 1288912 -9984 0
0 0 0 867 1289779 -9117 0
0 0 0 856 1290635 -8261 0
0 0 0 807 1291442 -7454 0
0 0 0 752 1292194 -6702 0
0 0 0 833 1293027 -5869 0
0 0 0 851 1293878 -5018 0
0 0 0 942 1294820 -4076 0
0 0 0 989 1295809 -3087 0
0 0 0 895 1296704 -2192 0
67 1 S102 897 1297601 -1295 0
67 1 S102 980 1298581 -315 0
67 2 S102 1032 1299613 717 0
67 2 S102 1008 1300621 1725 0
67 2 S102 894 1301515 2619 0
67 2 S102 926 1302441 3545 0
67 2 S102 980 1303421 4525 0
67 2 S102 1050 1304471 5575 0
67 2 S102 1006 1305477 6581 0
0 0 0 908 1306385 -7200 0
0 0 0 948 1307333 -6252 0
0 0 0 959 1308292 -5293 0
0 0 0 993 1309285 -4300 0
0 0 0 1047 1310332 -3253 0
0 0 0 964 1311296 -2289 0
68 1 S106 836 1312132 -1453 0
68 1 S106 846 1312978 -607 0
68 2 S106 947 1313925 340 0
68 2 S106 1036 1314961 1376 0
68 2 S106 956 1315917 2332 0
68 2 S106 878 1316795 3210 0
68 2 S106 1002 1317797 4212 0
68 2 S106 1113 1318910 5325 0
68 2 S106 1104 1320014 6429 0
0 0 0 961 1320975 -10017 0
0 0 0 942 1321917 -9075 0
0 0 0 930 1322847 -8145 0
0 0 0 901 1323748 -7244 0
0 0 0 843 1324591 -6401 0
0 0 0 858 1325449 -5543 0
0 0 0 874 1326323 -4669 0
0 0 0 915 1327238 -3754 0
0 0 0 928 1328166 -2826 0
69 1 S102 885 1329051 -1941 0
69 1 S102 819 1329870 -1122 0
69 1 S102 849 1330719 -273 0
69 2 S102 868 1331587 595 0
69 2 S102 929 1332516 1524 0
69 2 S102 932 1333448 2456 0
69 2 S102 896 1334344 3352 0
69 2 S102 997 1335341 4349 0
69 2 S102 1061 1336402 5410 0
69 2 S102 1028 1337430 6438 0
0 0 0 902 1338332 -8211 0
0 0 0 949 1339281 -7262 0
0 0 0 955 1340236 -6307 0
0 0 0 990 1341226 -5317 0
0 0 0 904 1342130 -4413 0
0 0 0 910 1343040 -3503 0
0 0 0 953 1343993 -2550 0
70 1 S112 1000 1344993 -1550 0
70 1 S112 963 1345956 -587 0
70 2 S112 875 1346831 288 0
70 2 S112 934 1347765 1222 0
70 2 S112 936 1348701 2158 0
70 2 S112 922 1349623 3080 0
70 2 S112 828 1350451 3908 0
70 2 S112 853 1351304 4761 0
70 2 S112 887 1352191 5648 0
70 2 S112 946 1353137 6594 0
0 0 0 916 1354053 -12450 0
0 0 0 844 1354897 -11606 0
0 0 0 859 1355756 -10747 0
0 0 0 858 1356614 -9889 0
0 0 0 839 1357453 -9050 0
0 0 0 706 1358159 -8344 0
0 0 0 729 1358888 -7615 0
0 0 0 708 1359596 -6907 0
0 0 0 728 1360324 -6179 0
0 0 0 726 1361050 -5453 0
0 0 0 690 1361740 -4763 0
0 0 0 723 1362463 -4040 0
0 0 0 695 1363158 -3345 0
0 0 0 832 1363990 -2513 0
71 1 S116 957 1364947 -1556 0
71 1 S116 901 1365848 -655 0
71 2 S116 898 1366746 243 0
71 2 S116 1039 1367785 1282 0
71 2 S116 1140 1368925 2422 1
71 2 S116 1064 1369989 3486 0
71 2 S116 980 1370969 4466 0
71 2 S116 1037 1372006 5503 0
71 2 S116 1060 1373066 6563 0
0 0 0 983 1374049 -11072 0
0 0 0 883 1374932 -10189 0
0 0 0 911 1375843 -9278 0
0 0 0 1000 1376843 -8278 0
0 0 0 1036 1377879 -7242 0
0 0 0 948 1378827 -6294 0
0 0 0 1012 1379839 -5282 0
0 0 0 1047 1380886 -4235 0
0 0 0 1044 1381930 -3191 0
0 0 0 921 1382851 -2270 0
72 1 S102 973 1383824 -1297 0
72 1 S102 1027 1384851 -270 0
72 2 S102 1024 1385875 754 0
72 2 S102 903 1386778 1657 0
72 2 S102 977 1387755 2634 0
72 2 S102 1054 1388809 3688 0
72 2 S102 1047 1389856 4735 0
72 2 S102 926 1390782 5661 0
72 2 S102 953 1391735 6614 0
0 0 0 996 1392731 -6166 0
0 0 0 1019 1393750 -5147 0
0 0 0 923 1394673 -4224 0
0 0 0 950 1395623 -3274 0
0 0 0 987 1396610 -2287 0
73 1 S116 1067 1397677 -1220 0
73 1 S116 1037 1398714 -183 0
73 2 S116 935 1399649 752 0
73 2 S116 977 1400626 1729 0
73 2 S116 947 1401573 2676 0
73 2 S116 921 1402494 3597 0
73 2 S116 795 1403289 4392 0
73 2 S116 727 1404016 5119 0
73 2 S116 714 1404730 5833 0
73 2 S116 773 1405503 6606 0
0 0 0 1028 1406531 -8580 0
0 0 0 1093 1407624 -7487 0
0 0 0 1060 1408684 -6427 0
0 0 0 989 1409673 -5438 0
0 0 0 888 1410561 -4550 0
0 0 0 838 1411399 -3712 0
0 0 0 833 1412232 -2879 0
0 0 0 828 1413060 -2051 0
74 1 S106 821 1413881 -1230 0
74 1 S106 789 1414670 -441 0
74 2 S106 823 1415493 382 0
74 2 S106 786 1416279 1168 0
74 2 S106 824 1417103 1992 0
74 2 S106 736 1417839 2728 0
74 2 S106 944 1418783 3672 0
74 2 S106 982 1419765 4654 0
74 2 S106 1113 1420878 5767 0
74 2 S106 1105 1421983 6872 0
0 0 0 1063 1423046 -6306 0
0 0 0 931 1423977 -5375 0
0 0 0 947 1424924 -4428 0
0 0 0 961 1425885 -3467 0
0 0 0 1070 1426955 -2397 0
75 1 S112 1086 1428041 -1311 0
75 1 S112 1056 1429097 -255 0
75 2 S112 953 1430050 698 0
75 2 S112 940 1430990 1638 0
75 2 S112 957 1431947 2595 0
75 2 S112 1000 1432947 3595 0
75 2 S112 1028 1433975 4623 0
75 2 S112 958 1434933 5581 0
75 2 S112 966 1435899 6547 0
0 0 0 1009 1436908 -7033 0
0 0 0 976 1437884 -6057 0
0 0 0 892 1438776 -5165 0
0 0 0 858 1439634 -4307 0
0 0 0 874 1440508 -3433 0
0 0 0 944 1441452 -2489 0
76 1 S116 867 1442319 -1622 0
76 1 S116 880 1443199 -742 0
76 2 S116 924 1444123 182 0
76 2 S116 965 1445088 1147 0
76 2 S116 955 1446043 2102 0
76 2 S116 881 1446924 2983 0
76 2 S116 917 1447841 3900 0
76 2 S116 996 1448837 4896 0
76 2 S116 983 1449820 5879 0
76 2 S116 867 1450687 6746 0
0 0 0 894 1451581 -6319 0
0 0 0 929 1452510 -5390 0
0 0 0 914 1453424 -4476 0
0 0 0 824 1454248 -3652 0
0 0 0 856 1455104 -2796 0
77 1 S106 898 1456002 -1898 0
77 1 S106 947 1456949 -951 0
77 2 S106 956 1457905 5 0
77 2 S106 866 1458771 871 0
77 2 S106 905 1459676 1776 0
77 2 S106 982 1460658 2758 0
77 2 S106 974 1461632 3732 0
77 2 S106 904 1462536 4636 0
77 2 S106 871 1463407 5507 0
77 2 S106 894 1464301 6401 0
0 0 0 909 1465210 -7710 0
0 0 0 912 1466122 -6798 0
0 0 0 827 1466949 -5971 0
0 0 0 866 1467815 -5105 0
0 0 0 880 1468695 -4225 0
0 0 0 874 1469569 -3351 0
0 0 0 815 1470384 -2536 0
78 1 S112 747 1471131 -1789 0
78 1 S112 756 1471887 -1033 0
78 1 S112 790 1472677 -243 0
78 2 S112 821 1473498 578 0
78 2 S112 876 1474374 1454 0
78 2 S112 819 1475193 2273 0
78 2 S112 876 1476069 3149 0
78 2 S112 956 1477025 4105 0
78 2 S112 988 1478013 5093 0
78 2 S112 934 1478947 6027 0
78 2 S112 836 1479783 6863 0
0 0 0 833 1480616 -10009 0
0 0 0 819 1481435 -9190 0
0 0 0 738 1482173 -8452 0
0 0 0 709 1482882 -7743 0
0 0 0 687 1483569 -7056 0
0 0 0 665 1484234 -6391 1
0 0 0 657 1484891 -5734 1
0 0 0 643 1485534 -5091 1
0 0 0 643 1486177 -4448 1
0 0 0 666 1486843 -3782 1
0 0 0 761 1487604 -3021 0
0 0 0 912 1488516 -2109 0
79 1 S102 1031 1489547 -1078 0
79 1 S102 1025 1490572 -53 0
79 2 S102 935 1491507 882 0
79 2 S102 915 1492422 1797 0
79 2 S102 999 1493421 2796 0
79 2 S102 1034 1494455 3830 0
79 2 S102 1033 1495488 4863 0
79 2 S102 996 1496484 5859 0
79 2 S102 910 1497394 6769 0
0 0 0 848 1498242 -7735 0
0 0 0 871 1499113 -6864 0
0 0 0 853 1499966 -6011 0
0 0 0 874 1500840 -5137 0
0 0 0 757 1501597 -4380 0
0 0 0 854 1502451 -3526 0
0 0 0 867 1503318 -2659 0
80 1 S116 976 1504294 -1683 0
80 1 S116 981 1505275 -702 0
80 2 S116 947 1506222 245 0
80 2 S116 960 1507182 1205 0
80 2 S116 970 1508152 2175 0
80 2 S116 891 1509043 3066 0
80 2 S116 871 1509914 3937 0
80 2 S116 942 1510856 4879 0
80 2 S116 986 1511842 5865 0
80 2 S116 968 1512810 6833 0
