T_0121
BeatCount Mean SD BeatCountNoOutliers MeanNoOutliers SDNoOutliers
1888 840,684851694915 68,8448001759447 1863 840,850241545894 65,2075681818295

Trial TrialStatus Trialtype IBI AbsPosition RelPosition Outlier
0 0 0 938 1142 -14926 0
0 0 0 970 2112 -13956 0
0 0 0 872 2984 -13084 0
0 0 0 818 3802 -12266 0
0 0 0 740 4542 -11526 0
0 0 0 683 5225 -10843 0
0 0 0 713 5938 -10130 0
0 0 0 719 6657 -9411 0
0 0 0 665 7322 -8746 0
0 0 0 667 7989 -8079 0
0 0 0 711 8700 -7368 0
0 0 0 810 9510 -6558 0
0 0 0 1070 10580 -5488 1
0 0 0 957 11537 -4531 0
0 0 0 897 12434 -3634 0
0 0 0 963 13397 -2671 0
1 1 S112 994 14391 -1677 0
1 1 S112 908 15299 -769 0
1 2 S112 869 16168 100 0
1 2 S112 882 17050 982 0
1 2 S112 875 17925 1857 0
1 2 S112 828 18753 2685 0
1 2 S112 755 19508 3440 0
1 2 S112 758 20266 4198 0
1 2 S112 792 21058 4990 0
1 2 S112 868 21926 5858 0
1 2 S112 879 22805 6737 0
0 0 0 834 23639 -12141 0
0 0 0 811 24450 -11330 0
0 0 0 825 25275 -10505 0
0 0 0 831 26106 -9674 0
0 0 0 851 26957 -8823 0
0 0 0 832 27789 -7991 0
0 0 0 791 28580 -7200 0
0 0 0 815 29395 -6385 0
0 0 0 858 30253 -5527 0
0 0 0 916 31169 -4611 0
0 0 0 824 31993 -3787 0
0 0 0 831 32824 -2956 0
0 0 0 872 33696 -2084 0
2 1 S102 923 34619 -1161 0
2 1 S102 899 35518 -262 0
2 2 S102 907 36425 645 0
2 2 S102 911 37336 1556 0
2 2 S102 896 38232 2452 0
2 2 S102 867 39099 3319 0
2 2 S102 863 39962 4182 0
2 2 S102 888 40850 5070 0
2 2 S102 916 41766 5986 0
2 2 S102 922 42688 6908 0
0 0 0 827 43515 -9474 0
0 0 0 877 44392 -8597 0
0 0 0 936 45328 -7661 0
0 0 0 979 46307 -6682 0
0 0 0 907 47214 -5775 0
0 0 0 790 48004 -4985 0
0 0 0 818 48822 -4167 0
0 0 0 872 49694 -3295 0
0 0 0 900 50594 -2395 0
3 1 S116 847 51441 -1548 0
3 1 S116 751 52192 -797 0
3 1 S116 797 52989 0 0
3 2 S116 846 53835 846 0
3 2 S116 873 54708 1719 0
3 2 S116 825 55533 2544 0
3 2 S116 716 56249 3260 0
3 2 S116 778 57027 4038 0
3 2 S116 819 57846 4857 0
3 2 S116 911 58757 5768 0
3 2 S116 808 59565 6576 0
0 0 0 750 60315 -13281 0
0 0 0 777 61092 -12504 0
0 0 0 848 61940 -11656 0
0 0 0 859 62799 -10797 0
0 0 0 819 63618 -9978 0
0 0 0 794 64412 -9184 0
0 0 0 783 65195 -8401 0
0 0 0 765 65960 -7636 0
0 0 0 729 66689 -6907 0
0 0 0 704 67393 -6203 0
0 0 0 752 68145 -5451 0
0 0 0 824 68969 -4627 0
0 0 0 817 69786 -3810 0
0 0 0 759 70545 -3051 0
0 0 0 810 71355 -2241 0
4 1 S106 868 72223 -1373 0
4 1 S106 896 73119 -477 0
4 2 S106 885 74004 408 0
4 2 S106 854 74858 1262 0
4 2 S106 876 75734 2138 0
4 2 S106 876 76610 3014 0
4 2 S106 882 77492 3896 0
4 2 S106 836 78328 4732 0
4 2 S106 866 79194 5598 0
4 2 S106 895 80089 6493 0
0 0 0 911 81000 -8461 0
0 0 0 891 81891 -7570 0
0 0 0 830 82721 -6740 0
0 0 0 851 83572 -5889 0
0 0 0 879 84451 -5010 0
0 0 0 888 85339 -4122 0
0 0 0 837 86176 -3285 0
0 0 0 720 86896 -2565 0
5 1 S116 683 87579 -1882 0
5 1 S116 672 88251 -1210 0
5 1 S116 706 88957 -504 0
5 2 S116 960 89917 456 0
5 2 S116 1005 90922 1461 0
5 2 S116 981 91903 2442 0
5 2 S116 979 92882 3421 0
5 2 S116 973 93855 4394 0
5 2 S116 930 94785 5324 0
5 2 S116 747 95532 6071 0
5 2 S116 734 96266 6805 0
0 0 0 753 97019 -9717 0
0 0 0 769 97788 -8948 0
0 0 0 839 98627 -8109 0
0 0 0 854 99481 -7255 0
0 0 0 862 100343 -6393 0
0 0 0 848 101191 -5545 0
0 0 0 792 101983 -4753 0
0 0 0 723 102706 -4030 0
0 0 0 754 103460 -3276 0
0 0 0 778 104238 -2498 0
6 1 S106 818 105056 -1680 0
6 1 S106 833 105889 -847 0
6 1 S106 770 106659 -77 0
6 2 S106 787 107446 710 0
6 2 S106 850 108296 1560 0
6 2 S106 882 109178 2442 0
6 2 S106 892 110070 3334 0
6 2 S106 889 110959 4223 0
6 2 S106 867 111826 5090 0
6 2 S106 862 112688 5952 0
6 2 S106 839 113527 6791 0
0 0 0 765 114292 -10846 0
0 0 0 773 115065 -10073 0
0 0 0 830 115895 -9243 0
0 0 0 875 116770 -8368 0
0 0 0 906 117676 -7462 0
0 0 0 855 118531 -6607 0
0 0 0 823 119354 -5784 0
0 0 0 914 120268 -4870 0
0 0 0 995 121263 -3875 0
0 0 0 979 122242 -2896 0
7 1 S102 939 123181 -1957 0
7 1 S102 872 124053 -1085 0
7 1 S102 782 124835 -303 0
7 2 S102 828 125663 525 0
7 2 S102 878 126541 1403 0
7 2 S102 889 127430 2292 0
7 2 S102 885 128315 3177 0
7 2 S102 865 129180 4042 0
7 2 S102 824 130004 4866 0
7 2 S102 841 130845 5707 0
7 2 S102 840 131685 6547 0
0 0 0 863 132548 -9732 0
0 0 0 907 133455 -8825 0
0 0 0 915 134370 -7910 0
0 0 0 904 135274 -7006 0
0 0 0 854 136128 -6152 0
0 0 0 763 136891 -5389 0
0 0 0 790 137681 -4599 0
0 0 0 817 138498 -3782 0
0 0 0 871 139369 -2911 0
0 0 0 891 140260 -2020 0
8 1 S112 825 141085 -1195 0
8 1 S112 807 141892 -388 0
8 2 S112 844 142736 456 0
8 2 S112 910 143646 1366 0
8 2 S112 924 144570 2290 0
8 2 S112 912 145482 3202 0
8 2 S112 900 146382 4102 0
8 2 S112 883 147265 4985 0
8 2 S112 854 148119 5839 0
8 2 S112 786 148905 6625 0
0 0 0 787 149692 -8951 0
0 0 0 784 150476 -8167 0
0 0 0 809 151285 -7358 0
0 0 0 801 152086 -6557 0
0 0 0 748 152834 -5809 0
0 0 0 770 153604 -5039 0
0 0 0 822 154426 -4217 0
0 0 0 890 155316 -3327 0
0 0 0 790 156106 -2537 0
9 1 S116 796 156902 -1741 0
9 1 S116 832 157734 -909 0
9 1 S116 786 158520 -123 0
9 2 S116 720 159240 597 0
9 2 S116 767 160007 1364 0
9 2 S116 794 160801 2158 0
9 2 S116 803 161604 2961 0
9 2 S116 750 162354 3711 0
9 2 S116 684 163038 4395 0
9 2 S116 714 163752 5109 0
9 2 S116 725 164477 5834 0
9 2 S116 752 165229 6586 0
0 0 0 708 165937 -12550 0
0 0 0 744 166681 -11806 0
0 0 0 793 167474 -11013 0
0 0 0 893 168367 -10120 0
0 0 0 893 169260 -9227 0
0 0 0 872 170132 -8355 0
0 0 0 884 171016 -7471 0
0 0 0 822 171838 -6649 0
0 0 0 756 172594 -5893 0
0 0 0 801 173395 -5092 0
0 0 0 879 174274 -4213 0
0 0 0 886 175160 -3327 0
0 0 0 854 176014 -2473 0
10 1 S102 787 176801 -1686 0
10 1 S102 823 177624 -863 0
10 1 S102 850 178474 -13 0
10 2 S102 866 179340 853 0
10 2 S102 819 180159 1672 0
10 2 S102 835 180994 2507 0
10 2 S102 847 181841 3354 0
10 2 S102 858 182699 4212 0
10 2 S102 841 183540 5053 0
10 2 S102 773 184313 5826 0
10 2 S102 815 185128 6641 0
0 0 0 840 185968 -12032 0
0 0 0 847 186815 -11185 0
0 0 0 849 187664 -10336 0
0 0 0 810 188474 -9526 0
0 0 0 834 189308 -8692 0
0 0 0 854 190162 -7838 0
0 0 0 871 191033 -6967 0
0 0 0 817 191850 -6150 0
0 0 0 874 192724 -5276 0
0 0 0 941 193665 -4335 0
0 0 0 901 194566 -3434 0
0 0 0 800 195366 -2634 0
11 1 S112 833 196199 -1801 0
11 1 S112 907 197106 -894 0
11 2 S112 934 198040 40 0
11 2 S112 971 199011 1011 0
11 2 S112 956 199967 1967 0
11 2 S112 917 200884 2884 0
11 2 S112 869 201753 3753 0
11 2 S112 842 202595 4595 0
11 2 S112 861 203456 5456 0
11 2 S112 877 204333 6333 0
0 0 0 864 205197 -8005 0
0 0 0 828 206025 -7177 0
0 0 0 874 206899 -6303 0
0 0 0 888 207787 -5415 0
0 0 0 898 208685 -4517 0
0 0 0 826 209511 -3691 0
0 0 0 785 210296 -2906 0
0 0 0 800 211096 -2106 0
12 1 S116 848 211944 -1258 0
12 1 S116 853 212797 -405 0
12 2 S116 791 213588 386 0
12 2 S116 815 214403 1201 0
12 2 S116 820 215223 2021 0
12 2 S116 823 216046 2844 0
12 2 S116 760 216806 3604 0
12 2 S116 704 217510 4308 0
12 2 S116 726 218236 5034 0
12 2 S116 765 219001 5799 0
12 2 S116 819 219820 6618 0
0 0 0 787 220607 -12605 0
0 0 0 771 221378 -11834 0
0 0 0 865 222243 -10969 0
0 0 0 894 223137 -10075 0
0 0 0 851 223988 -9224 0
0 0 0 828 224816 -8396 0
0 0 0 807 225623 -7589 0
0 0 0 743 226366 -6846 0
0 0 0 677 227043 -6169 0
0 0 0 646 227689 -5523 1
0 0 0 625 228314 -4898 1
0 0 0 656 228970 -4242 1
0 0 0 805 229775 -3437 0
0 0 0 918 230693 -2519 0
13 1 S112 896 231589 -1623 0
13 1 S112 900 232489 -723 0
13 2 S112 916 233405 193 0
13 2 S112 921 234326 1114 0
13 2 S112 890 235216 2004 0
13 2 S112 852 236068 2856 0
13 2 S112 803 236871 3659 0
13 2 S112 820 237691 4479 0
13 2 S112 843 238534 5322 0
13 2 S112 818 239352 6140 0
13 2 S112 738 240090 6878 0
0 0 0 765 240855 -12533 0
0 0 0 807 241662 -11726 0
0 0 0 855 242517 -10871 0
0 0 0 848 243365 -10023 0
0 0 0 840 244205 -9183 0
0 0 0 839 245044 -8344 0
0 0 0 835 245879 -7509 0
0 0 0 798 246677 -6711 0
0 0 0 784 247461 -5927 0
0 0 0 844 248305 -5083 0
0 0 0 878 249183 -4205 0
0 0 0 895 250078 -3310 0
0 0 0 820 250898 -2490 0
14 1 S106 792 251690 -1698 0
14 1 S106 855 252545 -843 0
14 2 S106 869 253414 26 0
14 2 S106 877 254291 903 0
14 2 S106 788 255079 1691 0
14 2 S106 725 255804 2416 0
14 2 S106 771 256575 3187 0
14 2 S106 850 257425 4037 0
14 2 S106 912 258337 4949 0
14 2 S106 921 259258 5870 0
14 2 S106 922 260180 6792 0
0 0 0 870 261050 -11967 0
0 0 0 828 261878 -11139 0
0 0 0 848 262726 -10291 0
0 0 0 862 263588 -9429 0
0 0 0 877 264465 -8552 0
0 0 0 811 265276 -7741 0
0 0 0 801 266077 -6940 0
0 0 0 833 266910 -6107 0
0 0 0 884 267794 -5223 0
0 0 0 905 268699 -4318 0
0 0 0 886 269585 -3432 0
0 0 0 874 270459 -2558 0
15 1 S116 881 271340 -1677 0
15 1 S116 898 272238 -779 0
15 2 S116 886 273124 107 0
15 2 S116 817 273941 924 0
15 2 S116 826 274767 1750 0
15 2 S116 860 275627 2610 0
15 2 S116 845 276472 3455 0
15 2 S116 804 277276 4259 0
15 2 S116 836 278112 5095 0
15 2 S116 893 279005 5988 0
15 2 S116 912 279917 6900 0
0 0 0 827 280744 -10310 0
0 0 0 849 281593 -9461 0
0 0 0 875 282468 -8586 0
0 0 0 847 283315 -7739 0
0 0 0 784 284099 -6955 0
0 0 0 769 284868 -6186 0
0 0 0 753 285621 -5433 0
0 0 0 724 286345 -4709 0
0 0 0 717 287062 -3992 0
0 0 0 769 287831 -3223 0
0 0 0 870 288701 -2353 0
16 1 S116 897 289598 -1456 0
16 1 S116 851 290449 -605 0
16 2 S116 889 291338 284 0
16 2 S116 931 292269 1215 0
16 2 S116 905 293174 2120 0
16 2 S116 804 293978 2924 0
16 2 S116 829 294807 3753 0
16 2 S116 841 295648 4594 0
16 2 S116 866 296514 5460 0
16 2 S116 835 297349 6295 0
0 0 0 789 298138 -9296 0
0 0 0 831 298969 -8465 0
0 0 0 884 299853 -7581 0
0 0 0 926 300779 -6655 0
0 0 0 844 301623 -5811 0
0 0 0 789 302412 -5022 0
0 0 0 826 303238 -4196 0
0 0 0 890 304128 -3306 0
0 0 0 880 305008 -2426 0
17 1 S106 845 305853 -1581 0
17 1 S106 853 306706 -728 0
17 2 S106 806 307512 78 0
17 2 S106 725 308237 803 0
17 2 S106 752 308989 1555 0
17 2 S106 780 309769 2335 0
17 2 S106 787 310556 3122 0
17 2 S106 714 311270 3836 0
17 2 S106 737 312007 4573 0
17 2 S106 762 312769 5335 0
17 2 S106 787 313556 6122 0
17 2 S106 796 314352 6918 0
0 0 0 760 315112 -12730 0
0 0 0 754 315866 -11976 0
0 0 0 786 316652 -11190 0
0 0 0 838 317490 -10352 0
0 0 0 888 318378 -9464 0
0 0 0 859 319237 -8605 0
0 0 0 853 320090 -7752 0
0 0 0 765 320855 -6987 0
0 0 0 688 321543 -6299 0
0 0 0 672 322215 -5627 0
0 0 0 686 322901 -4941 0
0 0 0 755 323656 -4186 0
0 0 0 831 324487 -3355 0
0 0 0 892 325379 -2463 0
18 1 S102 853 326232 -1610 0
18 1 S102 797 327029 -813 0
18 2 S102 838 327867 25 0
18 2 S102 861 328728 886 0
18 2 S102 874 329602 1760 0
18 2 S102 807 330409 2567 0
18 2 S102 821 331230 3388 0
18 2 S102 841 332071 4229 0
18 2 S102 880 332951 5109 0
18 2 S102 836 333787 5945 0
18 2 S102 824 334611 6769 0
0 0 0 887 335498 -7331 0
0 0 0 936 336434 -6395 0
0 0 0 922 337356 -5473 0
0 0 0 856 338212 -4617 0
0 0 0 844 339056 -3773 0
0 0 0 855 339911 -2918 0
0 0 0 770 340681 -2148 0
19 1 S106 725 341406 -1423 0
19 1 S106 791 342197 -632 0
19 2 S106 892 343089 260 0
19 2 S106 968 344057 1228 0
19 2 S106 925 344982 2153 0
19 2 S106 894 345876 3047 0
19 2 S106 887 346763 3934 0
19 2 S106 867 347630 4801 0
19 2 S106 820 348450 5621 0
19 2 S106 797 349247 6418 0
0 0 0 827 350074 -12980 0
0 0 0 858 350932 -12122 0
0 0 0 872 351804 -11250 0
0 0 0 828 352632 -10422 0
0 0 0 836 353468 -9586 0
0 0 0 849 354317 -8737 0
0 0 0 861 355178 -7876 0
0 0 0 790 355968 -7086 0
0 0 0 714 356682 -6372 0
0 0 0 762 357444 -5610 0
0 0 0 827 358271 -4783 0
0 0 0 878 359149 -3905 0
0 0 0 856 360005 -3049 0
0 0 0 783 360788 -2266 0
20 1 S112 805 361593 -1461 0
20 1 S112 822 362415 -639 0
20 2 S112 798 363213 159 0
20 2 S112 767 363980 926 0
20 2 S112 797 364777 1723 0
20 2 S112 835 365612 2558 0
20 2 S112 797 366409 3355 0
20 2 S112 762 367171 4117 0
20 2 S112 843 368014 4960 0
20 2 S112 914 368928 5874 0
20 2 S112 953 369881 6827 0
0 0 0 871 370752 -10638 0
0 0 0 877 371629 -9761 0
0 0 0 865 372494 -8896 0
0 0 0 823 373317 -8073 0
0 0 0 739 374056 -7334 0
0 0 0 755 374811 -6579 0
0 0 0 774 375585 -5805 0
0 0 0 839 376424 -4966 0
0 0 0 792 377216 -4174 0
0 0 0 854 378070 -3320 0
0 0 0 927 378997 -2393 0
21 1 S106 890 379887 -1503 0
21 1 S106 768 380655 -735 0
21 2 S106 782 381437 47 0
21 2 S106 854 382291 901 0
21 2 S106 888 383179 1789 0
21 2 S106 896 384075 2685 0
21 2 S106 856 384931 3541 0
21 2 S106 848 385779 4389 0
21 2 S106 856 386635 5245 0
21 2 S106 871 387506 6116 0
21 2 S106 862 388368 6978 0
0 0 0 835 389203 -12147 0
0 0 0 851 390054 -11296 0
0 0 0 879 390933 -10417 0
0 0 0 904 391837 -9513 0
0 0 0 877 392714 -8636 0
0 0 0 820 393534 -7816 0
0 0 0 852 394386 -6964 0
0 0 0 900 395286 -6064 0
0 0 0 850 396136 -5214 0
0 0 0 740 396876 -4474 0
0 0 0 681 397557 -3793 0
0 0 0 665 398222 -3128 0
0 0 0 777 398999 -2351 0
22 1 S116 973 399972 -1378 0
22 1 S116 1070 401042 -308 1
22 2 S116 993 402035 685 0
22 2 S116 996 403031 1681 0
22 2 S116 851 403882 2532 0
22 2 S116 845 404727 3377 0
22 2 S116 833 405560 4210 0
22 2 S116 861 406421 5071 0
22 2 S116 856 407277 5927 0
22 2 S116 799 408076 6726 0
0 0 0 733 408809 -10463 0
0 0 0 763 409572 -9700 0
0 0 0 793 410365 -8907 0
0 0 0 817 411182 -8090 0
0 0 0 826 412008 -7264 0
0 0 0 801 412809 -6463 0
0 0 0 766 413575 -5697 0
0 0 0 778 414353 -4919 0
0 0 0 788 415141 -4131 0
0 0 0 729 415870 -3402 0
0 0 0 697 416567 -2705 0
23 1 S112 731 417298 -1974 0
23 1 S112 750 418048 -1224 0
23 1 S112 816 418864 -408 0
23 2 S112 891 419755 483 0
23 2 S112 913 420668 1396 0
23 2 S112 894 421562 2290 0
23 2 S112 877 422439 3167 0
23 2 S112 866 423305 4033 0
23 2 S112 845 424150 4878 0
23 2 S112 845 424995 5723 0
23 2 S112 794 425789 6517 0
0 0 0 745 426534 -10294 0
0 0 0 783 427317 -9511 0
0 0 0 845 428162 -8666 0
0 0 0 877 429039 -7789 0
0 0 0 902 429941 -6887 0
0 0 0 848 430789 -6039 0
0 0 0 780 431569 -5259 0
0 0 0 804 432373 -4455 0
0 0 0 832 433205 -3623 0
0 0 0 857 434062 -2766 0
24 1 S106 839 434901 -1927 0
24 1 S106 786 435687 -1141 0
24 1 S106 821 436508 -320 0
24 2 S106 848 437356 528 0
24 2 S106 866 438222 1394 0
24 2 S106 857 439079 2251 0
24 2 S106 798 439877 3049 0
24 2 S106 809 440686 3858 0
24 2 S106 813 441499 4671 0
24 2 S106 828 442327 5499 0
24 2 S106 824 443151 6323 0
0 0 0 823 443974 -10494 0
0 0 0 778 444752 -9716 0
0 0 0 815 445567 -8901 0
0 0 0 832 446399 -8069 0
0 0 0 855 447254 -7214 0
0 0 0 849 448103 -6365 0
0 0 0 773 448876 -5592 0
0 0 0 772 449648 -4820 0
0 0 0 787 450435 -4033 0
0 0 0 799 451234 -3234 0
0 0 0 816 452050 -2418 0
25 1 S102 785 452835 -1633 0
25 1 S102 820 453655 -813 0
25 1 S102 803 454458 -10 0
25 2 S102 776 455234 766 0
25 2 S102 745 455979 1511 0
25 2 S102 761 456740 2272 0
25 2 S102 809 457549 3081 0
25 2 S102 850 458399 3931 0
25 2 S102 841 459240 4772 0
25 2 S102 853 460093 5625 0
25 2 S102 867 460960 6492 0
0 0 0 866 461826 -7115 0
0 0 0 817 462643 -6298 0
0 0 0 827 463470 -5471 0
0 0 0 828 464298 -4643 0
0 0 0 785 465083 -3858 0
0 0 0 707 465790 -3151 0
0 0 0 728 466518 -2423 0
26 1 S116 756 467274 -1667 0
26 1 S116 834 468108 -833 0
26 2 S116 884 468992 51 0
26 2 S116 821 469813 872 0
26 2 S116 879 470692 1751 0
26 2 S116 879 471571 2630 0
26 2 S116 779 472350 3409 0
26 2 S116 806 473156 4215 0
26 2 S116 828 473984 5043 0
26 2 S116 849 474833 5892 0
26 2 S116 772 475605 6664 0
0 0 0 693 476298 -8757 0
0 0 0 694 476992 -8063 0
0 0 0 735 477727 -7328 0
0 0 0 806 478533 -6522 0
0 0 0 859 479392 -5663 0
0 0 0 831 480223 -4832 0
0 0 0 862 481085 -3970 0
0 0 0 895 481980 -3075 0
0 0 0 837 482817 -2238 0
27 1 S106 736 483553 -1502 0
27 1 S106 789 484342 -713 0
27 2 S106 854 485196 141 0
27 2 S106 878 486074 1019 0
27 2 S106 883 486957 1902 0
27 2 S106 806 487763 2708 0
27 2 S106 796 488559 3504 0
27 2 S106 827 489386 4331 0
27 2 S106 864 490250 5195 0
27 2 S106 885 491135 6080 0
27 2 S106 884 492019 6964 0
0 0 0 802 492821 -7635 0
0 0 0 836 493657 -6799 0
0 0 0 880 494537 -5919 0
0 0 0 946 495483 -4973 0
0 0 0 930 496413 -4043 0
0 0 0 839 497252 -3204 0
0 0 0 813 498065 -2391 0
28 1 S102 877 498942 -1514 0
28 1 S102 920 499862 -594 0
28 2 S102 918 500780 324 0
28 2 S102 844 501624 1168 0
28 2 S102 811 502435 1979 0
28 2 S102 823 503258 2802 0
28 2 S102 858 504116 3660 0
28 2 S102 854 504970 4514 0
28 2 S102 767 505737 5281 0
28 2 S102 788 506525 6069 0
28 2 S102 834 507359 6903 0
0 0 0 884 508243 -11295 0
0 0 0 931 509174 -10364 0
0 0 0 897 510071 -9467 0
0 0 0 873 510944 -8594 0
0 0 0 841 511785 -7753 0
0 0 0 778 512563 -6975 0
0 0 0 737 513300 -6238 0
0 0 0 786 514086 -5452 0
0 0 0 838 514924 -4614 0
0 0 0 880 515804 -3734 0
0 0 0 883 516687 -2851 0
29 1 S112 863 517550 -1988 0
29 1 S112 885 518435 -1103 0
29 1 S112 891 519326 -212 0
29 2 S112 880 520206 668 0
29 2 S112 838 521044 1506 0
29 2 S112 823 521867 2329 0
29 2 S112 832 522699 3161 0
29 2 S112 847 523546 4008 0
29 2 S112 847 524393 4855 0
29 2 S112 818 525211 5673 0
29 2 S112 837 526048 6510 0
0 0 0 878 526926 -8693 0
0 0 0 859 527785 -7834 0
0 0 0 800 528585 -7034 0
0 0 0 831 529416 -6203 0
0 0 0 883 530299 -5320 0
0 0 0 872 531171 -4448 0
0 0 0 756 531927 -3692 0
0 0 0 716 532643 -2976 0
0 0 0 757 533400 -2219 0
30 1 S112 785 534185 -1434 0
30 1 S112 826 535011 -608 0
30 2 S112 723 535734 115 0
30 2 S112 711 536445 826 0
30 2 S112 758 537203 1584 0
30 2 S112 815 538018 2399 0
30 2 S112 845 538863 3244 0
30 2 S112 820 539683 4064 0
30 2 S112 800 540483 4864 0
30 2 S112 846 541329 5710 0
30 2 S112 878 542207 6588 0
0 0 0 788 542995 -9948 0
0 0 0 760 543755 -9188 0
0 0 0 801 544556 -8387 0
0 0 0 869 545425 -7518 0
0 0 0 894 546319 -6624 0
0 0 0 793 547112 -5831 0
0 0 0 810 547922 -5021 0
0 0 0 818 548740 -4203 0
0 0 0 793 549533 -3410 0
0 0 0 731 550264 -2679 0
31 1 S106 755 551019 -1924 0
31 1 S106 786 551805 -1138 0
31 1 S106 813 552618 -325 0
31 2 S106 754 553372 429 0
31 2 S106 782 554154 1211 0
31 2 S106 841 554995 2052 0
31 2 S106 901 555896 2953 0
31 2 S106 881 556777 3834 0
31 2 S106 877 557654 4711 0
31 2 S106 931 558585 5642 0
31 2 S106 934 559519 6576 0
0 0 0 924 560443 -10339 0
0 0 0 844 561287 -9495 0
0 0 0 858 562145 -8637 0
0 0 0 853 562998 -7784 0
0 0 0 837 563835 -6947 0
0 0 0 751 564586 -6196 0
0 0 0 765 565351 -5431 0
0 0 0 835 566186 -4596 0
0 0 0 907 567093 -3689 0
0 0 0 851 567944 -2838 0
0 0 0 754 568698 -2084 0
32 1 S102 794 569492 -1290 0
32 1 S102 897 570389 -393 0
32 2 S102 959 571348 566 0
32 2 S102 897 572245 1463 0
32 2 S102 925 573170 2388 0
32 2 S102 922 574092 3310 0
32 2 S102 846 574938 4156 0
32 2 S102 844 575782 5000 0
32 2 S102 838 576620 5838 0
32 2 S102 846 577466 6684 0
0 0 0 837 578303 -11279 0
0 0 0 905 579208 -10374 0
0 0 0 923 580131 -9451 0
0 0 0 894 581025 -8557 0
0 0 0 786 581811 -7771 0
0 0 0 818 582629 -6953 0
0 0 0 837 583466 -6116 0
0 0 0 861 584327 -5255 0
0 0 0 777 585104 -4478 0
0 0 0 790 585894 -3688 0
0 0 0 835 586729 -2853 0
0 0 0 847 587576 -2006 0
33 1 S112 790 588366 -1216 0
33 1 S112 820 589186 -396 0
33 2 S112 832 590018 436 0
33 2 S112 852 590870 1288 0
33 2 S112 796 591666 2084 0
33 2 S112 707 592373 2791 0
33 2 S112 717 593090 3508 0
33 2 S112 773 593863 4281 0
33 2 S112 845 594708 5126 0
33 2 S112 895 595603 6021 0
33 2 S112 827 596430 6848 0
0 0 0 839 597269 -12339 0
0 0 0 842 598111 -11497 0
0 0 0 846 598957 -10651 0
0 0 0 776 599733 -9875 0
0 0 0 725 600458 -9150 0
0 0 0 754 601212 -8396 0
0 0 0 794 602006 -7602 0
0 0 0 842 602848 -6760 0
0 0 0 800 603648 -5960 0
0 0 0 861 604509 -5099 0
0 0 0 960 605469 -4139 0
0 0 0 963 606432 -3176 0
0 0 0 921 607353 -2255 0
34 1 S106 904 608257 -1351 0
34 1 S106 877 609134 -474 0
34 2 S106 806 609940 332 0
34 2 S106 801 610741 1133 0
34 2 S106 823 611564 1956 0
34 2 S106 838 612402 2794 0
34 2 S106 828 613230 3622 0
34 2 S106 820 614050 4442 0
34 2 S106 884 614934 5326 0
34 2 S106 930 615864 6256 0
0 0 0 910 616774 -10159 0
0 0 0 832 617606 -9327 0
0 0 0 869 618475 -8458 0
0 0 0 890 619365 -7568 0
0 0 0 904 620269 -6664 0
0 0 0 810 621079 -5854 0
0 0 0 828 621907 -5026 0
0 0 0 888 622795 -4138 0
0 0 0 835 623630 -3303 0
0 0 0 720 624350 -2583 0
35 1 S102 676 625026 -1907 0
35 1 S102 663 625689 -1244 1
35 1 S102 778 626467 -466 0
35 2 S102 1041 627508 575 1
35 2 S102 979 628487 1554 0
35 2 S102 975 629462 2529 0
35 2 S102 979 630441 3508 0
35 2 S102 966 631407 4474 0
35 2 S102 952 632359 5426 0
35 2 S102 889 633248 6315 0
0 0 0 830 634078 -8190 0
0 0 0 822 634900 -7368 0
0 0 0 812 635712 -6556 0
0 0 0 805 636517 -5751 0
0 0 0 798 637315 -4953 0
0 0 0 814 638129 -4139 0
0 0 0 845 638974 -3294 0
0 0 0 830 639804 -2464 0
36 1 S106 842 640646 -1622 0
36 1 S106 869 641515 -753 0
36 2 S106 866 642381 113 0
36 2 S106 759 643140 872 0
36 2 S106 796 643936 1668 0
36 2 S106 842 644778 2510 0
36 2 S106 902 645680 3412 0
36 2 S106 871 646551 4283 0
36 2 S106 869 647420 5152 0
36 2 S106 890 648310 6042 0
36 2 S106 904 649214 6946 0
0 0 0 895 650109 -9500 0
0 0 0 842 650951 -8658 0
0 0 0 831 651782 -7827 0
0 0 0 835 652617 -6992 0
0 0 0 816 653433 -6176 0
0 0 0 774 654207 -5402 0
0 0 0 758 654965 -4644 0
0 0 0 794 655759 -3850 0
0 0 0 859 656618 -2991 0
0 0 0 875 657493 -2116 0
37 1 S116 803 658296 -1313 0
37 1 S116 842 659138 -471 0
37 2 S116 911 660049 440 0
37 2 S116 826 660875 1266 0
37 2 S116 822 661697 2088 0
37 2 S116 844 662541 2932 0
37 2 S116 789 663330 3721 0
37 2 S116 718 664048 4439 0
37 2 S116 740 664788 5179 0
37 2 S116 779 665567 5958 0
37 2 S116 837 666404 6795 0
0 0 0 781 667185 -12384 0
0 0 0 731 667916 -11653 0
0 0 0 767 668683 -10886 0
0 0 0 796 669479 -10090 0
0 0 0 843 670322 -9247 0
0 0 0 786 671108 -8461 0
0 0 0 781 671889 -7680 0
0 0 0 796 672685 -6884 0
0 0 0 801 673486 -6083 0
0 0 0 744 674230 -5339 0
0 0 0 774 675004 -4565 0
0 0 0 857 675861 -3708 0
0 0 0 902 676763 -2806 0
38 1 S102 862 677625 -1944 0
38 1 S102 868 678493 -1076 0
38 1 S102 871 679364 -205 0
38 2 S102 865 680229 660 0
38 2 S102 830 681059 1490 0
38 2 S102 822 681881 2312 0
38 2 S102 861 682742 3173 0
38 2 S102 876 683618 4049 0
38 2 S102 874 684492 4923 0
38 2 S102 826 685318 5749 0
38 2 S102 850 686168 6599 0
0 0 0 881 687049 -10242 0
0 0 0 917 687966 -9325 0
0 0 0 907 688873 -8418 0
0 0 0 864 689737 -7554 0
0 0 0 874 690611 -6680 0
0 0 0 825 691436 -5855 0
0 0 0 755 692191 -5100 0
0 0 0 776 692967 -4324 0
0 0 0 830 693797 -3494 0
0 0 0 885 694682 -2609 0
39 1 S116 849 695531 -1760 0
39 1 S116 813 696344 -947 0
39 1 S116 858 697202 -89 0
39 2 S116 891 698093 802 0
39 2 S116 907 699000 1709 0
39 2 S116 816 699816 2525 0
39 2 S116 711 700527 3236 0
39 2 S116 747 701274 3983 0
39 2 S116 792 702066 4775 0
39 2 S116 864 702930 5639 0
39 2 S116 837 703767 6476 0
0 0 0 828 704595 -9142 0
0 0 0 865 705460 -8277 0
0 0 0 891 706351 -7386 0
0 0 0 877 707228 -6509 0
0 0 0 821 708049 -5688 0
0 0 0 837 708886 -4851 0
0 0 0 813 709699 -4038 0
0 0 0 810 710509 -3228 0
0 0 0 759 711268 -2469 0
40 1 S112 756 712024 -1713 0
40 1 S112 755 712779 -958 0
40 1 S112 760 713539 -198 0
40 2 S112 700 714239 502 0
40 2 S112 663 714902 1165 1
40 2 S112 760 715662 1925 0
40 2 S112 858 716520 2783 0
40 2 S112 984 717504 3767 0
40 2 S112 931 718435 4698 0
40 2 S112 941 719376 5639 0
40 2 S112 954 720330 6593 0
0 0 0 921 721251 -188128 0
0 0 0 817 722068 -187311 0
0 0 0 825 722893 -186486 0
0 0 0 845 723738 -185641 0
0 0 0 868 724606 -184773 0
0 0 0 823 725429 -183950 0
0 0 0 814 726243 -183136 0
0 0 0 873 727116 -182263 0
0 0 0 854 727970 -181409 0
0 0 0 736 728706 -180673 0
0 0 0 686 729392 -179987 0
0 0 0 737 730129 -179250 0
0 0 0 913 731042 -178337 0
0 0 0 1122 732164 -177215 1
0 0 0 953 733117 -176262 0
0 0 0 939 734056 -175323 0
0 0 0 929 734985 -174394 0
0 0 0 864 735849 -173530 0
0 0 0 764 736613 -172766 0
0 0 0 716 737329 -172050 0
0 0 0 720 738049 -171330 0
0 0 0 755 738804 -170575 0
0 0 0 794 739598 -169781 0
0 0 0 828 740426 -168953 0
0 0 0 853 741279 -168100 0
0 0 0 882 742161 -167218 0
0 0 0 897 743058 -166321 0
0 0 0 883 743941 -165438 0
0 0 0 826 744767 -164612 0
0 0 0 751 745518 -163861 0
0 0 0 746 746264 -163115 0
0 0 0 780 747044 -162335 0
0 0 0 792 747836 -161543 0
0 0 0 795 748631 -160748 0
0 0 0 790 749421 -159958 0
0 0 0 759 750180 -159199 0
0 0 0 769 750949 -158430 0
0 0 0 784 751733 -157646 0
0 0 0 767 752500 -156879 0
0 0 0 735 753235 -156144 0
0 0 0 692 753927 -155452 0
0 0 0 723 754650 -154729 0
0 0 0 738 755388 -153991 0
0 0 0 778 756166 -153213 0
0 0 0 754 756920 -152459 0
0 0 0 791 757711 -151668 0
0 0 0 826 758537 -150842 0
0 0 0 838 759375 -150004 0
0 0 0 819 760194 -149185 0
0 0 0 733 760927 -148452 0
0 0 0 755 761682 -147697 0
0 0 0 770 762452 -146927 0
0 0 0 756 763208 -146171 0
0 0 0 751 763959 -145420 0
0 0 0 753 764712 -144667 0
0 0 0 783 765495 -143884 0
0 0 0 758 766253 -143126 0
0 0 0 732 766985 -142394 0
0 0 0 757 767742 -141637 0
0 0 0 767 768509 -140870 0
0 0 0 716 769225 -140154 0
0 0 0 686 769911 -139468 0
0 0 0 721 770632 -138747 0
0 0 0 774 771406 -137973 0
0 0 0 849 772255 -137124 0
0 0 0 789 773044 -136335 0
0 0 0 762 773806 -135573 0
0 0 0 741 774547 -134832 0
0 0 0 681 775228 -134151 0
0 0 0 652 775880 -133499 1
0 0 0 647 776527 -132852 1
0 0 0 661 777188 -132191 1
0 0 0 695 777883 -131496 0
0 0 0 646 778529 -130850 1
0 0 0 634 779163 -130216 1
0 0 0 653 779816 -129563 1
0 0 0 684 780500 -128879 0
0 0 0 713 781213 -128166 0
0 0 0 710 781923 -127456 0
0 0 0 668 782591 -126788 0
0 0 0 666 783257 -126122 0
0 0 0 680 783937 -125442 0
0 0 0 697 784634 -124745 0
0 0 0 713 785347 -124032 0
0 0 0 680 786027 -123352 0
0 0 0 675 786702 -122677 0
0 0 0 699 787401 -121978 0
0 0 0 719 788120 -121259 0
0 0 0 775 788895 -120484 0
0 0 0 758 789653 -119726 0
0 0 0 769 790422 -118957 0
0 0 0 799 791221 -118158 0
0 0 0 821 792042 -117337 0
0 0 0 780 792822 -116557 0
0 0 0 762 793584 -115795 0
0 0 0 765 794349 -115030 0
0 0 0 775 795124 -114255 0
0 0 0 752 795876 -113503 0
0 0 0 776 796652 -112727 0
0 0 0 800 797452 -111927 0
0 0 0 751 798203 -111176 0
0 0 0 757 798960 -110419 0
0 0 0 788 799748 -109631 0
0 0 0 815 800563 -108816 0
0 0 0 763 801326 -108053 0
0 0 0 686 802012 -107367 0
0 0 0 705 802717 -106662 0
0 0 0 768 803485 -105894 0
0 0 0 817 804302 -105077 0
0 0 0 766 805068 -104311 0
0 0 0 783 805851 -103528 0
0 0 0 801 806652 -102727 0
0 0 0 830 807482 -101897 0
0 0 0 762 808244 -101135 0
0 0 0 765 809009 -100370 0
0 0 0 792 809801 -99578 0
0 0 0 830 810631 -98748 0
0 0 0 783 811414 -97965 0
0 0 0 793 812207 -97172 0
0 0 0 826 813033 -96346 0
0 0 0 823 813856 -95523 0
0 0 0 785 814641 -94738 0
0 0 0 820 815461 -93918 0
0 0 0 816 816277 -93102 0
0 0 0 785 817062 -92317 0
0 0 0 843 817905 -91474 0
0 0 0 854 818759 -90620 0
0 0 0 774 819533 -89846 0
0 0 0 827 820360 -89019 0
0 0 0 885 821245 -88134 0
0 0 0 765 822010 -87369 0
0 0 0 697 822707 -86672 0
0 0 0 734 823441 -85938 0
0 0 0 862 824303 -85076 0
0 0 0 922 825225 -84154 0
0 0 0 818 826043 -83336 0
0 0 0 851 826894 -82485 0
0 0 0 896 827790 -81589 0
0 0 0 860 828650 -80729 0
0 0 0 773 829423 -79956 0
0 0 0 848 830271 -79108 0
0 0 0 894 831165 -78214 0
0 0 0 827 831992 -77387 0
0 0 0 836 832828 -76551 0
0 0 0 897 833725 -75654 0
0 0 0 833 834558 -74821 0
0 0 0 796 835354 -74025 0
0 0 0 905 836259 -73120 0
0 0 0 966 837225 -72154 0
0 0 0 846 838071 -71308 0
0 0 0 830 838901 -70478 0
0 0 0 856 839757 -69622 0
0 0 0 878 840635 -68744 0
0 0 0 787 841422 -67957 0
0 0 0 801 842223 -67156 0
0 0 0 870 843093 -66286 0
0 0 0 904 843997 -65382 0
0 0 0 825 844822 -64557 0
0 0 0 890 845712 -63667 0
0 0 0 938 846650 -62729 0
0 0 0 859 847509 -61870 0
0 0 0 831 848340 -61039 0
0 0 0 883 849223 -60156 0
0 0 0 860 850083 -59296 0
0 0 0 768 850851 -58528 0
0 0 0 763 851614 -57765 0
0 0 0 802 852416 -56963 0
0 0 0 940 853356 -56023 0
0 0 0 876 854232 -55147 0
0 0 0 941 855173 -54206 0
0 0 0 956 856129 -53250 0
0 0 0 836 856965 -52414 0
0 0 0 809 857774 -51605 0
0 0 0 839 858613 -50766 0
0 0 0 810 859423 -49956 0
0 0 0 723 860146 -49233 0
0 0 0 739 860885 -48494 0
0 0 0 763 861648 -47731 0
0 0 0 711 862359 -47020 0
0 0 0 672 863031 -46348 0
0 0 0 686 863717 -45662 0
0 0 0 738 864455 -44924 0
0 0 0 811 865266 -44113 0
0 0 0 746 866012 -43367 0
0 0 0 752 866764 -42615 0
0 0 0 829 867593 -41786 0
0 0 0 866 868459 -40920 0
0 0 0 805 869264 -40115 0
0 0 0 795 870059 -39320 0
0 0 0 818 870877 -38502 0
0 0 0 827 871704 -37675 0
0 0 0 751 872455 -36924 0
0 0 0 770 873225 -36154 0
0 0 0 816 874041 -35338 0
0 0 0 847 874888 -34491 0
0 0 0 799 875687 -33692 0
0 0 0 859 876546 -32833 0
0 0 0 880 877426 -31953 0
0 0 0 838 878264 -31115 0
0 0 0 855 879119 -30260 0
0 0 0 862 879981 -29398 0
0 0 0 844 880825 -28554 0
0 0 0 782 881607 -27772 0
0 0 0 806 882413 -26966 0
0 0 0 845 883258 -26121 0
0 0 0 839 884097 -25282 0
0 0 0 768 884865 -24514 0
0 0 0 806 885671 -23708 0
0 0 0 838 886509 -22870 0
0 0 0 856 887365 -22014 0
0 0 0 821 888186 -21193 0
0 0 0 834 889020 -20359 0
0 0 0 863 889883 -19496 0
0 0 0 835 890718 -18661 0
0 0 0 763 891481 -17898 0
0 0 0 788 892269 -17110 0
0 0 0 807 893076 -16303 0
0 0 0 731 893807 -15572 0
0 0 0 768 894575 -14804 0
0 0 0 844 895419 -13960 0
0 0 0 916 896335 -13044 0
0 0 0 861 897196 -12183 0
0 0 0 811 898007 -11372 0
0 0 0 855 898862 -10517 0
0 0 0 930 899792 -9587 0
0 0 0 854 900646 -8733 0
0 0 0 819 901465 -7914 0
0 0 0 857 902322 -7057 0
0 0 0 881 903203 -6176 0
0 0 0 794 903997 -5382 0
0 0 0 846 904843 -4536 0
0 0 0 966 905809 -3570 0
0 0 0 943 906752 -2627 0
41 1 S102 780 907532 -1847 0
41 1 S102 785 908317 -1062 0
41 1 S102 767 909084 -295 0
41 2 S102 689 909773 394 0
41 2 S102 701 910474 1095 0
41 2 S102 755 911229 1850 0
41 2 S102 882 912111 2732 0
41 2 S102 1035 913146 3767 1
41 2 S102 969 914115 4736 0
41 2 S102 850 914965 5586 0
41 2 S102 906 915871 6492 0
0 0 0 936 916807 -8073 0
0 0 0 935 917742 -7138 0
0 0 0 852 918594 -6286 0
0 0 0 910 919504 -5376 0
0 0 0 926 920430 -4450 0
0 0 0 883 921313 -3567 0
0 0 0 864 922177 -2703 0
42 1 S112 915 923092 -1788 0
42 1 S112 945 924037 -843 0
42 2 S112 872 924909 29 0
42 2 S112 916 925825 945 0
42 2 S112 984 926809 1929 0
42 2 S112 964 927773 2893 0
42 2 S112 915 928688 3808 0
42 2 S112 969 929657 4777 0
42 2 S112 958 930615 5735 0
42 2 S112 837 931452 6572 0
0 0 0 869 932321 -10165 0
0 0 0 919 933240 -9246 0
0 0 0 947 934187 -8299 0
0 0 0 917 935104 -7382 0
0 0 0 932 936036 -6450 0
0 0 0 964 937000 -5486 0
0 0 0 890 937890 -4596 0
0 0 0 943 938833 -3653 0
0 0 0 957 939790 -2696 0
43 1 S116 932 940722 -1764 0
43 1 S116 831 941553 -933 0
43 1 S116 762 942315 -171 0
43 2 S116 665 942980 494 0
43 2 S116 702 943682 1196 0
43 2 S116 711 944393 1907 0
43 2 S116 779 945172 2686 0
43 2 S116 1069 946241 3755 1
43 2 S116 885 947126 4640 0
43 2 S116 798 947924 5438 0
43 2 S116 919 948843 6357 0
0 0 0 922 949765 -8620 0
0 0 0 897 950662 -7723 0
0 0 0 865 951527 -6858 0
0 0 0 866 952393 -5992 0
0 0 0 868 953261 -5124 0
0 0 0 833 954094 -4291 0
0 0 0 762 954856 -3529 0
0 0 0 788 955644 -2741 0
44 1 S102 826 956470 -1915 0
44 1 S102 895 957365 -1020 0
44 1 S102 932 958297 -88 0
44 2 S102 1041 959338 953 1
44 2 S102 948 960286 1901 0
44 2 S102 926 961212 2827 0
44 2 S102 855 962067 3682 0
44 2 S102 886 962953 4568 0
44 2 S102 917 963870 5485 0
44 2 S102 928 964798 6413 0
0 0 0 847 965645 -11341 0
0 0 0 841 966486 -10500 0
0 0 0 881 967367 -9619 0
0 0 0 899 968266 -8720 0
0 0 0 901 969167 -7819 0
0 0 0 886 970053 -6933 0
0 0 0 908 970961 -6025 0
0 0 0 904 971865 -5121 0
0 0 0 848 972713 -4273 0
0 0 0 778 973491 -3495 0
0 0 0 823 974314 -2672 0
45 1 S116 888 975202 -1784 0
45 1 S116 889 976091 -895 0
45 1 S116 870 976961 -25 0
45 2 S116 964 977925 939 0
45 2 S116 997 978922 1936 0
45 2 S116 893 979815 2829 0
45 2 S116 885 980700 3714 0
45 2 S116 936 981636 4650 0
45 2 S116 954 982590 5604 0
45 2 S116 915 983505 6519 0
0 0 0 879 984384 -11617 0
0 0 0 923 985307 -10694 0
0 0 0 945 986252 -9749 0
0 0 0 940 987192 -8809 0
0 0 0 822 988014 -7987 0
0 0 0 831 988845 -7156 0
0 0 0 867 989712 -6289 0
0 0 0 885 990597 -5404 0
0 0 0 849 991446 -4555 0
0 0 0 900 992346 -3655 0
0 0 0 933 993279 -2722 0
46 1 S102 904 994183 -1818 0
46 1 S102 809 994992 -1009 0
46 1 S102 837 995829 -172 0
46 2 S102 893 996722 721 0
46 2 S102 921 997643 1642 0
46 2 S102 871 998514 2513 0
46 2 S102 894 999408 3407 0
46 2 S102 908 1000316 4315 0
46 2 S102 853 1001169 5168 0
46 2 S102 841 1002010 6009 0
46 2 S102 873 1002883 6882 0
0 0 0 879 1003762 -9000 0
0 0 0 813 1004575 -8187 0
0 0 0 827 1005402 -7360 0
0 0 0 863 1006265 -6497 0
0 0 0 817 1007082 -5680 0
0 0 0 758 1007840 -4922 0
0 0 0 806 1008646 -4116 0
0 0 0 859 1009505 -3257 0
0 0 0 828 1010333 -2429 0
47 1 S112 804 1011137 -1625 0
47 1 S112 884 1012021 -741 0
47 2 S112 924 1012945 183 0
47 2 S112 932 1013877 1115 0
47 2 S112 823 1014700 1938 0
47 2 S112 842 1015542 2780 0
47 2 S112 890 1016432 3670 0
47 2 S112 936 1017368 4606 0
47 2 S112 922 1018290 5528 0
47 2 S112 843 1019133 6371 0
0 0 0 917 1020050 -12191 0
0 0 0 906 1020956 -11285 0
0 0 0 791 1021747 -10494 0
0 0 0 746 1022493 -9748 0
0 0 0 823 1023316 -8925 0
0 0 0 867 1024183 -8058 0
0 0 0 855 1025038 -7203 0
0 0 0 822 1025860 -6381 0
0 0 0 913 1026773 -5468 0
0 0 0 963 1027736 -4505 0
0 0 0 840 1028576 -3665 0
0 0 0 834 1029410 -2831 0
48 1 S116 858 1030268 -1973 0
48 1 S116 857 1031125 -1116 0
48 1 S116 796 1031921 -320 0
48 2 S116 815 1032736 495 0
48 2 S116 832 1033568 1327 0
48 2 S116 850 1034418 2177 0
48 2 S116 796 1035214 2973 0
48 2 S116 825 1036039 3798 0
48 2 S116 865 1036904 4663 0
48 2 S116 917 1037821 5580 0
48 2 S116 852 1038673 6432 0
0 0 0 899 1039572 -8054 0
0 0 0 956 1040528 -7098 0
0 0 0 939 1041467 -6159 0
0 0 0 853 1042320 -5306 0
0 0 0 808 1043128 -4498 0
0 0 0 816 1043944 -3682 0
0 0 0 811 1044755 -2871 0
0 0 0 752 1045507 -2119 0
49 1 S112 782 1046289 -1337 0
49 1 S112 832 1047121 -505 0
49 2 S112 947 1048068 442 0
49 2 S112 956 1049024 1398 0
49 2 S112 838 1049862 2236 0
49 2 S112 841 1050703 3077 0
49 2 S112 892 1051595 3969 0
49 2 S112 929 1052524 4898 0
49 2 S112 814 1053338 5712 0
49 2 S112 766 1054104 6478 0
0 0 0 833 1054937 -11340 0
0 0 0 853 1055790 -10487 0
0 0 0 884 1056674 -9603 0
0 0 0 864 1057538 -8739 0
0 0 0 785 1058323 -7954 0
0 0 0 824 1059147 -7130 0
0 0 0 811 1059958 -6319 0
0 0 0 714 1060672 -5605 0
0 0 0 758 1061430 -4847 0
0 0 0 721 1062151 -4126 0
0 0 0 685 1062836 -3441 0
0 0 0 732 1063568 -2709 0
50 1 S106 798 1064366 -1911 0
50 1 S106 856 1065222 -1055 0
50 1 S106 835 1066057 -220 0
50 2 S106 779 1066836 559 0
50 2 S106 803 1067639 1362 0
50 2 S106 839 1068478 2201 0
50 2 S106 858 1069336 3059 0
50 2 S106 853 1070189 3912 0
50 2 S106 880 1071069 4792 0
50 2 S106 898 1071967 5690 0
50 2 S106 916 1072883 6606 0
0 0 0 914 1073797 -7765 0
0 0 0 956 1074753 -6809 0
0 0 0 954 1075707 -5855 0
0 0 0 930 1076637 -4925 0
0 0 0 833 1077470 -4092 0
0 0 0 851 1078321 -3241 0
0 0 0 909 1079230 -2332 0
51 1 S112 865 1080095 -1467 0
51 1 S112 906 1081001 -561 0
51 2 S112 986 1081987 425 0
51 2 S112 933 1082920 1358 0
51 2 S112 905 1083825 2263 0
51 2 S112 924 1084749 3187 0
51 2 S112 927 1085676 4114 0
51 2 S112 829 1086505 4943 0
51 2 S112 857 1087362 5800 0
51 2 S112 864 1088226 6664 0
0 0 0 890 1089116 -7798 0
0 0 0 813 1089929 -6985 0
0 0 0 813 1090742 -6172 0
0 0 0 828 1091570 -5344 0
0 0 0 848 1092418 -4496 0
0 0 0 805 1093223 -3691 0
0 0 0 778 1094001 -2913 0
0 0 0 828 1094829 -2085 0
52 1 S116 897 1095726 -1188 0
52 1 S116 880 1096606 -308 0
52 2 S116 855 1097461 547 0
52 2 S116 841 1098302 1388 0
52 2 S116 742 1099044 2130 0
52 2 S116 665 1099709 2795 0
52 2 S116 638 1100347 3433 1
52 2 S116 653 1101000 4086 1
52 2 S116 734 1101734 4820 0
52 2 S116 902 1102636 5722 0
52 2 S116 911 1103547 6633 0
0 0 0 893 1104440 -10096 0
0 0 0 822 1105262 -9274 0
0 0 0 820 1106082 -8454 0
0 0 0 833 1106915 -7621 0
0 0 0 841 1107756 -6780 0
0 0 0 809 1108565 -5971 0
0 0 0 777 1109342 -5194 0
0 0 0 734 1110076 -4460 0
0 0 0 766 1110842 -3694 0
0 0 0 853 1111695 -2841 0
53 1 S106 1044 1112739 -1797 1
53 1 S106 1046 1113785 -751 1
53 2 S106 966 1114751 215 0
53 2 S106 921 1115672 1136 0
53 2 S106 952 1116624 2088 0
53 2 S106 947 1117571 3035 0
53 2 S106 954 1118525 3989 0
53 2 S106 910 1119435 4899 0
53 2 S106 885 1120320 5784 0
53 2 S106 814 1121134 6598 0
0 0 0 837 1121971 -8348 0
0 0 0 878 1122849 -7470 0
0 0 0 916 1123765 -6554 0
0 0 0 930 1124695 -5624 0
0 0 0 912 1125607 -4712 0
0 0 0 848 1126455 -3864 0
0 0 0 890 1127345 -2974 0
0 0 0 907 1128252 -2067 0
54 1 S102 882 1129134 -1185 0
54 1 S102 913 1130047 -272 0
54 2 S102 899 1130946 627 0
54 2 S102 833 1131779 1460 0
54 2 S102 732 1132511 2192 0
54 2 S102 755 1133266 2947 0
54 2 S102 814 1134080 3761 0
54 2 S102 896 1134976 4657 0
54 2 S102 899 1135875 5556 0
54 2 S102 833 1136708 6389 0
0 0 0 827 1137535 -12197 0
0 0 0 840 1138375 -11357 0
0 0 0 849 1139224 -10508 0
0 0 0 823 1140047 -9685 0
0 0 0 790 1140837 -8895 0
0 0 0 798 1141635 -8097 0
0 0 0 809 1142444 -7288 0
0 0 0 755 1143199 -6533 0
0 0 0 771 1143970 -5762 0
0 0 0 823 1144793 -4939 0
0 0 0 889 1145682 -4050 0
0 0 0 890 1146572 -3160 0
0 0 0 870 1147442 -2290 0
55 1 S106 881 1148323 -1409 0
55 1 S106 868 1149191 -541 0
55 2 S106 856 1150047 315 0
55 2 S106 808 1150855 1123 0
55 2 S106 803 1151658 1926 0
55 2 S106 795 1152453 2721 0
55 2 S106 737 1153190 3458 0
55 2 S106 727 1153917 4185 0
55 2 S106 761 1154678 4946 0
55 2 S106 831 1155509 5777 0
55 2 S106 908 1156417 6685 0
0 0 0 790 1157207 -8524 0
0 0 0 853 1158060 -7671 0
0 0 0 1005 1159065 -6666 0
0 0 0 941 1160006 -5725 0
0 0 0 897 1160903 -4828 0
0 0 0 922 1161825 -3906 0
0 0 0 911 1162736 -2995 0
0 0 0 843 1163579 -2152 0
56 1 S116 868 1164447 -1284 0
56 1 S116 870 1165317 -414 0
56 2 S116 848 1166165 434 0
56 2 S116 776 1166941 1210 0
56 2 S116 807 1167748 2017 0
56 2 S116 786 1168534 2803 0
56 2 S116 728 1169262 3531 0
56 2 S116 728 1169990 4259 0
56 2 S116 814 1170804 5073 0
56 2 S116 965 1171769 6038 0
0 0 0 1006 1172775 -9136 0
0 0 0 881 1173656 -8255 0
0 0 0 885 1174541 -7370 0
0 0 0 914 1175455 -6456 0
0 0 0 913 1176368 -5543 0
0 0 0 872 1177240 -4671 0
0 0 0 854 1178094 -3817 0
0 0 0 846 1178940 -2971 0
0 0 0 768 1179708 -2203 0
57 1 S106 721 1180429 -1482 0
57 1 S106 764 1181193 -718 0
57 2 S106 839 1182032 121 0
57 2 S106 967 1182999 1088 0
57 2 S106 889 1183888 1977 0
57 2 S106 914 1184802 2891 0
57 2 S106 947 1185749 3838 0
57 2 S106 896 1186645 4734 0
57 2 S106 889 1187534 5623 0
57 2 S106 913 1188447 6536 0
0 0 0 904 1189351 -9785 0
0 0 0 828 1190179 -8957 0
0 0 0 832 1191011 -8125 0
0 0 0 838 1191849 -7287 0
0 0 0 813 1192662 -6474 0
0 0 0 762 1193424 -5712 0
0 0 0 799 1194223 -4913 0
0 0 0 857 1195080 -4056 0
0 0 0 876 1195956 -3180 0
0 0 0 790 1196746 -2390 0
58 1 S102 832 1197578 -1558 0
58 1 S102 842 1198420 -716 0
58 2 S102 875 1199295 159 0
58 2 S102 822 1200117 981 0
58 2 S102 842 1200959 1823 0
58 2 S102 863 1201822 2686 0
58 2 S102 847 1202669 3533 0
58 2 S102 803 1203472 4336 0
58 2 S102 843 1204315 5179 0
58 2 S102 839 1205154 6018 0
58 2 S102 792 1205946 6810 0
0 0 0 835 1206781 -8104 0
0 0 0 869 1207650 -7235 0
0 0 0 921 1208571 -6314 0
0 0 0 865 1209436 -5449 0
0 0 0 921 1210357 -4528 0
0 0 0 911 1211268 -3617 0
0 0 0 836 1212104 -2781 0
59 1 S112 823 1212927 -1958 0
59 1 S112 861 1213788 -1097 0
59 1 S112 851 1214639 -246 0
59 2 S112 782 1215421 536 0
59 2 S112 784 1216205 1320 0
59 2 S112 803 1217008 2123 0
59 2 S112 838 1217846 2961 0
59 2 S112 800 1218646 3761 0
59 2 S112 830 1219476 4591 0
59 2 S112 871 1220347 5462 0
59 2 S112 896 1221243 6358 0
0 0 0 856 1222099 -9796 0
0 0 0 881 1222980 -8915 0
0 0 0 890 1223870 -8025 0
0 0 0 854 1224724 -7171 0
0 0 0 822 1225546 -6349 0
0 0 0 826 1226372 -5523 0
0 0 0 820 1227192 -4703 0
0 0 0 762 1227954 -3941 0
0 0 0 809 1228763 -3132 0
0 0 0 852 1229615 -2280 0
60 1 S102 879 1230494 -1401 0
60 1 S102 821 1231315 -580 0
60 2 S102 827 1232142 247 0
60 2 S102 852 1232994 1099 0
60 2 S102 840 1233834 1939 0
60 2 S102 779 1234613 2718 0
60 2 S102 793 1235406 3511 0
60 2 S102 833 1236239 4344 0
60 2 S102 778 1237017 5122 0
60 2 S102 694 1237711 5816 0
60 2 S102 661 1238372 6477 1
0 0 0 683 1239055 -12187 0
0 0 0 753 1239808 -11434 0
0 0 0 885 1240693 -10549 0
0 0 0 938 1241631 -9611 0
0 0 0 884 1242515 -8727 0
0 0 0 896 1243411 -7831 0
0 0 0 864 1244275 -6967 0
0 0 0 784 1245059 -6183 0
0 0 0 831 1245890 -5352 0
0 0 0 869 1246759 -4483 0
0 0 0 886 1247645 -3597 0
0 0 0 851 1248496 -2746 0
61 1 S106 892 1249388 -1854 0
61 1 S106 889 1250277 -965 0
61 1 S106 867 1251144 -98 0
61 2 S106 824 1251968 726 0
61 2 S106 893 1252861 1619 0
61 2 S106 904 1253765 2523 0
61 2 S106 869 1254634 3392 0
61 2 S106 883 1255517 4275 0
61 2 S106 922 1256439 5197 0
61 2 S106 884 1257323 6081 0
61 2 S106 820 1258143 6901 0
0 0 0 895 1259038 -7124 0
0 0 0 947 1259985 -6177 0
0 0 0 908 1260893 -5269 0
0 0 0 840 1261733 -4429 0
0 0 0 867 1262600 -3562 0
0 0 0 863 1263463 -2699 0
62 1 S112 752 1264215 -1947 0
62 1 S112 748 1264963 -1199 0
62 1 S112 783 1265746 -416 0
62 2 S112 881 1266627 465 0
62 2 S112 893 1267520 1358 0
62 2 S112 844 1268364 2202 0
62 2 S112 890 1269254 3092 0
62 2 S112 885 1270139 3977 0
62 2 S112 830 1270969 4807 0
62 2 S112 872 1271841 5679 0
62 2 S112 898 1272739 6577 0
0 0 0 822 1273561 -13225 0
0 0 0 798 1274359 -12427 0
0 0 0 821 1275180 -11606 0
0 0 0 851 1276031 -10755 0
0 0 0 818 1276849 -9937 0
0 0 0 803 1277652 -9134 0
0 0 0 853 1278505 -8281 0
0 0 0 896 1279401 -7385 0
0 0 0 852 1280253 -6533 0
0 0 0 867 1281120 -5666 0
0 0 0 940 1282060 -4726 0
0 0 0 956 1283016 -3770 0
0 0 0 872 1283888 -2898 0
0 0 0 854 1284742 -2044 0
63 1 S102 844 1285586 -1200 0
63 1 S102 825 1286411 -375 0
63 2 S102 778 1287189 403 0
63 2 S102 794 1287983 1197 0
63 2 S102 801 1288784 1998 0
63 2 S102 786 1289570 2784 0
63 2 S102 781 1290351 3565 0
63 2 S102 820 1291171 4385 0
63 2 S102 890 1292061 5275 0
63 2 S102 816 1292877 6091 0
63 2 S102 788 1293665 6879 0
0 0 0 903 1294568 -8465 0
0 0 0 1047 1295615 -7418 1
0 0 0 989 1296604 -6429 0
0 0 0 868 1297472 -5561 0
0 0 0 913 1298385 -4648 0
0 0 0 930 1299315 -3718 0
0 0 0 867 1300182 -2851 0
64 1 S112 866 1301048 -1985 0
64 1 S112 895 1301943 -1090 0
64 1 S112 917 1302860 -173 0
64 2 S112 882 1303742 709 0
64 2 S112 908 1304650 1617 0
64 2 S112 919 1305569 2536 0
64 2 S112 879 1306448 3415 0
64 2 S112 854 1307302 4269 0
64 2 S112 898 1308200 5167 0
64 2 S112 927 1309127 6094 0
64 2 S112 917 1310044 7011 0
0 0 0 911 1310955 -6733 0
0 0 0 944 1311899 -5789 0
0 0 0 941 1312840 -4848 0
0 0 0 873 1313713 -3975 0
0 0 0 867 1314580 -3108 0
0 0 0 879 1315459 -2229 0
65 1 S106 861 1316320 -1368 0
65 1 S106 804 1317124 -564 0
65 2 S106 814 1317938 250 0
65 2 S106 897 1318835 1147 0
65 2 S106 958 1319793 2105 0
65 2 S106 914 1320707 3019 0
65 2 S106 772 1321479 3791 0
65 2 S106 796 1322275 4587 0
65 2 S106 845 1323120 5432 0
65 2 S106 913 1324033 6345 0
0 0 0 842 1324875 -7419 0
0 0 0 787 1325662 -6632 0
0 0 0 848 1326510 -5784 0
0 0 0 889 1327399 -4895 0
0 0 0 854 1328253 -4041 0
0 0 0 770 1329023 -3271 0
0 0 0 809 1329832 -2462 0
66 1 S116 845 1330677 -1617 0
66 1 S116 852 1331529 -765 0
66 2 S116 851 1332380 86 0
66 2 S116 868 1333248 954 0
66 2 S116 902 1334150 1856 0
66 2 S116 848 1334998 2704 0
66 2 S116 724 1335722 3428 0
66 2 S116 691 1336413 4119 0
66 2 S116 719 1337132 4838 0
66 2 S116 822 1337954 5660 0
66 2 S116 930 1338884 6590 0
0 0 0 988 1339872 -11420 0
0 0 0 914 1340786 -10506 0
0 0 0 758 1341544 -9748 0
0 0 0 778 1342322 -8970 0
0 0 0 806 1343128 -8164 0
0 0 0 845 1343973 -7319 0
0 0 0 821 1344794 -6498 0
0 0 0 763 1345557 -5735 0
0 0 0 824 1346381 -4911 0
0 0 0 896 1347277 -4015 0
0 0 0 927 1348204 -3088 0
0 0 0 909 1349113 -2179 0
67 1 S102 910 1350023 -1269 0
67 1 S102 928 1350951 -341 0
67 2 S102 915 1351866 574 0
67 2 S102 850 1352716 1424 0
67 2 S102 876 1353592 2300 0
67 2 S102 904 1354496 3204 0
67 2 S102 910 1355406 4114 0
67 2 S102 872 1356278 4986 0
67 2 S102 914 1357192 5900 0
67 2 S102 957 1358149 6857 0
0 0 0 964 1359113 -7763 0
0 0 0 929 1360042 -6834 0
0 0 0 966 1361008 -5868 0
0 0 0 963 1361971 -4905 0
0 0 0 903 1362874 -4002 0
0 0 0 844 1363718 -3158 0
0 0 0 806 1364524 -2352 0
68 1 S106 834 1365358 -1518 0
68 1 S106 834 1366192 -684 0
68 2 S106 844 1367036 160 0
68 2 S106 930 1367966 1090 0
68 2 S106 993 1368959 2083 0
68 2 S106 920 1369879 3003 0
68 2 S106 897 1370776 3900 0
68 2 S106 916 1371692 4816 0
68 2 S106 905 1372597 5721 0
68 2 S106 888 1373485 6609 0
0 0 0 813 1374298 -12108 0
0 0 0 825 1375123 -11283 0
0 0 0 866 1375989 -10417 0
0 0 0 911 1376900 -9506 0
0 0 0 881 1377781 -8625 0
0 0 0 807 1378588 -7818 0
0 0 0 843 1379431 -6975 0
0 0 0 907 1380338 -6068 0
0 0 0 838 1381176 -5230 0
0 0 0 834 1382010 -4396 0
0 0 0 904 1382914 -3492 0
0 0 0 919 1383833 -2573 0
69 1 S102 857 1384690 -1716 0
69 1 S102 853 1385543 -863 0
69 1 S102 860 1386403 -3 0
69 2 S102 847 1387250 844 0
69 2 S102 775 1388025 1619 0
69 2 S102 796 1388821 2415 0
69 2 S102 846 1389667 3261 0
69 2 S102 855 1390522 4116 0
69 2 S102 808 1391330 4924 0
69 2 S102 848 1392178 5772 0
69 2 S102 893 1393071 6665 0
0 0 0 842 1393913 -9386 0
0 0 0 859 1394772 -8527 0
0 0 0 901 1395673 -7626 0
0 0 0 852 1396525 -6774 0
0 0 0 751 1397276 -6023 0
0 0 0 781 1398057 -5242 0
0 0 0 824 1398881 -4418 0
0 0 0 826 1399707 -3592 0
0 0 0 791 1400498 -2801 0
70 1 S112 838 1401336 -1963 0
70 1 S112 870 1402206 -1093 0
70 1 S112 785 1402991 -308 0
70 2 S112 771 1403762 463 0
70 2 S112 859 1404621 1322 0
70 2 S112 921 1405542 2243 0
70 2 S112 877 1406419 3120 0
70 2 S112 932 1407351 4052 0
70 2 S112 948 1408299 5000 0
70 2 S112 842 1409141 5842 0
70 2 S112 859 1410000 6701 0
0 0 0 905 1410905 -11791 0
0 0 0 905 1411810 -10886 0
0 0 0 830 1412640 -10056 0
0 0 0 827 1413467 -9229 0
0 0 0 844 1414311 -8385 0
0 0 0 875 1415186 -7510 0
0 0 0 811 1415997 -6699 0
0 0 0 852 1416849 -5847 0
0 0 0 909 1417758 -4938 0
0 0 0 930 1418688 -4008 0
0 0 0 847 1419535 -3161 0
0 0 0 814 1420349 -2347 0
71 1 S116 837 1421186 -1510 0
71 1 S116 868 1422054 -642 0
71 2 S116 833 1422887 191 0
71 2 S116 786 1423673 977 0
71 2 S116 819 1424492 1796 0
71 2 S116 869 1425361 2665 0
71 2 S116 861 1426222 3526 0
71 2 S116 766 1426988 4292 0
71 2 S116 820 1427808 5112 0
71 2 S116 873 1428681 5985 0
71 2 S116 924 1429605 6909 0
0 0 0 876 1430481 -9091 0
0 0 0 851 1431332 -8240 0
0 0 0 837 1432169 -7403 0
0 0 0 810 1432979 -6593 0
0 0 0 736 1433715 -5857 0
0 0 0 763 1434478 -5094 0
0 0 0 791 1435269 -4303 0
0 0 0 843 1436112 -3460 0
0 0 0 818 1436930 -2642 0
72 1 S102 901 1437831 -1741 0
72 1 S102 970 1438801 -771 0
72 2 S102 941 1439742 170 0
72 2 S102 867 1440609 1037 0
72 2 S102 911 1441520 1948 0
72 2 S102 920 1442440 2868 0
72 2 S102 861 1443301 3729 0
72 2 S102 848 1444149 4577 0
72 2 S102 873 1445022 5450 0
72 2 S102 870 1445892 6320 0
0 0 0 817 1446709 -8746 0
0 0 0 838 1447547 -7908 0
0 0 0 859 1448406 -7049 0
0 0 0 862 1449268 -6187 0
0 0 0 871 1450139 -5316 0
0 0 0 914 1451053 -4402 0
0 0 0 875 1451928 -3527 0
0 0 0 795 1452723 -2732 0
73 1 S116 754 1453477 -1978 0
73 1 S116 694 1454171 -1284 0
73 1 S116 693 1454864 -591 0
73 2 S116 771 1455635 180 0
73 2 S116 698 1456333 878 0
73 2 S116 745 1457078 1623 0
73 2 S116 783 1457861 2406 0
73 2 S116 783 1458644 3189 0
73 2 S116 695 1459339 3884 0
73 2 S116 673 1460012 4557 0
73 2 S116 694 1460706 5251 0
73 2 S116 777 1461483 6028 0
73 2 S116 859 1462342 6887 0
0 0 0 865 1463207 -9638 0
0 0 0 774 1463981 -8864 0
0 0 0 833 1464814 -8031 0
0 0 0 883 1465697 -7148 0
0 0 0 875 1466572 -6273 0
0 0 0 792 1467364 -5481 0
0 0 0 815 1468179 -4666 0
0 0 0 869 1469048 -3797 0
0 0 0 888 1469936 -2909 0
0 0 0 846 1470782 -2063 0
74 1 S106 913 1471695 -1150 0
74 1 S106 963 1472658 -187 0
74 2 S106 930 1473588 743 0
74 2 S106 934 1474522 1677 0
74 2 S106 956 1475478 2633 0
74 2 S106 988 1476466 3621 0
74 2 S106 899 1477365 4520 0
74 2 S106 913 1478278 5433 0
74 2 S106 965 1479243 6398 0
0 0 0 964 1480207 -7559 0
0 0 0 892 1481099 -6667 0
0 0 0 947 1482046 -5720 0
0 0 0 960 1483006 -4760 0
0 0 0 883 1483889 -3877 0
0 0 0 778 1484667 -3099 0
0 0 0 914 1485581 -2185 0
75 1 S112 911 1486492 -1274 0
75 1 S112 896 1487388 -378 0
75 2 S112 872 1488260 494 0
75 2 S112 954 1489214 1448 0
75 2 S112 960 1490174 2408 0
75 2 S112 900 1491074 3308 0
75 2 S112 930 1492004 4238 0
75 2 S112 944 1492948 5182 0
75 2 S112 889 1493837 6071 0
75 2 S112 872 1494709 6943 0
0 0 0 904 1495613 -7024 0
0 0 0 899 1496512 -6125 0
0 0 0 814 1497326 -5311 0
0 0 0 859 1498185 -4452 0
0 0 0 926 1499111 -3526 0
0 0 0 866 1499977 -2660 0
76 1 S116 887 1500864 -1773 0
76 1 S116 945 1501809 -828 0
76 2 S116 933 1502742 105 0
76 2 S116 849 1503591 954 0
76 2 S116 890 1504481 1844 0
76 2 S116 890 1505371 2734 0
76 2 S116 755 1506126 3489 0
76 2 S116 743 1506869 4232 0
76 2 S116 672 1507541 4904 0
76 2 S116 775 1508316 5679 0
76 2 S116 950 1509266 6629 0
0 0 0 955 1510221 -7635 0
0 0 0 1026 1511247 -6609 1
0 0 0 1003 1512250 -5606 0
0 0 0 992 1513242 -4614 0
0 0 0 910 1514152 -3704 0
0 0 0 920 1515072 -2784 0
77 1 S106 924 1515996 -1860 0
77 1 S106 919 1516915 -941 0
77 1 S106 814 1517729 -127 0
77 2 S106 780 1518509 653 0
77 2 S106 796 1519305 1449 0
77 2 S106 855 1520160 2304 0
77 2 S106 890 1521050 3194 0
77 2 S106 903 1521953 4097 0
77 2 S106 887 1522840 4984 0
77 2 S106 926 1523766 5910 0
77 2 S106 943 1524709 6853 0
0 0 0 938 1525647 -9102 0
0 0 0 947 1526594 -8155 0
0 0 0 920 1527514 -7235 0
0 0 0 888 1528402 -6347 0
0 0 0 856 1529258 -5491 0
0 0 0 817 1530075 -4674 0
0 0 0 761 1530836 -3913 0
0 0 0 858 1531694 -3055 0
0 0 0 927 1532621 -2128 0
78 1 S112 994 1533615 -1134 0
78 1 S112 969 1534584 -165 0
78 2 S112 880 1535464 715 0
78 2 S112 924 1536388 1639 0
78 2 S112 918 1537306 2557 0
78 2 S112 932 1538238 3489 0
78 2 S112 840 1539078 4329 0
78 2 S112 820 1539898 5149 0
78 2 S112 857 1540755 6006 0
78 2 S112 889 1541644 6895 0
0 0 0 902 1542546 -11185 0
0 0 0 854 1543400 -10331 0
0 0 0 887 1544287 -9444 0
0 0 0 900 1545187 -8544 0
0 0 0 827 1546014 -7717 0
0 0 0 736 1546750 -6981 0
0 0 0 792 1547542 -6189 0
0 0 0 890 1548432 -5299 0
0 0 0 973 1549405 -4326 0
0 0 0 829 1550234 -3497 0
0 0 0 837 1551071 -2660 0
79 1 S102 864 1551935 -1796 0
79 1 S102 853 1552788 -943 0
79 1 S102 816 1553604 -127 0
79 2 S102 853 1554457 726 0
79 2 S102 899 1555356 1625 0
79 2 S102 858 1556214 2483 0
79 2 S102 875 1557089 3358 0
79 2 S102 897 1557986 4255 0
79 2 S102 892 1558878 5147 0
79 2 S102 830 1559708 5977 0
79 2 S102 874 1560582 6851 0
0 0 0 909 1561491 -9515 0
0 0 0 899 1562390 -8616 0
0 0 0 878 1563268 -7738 0
0 0 0 913 1564181 -6825 0
0 0 0 865 1565046 -5960 0
0 0 0 777 1565823 -5183 0
0 0 0 807 1566630 -4376 0
0 0 0 845 1567475 -3531 0
0 0 0 915 1568390 -2616 0
80 1 S116 851 1569241 -1765 0
80 1 S116 907 1570148 -858 0
80 2 S116 922 1571070 64 0
80 2 S116 856 1571926 920 0
80 2 S116 876 1572802 1796 0
80 2 S116 857 1573659 2653 0
80 2 S116 740 1574399 3393 0
80 2 S116 736 1575135 4129 0
80 2 S116 809 1575944 4938 0
80 2 S116 889 1576833 5827 0
80 2 S116 895 1577728 6722 0
