T_0113
BeatCount Mean SD BeatCountNoOutliers MeanNoOutliers SDNoOutliers
1522 1026,11629434954 82,9680135124768 1491 1030,9128101945 74,5194423197055

Trial TrialStatus Trialtype IBI AbsPosition RelPosition Outlier
0 0 0 1032 1209 -15301 0
0 0 0 972 2181 -14329 0
0 0 0 908 3089 -13421 0
0 0 0 846 3935 -12575 0
0 0 0 799 4734 -11776 1
0 0 0 922 5656 -10854 0
0 0 0 1108 6764 -9746 0
0 0 0 1180 7944 -8566 0
0 0 0 1121 9065 -7445 0
0 0 0 1062 10127 -6383 0
0 0 0 1092 11219 -5291 0
0 0 0 1111 12330 -4180 0
0 0 0 1058 13388 -3122 0
0 0 0 1064 14452 -2058 0
1 1 S112 1154 15606 -904 0
1 2 S112 1103 16709 199 0
1 2 S112 1024 17733 1223 0
1 2 S112 1039 18772 2262 0
1 2 S112 1092 19864 3354 0
1 2 S112 1116 20980 4470 0
1 2 S112 1046 22026 5516 0
1 2 S112 1095 23121 6611 0
0 0 0 1188 24309 -10719 0
0 0 0 1115 25424 -9604 0
0 0 0 1013 26437 -8591 0
0 0 0 1033 27470 -7558 0
0 0 0 1070 28540 -6488 0
0 0 0 1006 29546 -5482 0
0 0 0 967 30513 -4515 0
0 0 0 1055 31568 -3460 0
0 0 0 1154 32722 -2306 0
2 1 S102 1045 33767 -1261 0
2 1 S102 1012 34779 -249 0
2 2 S102 1147 35926 898 0
2 2 S102 1161 37087 2059 0
2 2 S102 1136 38223 3195 0
2 2 S102 1071 39294 4266 0
2 2 S102 1018 40312 5284 0
2 2 S102 1077 41389 6361 0
0 0 0 1146 42535 -8524 0
0 0 0 1103 43638 -7421 0
0 0 0 982 44620 -6439 0
0 0 0 1034 45654 -5405 0
0 0 0 1149 46803 -4256 0
0 0 0 1074 47877 -3182 0
0 0 0 1047 48924 -2135 0
3 1 S116 1105 50029 -1030 0
3 2 S116 1133 51162 103 0
3 2 S116 1139 52301 1242 0
3 2 S116 1073 53374 2315 0
3 2 S116 953 54327 3268 0
3 2 S116 964 55291 4232 0
3 2 S116 1017 56308 5249 0
3 2 S116 1112 57420 6361 0
0 0 0 1014 58434 -11491 0
0 0 0 1007 59441 -10484 0
0 0 0 1112 60553 -9372 0
0 0 0 1089 61642 -8283 0
0 0 0 979 62621 -7304 0
0 0 0 980 63601 -6324 0
0 0 0 1039 64640 -5285 0
0 0 0 984 65624 -4301 0
0 0 0 888 66512 -3413 0
0 0 0 873 67385 -2540 0
4 1 S106 1064 68449 -1476 0
4 1 S106 1018 69467 -458 0
4 2 S106 951 70418 493 0
4 2 S106 1023 71441 1516 0
4 2 S106 1142 72583 2658 0
4 2 S106 1099 73682 3757 0
4 2 S106 1028 74710 4785 0
4 2 S106 1057 75767 5842 0
4 2 S106 1074 76841 6916 0
0 0 0 1019 77860 -7152 0
0 0 0 1078 78938 -6074 0
0 0 0 1145 80083 -4929 0
0 0 0 1081 81164 -3848 0
0 0 0 1024 82188 -2824 0
5 1 S116 1070 83258 -1754 0
5 1 S116 1114 84372 -640 0
5 2 S116 1043 85415 403 0
5 2 S116 1044 86459 1447 0
5 2 S116 1119 87578 2566 0
5 2 S116 1145 88723 3711 0
5 2 S116 1065 89788 4776 0
5 2 S116 1102 90890 5878 0
0 0 0 1156 92046 -10075 0
0 0 0 1150 93196 -8925 0
0 0 0 1042 94238 -7883 0
0 0 0 1064 95302 -6819 0
0 0 0 1081 96383 -5738 0
0 0 0 1008 97391 -4730 0
0 0 0 1088 98479 -3642 0
0 0 0 1173 99652 -2469 0
6 1 S106 1141 100793 -1328 0
6 1 S106 1121 101914 -207 0
6 2 S106 1165 103079 958 0
6 2 S106 1124 104203 2082 0
6 2 S106 1050 105253 3132 0
6 2 S106 1068 106321 4200 0
6 2 S106 1102 107423 5302 0
6 2 S106 1133 108556 6435 0
0 0 0 1052 109608 -10169 0
0 0 0 1049 110657 -9120 0
0 0 0 1098 111755 -8022 0
0 0 0 1090 112845 -6932 0
0 0 0 1053 113898 -5879 0
0 0 0 1135 115033 -4744 0
0 0 0 1132 116165 -3612 0
0 0 0 1065 117230 -2547 0
7 1 S102 1120 118350 -1427 0
7 1 S102 1194 119544 -233 0
7 2 S102 1161 120705 928 0
7 2 S102 1076 121781 2004 0
7 2 S102 1036 122817 3040 0
7 2 S102 1069 123886 4109 0
7 2 S102 1133 125019 5242 0
7 2 S102 1140 126159 6382 0
0 0 0 1082 127241 -8302 0
0 0 0 1077 128318 -7225 0
0 0 0 1105 129423 -6120 0
0 0 0 1087 130510 -5033 0
0 0 0 1009 131519 -4024 0
0 0 0 1078 132597 -2946 0
8 1 S112 1205 133802 -1741 0
8 1 S112 1145 134947 -596 0
8 2 S112 1071 136018 475 0
8 2 S112 1089 137107 1564 0
8 2 S112 1117 138224 2681 0
8 2 S112 1086 139310 3767 0
8 2 S112 997 140307 4764 0
8 2 S112 1016 141323 5780 0
8 2 S112 1125 142448 6905 0
0 0 0 1244 143692 -6324 1
0 0 0 1041 144733 -5283 0
0 0 0 1046 145779 -4237 0
0 0 0 1128 146907 -3109 0
0 0 0 1097 148004 -2012 0
9 1 S116 986 148990 -1026 0
9 2 S116 1074 150064 48 0
9 2 S116 1107 151171 1155 0
9 2 S116 1022 152193 2177 0
9 2 S116 1007 153200 3184 0
9 2 S116 1070 154270 4254 0
9 2 S116 1107 155377 5361 0
9 2 S116 1051 156428 6412 0
0 0 0 1048 157476 -11986 0
0 0 0 1067 158543 -10919 0
0 0 0 984 159527 -9935 0
0 0 0 977 160504 -8958 0
0 0 0 1013 161517 -7945 0
0 0 0 1023 162540 -6922 0
0 0 0 1046 163586 -5876 0
0 0 0 979 164565 -4897 0
0 0 0 897 165462 -4000 0
0 0 0 960 166422 -3040 0
0 0 0 967 167389 -2073 0
10 1 S102 1005 168394 -1068 0
10 2 S102 1094 169488 26 0
10 2 S102 1063 170551 1089 0
10 2 S102 1009 171560 2098 0
10 2 S102 1050 172610 3148 0
10 2 S102 1065 173675 4213 0
10 2 S102 1074 174749 5287 0
10 2 S102 986 175735 6273 0
0 0 0 1069 176804 -11922 0
0 0 0 1115 177919 -10807 0
0 0 0 1059 178978 -9748 0
0 0 0 977 179955 -8771 0
0 0 0 995 180950 -7776 0
0 0 0 1014 181964 -6762 0
0 0 0 982 182946 -5780 0
0 0 0 1040 183986 -4740 0
0 0 0 1195 185181 -3545 0
0 0 0 1092 186273 -2453 0
11 1 S112 1004 187277 -1449 0
11 1 S112 1035 188312 -414 0
11 2 S112 1103 189415 689 0
11 2 S112 1062 190477 1751 0
11 2 S112 1018 191495 2769 0
11 2 S112 1076 192571 3845 0
11 2 S112 1207 193778 5052 0
11 2 S112 1165 194943 6217 0
0 0 0 1092 196035 -7496 0
0 0 0 1094 197129 -6402 0
0 0 0 1103 198232 -5299 0
0 0 0 1033 199265 -4266 0
0 0 0 945 200210 -3321 0
0 0 0 964 201174 -2357 0
12 1 S116 1084 202258 -1273 0
12 1 S116 1109 203367 -164 0
12 2 S116 1061 204428 897 0
12 2 S116 1030 205458 1927 0
12 2 S116 1073 206531 3000 0
12 2 S116 1102 207633 4102 0
12 2 S116 1018 208651 5120 0
12 2 S116 1024 209675 6144 0
0 0 0 1104 210779 -12331 0
0 0 0 1037 211816 -11294 0
0 0 0 1058 212874 -10236 0
0 0 0 1117 213991 -9119 0
0 0 0 1061 215052 -8058 0
0 0 0 961 216013 -7097 0
0 0 0 930 216943 -6167 0
0 0 0 919 217862 -5248 0
0 0 0 865 218727 -4383 0
0 0 0 851 219578 -3532 0
0 0 0 841 220419 -2691 0
13 1 S112 931 221350 -1760 0
13 1 S112 946 222296 -814 0
13 2 S112 922 223218 108 0
13 2 S112 956 224174 1064 0
13 2 S112 989 225163 2053 0
13 2 S112 973 226136 3026 0
13 2 S112 910 227046 3936 0
13 2 S112 964 228010 4900 0
13 2 S112 1048 229058 5948 0
13 2 S112 1071 230129 7019 0
0 0 0 1078 231207 -10752 0
0 0 0 1004 232211 -9748 0
0 0 0 982 233193 -8766 0
0 0 0 953 234146 -7813 0
0 0 0 989 235135 -6824 0
0 0 0 944 236079 -5880 0
0 0 0 1041 237120 -4839 0
0 0 0 1140 238260 -3699 0
0 0 0 1027 239287 -2672 0
14 1 S106 1070 240357 -1602 0
14 1 S106 1177 241534 -425 0
14 2 S106 1113 242647 688 0
14 2 S106 1025 243672 1713 0
14 2 S106 1062 244734 2775 0
14 2 S106 1161 245895 3936 0
14 2 S106 1138 247033 5074 0
14 2 S106 1018 248051 6092 0
0 0 0 1075 249126 -11832 0
0 0 0 1148 250274 -10684 0
0 0 0 1073 251347 -9611 0
0 0 0 1099 252446 -8512 0
0 0 0 1139 253585 -7373 0
0 0 0 1059 254644 -6314 0
0 0 0 1075 255719 -5239 0
0 0 0 1145 256864 -4094 0
0 0 0 1052 257916 -3042 0
15 1 S116 1049 258965 -1993 0
15 1 S116 1092 260057 -901 0
15 2 S116 1076 261133 175 0
15 2 S116 1001 262134 1176 0
15 2 S116 1041 263175 2217 0
15 2 S116 1103 264278 3320 0
15 2 S116 1034 265312 4354 0
15 2 S116 1025 266337 5379 0
15 2 S116 1068 267405 6447 0
0 0 0 1187 268592 -8862 0
0 0 0 1065 269657 -7797 0
0 0 0 1026 270683 -6771 0
0 0 0 1034 271717 -5737 0
0 0 0 1056 272773 -4681 0
0 0 0 960 273733 -3721 0
0 0 0 1023 274756 -2698 0
16 1 S116 1112 275868 -1586 0
16 1 S116 1057 276925 -529 0
16 2 S116 1014 277939 485 0
16 2 S116 1051 278990 1536 0
16 2 S116 1057 280047 2593 0
16 2 S116 983 281030 3576 0
16 2 S116 994 282024 4570 0
16 2 S116 1001 283025 5571 0
16 2 S116 1042 284067 6613 0
0 0 0 1044 285111 -10247 0
0 0 0 931 286042 -9316 0
0 0 0 986 287028 -8330 0
0 0 0 1035 288063 -7295 0
0 0 0 1024 289087 -6271 0
0 0 0 885 289972 -5386 0
0 0 0 926 290898 -4460 0
0 0 0 951 291849 -3509 0
0 0 0 1071 292920 -2438 0
17 1 S106 1119 294039 -1319 0
17 1 S106 1057 295096 -262 0
17 2 S106 1034 296130 772 0
17 2 S106 1017 297147 1789 0
17 2 S106 1101 298248 2890 0
17 2 S106 1102 299350 3992 0
17 2 S106 1059 300409 5051 0
17 2 S106 1003 301412 6054 0
0 0 0 1039 302451 -12768 0
0 0 0 1182 303633 -11586 0
0 0 0 1125 304758 -10461 0
0 0 0 1040 305798 -9421 0
0 0 0 1034 306832 -8387 0
0 0 0 1059 307891 -7328 0
0 0 0 981 308872 -6347 0
0 0 0 1034 309906 -5313 0
0 0 0 1168 311074 -4145 0
0 0 0 1156 312230 -2989 0
18 1 S102 1034 313264 -1955 0
18 1 S102 1055 314319 -900 0
18 2 S102 1152 315471 252 0
18 2 S102 1121 316592 1373 0
18 2 S102 1021 317613 2394 0
18 2 S102 1041 318654 3435 0
18 2 S102 1102 319756 4537 0
18 2 S102 1137 320893 5674 0
18 2 S102 1101 321994 6775 0
0 0 0 1007 323001 -7189 0
0 0 0 1041 324042 -6148 0
0 0 0 1098 325140 -5050 0
0 0 0 1043 326183 -4007 0
0 0 0 964 327147 -3043 0
0 0 0 1027 328174 -2016 0
19 1 S106 1128 329302 -888 0
19 2 S106 1049 330351 161 0
19 2 S106 1005 331356 1166 0
19 2 S106 1030 332386 2196 0
19 2 S106 1079 333465 3275 0
19 2 S106 1067 334532 4342 0
19 2 S106 1060 335592 5402 0
19 2 S106 1061 336653 6463 0
0 0 0 1071 337724 -12459 0
0 0 0 1010 338734 -11449 0
0 0 0 1027 339761 -10422 0
0 0 0 1069 340830 -9353 0
0 0 0 1067 341897 -8286 0
0 0 0 950 342847 -7336 0
0 0 0 954 343801 -6382 0
0 0 0 1068 344869 -5314 0
0 0 0 1062 345931 -4252 0
0 0 0 980 346911 -3272 0
0 0 0 1084 347995 -2188 0
20 1 S112 1103 349098 -1085 0
20 1 S112 923 350021 -162 0
20 2 S112 893 350914 731 0
20 2 S112 1019 351933 1750 0
20 2 S112 1070 353003 2820 0
20 2 S112 956 353959 3776 0
20 2 S112 978 354937 4754 0
20 2 S112 1059 355996 5813 0
20 2 S112 1108 357104 6921 0
0 0 0 1036 358140 -9185 0
0 0 0 1018 359158 -8167 0
0 0 0 1053 360211 -7114 0
0 0 0 1056 361267 -6058 0
0 0 0 967 362234 -5091 0
0 0 0 984 363218 -4107 0
0 0 0 1073 364291 -3034 0
21 1 S106 1085 365376 -1949 0
21 1 S106 1043 366419 -906 0
21 2 S106 1049 367468 143 0
21 2 S106 1103 368571 1246 0
21 2 S106 1055 369626 2301 0
21 2 S106 955 370581 3256 0
21 2 S106 1007 371588 4263 0
21 2 S106 1136 372724 5399 0
21 2 S106 1199 373923 6598 0
0 0 0 1084 375007 -11102 0
0 0 0 1051 376058 -10051 0
0 0 0 1066 377124 -8985 0
0 0 0 1035 378159 -7950 0
0 0 0 946 379105 -7004 0
0 0 0 1064 380169 -5940 0
0 0 0 1170 381339 -4770 0
0 0 0 1112 382451 -3658 0
0 0 0 1033 383484 -2625 0
22 1 S116 1162 384646 -1463 0
22 1 S116 1170 385816 -293 0
22 2 S116 1080 386896 787 0
22 2 S116 1155 388051 1942 0
22 2 S116 1177 389228 3119 0
22 2 S116 1131 390359 4250 0
22 2 S116 1052 391411 5302 0
22 2 S116 1086 392497 6388 0
0 0 0 1145 393642 -9791 0
0 0 0 1153 394795 -8638 0
0 0 0 1044 395839 -7594 0
0 0 0 1034 396873 -6560 0
0 0 0 1033 397906 -5527 0
0 0 0 974 398880 -4553 0
0 0 0 1073 399953 -3480 0
0 0 0 1191 401144 -2289 0
23 1 S112 1122 402266 -1167 0
23 1 S112 1036 403302 -131 0
23 2 S112 1089 404391 958 0
23 2 S112 1125 405516 2083 0
23 2 S112 1094 406610 3177 0
23 2 S112 1029 407639 4206 0
23 2 S112 1050 408689 5256 0
23 2 S112 1118 409807 6374 0
0 0 0 1098 410905 -9488 0
0 0 0 1032 411937 -8456 0
0 0 0 1033 412970 -7423 0
0 0 0 1125 414095 -6298 0
0 0 0 1101 415196 -5197 0
0 0 0 1009 416205 -4188 0
0 0 0 1044 417249 -3144 0
24 1 S106 1144 418393 -2000 0
24 1 S106 1143 419536 -857 0
24 2 S106 1073 420609 216 0
24 2 S106 1004 421613 1220 0
24 2 S106 1000 422613 2220 0
24 2 S106 1098 423711 3318 0
24 2 S106 1092 424803 4410 0
24 2 S106 997 425800 5407 0
24 2 S106 1084 426884 6491 0
0 0 0 1170 428054 -8453 0
0 0 0 1061 429115 -7392 0
0 0 0 1038 430153 -6354 0
0 0 0 1056 431209 -5298 0
0 0 0 1020 432229 -4278 0
0 0 0 1038 433267 -3240 0
0 0 0 1140 434407 -2100 0
25 1 S102 1092 435499 -1008 0
25 1 S102 955 436454 -53 0
25 2 S102 890 437344 837 0
25 2 S102 874 438218 1711 0
25 2 S102 879 439097 2590 0
25 2 S102 961 440058 3551 0
25 2 S102 1080 441138 4631 0
25 2 S102 1115 442253 5746 0
25 2 S102 1102 443355 6848 0
0 0 0 1039 444394 -7564 0
0 0 0 987 445381 -6577 0
0 0 0 969 446350 -5608 0
0 0 0 987 447337 -4621 0
0 0 0 920 448257 -3701 0
0 0 0 895 449152 -2806 0
26 1 S116 930 450082 -1876 0
26 1 S116 991 451073 -885 0
26 2 S116 1050 452123 165 0
26 2 S116 959 453082 1124 0
26 2 S116 889 453971 2013 0
26 2 S116 951 454922 2964 0
26 2 S116 1103 456025 4067 0
26 2 S116 1128 457153 5195 0
26 2 S116 1116 458269 6311 0
0 0 0 1038 459307 -8400 0
0 0 0 988 460295 -7412 0
0 0 0 1031 461326 -6381 0
0 0 0 1023 462349 -5358 0
0 0 0 966 463315 -4392 0
0 0 0 1010 464325 -3382 0
0 0 0 1066 465391 -2316 0
27 1 S106 1098 466489 -1218 0
27 1 S106 1025 467514 -193 0
27 2 S106 1070 468584 877 0
27 2 S106 1139 469723 2016 0
27 2 S106 1122 470845 3138 0
27 2 S106 1003 471848 4141 0
27 2 S106 1029 472877 5170 0
27 2 S106 1074 473951 6244 0
0 0 0 1077 475028 -7351 0
0 0 0 1022 476050 -6329 0
0 0 0 1070 477120 -5259 0
0 0 0 1117 478237 -4142 0
0 0 0 1000 479237 -3142 0
0 0 0 1044 480281 -2098 0
28 1 S102 1188 481469 -910 0
28 2 S102 1169 482638 259 0
28 2 S102 1126 483764 1385 0
28 2 S102 1052 484816 2437 0
28 2 S102 1047 485863 3484 0
28 2 S102 1098 486961 4582 0
28 2 S102 1118 488079 5700 0
28 2 S102 1099 489178 6799 0
0 0 0 1077 490255 -12118 0
0 0 0 1058 491313 -11060 0
0 0 0 1093 492406 -9967 0
0 0 0 1101 493507 -8866 0
0 0 0 1132 494639 -7734 0
0 0 0 1041 495680 -6693 0
0 0 0 1004 496684 -5689 0
0 0 0 1063 497747 -4626 0
0 0 0 1128 498875 -3498 0
0 0 0 1131 500006 -2367 0
29 1 S112 1045 501051 -1322 0
29 1 S112 970 502021 -352 0
29 2 S112 996 503017 644 0
29 2 S112 1090 504107 1734 0
29 2 S112 1174 505281 2908 0
29 2 S112 1160 506441 4068 0
29 2 S112 1057 507498 5125 0
29 2 S112 976 508474 6101 0
0 0 0 994 509468 -7842 0
0 0 0 1095 510563 -6747 0
0 0 0 1088 511651 -5659 0
0 0 0 956 512607 -4703 0
0 0 0 911 513518 -3792 0
0 0 0 859 514377 -2933 0
0 0 0 856 515233 -2077 0
30 1 S112 1151 516384 -926 0
30 2 S112 1072 517456 146 0
30 2 S112 985 518441 1131 0
30 2 S112 1020 519461 2151 0
30 2 S112 1112 520573 3263 0
30 2 S112 1120 521693 4383 0
30 2 S112 1138 522831 5521 0
30 2 S112 1090 523921 6611 0
0 0 0 1020 524941 -9892 0
0 0 0 985 525926 -8907 0
0 0 0 1033 526959 -7874 0
0 0 0 1060 528019 -6814 0
0 0 0 1121 529140 -5693 0
0 0 0 1049 530189 -4644 0
0 0 0 969 531158 -3675 0
0 0 0 995 532153 -2680 0
31 1 S106 1061 533214 -1619 0
31 1 S106 1067 534281 -552 0
31 2 S106 1072 535353 520 0
31 2 S106 984 536337 1504 0
31 2 S106 913 537250 2417 0
31 2 S106 959 538209 3376 0
31 2 S106 1078 539287 4454 0
31 2 S106 1124 540411 5578 0
31 2 S106 1020 541431 6598 0
0 0 0 983 542414 -9611 0
0 0 0 993 543407 -8618 0
0 0 0 968 544375 -7650 0
0 0 0 900 545275 -6750 0
0 0 0 904 546179 -5846 0
0 0 0 960 547139 -4886 0
0 0 0 1123 548262 -3763 0
0 0 0 1083 549345 -2680 0
32 1 S102 986 550331 -1694 0
32 1 S102 1014 551345 -680 0
32 2 S102 1026 552371 346 0
32 2 S102 1029 553400 1375 0
32 2 S102 976 554376 2351 0
32 2 S102 970 555346 3321 0
32 2 S102 1022 556368 4343 0
32 2 S102 1068 557436 5411 0
32 2 S102 1106 558542 6517 0
0 0 0 1024 559566 -10579 0
0 0 0 960 560526 -9619 0
0 0 0 972 561498 -8647 0
0 0 0 894 562392 -7753 0
0 0 0 841 563233 -6912 0
0 0 0 801 564034 -6111 1
0 0 0 922 564956 -5189 0
0 0 0 1093 566049 -4096 0
0 0 0 1169 567218 -2927 0
33 1 S112 1109 568327 -1818 0
33 1 S112 1010 569337 -808 0
33 2 S112 1014 570351 206 0
33 2 S112 1040 571391 1246 0
33 2 S112 1056 572447 2302 0
33 2 S112 1092 573539 3394 0
33 2 S112 1096 574635 4490 0
33 2 S112 1031 575666 5521 0
33 2 S112 1025 576691 6546 0
0 0 0 1090 577781 -11628 0
0 0 0 1112 578893 -10516 0
0 0 0 1055 579948 -9461 0
0 0 0 985 580933 -8476 0
0 0 0 1015 581948 -7461 0
0 0 0 1126 583074 -6335 0
0 0 0 1043 584117 -5292 0
0 0 0 1024 585141 -4268 0
0 0 0 1067 586208 -3201 0
0 0 0 1074 587282 -2127 0
34 1 S106 1005 588287 -1122 0
34 1 S106 987 589274 -135 0
34 2 S106 1021 590295 886 0
34 2 S106 1039 591334 1925 0
34 2 S106 991 592325 2916 0
34 2 S106 955 593280 3871 0
34 2 S106 986 594266 4857 0
34 2 S106 1005 595271 5862 0
34 2 S106 1018 596289 6880 0
0 0 0 955 597244 -10352 0
0 0 0 990 598234 -9362 0
0 0 0 1016 599250 -8346 0
0 0 0 1052 600302 -7294 0
0 0 0 991 601293 -6303 0
0 0 0 1047 602340 -5256 0
0 0 0 1105 603445 -4151 0
0 0 0 999 604444 -3152 0
0 0 0 1033 605477 -2119 0
35 1 S102 1071 606548 -1048 0
35 1 S102 965 607513 -83 0
35 2 S102 946 608459 863 0
35 2 S102 916 609375 1779 0
35 2 S102 970 610345 2749 0
35 2 S102 969 611314 3718 0
35 2 S102 972 612286 4690 0
35 2 S102 1012 613298 5702 0
35 2 S102 1010 614308 6712 0
0 0 0 1025 615333 -7913 0
0 0 0 998 616331 -6915 0
0 0 0 912 617243 -6003 0
0 0 0 953 618196 -5050 0
0 0 0 924 619120 -4126 0
0 0 0 880 620000 -3246 0
0 0 0 842 620842 -2404 0
36 1 S106 853 621695 -1551 0
36 1 S106 868 622563 -683 0
36 2 S106 951 623514 268 0
36 2 S106 1052 624566 1320 0
36 2 S106 1056 625622 2376 0
36 2 S106 977 626599 3353 0
36 2 S106 986 627585 4339 0
36 2 S106 985 628570 5324 0
36 2 S106 960 629530 6284 0
0 0 0 927 630457 -10478 0
0 0 0 1022 631479 -9456 0
0 0 0 1181 632660 -8275 0
0 0 0 1080 633740 -7195 0
0 0 0 1004 634744 -6191 0
0 0 0 1033 635777 -5158 0
0 0 0 1033 636810 -4125 0
0 0 0 941 637751 -3184 0
0 0 0 963 638714 -2221 0
37 1 S116 1037 639751 -1184 0
37 1 S116 1062 640813 -122 0
37 2 S116 1028 641841 906 0
37 2 S116 1081 642922 1987 0
37 2 S116 1121 644043 3108 0
37 2 S116 1055 645098 4163 0
37 2 S116 1040 646138 5203 0
37 2 S116 1070 647208 6273 0
0 0 0 1111 648319 -13041 0
0 0 0 1065 649384 -11976 0
0 0 0 1046 650430 -10930 0
0 0 0 1066 651496 -9864 0
0 0 0 1048 652544 -8816 0
0 0 0 959 653503 -7857 0
0 0 0 1023 654526 -6834 0
0 0 0 1105 655631 -5729 0
0 0 0 1068 656699 -4661 0
0 0 0 1072 657771 -3589 0
0 0 0 1157 658928 -2432 0
38 1 S102 1101 660029 -1331 0
38 1 S102 1081 661110 -250 0
38 2 S102 1131 662241 881 0
38 2 S102 1157 663398 2038 0
38 2 S102 1087 664485 3125 0
38 2 S102 1013 665498 4138 0
38 2 S102 1025 666523 5163 0
38 2 S102 1079 667602 6242 0
0 0 0 1073 668675 -10357 0
0 0 0 1022 669697 -9335 0
0 0 0 1011 670708 -8324 0
0 0 0 1030 671738 -7294 0
0 0 0 1090 672828 -6204 0
0 0 0 1021 673849 -5183 0
0 0 0 1034 674883 -4149 0
0 0 0 1126 676009 -3023 0
39 1 S116 1134 677143 -1889 0
39 1 S116 1041 678184 -848 0
39 2 S116 966 679150 118 0
39 2 S116 989 680139 1107 0
39 2 S116 1063 681202 2170 0
39 2 S116 1089 682291 3259 0
39 2 S116 1005 683296 4264 0
39 2 S116 988 684284 5252 0
39 2 S116 1014 685298 6266 0
0 0 0 1083 686381 -7539 0
0 0 0 1024 687405 -6515 0
0 0 0 1014 688419 -5501 0
0 0 0 1071 689490 -4430 0
0 0 0 1000 690490 -3430 0
0 0 0 981 691471 -2449 0
40 1 S112 1042 692513 -1407 0
40 1 S112 1094 693607 -313 0
40 2 S112 988 694595 675 0
40 2 S112 989 695584 1664 0
40 2 S112 1048 696632 2712 0
40 2 S112 1079 697711 3791 0
40 2 S112 1008 698719 4799 0
40 2 S112 1054 699773 5853 0
40 2 S112 1102 700875 6955 0
0 0 0 1081 701956 -187572 0
0 0 0 983 702939 -186589 0
0 0 0 1003 703942 -185586 0
0 0 0 1034 704976 -184552 0
0 0 0 1037 706013 -183515 0
0 0 0 978 706991 -182537 0
0 0 0 1031 708022 -181506 0
0 0 0 1068 709090 -180438 0
0 0 0 997 710087 -179441 0
0 0 0 869 710956 -178572 0
0 0 0 805 711761 -177767 1
0 0 0 851 712612 -176916 0
0 0 0 793 713405 -176123 1
0 0 0 791 714196 -175332 1
0 0 0 806 715002 -174526 1
0 0 0 816 715818 -173710 0
0 0 0 807 716625 -172903 1
0 0 0 827 717452 -172076 0
0 0 0 841 718293 -171235 0
0 0 0 850 719143 -170385 0
0 0 0 822 719965 -169563 0
0 0 0 798 720763 -168765 1
0 0 0 766 721529 -167999 1
0 0 0 740 722269 -167259 1
0 0 0 720 722989 -166539 1
0 0 0 675 723664 -165864 1
0 0 0 653 724317 -165211 1
0 0 0 638 724955 -164573 1
0 0 0 640 725595 -163933 1
0 0 0 636 726231 -163297 1
0 0 0 741 726972 -162556 1
0 0 0 925 727897 -161631 0
0 0 0 940 728837 -160691 0
0 0 0 989 729826 -159702 0
0 0 0 1043 730869 -158659 0
0 0 0 1056 731925 -157603 0
0 0 0 1064 732989 -156539 0
0 0 0 1062 734051 -155477 0
0 0 0 1068 735119 -154409 0
0 0 0 1056 736175 -153353 0
0 0 0 1057 737232 -152296 0
0 0 0 1037 738269 -151259 0
0 0 0 1045 739314 -150214 0
0 0 0 1072 740386 -149142 0
0 0 0 1239 741625 -147903 0
0 0 0 1160 742785 -146743 0
0 0 0 1128 743913 -145615 0
0 0 0 1092 745005 -144523 0
0 0 0 1235 746240 -143288 0
0 0 0 1154 747394 -142134 0
0 0 0 1111 748505 -141023 0
0 0 0 1049 749554 -139974 0
0 0 0 1149 750703 -138825 0
0 0 0 1164 751867 -137661 0
0 0 0 1067 752934 -136594 0
0 0 0 1120 754054 -135474 0
0 0 0 1115 755169 -134359 0
0 0 0 947 756116 -133412 0
0 0 0 870 756986 -132542 0
0 0 0 821 757807 -131721 0
0 0 0 875 758682 -130846 0
0 0 0 962 759644 -129884 0
0 0 0 1034 760678 -128850 0
0 0 0 1137 761815 -127713 0
0 0 0 1142 762957 -126571 0
0 0 0 1069 764026 -125502 0
0 0 0 968 764994 -124534 0
0 0 0 924 765918 -123610 0
0 0 0 946 766864 -122664 0
0 0 0 980 767844 -121684 0
0 0 0 915 768759 -120769 0
0 0 0 971 769730 -119798 0
0 0 0 1226 770956 -118572 0
0 0 0 1092 772048 -117480 0
0 0 0 964 773012 -116516 0
0 0 0 949 773961 -115567 0
0 0 0 1059 775020 -114508 0
0 0 0 979 775999 -113529 0
0 0 0 1052 777051 -112477 0
0 0 0 1188 778239 -111289 0
0 0 0 1127 779366 -110162 0
0 0 0 1036 780402 -109126 0
0 0 0 1047 781449 -108079 0
0 0 0 1097 782546 -106982 0
0 0 0 1023 783569 -105959 0
0 0 0 997 784566 -104962 0
0 0 0 1069 785635 -103893 0
0 0 0 1066 786701 -102827 0
0 0 0 975 787676 -101852 0
0 0 0 989 788665 -100863 0
0 0 0 1026 789691 -99837 0
0 0 0 1070 790761 -98767 0
0 0 0 998 791759 -97769 0
0 0 0 982 792741 -96787 0
0 0 0 985 793726 -95802 0
0 0 0 982 794708 -94820 0
0 0 0 907 795615 -93913 0
0 0 0 912 796527 -93001 0
0 0 0 964 797491 -92037 0
0 0 0 1005 798496 -91032 0
0 0 0 996 799492 -90036 0
0 0 0 1005 800497 -89031 0
0 0 0 1017 801514 -88014 0
0 0 0 1041 802555 -86973 0
0 0 0 945 803500 -86028 0
0 0 0 949 804449 -85079 0
0 0 0 965 805414 -84114 0
0 0 0 968 806382 -83146 0
0 0 0 919 807301 -82227 0
0 0 0 942 808243 -81285 0
0 0 0 950 809193 -80335 0
0 0 0 993 810186 -79342 0
0 0 0 928 811114 -78414 0
0 0 0 944 812058 -77470 0
0 0 0 942 813000 -76528 0
0 0 0 929 813929 -75599 0
0 0 0 890 814819 -74709 0
0 0 0 918 815737 -73791 0
0 0 0 955 816692 -72836 0
0 0 0 954 817646 -71882 0
0 0 0 962 818608 -70920 0
0 0 0 1017 819625 -69903 0
0 0 0 1021 820646 -68882 0
0 0 0 948 821594 -67934 0
0 0 0 951 822545 -66983 0
0 0 0 941 823486 -66042 0
0 0 0 933 824419 -65109 0
0 0 0 881 825300 -64228 0
0 0 0 904 826204 -63324 0
0 0 0 902 827106 -62422 0
0 0 0 937 828043 -61485 0
0 0 0 903 828946 -60582 0
0 0 0 917 829863 -59665 0
0 0 0 989 830852 -58676 0
0 0 0 1010 831862 -57666 0
0 0 0 995 832857 -56671 0
0 0 0 930 833787 -55741 0
0 0 0 963 834750 -54778 0
0 0 0 984 835734 -53794 0
0 0 0 977 836711 -52817 0
0 0 0 960 837671 -51857 0
0 0 0 979 838650 -50878 0
0 0 0 1067 839717 -49811 0
0 0 0 985 840702 -48826 0
0 0 0 904 841606 -47922 0
0 0 0 889 842495 -47033 0
0 0 0 904 843399 -46129 0
0 0 0 978 844377 -45151 0
0 0 0 940 845317 -44211 0
0 0 0 945 846262 -43266 0
0 0 0 974 847236 -42292 0
0 0 0 1015 848251 -41277 0
0 0 0 1030 849281 -40247 0
0 0 0 1054 850335 -39193 0
0 0 0 1106 851441 -38087 0
0 0 0 1039 852480 -37048 0
0 0 0 1011 853491 -36037 0
0 0 0 1031 854522 -35006 0
0 0 0 1069 855591 -33937 0
0 0 0 1059 856650 -32878 0
0 0 0 1059 857709 -31819 0
0 0 0 1101 858810 -30718 0
0 0 0 1102 859912 -29616 0
0 0 0 999 860911 -28617 0
0 0 0 992 861903 -27625 0
0 0 0 995 862898 -26630 0
0 0 0 976 863874 -25654 0
0 0 0 914 864788 -24740 0
0 0 0 890 865678 -23850 0
0 0 0 910 866588 -22940 0
0 0 0 1001 867589 -21939 0
0 0 0 1000 868589 -20939 0
0 0 0 932 869521 -20007 0
0 0 0 943 870464 -19064 0
0 0 0 921 871385 -18143 0
0 0 0 939 872324 -17204 0
0 0 0 946 873270 -16258 0
0 0 0 948 874218 -15310 0
0 0 0 952 875170 -14358 0
0 0 0 944 876114 -13414 0
0 0 0 906 877020 -12508 0
0 0 0 858 877878 -11650 0
0 0 0 857 878735 -10793 0
0 0 0 866 879601 -9927 0
0 0 0 881 880482 -9046 0
0 0 0 888 881370 -8158 0
0 0 0 882 882252 -7276 0
0 0 0 905 883157 -6371 0
0 0 0 938 884095 -5433 0
0 0 0 971 885066 -4462 0
0 0 0 910 885976 -3552 0
0 0 0 885 886861 -2667 0
41 1 S102 870 887731 -1797 0
41 1 S102 853 888584 -944 0
41 1 S102 809 889393 -135 1
41 2 S102 806 890199 671 1
41 2 S102 793 890992 1464 1
41 2 S102 816 891808 2280 0
41 2 S102 805 892613 3085 1
41 2 S102 786 893399 3871 1
41 2 S102 773 894172 4644 1
41 2 S102 771 894943 5415 1
41 2 S102 837 895780 6252 0
0 0 0 839 896619 -7183 0
0 0 0 882 897501 -6301 0
0 0 0 921 898422 -5380 0
0 0 0 925 899347 -4455 0
0 0 0 927 900274 -3528 0
0 0 0 914 901188 -2614 0
42 1 S112 966 902154 -1648 0
42 1 S112 1013 903167 -635 0
42 2 S112 1022 904189 387 0
42 2 S112 1011 905200 1398 0
42 2 S112 1032 906232 2430 0
42 2 S112 1109 907341 3539 0
42 2 S112 1143 908484 4682 0
42 2 S112 1162 909646 5844 0
42 2 S112 1117 910763 6961 0
0 0 0 1048 911811 -8420 0
0 0 0 1047 912858 -7373 0
0 0 0 1012 913870 -6361 0
0 0 0 966 914836 -5395 0
0 0 0 944 915780 -4451 0
0 0 0 1085 916865 -3366 0
0 0 0 1183 918048 -2183 0
43 1 S116 1157 919205 -1026 0
43 2 S116 1110 920315 84 0
43 2 S116 1095 921410 1179 0
43 2 S116 1072 922482 2251 0
43 2 S116 1064 923546 3315 0
43 2 S116 1014 924560 4329 0
43 2 S116 1029 925589 5358 0
43 2 S116 1064 926653 6422 0
0 0 0 1120 927773 -7362 0
0 0 0 1036 928809 -6326 0
0 0 0 1047 929856 -5279 0
0 0 0 1054 930910 -4225 0
0 0 0 1009 931919 -3216 0
0 0 0 1018 932937 -2198 0
44 1 S102 1065 934002 -1133 0
44 1 S102 1094 935096 -39 0
44 2 S102 1000 936096 961 0
44 2 S102 1029 937125 1990 0
44 2 S102 1077 938202 3067 0
44 2 S102 1071 939273 4138 0
44 2 S102 1047 940320 5185 0
44 2 S102 1120 941440 6305 0
0 0 0 1149 942589 -10434 0
0 0 0 1058 943647 -9376 0
0 0 0 1016 944663 -8360 0
0 0 0 1023 945686 -7337 0
0 0 0 1075 946761 -6262 0
0 0 0 983 947744 -5279 0
0 0 0 1003 948747 -4276 0
0 0 0 1116 949863 -3160 0
0 0 0 1032 950895 -2128 0
45 1 S116 999 951894 -1129 0
45 1 S116 1066 952960 -63 0
45 2 S116 1104 954064 1041 0
45 2 S116 1025 955089 2066 0
45 2 S116 1031 956120 3097 0
45 2 S116 1092 957212 4189 0
45 2 S116 1052 958264 5241 0
45 2 S116 1015 959279 6256 0
0 0 0 1092 960371 -12032 0
0 0 0 1121 961492 -10911 0
0 0 0 1017 962509 -9894 0
0 0 0 1026 963535 -8868 0
0 0 0 1017 964552 -7851 0
0 0 0 980 965532 -6871 0
0 0 0 1020 966552 -5851 0
0 0 0 1052 967604 -4799 0
0 0 0 981 968585 -3818 0
0 0 0 970 969555 -2848 0
46 1 S102 1013 970568 -1835 0
46 1 S102 1077 971645 -758 0
46 2 S102 1031 972676 273 0
46 2 S102 1033 973709 1306 0
46 2 S102 1107 974816 2413 0
46 2 S102 1150 975966 3563 0
46 2 S102 1074 977040 4637 0
46 2 S102 1075 978115 5712 0
46 2 S102 1101 979216 6813 0
0 0 0 1141 980357 -8907 0
0 0 0 1043 981400 -7864 0
0 0 0 1061 982461 -6803 0
0 0 0 1075 983536 -5728 0
0 0 0 1028 984564 -4700 0
0 0 0 1051 985615 -3649 0
0 0 0 1082 986697 -2567 0
47 1 S112 1065 987762 -1502 0
47 1 S112 1053 988815 -449 0
47 2 S112 1080 989895 631 0
47 2 S112 1107 991002 1738 0
47 2 S112 1108 992110 2846 0
47 2 S112 1049 993159 3895 0
47 2 S112 1100 994259 4995 0
47 2 S112 1113 995372 6108 0
0 0 0 1077 996449 -12245 0
0 0 0 999 997448 -11246 0
0 0 0 1021 998469 -10225 0
0 0 0 1042 999511 -9183 0
0 0 0 1048 1000559 -8135 0
0 0 0 994 1001553 -7141 0
0 0 0 1062 1002615 -6079 0
0 0 0 1118 1003733 -4961 0
0 0 0 1046 1004779 -3915 0
0 0 0 985 1005764 -2930 0
48 1 S116 983 1006747 -1947 0
48 1 S116 960 1007707 -987 0
48 1 S116 964 1008671 -23 0
48 2 S116 913 1009584 890 0
48 2 S116 956 1010540 1846 0
48 2 S116 1018 1011558 2864 0
48 2 S116 1048 1012606 3912 0
48 2 S116 984 1013590 4896 0
48 2 S116 1000 1014590 5896 0
48 2 S116 1057 1015647 6953 0
0 0 0 1113 1016760 -7434 0
0 0 0 1047 1017807 -6387 0
0 0 0 1010 1018817 -5377 0
0 0 0 1031 1019848 -4346 0
0 0 0 1013 1020861 -3333 0
0 0 0 945 1021806 -2388 0
49 1 S112 1000 1022806 -1388 0
49 1 S112 1053 1023859 -335 0
49 2 S112 951 1024810 616 0
49 2 S112 968 1025778 1584 0
49 2 S112 1083 1026861 2667 0
49 2 S112 1053 1027914 3720 0
49 2 S112 968 1028882 4688 0
49 2 S112 976 1029858 5664 0
49 2 S112 942 1030800 6606 0
0 0 0 964 1031764 -11827 0
0 0 0 909 1032673 -10918 0
0 0 0 893 1033566 -10025 0
0 0 0 858 1034424 -9167 0
0 0 0 798 1035222 -8369 1
0 0 0 803 1036025 -7566 1
0 0 0 927 1036952 -6639 0
0 0 0 908 1037860 -5731 0
0 0 0 965 1038825 -4766 0
0 0 0 1042 1039867 -3724 0
0 0 0 1077 1040944 -2647 0
50 1 S106 988 1041932 -1659 0
50 1 S106 898 1042830 -761 0
50 2 S106 909 1043739 148 0
50 2 S106 975 1044714 1123 0
50 2 S106 1105 1045819 2228 0
50 2 S106 1076 1046895 3304 0
50 2 S106 1066 1047961 4370 0
50 2 S106 1013 1048974 5383 0
50 2 S106 994 1049968 6377 0
0 0 0 992 1050960 -7933 0
0 0 0 1058 1052018 -6875 0
0 0 0 1043 1053061 -5832 0
0 0 0 1001 1054062 -4831 0
0 0 0 1043 1055105 -3788 0
0 0 0 1096 1056201 -2692 0
51 1 S112 1015 1057216 -1677 0
51 1 S112 1011 1058227 -666 0
51 2 S112 1078 1059305 412 0
51 2 S112 1068 1060373 1480 0
51 2 S112 1024 1061397 2504 0
51 2 S112 1044 1062441 3548 0
51 2 S112 1079 1063520 4627 0
51 2 S112 1041 1064561 5668 0
51 2 S112 973 1065534 6641 0
0 0 0 1000 1066534 -6335 0
0 0 0 1010 1067544 -5325 0
0 0 0 1010 1068554 -4315 0
0 0 0 932 1069486 -3383 0
0 0 0 948 1070434 -2435 0
52 1 S116 1002 1071436 -1433 0
52 1 S116 1053 1072489 -380 0
52 2 S116 998 1073487 618 0
52 2 S116 1048 1074535 1666 0
52 2 S116 1052 1075587 2718 0
52 2 S116 1018 1076605 3736 0
52 2 S116 952 1077557 4688 0
52 2 S116 970 1078527 5658 0
52 2 S116 1010 1079537 6668 0
0 0 0 1024 1080561 -9814 0
0 0 0 1040 1081601 -8774 0
0 0 0 1118 1082719 -7656 0
0 0 0 1087 1083806 -6569 0
0 0 0 979 1084785 -5590 0
0 0 0 1002 1085787 -4588 0
0 0 0 1014 1086801 -3574 0
0 0 0 990 1087791 -2584 0
53 1 S106 967 1088758 -1617 0
53 1 S106 1034 1089792 -583 0
53 2 S106 1086 1090878 503 0
53 2 S106 1057 1091935 1560 0
53 2 S106 1029 1092964 2589 0
53 2 S106 1041 1094005 3630 0
53 2 S106 1036 1095041 4666 0
53 2 S106 972 1096013 5638 0
53 2 S106 938 1096951 6576 0
0 0 0 1002 1097953 -7509 0
0 0 0 1198 1099151 -6311 0
0 0 0 1086 1100237 -5225 0
0 0 0 1045 1101282 -4180 0
0 0 0 991 1102273 -3189 0
0 0 0 890 1103163 -2299 0
54 1 S102 823 1103986 -1476 0
54 1 S102 812 1104798 -664 1
54 2 S102 873 1105671 209 0
54 2 S102 1041 1106712 1250 0
54 2 S102 1115 1107827 2365 0
54 2 S102 1077 1108904 3442 0
54 2 S102 995 1109899 4437 0
54 2 S102 991 1110890 5428 0
54 2 S102 1025 1111915 6453 0
0 0 0 1054 1112969 -11243 0
0 0 0 990 1113959 -10253 0
0 0 0 1011 1114970 -9242 0
0 0 0 1046 1116016 -8196 0
0 0 0 998 1117014 -7198 0
0 0 0 1015 1118029 -6183 0
0 0 0 1068 1119097 -5115 0
0 0 0 1085 1120182 -4030 0
0 0 0 991 1121173 -3039 0
0 0 0 1021 1122194 -2018 0
55 1 S106 1100 1123294 -918 0
55 2 S106 1088 1124382 170 0
55 2 S106 988 1125370 1158 0
55 2 S106 1045 1126415 2203 0
55 2 S106 1176 1127591 3379 0
55 2 S106 1123 1128714 4502 0
55 2 S106 991 1129705 5493 0
55 2 S106 1066 1130771 6559 0
0 0 0 1126 1131897 -7368 0
0 0 0 1048 1132945 -6320 0
0 0 0 1046 1133991 -5274 0
0 0 0 1074 1135065 -4200 0
0 0 0 985 1136050 -3215 0
0 0 0 968 1137018 -2247 0
56 1 S116 1021 1138039 -1226 0
56 1 S116 1090 1139129 -136 0
56 2 S116 1001 1140130 865 0
56 2 S116 1056 1141186 1921 0
56 2 S116 1120 1142306 3041 0
56 2 S116 1063 1143369 4104 0
56 2 S116 1029 1144398 5133 0
56 2 S116 1051 1145449 6184 0
0 0 0 1031 1146480 -7921 0
0 0 0 1016 1147496 -6905 0
0 0 0 1008 1148504 -5897 0
0 0 0 1053 1149557 -4844 0
0 0 0 1022 1150579 -3822 0
0 0 0 961 1151540 -2861 0
57 1 S106 986 1152526 -1875 0
57 1 S106 1029 1153555 -846 0
57 2 S106 1035 1154590 189 0
57 2 S106 987 1155577 1176 0
57 2 S106 1027 1156604 2203 0
57 2 S106 1071 1157675 3274 0
57 2 S106 1008 1158683 4282 0
57 2 S106 987 1159670 5269 0
57 2 S106 1006 1160676 6275 0
0 0 0 1019 1161695 -10760 0
0 0 0 987 1162682 -9773 0
0 0 0 1007 1163689 -8766 0
0 0 0 1038 1164727 -7728 0
0 0 0 1025 1165752 -6703 0
0 0 0 967 1166719 -5736 0
0 0 0 976 1167695 -4760 0
0 0 0 1010 1168705 -3750 0
0 0 0 1010 1169715 -2740 0
58 1 S102 956 1170671 -1784 0
58 1 S102 973 1171644 -811 0
58 2 S102 1028 1172672 217 0
58 2 S102 1024 1173696 1241 0
58 2 S102 954 1174650 2195 0
58 2 S102 973 1175623 3168 0
58 2 S102 1055 1176678 4223 0
58 2 S102 1110 1177788 5333 0
58 2 S102 1053 1178841 6386 0
0 0 0 1075 1179916 -7808 0
0 0 0 1098 1181014 -6710 0
0 0 0 1052 1182066 -5658 0
0 0 0 978 1183044 -4680 0
0 0 0 959 1184003 -3721 0
0 0 0 974 1184977 -2747 0
59 1 S112 974 1185951 -1773 0
59 1 S112 996 1186947 -777 0
59 2 S112 1134 1188081 357 0
59 2 S112 1133 1189214 1490 0
59 2 S112 1066 1190280 2556 0
59 2 S112 1016 1191296 3572 0
59 2 S112 1068 1192364 4640 0
59 2 S112 1079 1193443 5719 0
59 2 S112 1026 1194469 6745 0
0 0 0 959 1195428 -8957 0
0 0 0 981 1196409 -7976 0
0 0 0 1033 1197442 -6943 0
0 0 0 1008 1198450 -5935 0
0 0 0 902 1199352 -5033 0
0 0 0 859 1200211 -4174 0
0 0 0 835 1201046 -3339 0
0 0 0 910 1201956 -2429 0
60 1 S102 1022 1202978 -1407 0
60 1 S102 954 1203932 -453 0
60 2 S102 1005 1204937 552 0
60 2 S102 1015 1205952 1567 0
60 2 S102 961 1206913 2528 0
60 2 S102 909 1207822 3437 0
60 2 S102 951 1208773 4388 0
60 2 S102 1004 1209777 5392 0
60 2 S102 1037 1210814 6429 0
0 0 0 1017 1211831 -11801 0
0 0 0 997 1212828 -10804 0
0 0 0 1021 1213849 -9783 0
0 0 0 1036 1214885 -8747 0
0 0 0 989 1215874 -7758 0
0 0 0 952 1216826 -6806 0
0 0 0 1031 1217857 -5775 0
0 0 0 1115 1218972 -4660 0
0 0 0 1021 1219993 -3639 0
0 0 0 1022 1221015 -2617 0
61 1 S106 1056 1222071 -1561 0
61 1 S106 1118 1223189 -443 0
61 2 S106 1059 1224248 616 0
61 2 S106 1047 1225295 1663 0
61 2 S106 1057 1226352 2720 0
61 2 S106 1087 1227439 3807 0
61 2 S106 1024 1228463 4831 0
61 2 S106 1010 1229473 5841 0
61 2 S106 1036 1230509 6877 0
0 0 0 1001 1231510 -7076 0
0 0 0 950 1232460 -6126 0
0 0 0 1015 1233475 -5111 0
0 0 0 1018 1234493 -4093 0
0 0 0 891 1235384 -3202 0
0 0 0 872 1236256 -2330 0
62 1 S112 833 1237089 -1497 0
62 1 S112 854 1237943 -643 0
62 2 S112 888 1238831 245 0
62 2 S112 954 1239785 1199 0
62 2 S112 1014 1240799 2213 0
62 2 S112 1026 1241825 3239 0
62 2 S112 947 1242772 4186 0
62 2 S112 906 1243678 5092 0
62 2 S112 887 1244565 5979 0
62 2 S112 889 1245454 6868 0
0 0 0 886 1246340 -12704 0
0 0 0 883 1247223 -11821 0
0 0 0 944 1248167 -10877 0
0 0 0 997 1249164 -9880 0
0 0 0 1010 1250174 -8870 0
0 0 0 943 1251117 -7927 0
0 0 0 995 1252112 -6932 0
0 0 0 1081 1253193 -5851 0
0 0 0 1039 1254232 -4812 0
0 0 0 1018 1255250 -3794 0
0 0 0 1060 1256310 -2734 0
63 1 S102 1054 1257364 -1680 0
63 1 S102 1030 1258394 -650 0
63 2 S102 1024 1259418 374 0
63 2 S102 1069 1260487 1443 0
63 2 S102 1150 1261637 2593 0
63 2 S102 1089 1262726 3682 0
63 2 S102 1094 1263820 4776 0
63 2 S102 1123 1264943 5899 0
0 0 0 1132 1266075 -9431 0
0 0 0 1022 1267097 -8409 0
0 0 0 1003 1268100 -7406 0
0 0 0 1048 1269148 -6358 0
0 0 0 1104 1270252 -5254 0
0 0 0 1012 1271264 -4242 0
0 0 0 1007 1272271 -3235 0
0 0 0 1060 1273331 -2175 0
64 1 S112 1020 1274351 -1155 0
64 1 S112 993 1275344 -162 0
64 2 S112 1019 1276363 857 0
64 2 S112 1043 1277406 1900 0
64 2 S112 979 1278385 2879 0
64 2 S112 946 1279331 3825 0
64 2 S112 977 1280308 4802 0
64 2 S112 1032 1281340 5834 0
64 2 S112 1026 1282366 6860 0
0 0 0 1048 1283414 -7692 0
0 0 0 1051 1284465 -6641 0
0 0 0 1056 1285521 -5585 0
0 0 0 982 1286503 -4603 0
0 0 0 918 1287421 -3685 0
0 0 0 844 1288265 -2841 0
0 0 0 803 1289068 -2038 1
65 1 S106 781 1289849 -1257 1
65 1 S106 865 1290714 -392 0
65 2 S106 916 1291630 524 0
65 2 S106 987 1292617 1511 0
65 2 S106 1024 1293641 2535 0
65 2 S106 1023 1294664 3558 0
65 2 S106 914 1295578 4472 0
65 2 S106 906 1296484 5378 0
65 2 S106 895 1297379 6273 0
0 0 0 955 1298334 -8190 0
0 0 0 927 1299261 -7263 0
0 0 0 949 1300210 -6314 0
0 0 0 1064 1301274 -5250 0
0 0 0 1044 1302318 -4206 0
0 0 0 960 1303278 -3246 0
0 0 0 998 1304276 -2248 0
66 1 S116 1093 1305369 -1155 0
66 1 S116 995 1306364 -160 0
66 2 S116 945 1307309 785 0
66 2 S116 1000 1308309 1785 0
66 2 S116 1094 1309403 2879 0
66 2 S116 1037 1310440 3916 0
66 2 S116 1080 1311520 4996 0
66 2 S116 1154 1312674 6150 0
0 0 0 1122 1313796 -11744 0
0 0 0 1064 1314860 -10680 0
0 0 0 1132 1315992 -9548 0
0 0 0 1110 1317102 -8438 0
0 0 0 963 1318065 -7475 0
0 0 0 1015 1319080 -6460 0
0 0 0 1126 1320206 -5334 0
0 0 0 1055 1321261 -4279 0
0 0 0 959 1322220 -3320 0
0 0 0 1018 1323238 -2302 0
67 1 S102 1171 1324409 -1131 0
67 1 S102 1095 1325504 -36 0
67 2 S102 1074 1326578 1038 0
67 2 S102 1129 1327707 2167 0
67 2 S102 1150 1328857 3317 0
67 2 S102 1061 1329918 4378 0
67 2 S102 1085 1331003 5463 0
67 2 S102 1126 1332129 6589 0
0 0 0 1043 1333172 -7454 0
0 0 0 952 1334124 -6502 0
0 0 0 984 1335108 -5518 0
0 0 0 1108 1336216 -4410 0
0 0 0 1062 1337278 -3348 0
0 0 0 1044 1338322 -2304 0
68 1 S106 1132 1339454 -1172 0
68 2 S106 1184 1340638 12 0
68 2 S106 1092 1341730 1104 0
68 2 S106 1064 1342794 2168 0
68 2 S106 1105 1343899 3273 0
68 2 S106 1133 1345032 4406 0
68 2 S106 1070 1346102 5476 0
68 2 S106 1078 1347180 6554 0
0 0 0 1106 1348286 -12417 0
0 0 0 1151 1349437 -11266 0
0 0 0 1033 1350470 -10233 0
0 0 0 1113 1351583 -9120 0
0 0 0 1144 1352727 -7976 0
0 0 0 1085 1353812 -6891 0
0 0 0 1089 1354901 -5802 0
0 0 0 1147 1356048 -4655 0
0 0 0 1111 1357159 -3544 0
0 0 0 1032 1358191 -2512 0
69 1 S102 1010 1359201 -1502 0
69 1 S102 1028 1360229 -474 0
69 2 S102 1062 1361291 588 0
69 2 S102 1038 1362329 1626 0
69 2 S102 1050 1363379 2676 0
69 2 S102 1113 1364492 3789 0
69 2 S102 1126 1365618 4915 0
69 2 S102 1069 1366687 5984 0
0 0 0 1049 1367736 -10142 0
0 0 0 1060 1368796 -9082 0
0 0 0 1090 1369886 -7992 0
0 0 0 990 1370876 -7002 0
0 0 0 975 1371851 -6027 0
0 0 0 1094 1372945 -4933 0
0 0 0 1116 1374061 -3817 0
0 0 0 1019 1375080 -2798 0
70 1 S112 1060 1376140 -1738 0
70 1 S112 1097 1377237 -641 0
70 2 S112 1043 1378280 402 0
70 2 S112 1002 1379282 1404 0
70 2 S112 1071 1380353 2475 0
70 2 S112 1141 1381494 3616 0
70 2 S112 1094 1382588 4710 0
70 2 S112 1049 1383637 5759 0
70 2 S112 1082 1384719 6841 0
0 0 0 1122 1385841 -11168 0
0 0 0 1035 1386876 -10133 0
0 0 0 949 1387825 -9184 0
0 0 0 912 1388737 -8272 0
0 0 0 904 1389641 -7368 0
0 0 0 887 1390528 -6481 0
0 0 0 1001 1391529 -5480 0
0 0 0 1132 1392661 -4348 0
0 0 0 1040 1393701 -3308 0
0 0 0 982 1394683 -2326 0
71 1 S116 1028 1395711 -1298 0
71 1 S116 1083 1396794 -215 0
71 2 S116 1083 1397877 868 0
71 2 S116 1033 1398910 1901 0
71 2 S116 934 1399844 2835 0
71 2 S116 856 1400700 3691 0
71 2 S116 839 1401539 4530 0
71 2 S116 854 1402393 5384 0
71 2 S116 859 1403252 6243 0
0 0 0 913 1404165 -9837 0
0 0 0 1006 1405171 -8831 0
0 0 0 1010 1406181 -7821 0
0 0 0 964 1407145 -6857 0
0 0 0 986 1408131 -5871 0
0 0 0 1010 1409141 -4861 0
0 0 0 953 1410094 -3908 0
0 0 0 965 1411059 -2943 0
72 1 S102 997 1412056 -1946 0
72 1 S102 1089 1413145 -857 0
72 2 S102 1015 1414160 158 0
72 2 S102 1030 1415190 1188 0
72 2 S102 1037 1416227 2225 0
72 2 S102 1030 1417257 3255 0
72 2 S102 995 1418252 4250 0
72 2 S102 946 1419198 5196 0
72 2 S102 1014 1420212 6210 0
0 0 0 1190 1421402 -7123 0
0 0 0 1170 1422572 -5953 0
0 0 0 1138 1423710 -4815 0
0 0 0 1058 1424768 -3757 0
0 0 0 978 1425746 -2779 0
73 1 S116 1008 1426754 -1771 0
73 1 S116 1060 1427814 -711 0
73 2 S116 1067 1428881 356 0
73 2 S116 1004 1429885 1360 0
73 2 S116 998 1430883 2358 0
73 2 S116 1046 1431929 3404 0
73 2 S116 1138 1433067 4542 0
73 2 S116 1064 1434131 5606 0
73 2 S116 1120 1435251 6726 0
0 0 0 1265 1436516 -8803 1
0 0 0 1131 1437647 -7672 0
0 0 0 1055 1438702 -6617 0
0 0 0 1050 1439752 -5567 0
0 0 0 976 1440728 -4591 0
0 0 0 976 1441704 -3615 0
0 0 0 1104 1442808 -2511 0
74 1 S106 1135 1443943 -1376 0
74 1 S106 1072 1445015 -304 0
74 2 S106 1092 1446107 788 0
74 2 S106 1081 1447188 1869 0
74 2 S106 1069 1448257 2938 0
74 2 S106 983 1449240 3921 0
74 2 S106 1009 1450249 4930 0
74 2 S106 1069 1451318 5999 0
0 0 0 1114 1452432 -8155 0
0 0 0 1031 1453463 -7124 0
0 0 0 1046 1454509 -6078 0
0 0 0 1109 1455618 -4969 0
0 0 0 1075 1456693 -3894 0
0 0 0 967 1457660 -2927 0
75 1 S112 937 1458597 -1990 0
75 1 S112 878 1459475 -1112 0
75 1 S112 873 1460348 -239 0
75 2 S112 1011 1461359 772 0
75 2 S112 1031 1462390 1803 0
75 2 S112 987 1463377 2790 0
75 2 S112 1076 1464453 3866 0
75 2 S112 1146 1465599 5012 0
75 2 S112 1189 1466788 6201 0
0 0 0 1177 1467965 -7808 0
0 0 0 1112 1469077 -6696 0
0 0 0 1090 1470167 -5606 0
0 0 0 1093 1471260 -4513 0
0 0 0 1072 1472332 -3441 0
0 0 0 1079 1473411 -2362 0
76 1 S116 1052 1474463 -1310 0
76 1 S116 1131 1475594 -179 0
76 2 S116 1194 1476788 1015 0
76 2 S116 1146 1477934 2161 0
76 2 S116 1059 1478993 3220 0
76 2 S116 1027 1480020 4247 0
76 2 S116 1114 1481134 5361 0
76 2 S116 1210 1482344 6571 0
0 0 0 1183 1483527 -8178 0
0 0 0 1066 1484593 -7112 0
0 0 0 1062 1485655 -6050 0
0 0 0 1112 1486767 -4938 0
0 0 0 1055 1487822 -3883 0
0 0 0 1001 1488823 -2882 0
77 1 S106 1027 1489850 -1855 0
77 1 S106 1144 1490994 -711 0
77 2 S106 1166 1492160 455 0
77 2 S106 1109 1493269 1564 0
77 2 S106 995 1494264 2559 0
77 2 S106 942 1495206 3501 0
77 2 S106 981 1496187 4482 0
77 2 S106 1088 1497275 5570 0
77 2 S106 1095 1498370 6665 0
0 0 0 1024 1499394 -9287 0
0 0 0 967 1500361 -8320 0
0 0 0 1024 1501385 -7296 0
0 0 0 1083 1502468 -6213 0
0 0 0 972 1503440 -5241 0
0 0 0 996 1504436 -4245 0
0 0 0 1062 1505498 -3183 0
0 0 0 1040 1506538 -2143 0
78 1 S112 955 1507493 -1188 0
78 1 S112 1011 1508504 -177 0
78 2 S112 1079 1509583 902 0
78 2 S112 1113 1510696 2015 0
78 2 S112 1052 1511748 3067 0
78 2 S112 994 1512742 4061 0
78 2 S112 1029 1513771 5090 0
78 2 S112 1132 1514903 6222 0
0 0 0 1129 1516032 -11549 0
0 0 0 1088 1517120 -10461 0
0 0 0 982 1518102 -9479 0
0 0 0 995 1519097 -8484 0
0 0 0 1013 1520110 -7471 0
0 0 0 968 1521078 -6503 0
0 0 0 982 1522060 -5521 0
0 0 0 1092 1523152 -4429 0
0 0 0 1132 1524284 -3297 0
0 0 0 999 1525283 -2298 0
79 1 S102 1080 1526363 -1218 0
79 1 S102 1107 1527470 -111 0
79 2 S102 975 1528445 864 0
79 2 S102 946 1529391 1810 0
79 2 S102 964 1530355 2774 0
79 2 S102 1149 1531504 3923 0
79 2 S102 1147 1532651 5070 0
79 2 S102 1090 1533741 6160 0
0 0 0 1088 1534829 -9728 0
0 0 0 1118 1535947 -8610 0
0 0 0 1044 1536991 -7566 0
0 0 0 1044 1538035 -6522 0
0 0 0 1043 1539078 -5479 0
0 0 0 1017 1540095 -4462 0
0 0 0 964 1541059 -3498 0
0 0 0 960 1542019 -2538 0
80 1 S116 1035 1543054 -1503 0
80 1 S116 1048 1544102 -455 0
80 2 S116 954 1545056 499 0
80 2 S116 992 1546048 1491 0
80 2 S116 1031 1547079 2522 0
80 2 S116 1082 1548161 3604 0
80 2 S116 987 1549148 4591 0
80 2 S116 987 1550135 5578 0
80 2 S116 1002 1551137 6580 0
