T_0132
BeatCount Mean SD BeatCountNoOutliers MeanNoOutliers SDNoOutliers
1929 798,606013478486 73,8817905032674 1912 797,774058577406 70,6595073364797

Trial TrialStatus Trialtype IBI AbsPosition RelPosition Outlier
0 0 0 725 952 -14772 0
0 0 0 757 1709 -14015 0
0 0 0 719 2428 -13296 0
0 0 0 740 3168 -12556 0
0 0 0 780 3948 -11776 0
0 0 0 871 4819 -10905 0
0 0 0 860 5679 -10045 0
0 0 0 797 6476 -9248 0
0 0 0 837 7313 -8411 0
0 0 0 848 8161 -7563 0
0 0 0 861 9022 -6702 0
0 0 0 870 9892 -5832 0
0 0 0 843 10735 -4989 0
0 0 0 756 11491 -4233 0
0 0 0 774 12265 -3459 0
0 0 0 786 13051 -2673 0
1 1 S112 799 13850 -1874 0
1 1 S112 819 14669 -1055 0
1 1 S112 799 15468 -256 0
1 2 S112 763 16231 507 0
1 2 S112 793 17024 1300 0
1 2 S112 804 17828 2104 0
1 2 S112 867 18695 2971 0
1 2 S112 863 19558 3834 0
1 2 S112 872 20430 4706 0
1 2 S112 768 21198 5474 0
1 2 S112 742 21940 6216 0
1 2 S112 749 22689 6965 0
0 0 0 812 23501 -12133 0
0 0 0 943 24444 -11190 0
0 0 0 1083 25527 -10107 1
0 0 0 983 26510 -9124 0
0 0 0 851 27361 -8273 0
0 0 0 843 28204 -7430 0
0 0 0 831 29035 -6599 0
0 0 0 800 29835 -5799 0
0 0 0 731 30566 -5068 0
0 0 0 733 31299 -4335 0
0 0 0 756 32055 -3579 0
0 0 0 806 32861 -2773 0
2 1 S102 842 33703 -1931 0
2 1 S102 801 34504 -1130 0
2 1 S102 766 35270 -364 0
2 2 S102 808 36078 444 0
2 2 S102 836 36914 1280 0
2 2 S102 860 37774 2140 0
2 2 S102 855 38629 2995 0
2 2 S102 760 39389 3755 0
2 2 S102 738 40127 4493 0
2 2 S102 754 40881 5247 0
2 2 S102 800 41681 6047 0
2 2 S102 946 42627 6993 0
0 0 0 963 43590 -9651 0
0 0 0 856 44446 -8795 0
0 0 0 865 45311 -7930 0
0 0 0 908 46219 -7022 0
0 0 0 866 47085 -6156 0
0 0 0 768 47853 -5388 0
0 0 0 743 48596 -4645 0
0 0 0 689 49285 -3956 0
0 0 0 689 49974 -3267 0
0 0 0 693 50667 -2574 0
3 1 S116 654 51321 -1920 0
3 1 S116 663 51984 -1257 0
3 1 S116 667 52651 -590 0
3 2 S116 666 53317 76 0
3 2 S116 667 53984 743 0
3 2 S116 655 54639 1398 0
3 2 S116 667 55306 2065 0
3 2 S116 681 55987 2746 0
3 2 S116 694 56681 3440 0
3 2 S116 702 57383 4142 0
3 2 S116 687 58070 4829 0
3 2 S116 696 58766 5525 0
3 2 S116 698 59464 6223 0
3 2 S116 704 60168 6927 0
0 0 0 694 60862 -10764 0
0 0 0 661 61523 -10103 0
0 0 0 668 62191 -9435 0
0 0 0 693 62884 -8742 0
0 0 0 761 63645 -7981 0
0 0 0 859 64504 -7122 0
0 0 0 766 65270 -6356 0
0 0 0 843 66113 -5513 0
0 0 0 892 67005 -4621 0
0 0 0 965 67970 -3656 0
0 0 0 836 68806 -2820 0
4 1 S106 853 69659 -1967 0
4 1 S106 886 70545 -1081 0
4 1 S106 917 71462 -164 0
4 2 S106 896 72358 732 0
4 2 S106 789 73147 1521 0
4 2 S106 785 73932 2306 0
4 2 S106 785 74717 3091 0
4 2 S106 832 75549 3923 0
4 2 S106 850 76399 4773 0
4 2 S106 866 77265 5639 0
4 2 S106 792 78057 6431 0
0 0 0 781 78838 -6664 0
0 0 0 801 79639 -5863 0
0 0 0 905 80544 -4958 0
0 0 0 959 81503 -3999 0
0 0 0 925 82428 -3074 0
0 0 0 835 83263 -2239 0
5 1 S116 774 84037 -1465 0
5 1 S116 742 84779 -723 0
5 2 S116 742 85521 19 0
5 2 S116 797 86318 816 0
5 2 S116 880 87198 1696 0
5 2 S116 882 88080 2578 0
5 2 S116 812 88892 3390 0
5 2 S116 830 89722 4220 0
5 2 S116 846 90568 5066 0
5 2 S116 863 91431 5929 0
5 2 S116 809 92240 6738 0
0 0 0 793 93033 -9396 0
0 0 0 834 93867 -8562 0
0 0 0 834 94701 -7728 0
0 0 0 796 95497 -6932 0
0 0 0 816 96313 -6116 0
0 0 0 837 97150 -5279 0
0 0 0 872 98022 -4407 0
0 0 0 798 98820 -3609 0
0 0 0 817 99637 -2792 0
6 1 S106 828 100465 -1964 0
6 1 S106 873 101338 -1091 0
6 1 S106 851 102189 -240 0
6 2 S106 792 102981 552 0
6 2 S106 829 103810 1381 0
6 2 S106 845 104655 2226 0
6 2 S106 898 105553 3124 0
6 2 S106 880 106433 4004 0
6 2 S106 892 107325 4896 0
6 2 S106 882 108207 5778 0
6 2 S106 865 109072 6643 0
0 0 0 824 109896 -11847 0
0 0 0 765 110661 -11082 0
0 0 0 753 111414 -10329 0
0 0 0 781 112195 -9548 0
0 0 0 868 113063 -8680 0
0 0 0 843 113906 -7837 0
0 0 0 786 114692 -7051 0
0 0 0 819 115511 -6232 0
0 0 0 845 116356 -5387 0
0 0 0 840 117196 -4547 0
0 0 0 757 117953 -3790 0
0 0 0 772 118725 -3018 0
0 0 0 783 119508 -2235 0
7 1 S102 831 120339 -1404 0
7 1 S102 775 121114 -629 0
7 2 S102 767 121881 138 0
7 2 S102 810 122691 948 0
7 2 S102 855 123546 1803 0
7 2 S102 894 124440 2697 0
7 2 S102 835 125275 3532 0
7 2 S102 841 126116 4373 0
7 2 S102 872 126988 5245 0
7 2 S102 897 127885 6142 0
0 0 0 904 128789 -9051 0
0 0 0 811 129600 -8240 0
0 0 0 881 130481 -7359 0
0 0 0 901 131382 -6458 0
0 0 0 862 132244 -5596 0
0 0 0 824 133068 -4772 0
0 0 0 888 133956 -3884 0
0 0 0 922 134878 -2962 0
0 0 0 928 135806 -2034 0
8 1 S112 827 136633 -1207 0
8 1 S112 832 137465 -375 0
8 2 S112 823 138288 448 0
8 2 S112 852 139140 1300 0
8 2 S112 859 139999 2159 0
8 2 S112 874 140873 3033 0
8 2 S112 880 141753 3913 0
8 2 S112 879 142632 4792 0
8 2 S112 879 143511 5671 0
8 2 S112 875 144386 6546 0
0 0 0 791 145177 -8181 0
0 0 0 786 145963 -7395 0
0 0 0 816 146779 -6579 0
0 0 0 862 147641 -5717 0
0 0 0 831 148472 -4886 0
0 0 0 903 149375 -3983 0
0 0 0 894 150269 -3089 0
0 0 0 795 151064 -2294 0
9 1 S116 789 151853 -1505 0
9 1 S116 813 152666 -692 0
9 2 S116 840 153506 148 0
9 2 S116 851 154357 999 0
9 2 S116 786 155143 1785 0
9 2 S116 784 155927 2569 0
9 2 S116 820 156747 3389 0
9 2 S116 857 157604 4246 0
9 2 S116 884 158488 5130 0
9 2 S116 868 159356 5998 0
9 2 S116 853 160209 6851 0
0 0 0 771 160980 -10481 0
0 0 0 775 161755 -9706 0
0 0 0 798 162553 -8908 0
0 0 0 799 163352 -8109 0
0 0 0 805 164157 -7304 0
0 0 0 817 164974 -6487 0
0 0 0 835 165809 -5652 0
0 0 0 779 166588 -4873 0
0 0 0 756 167344 -4117 0
0 0 0 771 168115 -3346 0
0 0 0 794 168909 -2552 0
10 1 S102 820 169729 -1732 0
10 1 S102 823 170552 -909 0
10 1 S102 753 171305 -156 0
10 2 S102 761 172066 605 0
10 2 S102 794 172860 1399 0
10 2 S102 829 173689 2228 0
10 2 S102 867 174556 3095 0
10 2 S102 885 175441 3980 0
10 2 S102 781 176222 4761 0
10 2 S102 729 176951 5490 0
10 2 S102 700 177651 6190 0
10 2 S102 693 178344 6883 0
0 0 0 683 179027 -9444 0
0 0 0 691 179718 -8753 0
0 0 0 715 180433 -8038 0
0 0 0 723 181156 -7315 0
0 0 0 710 181866 -6605 0
0 0 0 665 182531 -5940 0
0 0 0 682 183213 -5258 0
0 0 0 694 183907 -4564 0
0 0 0 710 184617 -3854 0
0 0 0 724 185341 -3130 0
0 0 0 745 186086 -2385 0
11 1 S112 764 186850 -1621 0
11 1 S112 784 187634 -837 0
11 1 S112 785 188419 -52 0
11 2 S112 772 189191 720 0
11 2 S112 785 189976 1505 0
11 2 S112 816 190792 2321 0
11 2 S112 852 191644 3173 0
11 2 S112 886 192530 4059 0
11 2 S112 904 193434 4963 0
11 2 S112 926 194360 5889 0
11 2 S112 896 195256 6785 0
0 0 0 790 196046 -6815 0
0 0 0 738 196784 -6077 0
0 0 0 771 197555 -5306 0
0 0 0 823 198378 -4483 0
0 0 0 1083 199461 -3400 1
0 0 0 932 200393 -2468 0
12 1 S116 829 201222 -1639 0
12 1 S116 757 201979 -882 0
12 1 S116 729 202708 -153 0
12 2 S116 735 203443 582 0
12 2 S116 760 204203 1342 0
12 2 S116 770 204973 2112 0
12 2 S116 781 205754 2893 0
12 2 S116 777 206531 3670 0
12 2 S116 785 207316 4455 0
12 2 S116 795 208111 5250 0
12 2 S116 794 208905 6044 0
12 2 S116 769 209674 6813 0
0 0 0 725 210399 -10980 0
0 0 0 750 211149 -10230 0
0 0 0 773 211922 -9457 0
0 0 0 804 212726 -8653 0
0 0 0 773 213499 -7880 0
0 0 0 749 214248 -7131 0
0 0 0 780 215028 -6351 0
0 0 0 829 215857 -5522 0
0 0 0 891 216748 -4631 0
0 0 0 788 217536 -3843 0
0 0 0 828 218364 -3015 0
0 0 0 832 219196 -2183 0
13 1 S112 736 219932 -1447 0
13 1 S112 714 220646 -733 0
13 1 S112 691 221337 -42 0
13 2 S112 673 222010 631 0
13 2 S112 666 222676 1297 0
13 2 S112 692 223368 1989 0
13 2 S112 752 224120 2741 0
13 2 S112 808 224928 3549 0
13 2 S112 798 225726 4347 0
13 2 S112 739 226465 5086 0
13 2 S112 734 227199 5820 0
13 2 S112 741 227940 6561 0
0 0 0 720 228660 -12812 0
0 0 0 727 229387 -12085 0
0 0 0 733 230120 -11352 0
0 0 0 764 230884 -10588 0
0 0 0 831 231715 -9757 0
0 0 0 888 232603 -8869 0
0 0 0 848 233451 -8021 0
0 0 0 782 234233 -7239 0
0 0 0 736 234969 -6503 0
0 0 0 720 235689 -5783 0
0 0 0 701 236390 -5082 0
0 0 0 699 237089 -4383 0
0 0 0 736 237825 -3647 0
0 0 0 797 238622 -2850 0
14 1 S106 859 239481 -1991 0
14 1 S106 860 240341 -1131 0
14 1 S106 784 241125 -347 0
14 2 S106 794 241919 447 0
14 2 S106 801 242720 1248 0
14 2 S106 812 243532 2060 0
14 2 S106 798 244330 2858 0
14 2 S106 742 245072 3600 0
14 2 S106 757 245829 4357 0
14 2 S106 780 246609 5137 0
14 2 S106 829 247438 5966 0
14 2 S106 864 248302 6830 0
0 0 0 854 249156 -11232 0
0 0 0 784 249940 -10448 0
0 0 0 846 250786 -9602 0
0 0 0 876 251662 -8726 0
0 0 0 828 252490 -7898 0
0 0 0 747 253237 -7151 0
0 0 0 737 253974 -6414 0
0 0 0 715 254689 -5699 0
0 0 0 704 255393 -4995 0
0 0 0 727 256120 -4268 0
0 0 0 750 256870 -3518 0
0 0 0 774 257644 -2744 0
15 1 S116 783 258427 -1961 0
15 1 S116 752 259179 -1209 0
15 1 S116 802 259981 -407 0
15 2 S116 841 260822 434 0
15 2 S116 879 261701 1313 0
15 2 S116 850 262551 2163 0
15 2 S116 812 263363 2975 0
15 2 S116 839 264202 3814 0
15 2 S116 857 265059 4671 0
15 2 S116 873 265932 5544 0
15 2 S116 883 266815 6427 0
0 0 0 813 267628 -9471 0
0 0 0 763 268391 -8708 0
0 0 0 799 269190 -7909 0
0 0 0 863 270053 -7046 0
0 0 0 835 270888 -6211 0
0 0 0 764 271652 -5447 0
0 0 0 744 272396 -4703 0
0 0 0 758 273154 -3945 0
0 0 0 886 274040 -3059 0
0 0 0 850 274890 -2209 0
16 1 S116 856 275746 -1353 0
16 1 S116 823 276569 -530 0
16 2 S116 778 277347 248 0
16 2 S116 746 278093 994 0
16 2 S116 713 278806 1707 0
16 2 S116 692 279498 2399 0
16 2 S116 687 280185 3086 0
16 2 S116 690 280875 3776 0
16 2 S116 701 281576 4477 0
16 2 S116 691 282267 5168 0
16 2 S116 676 282943 5844 0
16 2 S116 711 283654 6555 0
0 0 0 747 284401 -9227 0
0 0 0 746 285147 -8481 0
0 0 0 732 285879 -7749 0
0 0 0 797 286676 -6952 0
0 0 0 857 287533 -6095 0
0 0 0 878 288411 -5217 0
0 0 0 778 289189 -4439 0
0 0 0 782 289971 -3657 0
0 0 0 768 290739 -2889 0
0 0 0 768 291507 -2121 0
17 1 S106 794 292301 -1327 0
17 1 S106 785 293086 -542 0
17 2 S106 727 293813 185 0
17 2 S106 755 294568 940 0
17 2 S106 776 295344 1716 0
17 2 S106 809 296153 2525 0
17 2 S106 798 296951 3323 0
17 2 S106 772 297723 4095 0
17 2 S106 791 298514 4886 0
17 2 S106 853 299367 5739 0
17 2 S106 910 300277 6649 0
0 0 0 945 301222 -11172 0
0 0 0 905 302127 -10267 0
0 0 0 888 303015 -9379 0
0 0 0 855 303870 -8524 0
0 0 0 840 304710 -7684 0
0 0 0 809 305519 -6875 0
0 0 0 807 306326 -6068 0
0 0 0 780 307106 -5288 0
0 0 0 731 307837 -4557 0
0 0 0 737 308574 -3820 0
0 0 0 771 309345 -3049 0
0 0 0 946 310291 -2103 0
18 1 S102 926 311217 -1177 0
18 1 S102 849 312066 -328 0
18 2 S102 910 312976 582 0
18 2 S102 964 313940 1546 0
18 2 S102 982 314922 2528 0
18 2 S102 867 315789 3395 0
18 2 S102 805 316594 4200 0
18 2 S102 823 317417 5023 0
18 2 S102 826 318243 5849 0
18 2 S102 845 319088 6694 0
0 0 0 847 319935 -8524 0
0 0 0 785 320720 -7739 0
0 0 0 728 321448 -7011 0
0 0 0 750 322198 -6261 0
0 0 0 787 322985 -5474 0
0 0 0 827 323812 -4647 0
0 0 0 817 324629 -3830 0
0 0 0 830 325459 -3000 0
0 0 0 773 326232 -2227 0
19 1 S106 776 327008 -1451 0
19 1 S106 783 327791 -668 0
19 2 S106 786 328577 118 0
19 2 S106 825 329402 943 0
19 2 S106 859 330261 1802 0
19 2 S106 890 331151 2692 0
19 2 S106 871 332022 3563 0
19 2 S106 821 332843 4384 0
19 2 S106 763 333606 5147 0
19 2 S106 773 334379 5920 0
19 2 S106 801 335180 6721 0
0 0 0 824 336004 -11420 0
0 0 0 780 336784 -10640 0
0 0 0 724 337508 -9916 0
0 0 0 740 338248 -9176 0
0 0 0 763 339011 -8413 0
0 0 0 768 339779 -7645 0
0 0 0 788 340567 -6857 0
0 0 0 794 341361 -6063 0
0 0 0 832 342193 -5231 0
0 0 0 843 343036 -4388 0
0 0 0 798 343834 -3590 0
0 0 0 798 344632 -2792 0
0 0 0 785 345417 -2007 0
20 1 S112 744 346161 -1263 0
20 1 S112 728 346889 -535 0
20 2 S112 699 347588 164 0
20 2 S112 701 348289 865 0
20 2 S112 730 349019 1595 0
20 2 S112 750 349769 2345 0
20 2 S112 796 350565 3141 0
20 2 S112 824 351389 3965 0
20 2 S112 761 352150 4726 0
20 2 S112 713 352863 5439 0
20 2 S112 699 353562 6138 0
20 2 S112 692 354254 6830 0
0 0 0 721 354975 -10172 0
0 0 0 754 355729 -9418 0
0 0 0 783 356512 -8635 0
0 0 0 878 357390 -7757 0
0 0 0 899 358289 -6858 0
0 0 0 808 359097 -6050 0
0 0 0 748 359845 -5302 0
0 0 0 756 360601 -4546 0
0 0 0 779 361380 -3767 0
0 0 0 797 362177 -2970 0
0 0 0 785 362962 -2185 0
21 1 S106 767 363729 -1418 0
21 1 S106 723 364452 -695 0
21 2 S106 700 365152 5 0
21 2 S106 679 365831 684 0
21 2 S106 689 366520 1373 0
21 2 S106 714 367234 2087 0
21 2 S106 748 367982 2835 0
21 2 S106 731 368713 3566 0
21 2 S106 733 369446 4299 0
21 2 S106 768 370214 5067 0
21 2 S106 826 371040 5893 0
21 2 S106 938 371978 6831 0
0 0 0 968 372946 -11962 0
0 0 0 926 373872 -11036 0
0 0 0 883 374755 -10153 0
0 0 0 803 375558 -9350 0
0 0 0 738 376296 -8612 0
0 0 0 755 377051 -7857 0
0 0 0 772 377823 -7085 0
0 0 0 803 378626 -6282 0
0 0 0 749 379375 -5533 0
0 0 0 789 380164 -4744 0
0 0 0 815 380979 -3929 0
0 0 0 921 381900 -3008 0
0 0 0 862 382762 -2146 0
22 1 S116 786 383548 -1360 0
22 1 S116 826 384374 -534 0
22 2 S116 849 385223 315 0
22 2 S116 863 386086 1178 0
22 2 S116 808 386894 1986 0
22 2 S116 776 387670 2762 0
22 2 S116 770 388440 3532 0
22 2 S116 740 389180 4272 0
22 2 S116 756 389936 5028 0
22 2 S116 769 390705 5797 0
22 2 S116 772 391477 6569 0
0 0 0 752 392229 -9390 0
0 0 0 786 393015 -8604 0
0 0 0 777 393792 -7827 0
0 0 0 799 394591 -7028 0
0 0 0 789 395380 -6239 0
0 0 0 750 396130 -5489 0
0 0 0 721 396851 -4768 0
0 0 0 737 397588 -4031 0
0 0 0 758 398346 -3273 0
0 0 0 736 399082 -2537 0
23 1 S112 745 399827 -1792 0
23 1 S112 786 400613 -1006 0
23 1 S112 828 401441 -178 0
23 2 S112 840 402281 662 0
23 2 S112 782 403063 1444 0
23 2 S112 822 403885 2266 0
23 2 S112 854 404739 3120 0
23 2 S112 911 405650 4031 0
23 2 S112 896 406546 4927 0
23 2 S112 897 407443 5824 0
23 2 S112 878 408321 6702 0
0 0 0 852 409173 -9655 0
0 0 0 752 409925 -8903 0
0 0 0 773 410698 -8130 0
0 0 0 809 411507 -7321 0
0 0 0 825 412332 -6496 0
0 0 0 767 413099 -5729 0
0 0 0 749 413848 -4980 0
0 0 0 721 414569 -4259 0
0 0 0 719 415288 -3540 0
0 0 0 753 416041 -2787 0
24 1 S106 797 416838 -1990 0
24 1 S106 798 417636 -1192 0
24 1 S106 756 418392 -436 0
24 2 S106 716 419108 280 0
24 2 S106 690 419798 970 0
24 2 S106 717 420515 1687 0
24 2 S106 707 421222 2394 0
24 2 S106 712 421934 3106 0
24 2 S106 713 422647 3819 0
24 2 S106 724 423371 4543 0
24 2 S106 717 424088 5260 0
24 2 S106 709 424797 5969 0
24 2 S106 688 425485 6657 0
0 0 0 676 426161 -9975 0
0 0 0 692 426853 -9283 0
0 0 0 679 427532 -8604 0
0 0 0 693 428225 -7911 0
0 0 0 749 428974 -7162 0
0 0 0 768 429742 -6394 0
0 0 0 736 430478 -5658 0
0 0 0 699 431177 -4959 0
0 0 0 696 431873 -4263 0
0 0 0 672 432545 -3591 0
0 0 0 651 433196 -2940 0
0 0 0 649 433845 -2291 0
25 1 S102 653 434498 -1638 0
25 1 S102 656 435154 -982 0
25 1 S102 659 435813 -323 0
25 2 S102 661 436474 338 0
25 2 S102 658 437132 996 0
25 2 S102 656 437788 1652 0
25 2 S102 678 438466 2330 0
25 2 S102 711 439177 3041 0
25 2 S102 750 439927 3791 0
25 2 S102 726 440653 4517 0
25 2 S102 702 441355 5219 0
25 2 S102 687 442042 5906 0
25 2 S102 668 442710 6574 0
0 0 0 666 443376 -7630 0
0 0 0 682 444058 -6948 0
0 0 0 694 444752 -6254 0
0 0 0 710 445462 -5544 0
0 0 0 715 446177 -4829 0
0 0 0 762 446939 -4067 0
0 0 0 815 447754 -3252 0
0 0 0 871 448625 -2381 0
26 1 S116 894 449519 -1487 0
26 1 S116 812 450331 -675 0
26 2 S116 854 451185 179 0
26 2 S116 880 452065 1059 0
26 2 S116 852 452917 1911 0
26 2 S116 877 453794 2788 0
26 2 S116 851 454645 3639 0
26 2 S116 792 455437 4431 0
26 2 S116 804 456241 5235 0
26 2 S116 840 457081 6075 0
26 2 S116 946 458027 7021 0
0 0 0 969 458996 -6997 0
0 0 0 879 459875 -6118 0
0 0 0 811 460686 -5307 0
0 0 0 822 461508 -4485 0
0 0 0 831 462339 -3654 0
0 0 0 822 463161 -2832 0
0 0 0 781 463942 -2051 0
27 1 S106 730 464672 -1321 0
27 1 S106 714 465386 -607 0
27 2 S106 698 466084 91 0
27 2 S106 689 466773 780 0
27 2 S106 716 467489 1496 0
27 2 S106 772 468261 2268 0
27 2 S106 876 469137 3144 0
27 2 S106 896 470033 4040 0
27 2 S106 855 470888 4895 0
27 2 S106 773 471661 5668 0
27 2 S106 762 472423 6430 0
0 0 0 781 473204 -8373 0
0 0 0 839 474043 -7534 0
0 0 0 879 474922 -6655 0
0 0 0 869 475791 -5786 0
0 0 0 836 476627 -4950 0
0 0 0 850 477477 -4100 0
0 0 0 833 478310 -3267 0
0 0 0 824 479134 -2443 0
28 1 S102 793 479927 -1650 0
28 1 S102 809 480736 -841 0
28 1 S102 788 481524 -53 0
28 2 S102 741 482265 688 0
28 2 S102 718 482983 1406 0
28 2 S102 747 483730 2153 0
28 2 S102 798 484528 2951 0
28 2 S102 886 485414 3837 0
28 2 S102 784 486198 4621 0
28 2 S102 803 487001 5424 0
28 2 S102 847 487848 6271 0
0 0 0 928 488776 -11518 0
0 0 0 907 489683 -10611 0
0 0 0 819 490502 -9792 0
0 0 0 860 491362 -8932 0
0 0 0 841 492203 -8091 0
0 0 0 805 493008 -7286 0
0 0 0 751 493759 -6535 0
0 0 0 753 494512 -5782 0
0 0 0 760 495272 -5022 0
0 0 0 805 496077 -4217 0
0 0 0 829 496906 -3388 0
0 0 0 826 497732 -2562 0
29 1 S112 769 498501 -1793 0
29 1 S112 744 499245 -1049 0
29 1 S112 744 499989 -305 0
29 2 S112 788 500777 483 0
29 2 S112 877 501654 1360 0
29 2 S112 939 502593 2299 0
29 2 S112 921 503514 3220 0
29 2 S112 845 504359 4065 0
29 2 S112 833 505192 4898 0
29 2 S112 864 506056 5762 0
29 2 S112 890 506946 6652 0
0 0 0 889 507835 -8076 0
0 0 0 862 508697 -7214 0
0 0 0 791 509488 -6423 0
0 0 0 785 510273 -5638 0
0 0 0 804 511077 -4834 0
0 0 0 775 511852 -4059 0
0 0 0 724 512576 -3335 0
0 0 0 726 513302 -2609 0
30 1 S112 743 514045 -1866 0
30 1 S112 751 514796 -1115 0
30 1 S112 744 515540 -371 0
30 2 S112 749 516289 378 0
30 2 S112 777 517066 1155 0
30 2 S112 823 517889 1978 0
30 2 S112 851 518740 2829 0
30 2 S112 853 519593 3682 0
30 2 S112 790 520383 4472 0
30 2 S112 752 521135 5224 0
30 2 S112 759 521894 5983 0
30 2 S112 778 522672 6761 0
0 0 0 817 523489 -9000 0
0 0 0 822 524311 -8178 0
0 0 0 786 525097 -7392 0
0 0 0 765 525862 -6627 0
0 0 0 777 526639 -5850 0
0 0 0 748 527387 -5102 0
0 0 0 736 528123 -4366 0
0 0 0 710 528833 -3656 0
0 0 0 711 529544 -2945 0
0 0 0 735 530279 -2210 0
31 1 S106 715 530994 -1495 0
31 1 S106 729 531723 -766 0
31 2 S106 792 532515 26 0
31 2 S106 849 533364 875 0
31 2 S106 870 534234 1745 0
31 2 S106 853 535087 2598 0
31 2 S106 767 535854 3365 0
31 2 S106 776 536630 4141 0
31 2 S106 794 537424 4935 0
31 2 S106 834 538258 5769 0
31 2 S106 840 539098 6609 0
0 0 0 763 539861 -9389 0
0 0 0 796 540657 -8593 0
0 0 0 832 541489 -7761 0
0 0 0 941 542430 -6820 0
0 0 0 835 543265 -5985 0
0 0 0 799 544064 -5186 0
0 0 0 843 544907 -4343 0
0 0 0 904 545811 -3439 0
0 0 0 1010 546821 -2429 1
32 1 S102 959 547780 -1470 0
32 1 S102 840 548620 -630 0
32 2 S102 796 549416 166 0
32 2 S102 813 550229 979 0
32 2 S102 867 551096 1846 0
32 2 S102 890 551986 2736 0
32 2 S102 900 552886 3636 0
32 2 S102 828 553714 4464 0
32 2 S102 775 554489 5239 0
32 2 S102 745 555234 5984 0
32 2 S102 755 555989 6739 0
0 0 0 796 556785 -11580 0
0 0 0 891 557676 -10689 0
0 0 0 926 558602 -9763 0
0 0 0 973 559575 -8790 0
0 0 0 878 560453 -7912 0
0 0 0 765 561218 -7147 0
0 0 0 768 561986 -6379 0
0 0 0 763 562749 -5616 0
0 0 0 780 563529 -4836 0
0 0 0 777 564306 -4059 0
0 0 0 717 565023 -3342 0
0 0 0 732 565755 -2610 0
33 1 S112 741 566496 -1869 0
33 1 S112 778 567274 -1091 0
33 1 S112 830 568104 -261 0
33 2 S112 760 568864 499 0
33 2 S112 747 569611 1246 0
33 2 S112 786 570397 2032 0
33 2 S112 840 571237 2872 0
33 2 S112 978 572215 3850 0
33 2 S112 967 573182 4817 0
33 2 S112 946 574128 5763 0
33 2 S112 917 575045 6680 0
0 0 0 895 575940 -12286 0
0 0 0 871 576811 -11415 0
0 0 0 794 577605 -10621 0
0 0 0 756 578361 -9865 0
0 0 0 708 579069 -9157 0
0 0 0 726 579795 -8431 0
0 0 0 742 580537 -7689 0
0 0 0 887 581424 -6802 0
0 0 0 1099 582523 -5703 1
0 0 0 1096 583619 -4607 1
0 0 0 965 584584 -3642 0
0 0 0 804 585388 -2838 0
0 0 0 754 586142 -2084 0
34 1 S106 713 586855 -1371 0
34 1 S106 704 587559 -667 0
34 2 S106 714 588273 47 0
34 2 S106 725 588998 772 0
34 2 S106 711 589709 1483 0
34 2 S106 688 590397 2171 0
34 2 S106 707 591104 2878 0
34 2 S106 731 591835 3609 0
34 2 S106 756 592591 4365 0
34 2 S106 779 593370 5144 0
34 2 S106 751 594121 5895 0
34 2 S106 709 594830 6604 0
0 0 0 711 595541 -9313 0
0 0 0 729 596270 -8584 0
0 0 0 787 597057 -7797 0
0 0 0 908 597965 -6889 0
0 0 0 838 598803 -6051 0
0 0 0 776 599579 -5275 0
0 0 0 747 600326 -4528 0
0 0 0 757 601083 -3771 0
0 0 0 719 601802 -3052 0
0 0 0 734 602536 -2318 0
35 1 S102 749 603285 -1569 0
35 1 S102 778 604063 -791 0
35 1 S102 728 604791 -63 0
35 2 S102 736 605527 673 0
35 2 S102 706 606233 1379 0
35 2 S102 703 606936 2082 0
35 2 S102 691 607627 2773 0
35 2 S102 674 608301 3447 0
35 2 S102 677 608978 4124 0
35 2 S102 698 609676 4822 0
35 2 S102 707 610383 5529 0
35 2 S102 683 611066 6212 0
35 2 S102 706 611772 6918 0
0 0 0 733 612505 -7369 0
0 0 0 772 613277 -6597 0
0 0 0 782 614059 -5815 0
0 0 0 733 614792 -5082 0
0 0 0 730 615522 -4352 0
0 0 0 698 616220 -3654 0
0 0 0 692 616912 -2962 0
0 0 0 707 617619 -2255 0
36 1 S106 710 618329 -1545 0
36 1 S106 715 619044 -830 0
36 1 S106 693 619737 -137 0
36 2 S106 677 620414 540 0
36 2 S106 679 621093 1219 0
36 2 S106 706 621799 1925 0
36 2 S106 744 622543 2669 0
36 2 S106 765 623308 3434 0
36 2 S106 771 624079 4205 0
36 2 S106 777 624856 4982 0
36 2 S106 787 625643 5769 0
36 2 S106 797 626440 6566 0
0 0 0 813 627253 -10061 0
0 0 0 824 628077 -9237 0
0 0 0 835 628912 -8402 0
0 0 0 860 629772 -7542 0
0 0 0 853 630625 -6689 0
0 0 0 809 631434 -5880 0
0 0 0 758 632192 -5122 0
0 0 0 717 632909 -4405 0
0 0 0 737 633646 -3668 0
0 0 0 725 634371 -2943 0
0 0 0 705 635076 -2238 0
37 1 S116 730 635806 -1508 0
37 1 S116 781 636587 -727 0
37 2 S116 846 637433 119 0
37 2 S116 802 638235 921 0
37 2 S116 789 639024 1710 0
37 2 S116 781 639805 2491 0
37 2 S116 760 640565 3251 0
37 2 S116 777 641342 4028 0
37 2 S116 779 642121 4807 0
37 2 S116 743 642864 5550 0
37 2 S116 717 643581 6267 0
37 2 S116 736 644317 7003 0
0 0 0 773 645090 -10096 0
0 0 0 816 645906 -9280 0
0 0 0 844 646750 -8436 0
0 0 0 818 647568 -7618 0
0 0 0 767 648335 -6851 0
0 0 0 805 649140 -6046 0
0 0 0 833 649973 -5213 0
0 0 0 850 650823 -4363 0
0 0 0 853 651676 -3510 0
0 0 0 867 652543 -2643 0
38 1 S102 837 653380 -1806 0
38 1 S102 760 654140 -1046 0
38 1 S102 764 654904 -282 0
38 2 S102 788 655692 506 0
38 2 S102 857 656549 1363 0
38 2 S102 900 657449 2263 0
38 2 S102 872 658321 3135 0
38 2 S102 817 659138 3952 0
38 2 S102 832 659970 4784 0
38 2 S102 851 660821 5635 0
38 2 S102 891 661712 6526 0
0 0 0 865 662577 -9784 0
0 0 0 855 663432 -8929 0
0 0 0 776 664208 -8153 0
0 0 0 777 664985 -7376 0
0 0 0 785 665770 -6591 0
0 0 0 776 666546 -5815 0
0 0 0 776 667322 -5039 0
0 0 0 770 668092 -4269 0
0 0 0 769 668861 -3500 0
0 0 0 720 669581 -2780 0
0 0 0 695 670276 -2085 0
39 1 S116 684 670960 -1401 0
39 1 S116 690 671650 -711 0
39 1 S116 673 672323 -38 0
39 2 S116 671 672994 633 0
39 2 S116 688 673682 1321 0
39 2 S116 725 674407 2046 0
39 2 S116 789 675196 2835 0
39 2 S116 829 676025 3664 0
39 2 S116 806 676831 4470 0
39 2 S116 760 677591 5230 0
39 2 S116 773 678364 6003 0
39 2 S116 776 679140 6779 0
0 0 0 735 679875 -6860 0
0 0 0 720 680595 -6140 0
0 0 0 697 681292 -5443 0
0 0 0 718 682010 -4725 0
0 0 0 719 682729 -4006 0
0 0 0 712 683441 -3294 0
0 0 0 679 684120 -2615 0
40 1 S112 690 684810 -1925 0
40 1 S112 698 685508 -1227 0
40 1 S112 687 686195 -540 0
40 2 S112 699 686894 159 0
40 2 S112 726 687620 885 0
40 2 S112 770 688390 1655 0
40 2 S112 777 689167 2432 0
40 2 S112 728 689895 3160 0
40 2 S112 754 690649 3914 0
40 2 S112 769 691418 4683 0
40 2 S112 771 692189 5454 0
40 2 S112 738 692927 6192 0
40 2 S112 731 693658 6923 0
0 0 0 771 694429 -188097 0
0 0 0 805 695234 -187292 0
0 0 0 844 696078 -186448 0
0 0 0 792 696870 -185656 0
0 0 0 864 697734 -184792 0
0 0 0 876 698610 -183916 0
0 0 0 873 699483 -183043 0
0 0 0 777 700260 -182266 0
0 0 0 738 700998 -181528 0
0 0 0 710 701708 -180818 0
0 0 0 699 702407 -180119 0
0 0 0 710 703117 -179409 0
0 0 0 713 703830 -178696 0
0 0 0 698 704528 -177998 0
0 0 0 686 705214 -177312 0
0 0 0 669 705883 -176643 0
0 0 0 653 706536 -175990 0
0 0 0 655 707191 -175335 0
0 0 0 649 707840 -174686 0
0 0 0 662 708502 -174024 0
0 0 0 674 709176 -173350 0
0 0 0 664 709840 -172686 0
0 0 0 666 710506 -172020 0
0 0 0 664 711170 -171356 0
0 0 0 655 711825 -170701 0
0 0 0 647 712472 -170054 0
0 0 0 640 713112 -169414 0
0 0 0 630 713742 -168784 0
0 0 0 618 714360 -168166 0
0 0 0 607 714967 -167559 1
0 0 0 598 715565 -166961 1
0 0 0 592 716157 -166369 1
0 0 0 588 716745 -165781 1
0 0 0 589 717334 -165192 1
0 0 0 594 717928 -164598 1
0 0 0 613 718541 -163985 0
0 0 0 659 719200 -163326 0
0 0 0 737 719937 -162589 0
0 0 0 827 720764 -161762 0
0 0 0 956 721720 -160806 0
0 0 0 967 722687 -159839 0
0 0 0 907 723594 -158932 0
0 0 0 844 724438 -158088 0
0 0 0 883 725321 -157205 0
0 0 0 951 726272 -156254 0
0 0 0 1033 727305 -155221 1
0 0 0 1046 728351 -154175 1
0 0 0 961 729312 -153214 0
0 0 0 881 730193 -152333 0
0 0 0 833 731026 -151500 0
0 0 0 816 731842 -150684 0
0 0 0 786 732628 -149898 0
0 0 0 772 733400 -149126 0
0 0 0 713 734113 -148413 0
0 0 0 683 734796 -147730 0
0 0 0 688 735484 -147042 0
0 0 0 724 736208 -146318 0
0 0 0 808 737016 -145510 0
0 0 0 847 737863 -144663 0
0 0 0 867 738730 -143796 0
0 0 0 866 739596 -142930 0
0 0 0 769 740365 -142161 0
0 0 0 718 741083 -141443 0
0 0 0 696 741779 -140747 0
0 0 0 701 742480 -140046 0
0 0 0 720 743200 -139326 0
0 0 0 757 743957 -138569 0
0 0 0 781 744738 -137788 0
0 0 0 778 745516 -137010 0
0 0 0 771 746287 -136239 0
0 0 0 744 747031 -135495 0
0 0 0 722 747753 -134773 0
0 0 0 704 748457 -134069 0
0 0 0 683 749140 -133386 0
0 0 0 689 749829 -132697 0
0 0 0 717 750546 -131980 0
0 0 0 714 751260 -131266 0
0 0 0 695 751955 -130571 0
0 0 0 726 752681 -129845 0
0 0 0 781 753462 -129064 0
0 0 0 972 754434 -128092 0
0 0 0 942 755376 -127150 0
0 0 0 818 756194 -126332 0
0 0 0 848 757042 -125484 0
0 0 0 889 757931 -124595 0
0 0 0 870 758801 -123725 0
0 0 0 767 759568 -122958 0
0 0 0 790 760358 -122168 0
0 0 0 810 761168 -121358 0
0 0 0 867 762035 -120491 0
0 0 0 868 762903 -119623 0
0 0 0 823 763726 -118800 0
0 0 0 758 764484 -118042 0
0 0 0 774 765258 -117268 0
0 0 0 803 766061 -116465 0
0 0 0 887 766948 -115578 0
0 0 0 893 767841 -114685 0
0 0 0 814 768655 -113871 0
0 0 0 841 769496 -113030 0
0 0 0 862 770358 -112168 0
0 0 0 875 771233 -111293 0
0 0 0 806 772039 -110487 0
0 0 0 747 772786 -109740 0
0 0 0 764 773550 -108976 0
0 0 0 777 774327 -108199 0
0 0 0 801 775128 -107398 0
0 0 0 807 775935 -106591 0
0 0 0 753 776688 -105838 0
0 0 0 725 777413 -105113 0
0 0 0 720 778133 -104393 0
0 0 0 754 778887 -103639 0
0 0 0 849 779736 -102790 0
0 0 0 899 780635 -101891 0
0 0 0 902 781537 -100989 0
0 0 0 883 782420 -100106 0
0 0 0 864 783284 -99242 0
0 0 0 826 784110 -98416 0
0 0 0 760 784870 -97656 0
0 0 0 769 785639 -96887 0
0 0 0 774 786413 -96113 0
0 0 0 786 787199 -95327 0
0 0 0 775 787974 -94552 0
0 0 0 743 788717 -93809 0
0 0 0 730 789447 -93079 0
0 0 0 758 790205 -92321 0
0 0 0 839 791044 -91482 0
0 0 0 917 791961 -90565 0
0 0 0 918 792879 -89647 0
0 0 0 829 793708 -88818 0
0 0 0 841 794549 -87977 0
0 0 0 846 795395 -87131 0
0 0 0 892 796287 -86239 0
0 0 0 848 797135 -85391 0
0 0 0 790 797925 -84601 0
0 0 0 840 798765 -83761 0
0 0 0 887 799652 -82874 0
0 0 0 953 800605 -81921 0
0 0 0 926 801531 -80995 0
0 0 0 813 802344 -80182 0
0 0 0 817 803161 -79365 0
0 0 0 838 803999 -78527 0
0 0 0 884 804883 -77643 0
0 0 0 873 805756 -76770 0
0 0 0 817 806573 -75953 0
0 0 0 798 807371 -75155 0
0 0 0 847 808218 -74308 0
0 0 0 928 809146 -73380 0
0 0 0 963 810109 -72417 0
0 0 0 871 810980 -71546 0
0 0 0 838 811818 -70708 0
0 0 0 868 812686 -69840 0
0 0 0 906 813592 -68934 0
0 0 0 870 814462 -68064 0
0 0 0 845 815307 -67219 0
0 0 0 768 816075 -66451 0
0 0 0 762 816837 -65689 0
0 0 0 791 817628 -64898 0
0 0 0 839 818467 -64059 0
0 0 0 878 819345 -63181 0
0 0 0 856 820201 -62325 0
0 0 0 793 820994 -61532 0
0 0 0 775 821769 -60757 0
0 0 0 764 822533 -59993 0
0 0 0 814 823347 -59179 0
0 0 0 789 824136 -58390 0
0 0 0 787 824923 -57603 0
0 0 0 829 825752 -56774 0
0 0 0 821 826573 -55953 0
0 0 0 754 827327 -55199 0
0 0 0 706 828033 -54493 0
0 0 0 701 828734 -53792 0
0 0 0 695 829429 -53097 0
0 0 0 718 830147 -52379 0
0 0 0 758 830905 -51621 0
0 0 0 856 831761 -50765 0
0 0 0 854 832615 -49911 0
0 0 0 849 833464 -49062 0
0 0 0 774 834238 -48288 0
0 0 0 745 834983 -47543 0
0 0 0 747 835730 -46796 0
0 0 0 740 836470 -46056 0
0 0 0 709 837179 -45347 0
0 0 0 700 837879 -44647 0
0 0 0 731 838610 -43916 0
0 0 0 801 839411 -43115 0
0 0 0 827 840238 -42288 0
0 0 0 729 840967 -41559 0
0 0 0 716 841683 -40843 0
0 0 0 708 842391 -40135 0
0 0 0 744 843135 -39391 0
0 0 0 790 843925 -38601 0
0 0 0 875 844800 -37726 0
0 0 0 932 845732 -36794 0
0 0 0 934 846666 -35860 0
0 0 0 895 847561 -34965 0
0 0 0 907 848468 -34058 0
0 0 0 861 849329 -33197 0
0 0 0 761 850090 -32436 0
0 0 0 761 850851 -31675 0
0 0 0 774 851625 -30901 0
0 0 0 828 852453 -30073 0
0 0 0 886 853339 -29187 0
0 0 0 852 854191 -28335 0
0 0 0 936 855127 -27399 0
0 0 0 1012 856139 -26387 1
0 0 0 1068 857207 -25319 1
0 0 0 977 858184 -24342 0
0 0 0 904 859088 -23438 0
0 0 0 919 860007 -22519 0
0 0 0 946 860953 -21573 0
0 0 0 954 861907 -20619 0
0 0 0 924 862831 -19695 0
0 0 0 846 863677 -18849 0
0 0 0 855 864532 -17994 0
0 0 0 891 865423 -17103 0
0 0 0 878 866301 -16225 0
0 0 0 814 867115 -15411 0
0 0 0 734 867849 -14677 0
0 0 0 718 868567 -13959 0
0 0 0 691 869258 -13268 0
0 0 0 709 869967 -12559 0
0 0 0 772 870739 -11787 0
0 0 0 800 871539 -10987 0
0 0 0 818 872357 -10169 0
0 0 0 752 873109 -9417 0
0 0 0 740 873849 -8677 0
0 0 0 770 874619 -7907 0
0 0 0 822 875441 -7085 0
0 0 0 860 876301 -6225 0
0 0 0 781 877082 -5444 0
0 0 0 799 877881 -4645 0
0 0 0 865 878746 -3780 0
0 0 0 884 879630 -2896 0
0 0 0 825 880455 -2071 0
41 1 S102 785 881240 -1286 0
41 1 S102 834 882074 -452 0
41 2 S102 870 882944 418 0
41 2 S102 901 883845 1319 0
41 2 S102 878 884723 2197 0
41 2 S102 797 885520 2994 0
41 2 S102 720 886240 3714 0
41 2 S102 710 886950 4424 0
41 2 S102 684 887634 5108 0
41 2 S102 727 888361 5835 0
41 2 S102 726 889087 6561 0
0 0 0 703 889790 -6264 0
0 0 0 675 890465 -5589 0
0 0 0 680 891145 -4909 0
0 0 0 680 891825 -4229 0
0 0 0 686 892511 -3543 0
0 0 0 698 893209 -2845 0
0 0 0 708 893917 -2137 0
42 1 S112 707 894624 -1430 0
42 1 S112 691 895315 -739 0
42 1 S112 673 895988 -66 0
42 2 S112 680 896668 614 0
42 2 S112 689 897357 1303 0
42 2 S112 670 898027 1973 0
42 2 S112 688 898715 2661 0
42 2 S112 751 899466 3412 0
42 2 S112 859 900325 4271 0
42 2 S112 927 901252 5198 0
42 2 S112 842 902094 6040 0
42 2 S112 825 902919 6865 0
0 0 0 854 903773 -8859 0
0 0 0 869 904642 -7990 0
0 0 0 794 905436 -7196 0
0 0 0 813 906249 -6383 0
0 0 0 850 907099 -5533 0
0 0 0 866 907965 -4667 0
0 0 0 869 908834 -3798 0
0 0 0 833 909667 -2965 0
0 0 0 752 910419 -2213 0
43 1 S116 780 911199 -1433 0
43 1 S116 804 912003 -629 0
43 2 S116 904 912907 275 0
43 2 S116 911 913818 1186 0
43 2 S116 834 914652 2020 0
43 2 S116 883 915535 2903 0
43 2 S116 928 916463 3831 0
43 2 S116 968 917431 4799 0
43 2 S116 973 918404 5772 0
43 2 S116 932 919336 6704 0
0 0 0 880 920216 -7171 0
0 0 0 779 920995 -6392 0
0 0 0 833 921828 -5559 0
0 0 0 860 922688 -4699 0
0 0 0 837 923525 -3862 0
0 0 0 787 924312 -3075 0
0 0 0 745 925057 -2330 0
44 1 S102 786 925843 -1544 0
44 1 S102 796 926639 -748 0
44 1 S102 741 927380 -7 0
44 2 S102 734 928114 727 0
44 2 S102 776 928890 1503 0
44 2 S102 824 929714 2327 0
44 2 S102 865 930579 3192 0
44 2 S102 767 931346 3959 0
44 2 S102 790 932136 4749 0
44 2 S102 817 932953 5566 0
44 2 S102 869 933822 6435 0
0 0 0 900 934722 -10172 0
0 0 0 804 935526 -9368 0
0 0 0 806 936332 -8562 0
0 0 0 843 937175 -7719 0
0 0 0 886 938061 -6833 0
0 0 0 867 938928 -5966 0
0 0 0 795 939723 -5171 0
0 0 0 876 940599 -4295 0
0 0 0 941 941540 -3354 0
0 0 0 940 942480 -2414 0
45 1 S116 842 943322 -1572 0
45 1 S116 884 944206 -688 0
45 2 S116 908 945114 220 0
45 2 S116 907 946021 1127 0
45 2 S116 905 946926 2032 0
45 2 S116 862 947788 2894 0
45 2 S116 812 948600 3706 0
45 2 S116 753 949353 4459 0
45 2 S116 798 950151 5257 0
45 2 S116 830 950981 6087 0
45 2 S116 896 951877 6983 0
0 0 0 841 952718 -11622 0
0 0 0 874 953592 -10748 0
0 0 0 925 954517 -9823 0
0 0 0 904 955421 -8919 0
0 0 0 837 956258 -8082 0
0 0 0 885 957143 -7197 0
0 0 0 889 958032 -6308 0
0 0 0 894 958926 -5414 0
0 0 0 860 959786 -4554 0
0 0 0 776 960562 -3778 0
0 0 0 791 961353 -2987 0
0 0 0 809 962162 -2178 0
46 1 S102 846 963008 -1332 0
46 1 S102 779 963787 -553 0
46 2 S102 777 964564 224 0
46 2 S102 831 965395 1055 0
46 2 S102 910 966305 1965 0
46 2 S102 934 967239 2899 0
46 2 S102 870 968109 3769 0
46 2 S102 890 968999 4659 0
46 2 S102 903 969902 5562 0
46 2 S102 879 970781 6441 0
0 0 0 884 971665 -9170 0
0 0 0 797 972462 -8373 0
0 0 0 796 973258 -7577 0
0 0 0 826 974084 -6751 0
0 0 0 802 974886 -5949 0
0 0 0 797 975683 -5152 0
0 0 0 748 976431 -4404 0
0 0 0 730 977161 -3674 0
0 0 0 760 977921 -2914 0
0 0 0 728 978649 -2186 0
47 1 S112 742 979391 -1444 0
47 1 S112 772 980163 -672 0
47 2 S112 815 980978 143 0
47 2 S112 840 981818 983 0
47 2 S112 782 982600 1765 0
47 2 S112 816 983416 2581 0
47 2 S112 897 984313 3478 0
47 2 S112 954 985267 4432 0
47 2 S112 971 986238 5403 0
47 2 S112 891 987129 6294 0
0 0 0 863 987992 -12572 0
0 0 0 865 988857 -11707 0
0 0 0 849 989706 -10858 0
0 0 0 834 990540 -10024 0
0 0 0 840 991380 -9184 0
0 0 0 796 992176 -8388 0
0 0 0 728 992904 -7660 0
0 0 0 738 993642 -6922 0
0 0 0 766 994408 -6156 0
0 0 0 841 995249 -5315 0
0 0 0 847 996096 -4468 0
0 0 0 775 996871 -3693 0
0 0 0 810 997681 -2883 0
0 0 0 854 998535 -2029 0
48 1 S116 943 999478 -1086 0
48 1 S116 909 1000387 -177 0
48 2 S116 766 1001153 589 0
48 2 S116 784 1001937 1373 0
48 2 S116 798 1002735 2171 0
48 2 S116 847 1003582 3018 0
48 2 S116 878 1004460 3896 0
48 2 S116 883 1005343 4779 0
48 2 S116 879 1006222 5658 0
48 2 S116 842 1007064 6500 0
0 0 0 764 1007828 -9049 0
0 0 0 746 1008574 -8303 0
0 0 0 762 1009336 -7541 0
0 0 0 799 1010135 -6742 0
0 0 0 860 1010995 -5882 0
0 0 0 925 1011920 -4957 0
0 0 0 835 1012755 -4122 0
0 0 0 780 1013535 -3342 0
0 0 0 780 1014315 -2562 0
49 1 S112 757 1015072 -1805 0
49 1 S112 729 1015801 -1076 0
49 1 S112 722 1016523 -354 0
49 2 S112 750 1017273 396 0
49 2 S112 727 1018000 1123 0
49 2 S112 713 1018713 1836 0
49 2 S112 747 1019460 2583 0
49 2 S112 790 1020250 3373 0
49 2 S112 842 1021092 4215 0
49 2 S112 794 1021886 5009 0
49 2 S112 757 1022643 5766 0
49 2 S112 805 1023448 6571 0
0 0 0 831 1024279 -13205 0
0 0 0 859 1025138 -12346 0
0 0 0 781 1025919 -11565 0
0 0 0 803 1026722 -10762 0
0 0 0 836 1027558 -9926 0
0 0 0 889 1028447 -9037 0
0 0 0 903 1029350 -8134 0
0 0 0 843 1030193 -7291 0
0 0 0 771 1030964 -6520 0
0 0 0 802 1031766 -5718 0
0 0 0 819 1032585 -4899 0
0 0 0 852 1033437 -4047 0
0 0 0 803 1034240 -3244 0
0 0 0 756 1034996 -2488 0
50 1 S106 775 1035771 -1713 0
50 1 S106 804 1036575 -909 0
50 1 S106 847 1037422 -62 0
50 2 S106 847 1038269 785 0
50 2 S106 845 1039114 1630 0
50 2 S106 779 1039893 2409 0
50 2 S106 760 1040653 3169 0
50 2 S106 773 1041426 3942 0
50 2 S106 811 1042237 4753 0
50 2 S106 849 1043086 5602 0
50 2 S106 861 1043947 6463 0
0 0 0 841 1044788 -7732 0
0 0 0 795 1045583 -6937 0
0 0 0 784 1046367 -6153 0
0 0 0 822 1047189 -5331 0
0 0 0 859 1048048 -4472 0
0 0 0 827 1048875 -3645 0
0 0 0 771 1049646 -2874 0
0 0 0 729 1050375 -2145 0
51 1 S112 721 1051096 -1424 0
51 1 S112 726 1051822 -698 0
51 2 S112 761 1052583 63 0
51 2 S112 792 1053375 855 0
51 2 S112 828 1054203 1683 0
51 2 S112 823 1055026 2506 0
51 2 S112 785 1055811 3291 0
51 2 S112 768 1056579 4059 0
51 2 S112 787 1057366 4846 0
51 2 S112 805 1058171 5651 0
51 2 S112 823 1058994 6474 0
0 0 0 829 1059823 -7104 0
0 0 0 806 1060629 -6298 0
0 0 0 768 1061397 -5530 0
0 0 0 769 1062166 -4761 0
0 0 0 743 1062909 -4018 0
0 0 0 713 1063622 -3305 0
0 0 0 712 1064334 -2593 0
52 1 S116 737 1065071 -1856 0
52 1 S116 733 1065804 -1123 0
52 1 S116 738 1066542 -385 0
52 2 S116 692 1067234 307 0
52 2 S116 709 1067943 1016 0
52 2 S116 748 1068691 1764 0
52 2 S116 814 1069505 2578 0
52 2 S116 840 1070345 3418 0
52 2 S116 762 1071107 4180 0
52 2 S116 769 1071876 4949 0
52 2 S116 779 1072655 5728 0
52 2 S116 799 1073454 6527 0
0 0 0 760 1074214 -9175 0
0 0 0 721 1074935 -8454 0
0 0 0 763 1075698 -7691 0
0 0 0 816 1076514 -6875 0
0 0 0 825 1077339 -6050 0
0 0 0 776 1078115 -5274 0
0 0 0 779 1078894 -4495 0
0 0 0 803 1079697 -3692 0
0 0 0 841 1080538 -2851 0
0 0 0 821 1081359 -2030 0
53 1 S106 778 1082137 -1252 0
53 1 S106 812 1082949 -440 0
53 2 S106 823 1083772 383 0
53 2 S106 852 1084624 1235 0
53 2 S106 784 1085408 2019 0
53 2 S106 777 1086185 2796 0
53 2 S106 799 1086984 3595 0
53 2 S106 827 1087811 4422 0
53 2 S106 851 1088662 5273 0
53 2 S106 847 1089509 6120 0
53 2 S106 792 1090301 6912 0
0 0 0 786 1091087 -7389 0
0 0 0 822 1091909 -6567 0
0 0 0 868 1092777 -5699 0
0 0 0 903 1093680 -4796 0
0 0 0 856 1094536 -3940 0
0 0 0 784 1095320 -3156 0
0 0 0 726 1096046 -2430 0
54 1 S102 703 1096749 -1727 0
54 1 S102 693 1097442 -1034 0
54 1 S102 703 1098145 -331 0
54 2 S102 743 1098888 412 0
54 2 S102 816 1099704 1228 0
54 2 S102 880 1100584 2108 0
54 2 S102 869 1101453 2977 0
54 2 S102 800 1102253 3777 0
54 2 S102 782 1103035 4559 0
54 2 S102 829 1103864 5388 0
54 2 S102 884 1104748 6272 0
0 0 0 928 1105676 -11683 0
0 0 0 898 1106574 -10785 0
0 0 0 827 1107401 -9958 0
0 0 0 850 1108251 -9108 0
0 0 0 863 1109114 -8245 0
0 0 0 829 1109943 -7416 0
0 0 0 811 1110754 -6605 0
0 0 0 799 1111553 -5806 0
0 0 0 763 1112316 -5043 0
0 0 0 740 1113056 -4303 0
0 0 0 767 1113823 -3536 0
0 0 0 836 1114659 -2700 0
55 1 S106 873 1115532 -1827 0
55 1 S106 887 1116419 -940 0
55 1 S106 873 1117292 -67 0
55 2 S106 801 1118093 734 0
55 2 S106 767 1118860 1501 0
55 2 S106 781 1119641 2282 0
55 2 S106 815 1120456 3097 0
55 2 S106 853 1121309 3950 0
55 2 S106 865 1122174 4815 0
55 2 S106 881 1123055 5696 0
55 2 S106 801 1123856 6497 0
0 0 0 781 1124637 -7510 0
0 0 0 806 1125443 -6704 0
0 0 0 839 1126282 -5865 0
0 0 0 870 1127152 -4995 0
0 0 0 840 1127992 -4155 0
0 0 0 782 1128774 -3373 0
0 0 0 807 1129581 -2566 0
56 1 S116 826 1130407 -1740 0
56 1 S116 872 1131279 -868 0
56 1 S116 860 1132139 -8 0
56 2 S116 831 1132970 823 0
56 2 S116 773 1133743 1596 0
56 2 S116 770 1134513 2366 0
56 2 S116 741 1135254 3107 0
56 2 S116 728 1135982 3835 0
56 2 S116 749 1136731 4584 0
56 2 S116 754 1137485 5338 0
56 2 S116 702 1138187 6040 0
56 2 S116 721 1138908 6761 0
0 0 0 779 1139687 -7712 0
0 0 0 973 1140660 -6739 0
0 0 0 1069 1141729 -5670 1
0 0 0 957 1142686 -4713 0
0 0 0 854 1143540 -3859 0
0 0 0 858 1144398 -3001 0
0 0 0 837 1145235 -2164 0
57 1 S106 808 1146043 -1356 0
57 1 S106 728 1146771 -628 0
57 2 S106 708 1147479 80 0
57 2 S106 702 1148181 782 0
57 2 S106 712 1148893 1494 0
57 2 S106 731 1149624 2225 0
57 2 S106 757 1150381 2982 0
57 2 S106 780 1151161 3762 0
57 2 S106 809 1151970 4571 0
57 2 S106 792 1152762 5363 0
57 2 S106 758 1153520 6121 0
57 2 S106 760 1154280 6881 0
0 0 0 801 1155081 -8863 0
0 0 0 845 1155926 -8018 0
0 0 0 935 1156861 -7083 0
0 0 0 915 1157776 -6168 0
0 0 0 849 1158625 -5319 0
0 0 0 903 1159528 -4416 0
0 0 0 939 1160467 -3477 0
0 0 0 929 1161396 -2548 0
58 1 S102 846 1162242 -1702 0
58 1 S102 847 1163089 -855 0
58 2 S102 876 1163965 21 0
58 2 S102 903 1164868 924 0
58 2 S102 907 1165775 1831 0
58 2 S102 860 1166635 2691 0
58 2 S102 824 1167459 3515 0
58 2 S102 903 1168362 4418 0
58 2 S102 919 1169281 5337 0
58 2 S102 933 1170214 6270 0
0 0 0 832 1171046 -7785 0
0 0 0 831 1171877 -6954 0
0 0 0 867 1172744 -6087 0
0 0 0 924 1173668 -5163 0
0 0 0 895 1174563 -4268 0
0 0 0 796 1175359 -3472 0
0 0 0 811 1176170 -2661 0
59 1 S112 829 1176999 -1832 0
59 1 S112 788 1177787 -1044 0
59 1 S112 740 1178527 -304 0
59 2 S112 741 1179268 437 0
59 2 S112 726 1179994 1163 0
59 2 S112 733 1180727 1896 0
59 2 S112 799 1181526 2695 0
59 2 S112 872 1182398 3567 0
59 2 S112 888 1183286 4455 0
59 2 S112 823 1184109 5278 0
59 2 S112 760 1184869 6038 0
59 2 S112 748 1185617 6786 0
0 0 0 760 1186377 -9397 0
0 0 0 800 1187177 -8597 0
0 0 0 895 1188072 -7702 0
0 0 0 874 1188946 -6828 0
0 0 0 811 1189757 -6017 0
0 0 0 739 1190496 -5278 0
0 0 0 730 1191226 -4548 0
0 0 0 718 1191944 -3830 0
0 0 0 710 1192654 -3120 0
0 0 0 712 1193366 -2408 0
60 1 S102 748 1194114 -1660 0
60 1 S102 804 1194918 -856 0
60 1 S102 833 1195751 -23 0
60 2 S102 832 1196583 809 0
60 2 S102 777 1197360 1586 0
60 2 S102 759 1198119 2345 0
60 2 S102 793 1198912 3138 0
60 2 S102 823 1199735 3961 0
60 2 S102 877 1200612 4838 0
60 2 S102 877 1201489 5715 0
60 2 S102 843 1202332 6558 0
0 0 0 791 1203123 -11435 0
0 0 0 839 1203962 -10596 0
0 0 0 846 1204808 -9750 0
0 0 0 879 1205687 -8871 0
0 0 0 839 1206526 -8032 0
0 0 0 778 1207304 -7254 0
0 0 0 833 1208137 -6421 0
0 0 0 870 1209007 -5551 0
0 0 0 888 1209895 -4663 0
0 0 0 878 1210773 -3785 0
0 0 0 799 1211572 -2986 0
0 0 0 795 1212367 -2191 0
61 1 S106 807 1213174 -1384 0
61 1 S106 844 1214018 -540 0
61 2 S106 848 1214866 308 0
61 2 S106 837 1215703 1145 0
61 2 S106 787 1216490 1932 0
61 2 S106 813 1217303 2745 0
61 2 S106 863 1218166 3608 0
61 2 S106 919 1219085 4527 0
61 2 S106 911 1219996 5438 0
61 2 S106 861 1220857 6299 0
0 0 0 795 1221652 -8125 0
0 0 0 832 1222484 -7293 0
0 0 0 842 1223326 -6451 0
0 0 0 865 1224191 -5586 0
0 0 0 809 1225000 -4777 0
0 0 0 832 1225832 -3945 0
0 0 0 842 1226674 -3103 0
0 0 0 835 1227509 -2268 0
62 1 S112 841 1228350 -1427 0
62 1 S112 771 1229121 -656 0
62 2 S112 757 1229878 101 0
62 2 S112 779 1230657 880 0
62 2 S112 810 1231467 1690 0
62 2 S112 834 1232301 2524 0
62 2 S112 800 1233101 3324 0
62 2 S112 783 1233884 4107 0
62 2 S112 828 1234712 4935 0
62 2 S112 845 1235557 5780 0
62 2 S112 843 1236400 6623 0
0 0 0 808 1237208 -12015 0
0 0 0 754 1237962 -11261 0
0 0 0 766 1238728 -10495 0
0 0 0 791 1239519 -9704 0
0 0 0 826 1240345 -8878 0
0 0 0 799 1241144 -8079 0
0 0 0 760 1241904 -7319 0
0 0 0 720 1242624 -6599 0
0 0 0 708 1243332 -5891 0
0 0 0 704 1244036 -5187 0
0 0 0 728 1244764 -4459 0
0 0 0 768 1245532 -3691 0
0 0 0 822 1246354 -2869 0
0 0 0 831 1247185 -2038 0
63 1 S102 817 1248002 -1221 0
63 1 S102 754 1248756 -467 0
63 2 S102 742 1249498 275 0
63 2 S102 755 1250253 1030 0
63 2 S102 771 1251024 1801 0
63 2 S102 780 1251804 2581 0
63 2 S102 790 1252594 3371 0
63 2 S102 740 1253334 4111 0
63 2 S102 729 1254063 4840 0
63 2 S102 753 1254816 5593 0
63 2 S102 806 1255622 6399 0
0 0 0 862 1256484 -9798 0
0 0 0 871 1257355 -8927 0
0 0 0 795 1258150 -8132 0
0 0 0 812 1258962 -7320 0
0 0 0 839 1259801 -6481 0
0 0 0 846 1260647 -5635 0
0 0 0 813 1261460 -4822 0
0 0 0 784 1262244 -4038 0
0 0 0 765 1263009 -3273 0
0 0 0 800 1263809 -2473 0
64 1 S112 820 1264629 -1653 0
64 1 S112 766 1265395 -887 0
64 1 S112 733 1266128 -154 0
64 2 S112 703 1266831 549 0
64 2 S112 685 1267516 1234 0
64 2 S112 675 1268191 1909 0
64 2 S112 678 1268869 2587 0
64 2 S112 694 1269563 3281 0
64 2 S112 728 1270291 4009 0
64 2 S112 729 1271020 4738 0
64 2 S112 696 1271716 5434 0
64 2 S112 696 1272412 6130 0
64 2 S112 684 1273096 6814 0
0 0 0 683 1273779 -7291 0
0 0 0 701 1274480 -6590 0
0 0 0 726 1275206 -5864 0
0 0 0 761 1275967 -5103 0
0 0 0 750 1276717 -4353 0
0 0 0 724 1277441 -3629 0
0 0 0 703 1278144 -2926 0
0 0 0 688 1278832 -2238 0
65 1 S106 681 1279513 -1557 0
65 1 S106 667 1280180 -890 0
65 1 S106 677 1280857 -213 0
65 2 S106 734 1281591 521 0
65 2 S106 835 1282426 1356 0
65 2 S106 858 1283284 2214 0
65 2 S106 790 1284074 3004 0
65 2 S106 744 1284818 3748 0
65 2 S106 757 1285575 4505 0
65 2 S106 781 1286356 5286 0
65 2 S106 813 1287169 6099 0
65 2 S106 819 1287988 6918 0
0 0 0 786 1288774 -7349 0
0 0 0 759 1289533 -6590 0
0 0 0 793 1290326 -5797 0
0 0 0 867 1291193 -4930 0
0 0 0 837 1292030 -4093 0
0 0 0 802 1292832 -3291 0
0 0 0 745 1293577 -2546 0
66 1 S116 768 1294345 -1778 0
66 1 S116 814 1295159 -964 0
66 1 S116 872 1296031 -92 0
66 2 S116 882 1296913 790 0
66 2 S116 839 1297752 1629 0
66 2 S116 803 1298555 2432 0
66 2 S116 876 1299431 3308 0
66 2 S116 964 1300395 4272 0
66 2 S116 1000 1301395 5272 1
66 2 S116 954 1302349 6226 0
0 0 0 860 1303209 -10537 0
0 0 0 866 1304075 -9671 0
0 0 0 866 1304941 -8805 0
0 0 0 859 1305800 -7946 0
0 0 0 834 1306634 -7112 0
0 0 0 778 1307412 -6334 0
0 0 0 760 1308172 -5574 0
0 0 0 785 1308957 -4789 0
0 0 0 876 1309833 -3913 0
0 0 0 952 1310785 -2961 0
0 0 0 956 1311741 -2005 0
67 1 S102 863 1312604 -1142 0
67 1 S102 806 1313410 -336 0
67 2 S102 822 1314232 486 0
67 2 S102 836 1315068 1322 0
67 2 S102 842 1315910 2164 0
67 2 S102 837 1316747 3001 0
67 2 S102 774 1317521 3775 0
67 2 S102 763 1318284 4538 0
67 2 S102 794 1319078 5332 0
67 2 S102 837 1319915 6169 0
0 0 0 888 1320803 -8063 0
0 0 0 920 1321723 -7143 0
0 0 0 883 1322606 -6260 0
0 0 0 813 1323419 -5447 0
0 0 0 837 1324256 -4610 0
0 0 0 822 1325078 -3788 0
0 0 0 779 1325857 -3009 0
0 0 0 729 1326586 -2280 0
68 1 S106 739 1327325 -1541 0
68 1 S106 733 1328058 -808 0
68 1 S106 718 1328776 -90 0
68 2 S106 713 1329489 623 0
68 2 S106 753 1330242 1376 0
68 2 S106 823 1331065 2199 0
68 2 S106 884 1331949 3083 0
68 2 S106 892 1332841 3975 0
68 2 S106 806 1333647 4781 0
68 2 S106 795 1334442 5576 0
68 2 S106 822 1335264 6398 0
0 0 0 869 1336133 -11052 0
0 0 0 875 1337008 -10177 0
0 0 0 827 1337835 -9350 0
0 0 0 781 1338616 -8569 0
0 0 0 816 1339432 -7753 0
0 0 0 852 1340284 -6901 0
0 0 0 812 1341096 -6089 0
0 0 0 761 1341857 -5328 0
0 0 0 757 1342614 -4571 0
0 0 0 725 1343339 -3846 0
0 0 0 722 1344061 -3124 0
0 0 0 752 1344813 -2372 0
69 1 S102 815 1345628 -1557 0
69 1 S102 863 1346491 -694 0
69 2 S102 863 1347354 169 0
69 2 S102 814 1348168 983 0
69 2 S102 756 1348924 1739 0
69 2 S102 734 1349658 2473 0
69 2 S102 756 1350414 3229 0
69 2 S102 800 1351214 4029 0
69 2 S102 869 1352083 4898 0
69 2 S102 869 1352952 5767 0
69 2 S102 855 1353807 6622 0
0 0 0 788 1354595 -9301 0
0 0 0 770 1355365 -8531 0
0 0 0 820 1356185 -7711 0
0 0 0 941 1357126 -6770 0
0 0 0 912 1358038 -5858 0
0 0 0 828 1358866 -5030 0
0 0 0 763 1359629 -4267 0
0 0 0 789 1360418 -3478 0
0 0 0 827 1361245 -2651 0
70 1 S112 881 1362126 -1770 0
70 1 S112 895 1363021 -875 0
70 2 S112 885 1363906 10 0
70 2 S112 795 1364701 805 0
70 2 S112 797 1365498 1602 0
70 2 S112 819 1366317 2421 0
70 2 S112 848 1367165 3269 0
70 2 S112 865 1368030 4134 0
70 2 S112 849 1368879 4983 0
70 2 S112 779 1369658 5762 0
70 2 S112 747 1370405 6509 0
0 0 0 733 1371138 -12088 0
0 0 0 731 1371869 -11357 0
0 0 0 801 1372670 -10556 0
0 0 0 844 1373514 -9712 0
0 0 0 831 1374345 -8881 0
0 0 0 753 1375098 -8128 0
0 0 0 703 1375801 -7425 0
0 0 0 686 1376487 -6739 0
0 0 0 672 1377159 -6067 0
0 0 0 651 1377810 -5416 0
0 0 0 652 1378462 -4764 0
0 0 0 641 1379103 -4123 0
0 0 0 631 1379734 -3492 0
0 0 0 628 1380362 -2864 0
0 0 0 644 1381006 -2220 0
71 1 S116 661 1381667 -1559 0
71 1 S116 697 1382364 -862 0
71 1 S116 702 1383066 -160 0
71 2 S116 708 1383774 548 0
71 2 S116 691 1384465 1239 0
71 2 S116 658 1385123 1897 0
71 2 S116 658 1385781 2555 0
71 2 S116 673 1386454 3228 0
71 2 S116 693 1387147 3921 0
71 2 S116 701 1387848 4622 0
71 2 S116 717 1388565 5339 0
71 2 S116 698 1389263 6037 0
71 2 S116 696 1389959 6733 0
0 0 0 674 1390633 -8144 0
0 0 0 699 1391332 -7445 0
0 0 0 772 1392104 -6673 0
0 0 0 865 1392969 -5808 0
0 0 0 810 1393779 -4998 0
0 0 0 760 1394539 -4238 0
0 0 0 812 1395351 -3426 0
0 0 0 862 1396213 -2564 0
72 1 S102 884 1397097 -1680 0
72 1 S102 845 1397942 -835 0
72 1 S102 738 1398680 -97 0
72 2 S102 732 1399412 635 0
72 2 S102 738 1400150 1373 0
72 2 S102 722 1400872 2095 0
72 2 S102 701 1401573 2796 0
72 2 S102 670 1402243 3466 0
72 2 S102 664 1402907 4130 0
72 2 S102 658 1403565 4788 0
72 2 S102 669 1404234 5457 0
72 2 S102 703 1404937 6160 0
72 2 S102 768 1405705 6928 0
0 0 0 870 1406575 -6111 0
0 0 0 883 1407458 -5228 0
0 0 0 824 1408282 -4404 0
0 0 0 760 1409042 -3644 0
0 0 0 711 1409753 -2933 0
0 0 0 702 1410455 -2231 0
73 1 S116 729 1411184 -1502 0
73 1 S116 743 1411927 -759 0
73 1 S116 704 1412631 -55 0
73 2 S116 696 1413327 641 0
73 2 S116 701 1414028 1342 0
73 2 S116 753 1414781 2095 0
73 2 S116 889 1415670 2984 0
73 2 S116 986 1416656 3970 0
73 2 S116 973 1417629 4943 0
73 2 S116 952 1418581 5895 0
73 2 S116 920 1419501 6815 0
0 0 0 826 1420327 -8110 0
0 0 0 755 1421082 -7355 0
0 0 0 770 1421852 -6585 0
0 0 0 768 1422620 -5817 0
0 0 0 770 1423390 -5047 0
0 0 0 766 1424156 -4281 0
0 0 0 753 1424909 -3528 0
0 0 0 779 1425688 -2749 0
74 1 S106 830 1426518 -1919 0
74 1 S106 938 1427456 -981 0
74 1 S106 868 1428324 -113 0
74 2 S106 791 1429115 678 0
74 2 S106 768 1429883 1446 0
74 2 S106 800 1430683 2246 0
74 2 S106 776 1431459 3022 0
74 2 S106 765 1432224 3787 0
74 2 S106 804 1433028 4591 0
74 2 S106 841 1433869 5432 0
74 2 S106 861 1434730 6293 0
0 0 0 867 1435597 -6997 0
0 0 0 809 1436406 -6188 0
0 0 0 833 1437239 -5355 0
0 0 0 869 1438108 -4486 0
0 0 0 865 1438973 -3621 0
0 0 0 850 1439823 -2771 0
75 1 S112 816 1440639 -1955 0
75 1 S112 756 1441395 -1199 0
75 1 S112 757 1442152 -442 0
75 2 S112 810 1442962 368 0
75 2 S112 925 1443887 1293 0
75 2 S112 877 1444764 2170 0
75 2 S112 811 1445575 2981 0
75 2 S112 915 1446490 3896 0
75 2 S112 986 1447476 4882 0
75 2 S112 932 1448408 5814 0
75 2 S112 832 1449240 6646 0
0 0 0 891 1450131 -7847 0
0 0 0 906 1451037 -6941 0
0 0 0 861 1451898 -6080 0
0 0 0 777 1452675 -5303 0
0 0 0 815 1453490 -4488 0
0 0 0 827 1454317 -3661 0
0 0 0 869 1455186 -2792 0
76 1 S116 832 1456018 -1960 0
76 1 S116 792 1456810 -1168 0
76 1 S116 841 1457651 -327 0
76 2 S116 863 1458514 536 0
76 2 S116 924 1459438 1460 0
76 2 S116 925 1460363 2385 0
76 2 S116 911 1461274 3296 0
76 2 S116 859 1462133 4155 0
76 2 S116 790 1462923 4945 0
76 2 S116 816 1463739 5761 0
76 2 S116 844 1464583 6605 0
0 0 0 868 1465451 -6022 0
0 0 0 899 1466350 -5123 0
0 0 0 862 1467212 -4261 0
0 0 0 796 1468008 -3465 0
0 0 0 837 1468845 -2628 0
77 1 S106 864 1469709 -1764 0
77 1 S106 898 1470607 -866 0
77 2 S106 927 1471534 61 0
77 2 S106 888 1472422 949 0
77 2 S106 806 1473228 1755 0
77 2 S106 814 1474042 2569 0
77 2 S106 844 1474886 3413 0
77 2 S106 857 1475743 4270 0
77 2 S106 875 1476618 5145 0
77 2 S106 840 1477458 5985 0
77 2 S106 780 1478238 6765 0
0 0 0 799 1479037 -8849 0
0 0 0 831 1479868 -8018 0
0 0 0 954 1480822 -7064 0
0 0 0 903 1481725 -6161 0
0 0 0 827 1482552 -5334 0
0 0 0 858 1483410 -4476 0
0 0 0 889 1484299 -3587 0
0 0 0 911 1485210 -2676 0
78 1 S112 883 1486093 -1793 0
78 1 S112 807 1486900 -986 0
78 1 S112 822 1487722 -164 0
78 2 S112 846 1488568 682 0
78 2 S112 880 1489448 1562 0
78 2 S112 840 1490288 2402 0
78 2 S112 786 1491074 3188 0
78 2 S112 802 1491876 3990 0
78 2 S112 775 1492651 4765 0
78 2 S112 785 1493436 5550 0
78 2 S112 805 1494241 6355 0
0 0 0 772 1495013 -11507 0
0 0 0 756 1495769 -10751 0
0 0 0 791 1496560 -9960 0
0 0 0 817 1497377 -9143 0
0 0 0 775 1498152 -8368 0
0 0 0 733 1498885 -7635 0
0 0 0 711 1499596 -6924 0
0 0 0 694 1500290 -6230 0
0 0 0 675 1500965 -5555 0
0 0 0 679 1501644 -4876 0
0 0 0 694 1502338 -4182 0
0 0 0 727 1503065 -3455 0
0 0 0 754 1503819 -2701 0
79 1 S102 786 1504605 -1915 0
79 1 S102 773 1505378 -1142 0
79 1 S102 746 1506124 -396 0
79 2 S102 782 1506906 386 0
79 2 S102 804 1507710 1190 0
79 2 S102 784 1508494 1974 0
79 2 S102 783 1509277 2757 0
79 2 S102 767 1510044 3524 0
79 2 S102 700 1510744 4224 0
79 2 S102 684 1511428 4908 0
79 2 S102 673 1512101 5581 0
79 2 S102 675 1512776 6256 0
79 2 S102 699 1513475 6955 0
0 0 0 755 1514230 -9797 0
0 0 0 853 1515083 -8944 0
0 0 0 875 1515958 -8069 0
0 0 0 898 1516856 -7171 0
0 0 0 877 1517733 -6294 0
0 0 0 876 1518609 -5418 0
0 0 0 833 1519442 -4585 0
0 0 0 770 1520212 -3815 0
0 0 0 768 1520980 -3047 0
0 0 0 748 1521728 -2299 0
80 1 S116 778 1522506 -1521 0
80 1 S116 806 1523312 -715 0
80 2 S116 763 1524075 48 0
80 2 S116 782 1524857 830 0
80 2 S116 804 1525661 1634 0
80 2 S116 842 1526503 2476 0
80 2 S116 874 1527377 3350 0
80 2 S116 880 1528257 4230 0
80 2 S116 911 1529168 5141 0
80 2 S116 914 1530082 6055 0
80 2 S116 861 1530943 6916 0
