T_0122
BeatCount Mean SD BeatCountNoOutliers MeanNoOutliers SDNoOutliers
1969 782,276282376841 53,3963345929368 1907 786,86680650236 46,3900058185968

Trial TrialStatus Trialtype IBI AbsPosition RelPosition Outlier
0 0 0 916 1802 -14318 0
0 0 0 858 2660 -13460 0
0 0 0 870 3530 -12590 0
0 0 0 849 4379 -11741 0
0 0 0 742 5121 -10999 0
0 0 0 680 5801 -10319 0
0 0 0 663 6464 -9656 0
0 0 0 649 7113 -9007 0
0 0 0 660 7773 -8347 0
0 0 0 708 8481 -7639 0
0 0 0 775 9256 -6864 0
0 0 0 822 10078 -6042 0
0 0 0 808 10886 -5234 0
0 0 0 830 11716 -4404 0
0 0 0 854 12570 -3550 0
0 0 0 858 13428 -2692 0
1 1 S112 843 14271 -1849 0
1 1 S112 803 15074 -1046 0
1 1 S112 811 15885 -235 0
1 2 S112 815 16700 580 0
1 2 S112 814 17514 1394 0
1 2 S112 795 18309 2189 0
1 2 S112 759 19068 2948 0
1 2 S112 782 19850 3730 0
1 2 S112 825 20675 4555 0
1 2 S112 911 21586 5466 0
1 2 S112 894 22480 6360 0
0 0 0 865 23345 -10663 0
0 0 0 877 24222 -9786 0
0 0 0 857 25079 -8929 0
0 0 0 823 25902 -8106 0
0 0 0 751 26653 -7355 0
0 0 0 752 27405 -6603 0
0 0 0 775 28180 -5828 0
0 0 0 822 29002 -5006 0
0 0 0 826 29828 -4180 0
0 0 0 790 30618 -3390 0
0 0 0 815 31433 -2575 0
2 1 S102 836 32269 -1739 0
2 1 S102 849 33118 -890 0
2 1 S102 806 33924 -84 0
2 2 S102 770 34694 686 0
2 2 S102 779 35473 1465 0
2 2 S102 786 36259 2251 0
2 2 S102 812 37071 3063 0
2 2 S102 781 37852 3844 0
2 2 S102 792 38644 4636 0
2 2 S102 831 39475 5467 0
2 2 S102 860 40335 6327 0
0 0 0 846 41181 -8626 0
0 0 0 803 41984 -7823 0
0 0 0 815 42799 -7008 0
0 0 0 820 43619 -6188 0
0 0 0 822 44441 -5366 0
0 0 0 789 45230 -4577 0
0 0 0 799 46029 -3778 0
0 0 0 816 46845 -2962 0
0 0 0 846 47691 -2116 0
3 1 S116 848 48539 -1268 0
3 1 S116 801 49340 -467 0
3 2 S116 806 50146 339 0
3 2 S116 824 50970 1163 0
3 2 S116 829 51799 1992 0
3 2 S116 822 52621 2814 0
3 2 S116 766 53387 3580 0
3 2 S116 791 54178 4371 0
3 2 S116 843 55021 5214 0
3 2 S116 903 55924 6117 0
3 2 S116 885 56809 7002 0
0 0 0 845 57654 -10025 0
0 0 0 842 58496 -9183 0
0 0 0 835 59331 -8348 0
0 0 0 813 60144 -7535 0
0 0 0 760 60904 -6775 0
0 0 0 755 61659 -6020 0
0 0 0 782 62441 -5238 0
0 0 0 811 63252 -4427 0
0 0 0 839 64091 -3588 0
0 0 0 797 64888 -2791 0
4 1 S106 814 65702 -1977 0
4 1 S106 826 66528 -1151 0
4 1 S106 822 67350 -329 0
4 2 S106 791 68141 462 0
4 2 S106 781 68922 1243 0
4 2 S106 796 69718 2039 0
4 2 S106 814 70532 2853 0
4 2 S106 803 71335 3656 0
4 2 S106 769 72104 4425 0
4 2 S106 794 72898 5219 0
4 2 S106 794 73692 6013 0
4 2 S106 767 74459 6780 0
0 0 0 725 75184 -6155 0
0 0 0 755 75939 -5400 0
0 0 0 760 76699 -4640 0
0 0 0 771 77470 -3869 0
0 0 0 772 78242 -3097 0
0 0 0 733 78975 -2364 0
5 1 S116 765 79740 -1599 0
5 1 S116 775 80515 -824 0
5 1 S116 792 81307 -32 0
5 2 S116 778 82085 746 0
5 2 S116 744 82829 1490 0
5 2 S116 772 83601 2262 0
5 2 S116 804 84405 3066 0
5 2 S116 818 85223 3884 0
5 2 S116 809 86032 4693 0
5 2 S116 782 86814 5475 0
5 2 S116 788 87602 6263 0
0 0 0 798 88400 -9120 0
0 0 0 813 89213 -8307 0
0 0 0 748 89961 -7559 0
0 0 0 758 90719 -6801 0
0 0 0 750 91469 -6051 0
0 0 0 759 92228 -5292 0
0 0 0 765 92993 -4527 0
0 0 0 774 93767 -3753 0
0 0 0 849 94616 -2904 0
0 0 0 895 95511 -2009 0
6 1 S106 877 96388 -1132 0
6 1 S106 834 97222 -298 0
6 2 S106 844 98066 546 0
6 2 S106 851 98917 1397 0
6 2 S106 824 99741 2221 0
6 2 S106 812 100553 3033 0
6 2 S106 774 101327 3807 0
6 2 S106 791 102118 4598 0
6 2 S106 819 102937 5417 0
6 2 S106 855 103792 6272 0
0 0 0 862 104654 -10969 0
0 0 0 834 105488 -10135 0
0 0 0 844 106332 -9291 0
0 0 0 830 107162 -8461 0
0 0 0 801 107963 -7660 0
0 0 0 747 108710 -6913 0
0 0 0 762 109472 -6151 0
0 0 0 771 110243 -5380 0
0 0 0 793 111036 -4587 0
0 0 0 764 111800 -3823 0
0 0 0 737 112537 -3086 0
0 0 0 779 113316 -2307 0
7 1 S102 803 114119 -1504 0
7 1 S102 841 114960 -663 0
7 2 S102 827 115787 164 0
7 2 S102 795 116582 959 0
7 2 S102 801 117383 1760 0
7 2 S102 796 118179 2556 0
7 2 S102 824 119003 3380 0
7 2 S102 831 119834 4211 0
7 2 S102 878 120712 5089 0
7 2 S102 891 121603 5980 0
7 2 S102 903 122506 6883 0
0 0 0 879 123385 -8187 0
0 0 0 844 124229 -7343 0
0 0 0 852 125081 -6491 0
0 0 0 834 125915 -5657 0
0 0 0 803 126718 -4854 0
0 0 0 770 127488 -4084 0
0 0 0 782 128270 -3302 0
0 0 0 799 129069 -2503 0
8 1 S112 832 129901 -1671 0
8 1 S112 833 130734 -838 0
8 1 S112 824 131558 -14 0
8 2 S112 847 132405 833 0
8 2 S112 849 133254 1682 0
8 2 S112 831 134085 2513 0
8 2 S112 793 134878 3306 0
8 2 S112 786 135664 4092 0
8 2 S112 798 136462 4890 0
8 2 S112 825 137287 5715 0
8 2 S112 844 138131 6559 0
0 0 0 833 138964 -6782 0
0 0 0 855 139819 -5927 0
0 0 0 855 140674 -5072 0
0 0 0 842 141516 -4230 0
0 0 0 788 142304 -3442 0
0 0 0 773 143077 -2669 0
9 1 S116 775 143852 -1894 0
9 1 S116 795 144647 -1099 0
9 1 S116 810 145457 -289 0
9 2 S116 776 146233 487 0
9 2 S116 789 147022 1276 0
9 2 S116 822 147844 2098 0
9 2 S116 835 148679 2933 0
9 2 S116 846 149525 3779 0
9 2 S116 838 150363 4617 0
9 2 S116 855 151218 5472 0
9 2 S116 857 152075 6329 0
0 0 0 830 152905 -11127 0
0 0 0 769 153674 -10358 0
0 0 0 765 154439 -9593 0
0 0 0 765 155204 -8828 0
0 0 0 773 155977 -8055 0
0 0 0 776 156753 -7279 0
0 0 0 808 157561 -6471 0
0 0 0 893 158454 -5578 0
0 0 0 917 159371 -4661 0
0 0 0 886 160257 -3775 0
0 0 0 861 161118 -2914 0
0 0 0 877 161995 -2037 0
10 1 S102 871 162866 -1166 0
10 1 S102 846 163712 -320 0
10 2 S102 785 164497 465 0
10 2 S102 789 165286 1254 0
10 2 S102 785 166071 2039 0
10 2 S102 777 166848 2816 0
10 2 S102 734 167582 3550 0
10 2 S102 763 168345 4313 0
10 2 S102 818 169163 5131 0
10 2 S102 903 170066 6034 0
10 2 S102 890 170956 6924 0
0 0 0 821 171777 -9878 0
0 0 0 843 172620 -9035 0
0 0 0 834 173454 -8201 0
0 0 0 820 174274 -7381 0
0 0 0 770 175044 -6611 0
0 0 0 784 175828 -5827 0
0 0 0 828 176656 -4999 0
0 0 0 870 177526 -4129 0
0 0 0 875 178401 -3254 0
0 0 0 830 179231 -2424 0
11 1 S112 843 180074 -1581 0
11 1 S112 855 180929 -726 0
11 2 S112 852 181781 126 0
11 2 S112 821 182602 947 0
11 2 S112 789 183391 1736 0
11 2 S112 803 184194 2539 0
11 2 S112 824 185018 3363 0
11 2 S112 848 185866 4211 0
11 2 S112 822 186688 5033 0
11 2 S112 807 187495 5840 0
11 2 S112 820 188315 6660 0
0 0 0 829 189144 -6503 0
0 0 0 807 189951 -5696 0
0 0 0 772 190723 -4924 0
0 0 0 791 191514 -4133 0
0 0 0 811 192325 -3322 0
0 0 0 816 193141 -2506 0
12 1 S116 771 193912 -1735 0
12 1 S116 754 194666 -981 0
12 1 S116 783 195449 -198 0
12 2 S116 805 196254 607 0
12 2 S116 835 197089 1442 0
12 2 S116 835 197924 2277 0
12 2 S116 831 198755 3108 0
12 2 S116 851 199606 3959 0
12 2 S116 877 200483 4836 0
12 2 S116 862 201345 5698 0
12 2 S116 813 202158 6511 0
0 0 0 774 202932 -10587 0
0 0 0 769 203701 -9818 0
0 0 0 771 204472 -9047 0
0 0 0 756 205228 -8291 0
0 0 0 740 205968 -7551 0
0 0 0 781 206749 -6770 0
0 0 0 798 207547 -5972 0
0 0 0 807 208354 -5165 0
0 0 0 752 209106 -4413 0
0 0 0 707 209813 -3706 0
0 0 0 721 210534 -2985 0
0 0 0 733 211267 -2252 0
13 1 S112 774 212041 -1478 0
13 1 S112 818 212859 -660 0
13 2 S112 801 213660 141 0
13 2 S112 809 214469 950 0
13 2 S112 842 215311 1792 0
13 2 S112 851 216162 2643 0
13 2 S112 831 216993 3474 0
13 2 S112 773 217766 4247 0
13 2 S112 774 218540 5021 0
13 2 S112 801 219341 5822 0
13 2 S112 844 220185 6666 0
0 0 0 873 221058 -10432 0
0 0 0 856 221914 -9576 0
0 0 0 861 222775 -8715 0
0 0 0 850 223625 -7865 0
0 0 0 836 224461 -7029 0
0 0 0 789 225250 -6240 0
0 0 0 800 226050 -5440 0
0 0 0 810 226860 -4630 0
0 0 0 825 227685 -3805 0
0 0 0 803 228488 -3002 0
0 0 0 827 229315 -2175 0
14 1 S106 847 230162 -1328 0
14 1 S106 859 231021 -469 0
14 2 S106 831 231852 362 0
14 2 S106 800 232652 1162 0
14 2 S106 802 233454 1964 0
14 2 S106 815 234269 2779 0
14 2 S106 813 235082 3592 0
14 2 S106 766 235848 4358 0
14 2 S106 786 236634 5144 0
14 2 S106 803 237437 5947 0
14 2 S106 831 238268 6778 0
0 0 0 817 239085 -10857 0
0 0 0 856 239941 -10001 0
0 0 0 878 240819 -9123 0
0 0 0 851 241670 -8272 0
0 0 0 802 242472 -7470 0
0 0 0 787 243259 -6683 0
0 0 0 781 244040 -5902 0
0 0 0 776 244816 -5126 0
0 0 0 733 245549 -4393 0
0 0 0 731 246280 -3662 0
0 0 0 751 247031 -2911 0
0 0 0 785 247816 -2126 0
15 1 S116 834 248650 -1292 0
15 1 S116 839 249489 -453 0
15 2 S116 879 250368 426 0
15 2 S116 853 251221 1279 0
15 2 S116 824 252045 2103 0
15 2 S116 783 252828 2886 0
15 2 S116 774 253602 3660 0
15 2 S116 772 254374 4432 0
15 2 S116 786 255160 5218 0
15 2 S116 753 255913 5971 0
15 2 S116 744 256657 6715 0
0 0 0 760 257417 -8490 0
0 0 0 781 258198 -7709 0
0 0 0 786 258984 -6923 0
0 0 0 749 259733 -6174 0
0 0 0 782 260515 -5392 0
0 0 0 804 261319 -4588 0
0 0 0 813 262132 -3775 0
0 0 0 798 262930 -2977 0
0 0 0 776 263706 -2201 0
16 1 S116 783 264489 -1418 0
16 1 S116 787 265276 -631 0
16 2 S116 784 266060 153 0
16 2 S116 741 266801 894 0
16 2 S116 759 267560 1653 0
16 2 S116 785 268345 2438 0
16 2 S116 809 269154 3247 0
16 2 S116 808 269962 4055 0
16 2 S116 787 270749 4842 0
16 2 S116 808 271557 5650 0
16 2 S116 815 272372 6465 0
0 0 0 799 273171 -8386 0
0 0 0 717 273888 -7669 0
0 0 0 725 274613 -6944 0
0 0 0 725 275338 -6219 0
0 0 0 733 276071 -5486 0
0 0 0 751 276822 -4735 0
0 0 0 747 277569 -3988 0
0 0 0 825 278394 -3163 0
0 0 0 875 279269 -2288 0
17 1 S106 913 280182 -1375 0
17 1 S106 868 281050 -507 0
17 2 S106 846 281896 339 0
17 2 S106 842 282738 1181 0
17 2 S106 808 283546 1989 0
17 2 S106 763 284309 2752 0
17 2 S106 724 285033 3476 0
17 2 S106 743 285776 4219 0
17 2 S106 768 286544 4987 0
17 2 S106 899 287443 5886 0
17 2 S106 881 288324 6767 0
0 0 0 894 289218 -10906 0
0 0 0 904 290122 -10002 0
0 0 0 892 291014 -9110 0
0 0 0 851 291865 -8259 0
0 0 0 852 292717 -7407 0
0 0 0 848 293565 -6559 0
0 0 0 808 294373 -5751 0
0 0 0 746 295119 -5005 0
0 0 0 726 295845 -4279 0
0 0 0 732 296577 -3547 0
0 0 0 752 297329 -2795 0
18 1 S102 802 298131 -1993 0
18 1 S102 807 298938 -1186 0
18 1 S102 849 299787 -337 0
18 2 S102 911 300698 574 0
18 2 S102 894 301592 1468 0
18 2 S102 852 302444 2320 0
18 2 S102 840 303284 3160 0
18 2 S102 828 304112 3988 0
18 2 S102 806 304918 4794 0
18 2 S102 770 305688 5564 0
18 2 S102 714 306402 6278 0
18 2 S102 736 307138 7014 0
0 0 0 772 307910 -6091 0
0 0 0 812 308722 -5279 0
0 0 0 827 309549 -4452 0
0 0 0 778 310327 -3674 0
0 0 0 778 311105 -2896 0
0 0 0 799 311904 -2097 0
19 1 S106 817 312721 -1280 0
19 1 S106 819 313540 -461 0
19 2 S106 801 314341 340 0
19 2 S106 790 315131 1130 0
19 2 S106 782 315913 1912 0
19 2 S106 774 316687 2686 0
19 2 S106 752 317439 3438 0
19 2 S106 727 318166 4165 0
19 2 S106 749 318915 4914 0
19 2 S106 778 319693 5692 0
19 2 S106 808 320501 6500 0
0 0 0 793 321294 -11225 0
0 0 0 796 322090 -10429 0
0 0 0 792 322882 -9637 0
0 0 0 810 323692 -8827 0
0 0 0 786 324478 -8041 0
0 0 0 759 325237 -7282 0
0 0 0 769 326006 -6513 0
0 0 0 788 326794 -5725 0
0 0 0 787 327581 -4938 0
0 0 0 766 328347 -4172 0
0 0 0 753 329100 -3419 0
0 0 0 756 329856 -2663 0
20 1 S112 762 330618 -1901 0
20 1 S112 778 331396 -1123 0
20 1 S112 739 332135 -384 0
20 2 S112 734 332869 350 0
20 2 S112 750 333619 1100 0
20 2 S112 769 334388 1869 0
20 2 S112 776 335164 2645 0
20 2 S112 744 335908 3389 0
20 2 S112 739 336647 4128 0
20 2 S112 757 337404 4885 0
20 2 S112 796 338200 5681 0
20 2 S112 831 339031 6512 0
0 0 0 812 339843 -8773 0
0 0 0 810 340653 -7963 0
0 0 0 814 341467 -7149 0
0 0 0 805 342272 -6344 0
0 0 0 771 343043 -5573 0
0 0 0 734 343777 -4839 0
0 0 0 755 344532 -4084 0
0 0 0 769 345301 -3315 0
0 0 0 777 346078 -2538 0
21 1 S106 754 346832 -1784 0
21 1 S106 709 347541 -1075 0
21 1 S106 724 348265 -351 0
21 2 S106 735 349000 384 0
21 2 S106 783 349783 1167 0
21 2 S106 807 350590 1974 0
21 2 S106 786 351376 2760 0
21 2 S106 827 352203 3587 0
21 2 S106 838 353041 4425 0
21 2 S106 836 353877 5261 0
21 2 S106 800 354677 6061 0
21 2 S106 776 355453 6837 0
0 0 0 785 356238 -10399 0
0 0 0 796 357034 -9603 0
0 0 0 803 357837 -8800 0
0 0 0 742 358579 -8058 0
0 0 0 746 359325 -7312 0
0 0 0 767 360092 -6545 0
0 0 0 793 360885 -5752 0
0 0 0 816 361701 -4936 0
0 0 0 771 362472 -4165 0
0 0 0 802 363274 -3363 0
0 0 0 828 364102 -2535 0
22 1 S116 842 364944 -1693 0
22 1 S116 809 365753 -884 0
22 1 S116 790 366543 -94 0
22 2 S116 792 367335 698 0
22 2 S116 786 368121 1484 0
22 2 S116 779 368900 2263 0
22 2 S116 756 369656 3019 0
22 2 S116 781 370437 3800 0
22 2 S116 832 371269 4632 0
22 2 S116 882 372151 5514 0
22 2 S116 870 373021 6384 0
0 0 0 844 373865 -8720 0
0 0 0 862 374727 -7858 0
0 0 0 848 375575 -7010 0
0 0 0 818 376393 -6192 0
0 0 0 744 377137 -5448 0
0 0 0 738 377875 -4710 0
0 0 0 728 378603 -3982 0
0 0 0 749 379352 -3233 0
0 0 0 786 380138 -2447 0
23 1 S112 783 380921 -1664 0
23 1 S112 864 381785 -800 0
23 2 S112 912 382697 112 0
23 2 S112 906 383603 1018 0
23 2 S112 881 384484 1899 0
23 2 S112 833 385317 2732 0
23 2 S112 829 386146 3561 0
23 2 S112 800 386946 4361 0
23 2 S112 798 387744 5159 0
23 2 S112 793 388537 5952 0
23 2 S112 789 389326 6741 0
0 0 0 852 390178 -8505 0
0 0 0 885 391063 -7620 0
0 0 0 892 391955 -6728 0
0 0 0 825 392780 -5903 0
0 0 0 810 393590 -5093 0
0 0 0 814 394404 -4279 0
0 0 0 825 395229 -3454 0
0 0 0 824 396053 -2630 0
24 1 S106 800 396853 -1830 0
24 1 S106 787 397640 -1043 0
24 1 S106 794 398434 -249 0
24 2 S106 819 399253 570 0
24 2 S106 845 400098 1415 0
24 2 S106 808 400906 2223 0
24 2 S106 820 401726 3043 0
24 2 S106 838 402564 3881 0
24 2 S106 847 403411 4728 0
24 2 S106 830 404241 5558 0
24 2 S106 795 405036 6353 0
0 0 0 808 405844 -8406 0
0 0 0 828 406672 -7578 0
0 0 0 847 407519 -6731 0
0 0 0 799 408318 -5932 0
0 0 0 808 409126 -5124 0
0 0 0 836 409962 -4288 0
0 0 0 845 410807 -3443 0
0 0 0 824 411631 -2619 0
25 1 S102 798 412429 -1821 0
25 1 S102 794 413223 -1027 0
25 1 S102 789 414012 -238 0
25 2 S102 776 414788 538 0
25 2 S102 729 415517 1267 0
25 2 S102 756 416273 2023 0
25 2 S102 773 417046 2796 0
25 2 S102 822 417868 3618 0
25 2 S102 820 418688 4438 0
25 2 S102 801 419489 5239 0
25 2 S102 821 420310 6060 0
25 2 S102 834 421144 6894 0
0 0 0 841 421985 -6009 0
0 0 0 804 422789 -5205 0
0 0 0 798 423587 -4407 0
0 0 0 787 424374 -3620 0
0 0 0 788 425162 -2832 0
0 0 0 750 425912 -2082 0
26 1 S116 768 426680 -1314 0
26 1 S116 789 427469 -525 0
26 2 S116 816 428285 291 0
26 2 S116 820 429105 1111 0
26 2 S116 760 429865 1871 0
26 2 S116 764 430629 2635 0
26 2 S116 756 431385 3391 0
26 2 S116 755 432140 4146 0
26 2 S116 734 432874 4880 0
26 2 S116 720 433594 5600 0
26 2 S116 772 434366 6372 0
0 0 0 816 435182 -7086 0
0 0 0 872 436054 -6214 0
0 0 0 817 436871 -5397 0
0 0 0 834 437705 -4563 0
0 0 0 825 438530 -3738 0
0 0 0 804 439334 -2934 0
0 0 0 738 440072 -2196 0
27 1 S106 744 440816 -1452 0
27 1 S106 749 441565 -703 0
27 2 S106 762 442327 59 0
27 2 S106 762 443089 821 0
27 2 S106 715 443804 1536 0
27 2 S106 732 444536 2268 0
27 2 S106 741 445277 3009 0
27 2 S106 748 446025 3757 0
27 2 S106 753 446778 4510 0
27 2 S106 696 447474 5206 0
27 2 S106 687 448161 5893 0
27 2 S106 724 448885 6617 0
0 0 0 776 449661 -6350 0
0 0 0 863 450524 -5487 0
0 0 0 881 451405 -4606 0
0 0 0 836 452241 -3770 0
0 0 0 792 453033 -2978 0
0 0 0 786 453819 -2192 0
28 1 S102 776 454595 -1416 0
28 1 S102 769 455364 -647 0
28 2 S102 741 456105 94 0
28 2 S102 749 456854 843 0
28 2 S102 752 457606 1595 0
28 2 S102 759 458365 2354 0
28 2 S102 753 459118 3107 0
28 2 S102 717 459835 3824 0
28 2 S102 746 460581 4570 0
28 2 S102 772 461353 5342 0
28 2 S102 815 462168 6157 0
28 2 S102 821 462989 6978 0
0 0 0 799 463788 -10377 0
0 0 0 802 464590 -9575 0
0 0 0 797 465387 -8778 0
0 0 0 777 466164 -8001 0
0 0 0 744 466908 -7257 0
0 0 0 751 467659 -6506 0
0 0 0 770 468429 -5736 0
0 0 0 790 469219 -4946 0
0 0 0 808 470027 -4138 0
0 0 0 808 470835 -3330 0
0 0 0 816 471651 -2514 0
29 1 S112 813 472464 -1701 0
29 1 S112 802 473266 -899 0
29 1 S112 761 474027 -138 0
29 2 S112 775 474802 637 0
29 2 S112 779 475581 1416 0
29 2 S112 789 476370 2205 0
29 2 S112 778 477148 2983 0
29 2 S112 751 477899 3734 0
29 2 S112 782 478681 4516 0
29 2 S112 816 479497 5332 0
29 2 S112 840 480337 6172 0
29 2 S112 844 481181 7016 0
0 0 0 815 481996 -5829 0
0 0 0 810 482806 -5019 0
0 0 0 804 483610 -4215 0
0 0 0 790 484400 -3425 0
0 0 0 749 485149 -2676 0
30 1 S112 765 485914 -1911 0
30 1 S112 796 486710 -1115 0
30 1 S112 834 487544 -281 0
30 2 S112 836 488380 555 0
30 2 S112 802 489182 1357 0
30 2 S112 797 489979 2154 0
30 2 S112 803 490782 2957 0
30 2 S112 804 491586 3761 0
30 2 S112 750 492336 4511 0
30 2 S112 758 493094 5269 0
30 2 S112 760 493854 6029 0
30 2 S112 772 494626 6801 0
0 0 0 777 495403 -9199 0
0 0 0 741 496144 -8458 0
0 0 0 771 496915 -7687 0
0 0 0 804 497719 -6883 0
0 0 0 822 498541 -6061 0
0 0 0 806 499347 -5255 0
0 0 0 790 500137 -4465 0
0 0 0 802 500939 -3663 0
0 0 0 796 501735 -2867 0
0 0 0 774 502509 -2093 0
31 1 S106 733 503242 -1360 0
31 1 S106 747 503989 -613 0
31 2 S106 751 504740 138 0
31 2 S106 746 505486 884 0
31 2 S106 719 506205 1603 0
31 2 S106 724 506929 2327 0
31 2 S106 757 507686 3084 0
31 2 S106 785 508471 3869 0
31 2 S106 815 509286 4684 0
31 2 S106 780 510066 5464 0
31 2 S106 777 510843 6241 0
31 2 S106 780 511623 7021 0
0 0 0 781 512404 -7517 0
0 0 0 761 513165 -6756 0
0 0 0 717 513882 -6039 0
0 0 0 733 514615 -5306 0
0 0 0 749 515364 -4557 0
0 0 0 783 516147 -3774 0
0 0 0 788 516935 -2986 0
0 0 0 801 517736 -2185 0
32 1 S102 830 518566 -1355 0
32 1 S102 841 519407 -514 0
32 2 S102 825 520232 311 0
32 2 S102 788 521020 1099 0
32 2 S102 785 521805 1884 0
32 2 S102 764 522569 2648 0
32 2 S102 760 523329 3408 0
32 2 S102 725 524054 4133 0
32 2 S102 750 524804 4883 0
32 2 S102 779 525583 5662 0
32 2 S102 819 526402 6481 0
0 0 0 826 527228 -10797 0
0 0 0 804 528032 -9993 0
0 0 0 799 528831 -9194 0
0 0 0 784 529615 -8410 0
0 0 0 752 530367 -7658 0
0 0 0 698 531065 -6960 0
0 0 0 725 531790 -6235 0
0 0 0 741 532531 -5494 0
0 0 0 754 533285 -4740 0
0 0 0 743 534028 -3997 0
0 0 0 738 534766 -3259 0
0 0 0 776 535542 -2483 0
33 1 S112 800 536342 -1683 0
33 1 S112 818 537160 -865 0
33 1 S112 777 537937 -88 0
33 2 S112 770 538707 682 0
33 2 S112 769 539476 1451 0
33 2 S112 768 540244 2219 0
33 2 S112 769 541013 2988 0
33 2 S112 762 541775 3750 0
33 2 S112 763 542538 4513 0
33 2 S112 789 543327 5302 0
33 2 S112 821 544148 6123 0
33 2 S112 840 544988 6963 0
0 0 0 822 545810 -11081 0
0 0 0 769 546579 -10312 0
0 0 0 769 547348 -9543 0
0 0 0 761 548109 -8782 0
0 0 0 751 548860 -8031 0
0 0 0 719 549579 -7312 0
0 0 0 725 550304 -6587 0
0 0 0 746 551050 -5841 0
0 0 0 773 551823 -5068 0
0 0 0 791 552614 -4277 0
0 0 0 753 553367 -3524 0
0 0 0 752 554119 -2772 0
0 0 0 761 554880 -2011 0
34 1 S106 766 555646 -1245 0
34 1 S106 767 556413 -478 0
34 2 S106 735 557148 257 0
34 2 S106 750 557898 1007 0
34 2 S106 769 558667 1776 0
34 2 S106 779 559446 2555 0
34 2 S106 779 560225 3334 0
34 2 S106 748 560973 4082 0
34 2 S106 774 561747 4856 0
34 2 S106 781 562528 5637 0
34 2 S106 785 563313 6422 0
0 0 0 765 564078 -8977 0
0 0 0 728 564806 -8249 0
0 0 0 754 565560 -7495 0
0 0 0 769 566329 -6726 0
0 0 0 762 567091 -5964 0
0 0 0 729 567820 -5235 0
0 0 0 729 568549 -4506 0
0 0 0 740 569289 -3766 0
0 0 0 757 570046 -3009 0
0 0 0 770 570816 -2239 0
35 1 S102 741 571557 -1498 0
35 1 S102 746 572303 -752 0
35 1 S102 751 573054 -1 0
35 2 S102 756 573810 755 0
35 2 S102 768 574578 1523 0
35 2 S102 728 575306 2251 0
35 2 S102 739 576045 2990 0
35 2 S102 763 576808 3753 0
35 2 S102 795 577603 4548 0
35 2 S102 808 578411 5356 0
35 2 S102 780 579191 6136 0
35 2 S102 789 579980 6925 0
0 0 0 791 580771 -5762 0
0 0 0 796 581567 -4966 0
0 0 0 761 582328 -4205 0
0 0 0 736 583064 -3469 0
0 0 0 743 583807 -2726 0
36 1 S106 759 584566 -1967 0
36 1 S106 778 585344 -1189 0
36 1 S106 740 586084 -449 0
36 2 S106 760 586844 311 0
36 2 S106 776 587620 1087 0
36 2 S106 780 588400 1867 0
36 2 S106 774 589174 2641 0
36 2 S106 741 589915 3382 0
36 2 S106 767 590682 4149 0
36 2 S106 765 591447 4914 0
36 2 S106 771 592218 5685 0
36 2 S106 749 592967 6434 0
0 0 0 726 593693 -9352 0
0 0 0 740 594433 -8612 0
0 0 0 742 595175 -7870 0
0 0 0 768 595943 -7102 0
0 0 0 764 596707 -6338 0
0 0 0 786 597493 -5552 0
0 0 0 823 598316 -4729 0
0 0 0 824 599140 -3905 0
0 0 0 810 599950 -3095 0
0 0 0 750 600700 -2345 0
37 1 S116 756 601456 -1589 0
37 1 S116 760 602216 -829 0
37 1 S116 783 602999 -46 0
37 2 S116 788 603787 742 0
37 2 S116 767 604554 1509 0
37 2 S116 797 605351 2306 0
37 2 S116 819 606170 3125 0
37 2 S116 849 607019 3974 0
37 2 S116 832 607851 4806 0
37 2 S116 817 608668 5623 0
37 2 S116 819 609487 6442 0
0 0 0 826 610313 -11051 0
0 0 0 819 611132 -10232 0
0 0 0 779 611911 -9453 0
0 0 0 782 612693 -8671 0
0 0 0 781 613474 -7890 0
0 0 0 773 614247 -7117 0
0 0 0 751 614998 -6366 0
0 0 0 762 615760 -5604 0
0 0 0 784 616544 -4820 0
0 0 0 807 617351 -4013 0
0 0 0 828 618179 -3185 0
0 0 0 797 618976 -2388 0
38 1 S102 807 619783 -1581 0
38 1 S102 823 620606 -758 0
38 2 S102 844 621450 86 0
38 2 S102 823 622273 909 0
38 2 S102 790 623063 1699 0
38 2 S102 785 623848 2484 0
38 2 S102 793 624641 3277 0
38 2 S102 811 625452 4088 0
38 2 S102 793 626245 4881 0
38 2 S102 783 627028 5664 0
38 2 S102 816 627844 6480 0
0 0 0 827 628671 -9984 0
0 0 0 840 629511 -9144 0
0 0 0 788 630299 -8356 0
0 0 0 783 631082 -7573 0
0 0 0 793 631875 -6780 0
0 0 0 783 632658 -5997 0
0 0 0 763 633421 -5234 0
0 0 0 745 634166 -4489 0
0 0 0 771 634937 -3718 0
0 0 0 800 635737 -2918 0
0 0 0 807 636544 -2111 0
39 1 S116 770 637314 -1341 0
39 1 S116 768 638082 -573 0
39 2 S116 771 638853 198 0
39 2 S116 774 639627 972 0
39 2 S116 754 640381 1726 0
39 2 S116 730 641111 2456 0
39 2 S116 750 641861 3206 0
39 2 S116 778 642639 3984 0
39 2 S116 806 643445 4790 0
39 2 S116 800 644245 5590 0
39 2 S116 781 645026 6371 0
0 0 0 787 645813 -7713 0
0 0 0 793 646606 -6920 0
0 0 0 757 647363 -6163 0
0 0 0 732 648095 -5431 0
0 0 0 740 648835 -4691 0
0 0 0 740 649575 -3951 0
0 0 0 732 650307 -3219 0
0 0 0 679 650986 -2540 0
40 1 S112 699 651685 -1841 0
40 1 S112 712 652397 -1129 0
40 1 S112 755 653152 -374 0
40 2 S112 787 653939 413 0
40 2 S112 773 654712 1186 0
40 2 S112 780 655492 1966 0
40 2 S112 787 656279 2753 0
40 2 S112 808 657087 3561 0
40 2 S112 778 657865 4339 0
40 2 S112 733 658598 5072 0
40 2 S112 749 659347 5821 0
40 2 S112 760 660107 6581 0
0 0 0 770 660877 -186666 0
0 0 0 755 661632 -185911 0
0 0 0 730 662362 -185181 0
0 0 0 760 663122 -184421 0
0 0 0 762 663884 -183659 0
0 0 0 776 664660 -182883 0
0 0 0 728 665388 -182155 0
0 0 0 742 666130 -181413 0
0 0 0 738 666868 -180675 0
0 0 0 746 667614 -179929 0
0 0 0 717 668331 -179212 0
0 0 0 696 669027 -178516 0
0 0 0 711 669738 -177805 0
0 0 0 680 670418 -177125 0
0 0 0 651 671069 -176474 0
0 0 0 650 671719 -175824 0
0 0 0 660 672379 -175164 0
0 0 0 628 673007 -174536 1
0 0 0 606 673613 -173930 1
0 0 0 601 674214 -173329 1
0 0 0 618 674832 -172711 1
0 0 0 625 675457 -172086 1
0 0 0 643 676100 -171443 1
0 0 0 666 676766 -170777 0
0 0 0 692 677458 -170085 0
0 0 0 693 678151 -169392 0
0 0 0 649 678800 -168743 0
0 0 0 637 679437 -168106 1
0 0 0 628 680065 -167478 1
0 0 0 630 680695 -166848 1
0 0 0 641 681336 -166207 1
0 0 0 652 681988 -165555 0
0 0 0 615 682603 -164940 1
0 0 0 613 683216 -164327 1
0 0 0 637 683853 -163690 1
0 0 0 647 684500 -163043 0
0 0 0 667 685167 -162376 0
0 0 0 699 685866 -161677 0
0 0 0 673 686539 -161004 0
0 0 0 655 687194 -160349 0
0 0 0 645 687839 -159704 0
0 0 0 638 688477 -159066 1
0 0 0 623 689100 -158443 1
0 0 0 624 689724 -157819 1
0 0 0 622 690346 -157197 1
0 0 0 632 690978 -156565 1
0 0 0 637 691615 -155928 1
0 0 0 649 692264 -155279 0
0 0 0 660 692924 -154619 0
0 0 0 693 693617 -153926 0
0 0 0 718 694335 -153208 0
0 0 0 752 695087 -152456 0
0 0 0 775 695862 -151681 0
0 0 0 778 696640 -150903 0
0 0 0 753 697393 -150150 0
0 0 0 743 698136 -149407 0
0 0 0 722 698858 -148685 0
0 0 0 718 699576 -147967 0
0 0 0 719 700295 -147248 0
0 0 0 719 701014 -146529 0
0 0 0 753 701767 -145776 0
0 0 0 813 702580 -144963 0
0 0 0 884 703464 -144079 0
0 0 0 793 704257 -143286 0
0 0 0 724 704981 -142562 0
0 0 0 708 705689 -141854 0
0 0 0 667 706356 -141187 0
0 0 0 654 707010 -140533 0
0 0 0 640 707650 -139893 1
0 0 0 627 708277 -139266 1
0 0 0 618 708895 -138648 1
0 0 0 615 709510 -138033 1
0 0 0 611 710121 -137422 1
0 0 0 620 710741 -136802 1
0 0 0 628 711369 -136174 1
0 0 0 622 711991 -135552 1
0 0 0 642 712633 -134910 1
0 0 0 661 713294 -134249 0
0 0 0 682 713976 -133567 0
0 0 0 697 714673 -132870 0
0 0 0 676 715349 -132194 0
0 0 0 674 716023 -131520 0
0 0 0 680 716703 -130840 0
0 0 0 687 717390 -130153 0
0 0 0 707 718097 -129446 0
0 0 0 708 718805 -128738 0
0 0 0 718 719523 -128020 0
0 0 0 750 720273 -127270 0
0 0 0 774 721047 -126496 0
0 0 0 806 721853 -125690 0
0 0 0 812 722665 -124878 0
0 0 0 795 723460 -124083 0
0 0 0 803 724263 -123280 0
0 0 0 800 725063 -122480 0
0 0 0 788 725851 -121692 0
0 0 0 722 726573 -120970 0
0 0 0 694 727267 -120276 0
0 0 0 710 727977 -119566 0
0 0 0 742 728719 -118824 0
0 0 0 762 729481 -118062 0
0 0 0 697 730178 -117365 0
0 0 0 688 730866 -116677 0
0 0 0 706 731572 -115971 0
0 0 0 716 732288 -115255 0
0 0 0 732 733020 -114523 0
0 0 0 696 733716 -113827 0
0 0 0 684 734400 -113143 0
0 0 0 687 735087 -112456 0
0 0 0 692 735779 -111764 0
0 0 0 744 736523 -111020 0
0 0 0 759 737282 -110261 0
0 0 0 805 738087 -109456 0
0 0 0 846 738933 -108610 0
0 0 0 860 739793 -107750 0
0 0 0 834 740627 -106916 0
0 0 0 803 741430 -106113 0
0 0 0 801 742231 -105312 0
0 0 0 787 743018 -104525 0
0 0 0 758 743776 -103767 0
0 0 0 745 744521 -103022 0
0 0 0 754 745275 -102268 0
0 0 0 776 746051 -101492 0
0 0 0 800 746851 -100692 0
0 0 0 780 747631 -99912 0
0 0 0 797 748428 -99115 0
0 0 0 799 749227 -98316 0
0 0 0 793 750020 -97523 0
0 0 0 743 750763 -96780 0
0 0 0 732 751495 -96048 0
0 0 0 721 752216 -95327 0
0 0 0 737 752953 -94590 0
0 0 0 729 753682 -93861 0
0 0 0 813 754495 -93048 0
0 0 0 870 755365 -92178 0
0 0 0 868 756233 -91310 0
0 0 0 828 757061 -90482 0
0 0 0 789 757850 -89693 0
0 0 0 780 758630 -88913 0
0 0 0 774 759404 -88139 0
0 0 0 748 760152 -87391 0
0 0 0 750 760902 -86641 0
0 0 0 800 761702 -85841 0
0 0 0 812 762514 -85029 0
0 0 0 797 763311 -84232 0
0 0 0 764 764075 -83468 0
0 0 0 760 764835 -82708 0
0 0 0 773 765608 -81935 0
0 0 0 802 766410 -81133 0
0 0 0 823 767233 -80310 0
0 0 0 828 768061 -79482 0
0 0 0 814 768875 -78668 0
0 0 0 806 769681 -77862 0
0 0 0 822 770503 -77040 0
0 0 0 829 771332 -76211 0
0 0 0 833 772165 -75378 0
0 0 0 815 772980 -74563 0
0 0 0 787 773767 -73776 0
0 0 0 743 774510 -73033 0
0 0 0 744 775254 -72289 0
0 0 0 734 775988 -71555 0
0 0 0 716 776704 -70839 0
0 0 0 684 777388 -70155 0
0 0 0 654 778042 -69501 0
0 0 0 652 778694 -68849 0
0 0 0 691 779385 -68158 0
0 0 0 759 780144 -67399 0
0 0 0 827 780971 -66572 0
0 0 0 826 781797 -65746 0
0 0 0 776 782573 -64970 0
0 0 0 788 783361 -64182 0
0 0 0 771 784132 -63411 0
0 0 0 688 784820 -62723 0
0 0 0 628 785448 -62095 1
0 0 0 613 786061 -61482 1
0 0 0 592 786653 -60890 1
0 0 0 614 787267 -60276 1
0 0 0 646 787913 -59630 0
0 0 0 730 788643 -58900 0
0 0 0 727 789370 -58173 0
0 0 0 755 790125 -57418 0
0 0 0 798 790923 -56620 0
0 0 0 805 791728 -55815 0
0 0 0 759 792487 -55056 0
0 0 0 709 793196 -54347 0
0 0 0 709 793905 -53638 0
0 0 0 693 794598 -52945 0
0 0 0 681 795279 -52264 0
0 0 0 642 795921 -51622 1
0 0 0 620 796541 -51002 1
0 0 0 629 797170 -50373 1
0 0 0 616 797786 -49757 1
0 0 0 618 798404 -49139 1
0 0 0 620 799024 -48519 1
0 0 0 609 799633 -47910 1
0 0 0 624 800257 -47286 1
0 0 0 632 800889 -46654 1
0 0 0 640 801529 -46014 1
0 0 0 632 802161 -45382 1
0 0 0 618 802779 -44764 1
0 0 0 635 803414 -44129 1
0 0 0 630 804044 -43499 1
0 0 0 637 804681 -42862 1
0 0 0 675 805356 -42187 0
0 0 0 717 806073 -41470 0
0 0 0 730 806803 -40740 0
0 0 0 697 807500 -40043 0
0 0 0 712 808212 -39331 0
0 0 0 732 808944 -38599 0
0 0 0 745 809689 -37854 0
0 0 0 754 810443 -37100 0
0 0 0 741 811184 -36359 0
0 0 0 734 811918 -35625 0
0 0 0 743 812661 -34882 0
0 0 0 733 813394 -34149 0
0 0 0 728 814122 -33421 0
0 0 0 736 814858 -32685 0
0 0 0 726 815584 -31959 0
0 0 0 715 816299 -31244 0
0 0 0 723 817022 -30521 0
0 0 0 750 817772 -29771 0
0 0 0 784 818556 -28987 0
0 0 0 777 819333 -28210 0
0 0 0 789 820122 -27421 0
0 0 0 790 820912 -26631 0
0 0 0 787 821699 -25844 0
0 0 0 751 822450 -25093 0
0 0 0 746 823196 -24347 0
0 0 0 739 823935 -23608 0
0 0 0 731 824666 -22877 0
0 0 0 728 825394 -22149 0
0 0 0 735 826129 -21414 0
0 0 0 772 826901 -20642 0
0 0 0 843 827744 -19799 0
0 0 0 803 828547 -18996 0
0 0 0 781 829328 -18215 0
0 0 0 781 830109 -17434 0
0 0 0 770 830879 -16664 0
0 0 0 734 831613 -15930 0
0 0 0 710 832323 -15220 0
0 0 0 710 833033 -14510 0
0 0 0 711 833744 -13799 0
0 0 0 729 834473 -13070 0
0 0 0 750 835223 -12320 0
0 0 0 809 836032 -11511 0
0 0 0 857 836889 -10654 0
0 0 0 908 837797 -9746 0
0 0 0 880 838677 -8866 0
0 0 0 844 839521 -8022 0
0 0 0 828 840349 -7194 0
0 0 0 824 841173 -6370 0
0 0 0 805 841978 -5565 0
0 0 0 811 842789 -4754 0
0 0 0 787 843576 -3967 0
0 0 0 787 844363 -3180 0
0 0 0 801 845164 -2379 0
41 1 S102 812 845976 -1567 0
41 1 S102 832 846808 -735 0
41 2 S102 811 847619 76 0
41 2 S102 827 848446 903 0
41 2 S102 825 849271 1728 0
41 2 S102 815 850086 2543 0
41 2 S102 775 850861 3318 0
41 2 S102 751 851612 4069 0
41 2 S102 744 852356 4813 0
41 2 S102 759 853115 5572 0
41 2 S102 795 853910 6367 0
0 0 0 821 854731 -7335 0
0 0 0 803 855534 -6532 0
0 0 0 802 856336 -5730 0
0 0 0 820 857156 -4910 0
0 0 0 806 857962 -4104 0
0 0 0 776 858738 -3328 0
0 0 0 755 859493 -2573 0
42 1 S112 750 860243 -1823 0
42 1 S112 755 860998 -1068 0
42 1 S112 763 861761 -305 0
42 2 S112 752 862513 447 0
42 2 S112 742 863255 1189 0
42 2 S112 757 864012 1946 0
42 2 S112 770 864782 2716 0
42 2 S112 787 865569 3503 0
42 2 S112 785 866354 4288 0
42 2 S112 760 867114 5048 0
42 2 S112 770 867884 5818 0
42 2 S112 787 868671 6605 0
0 0 0 797 869468 -9840 0
0 0 0 803 870271 -9037 0
0 0 0 753 871024 -8284 0
0 0 0 744 871768 -7540 0
0 0 0 748 872516 -6792 0
0 0 0 739 873255 -6053 0
0 0 0 733 873988 -5320 0
0 0 0 711 874699 -4609 0
0 0 0 713 875412 -3896 0
0 0 0 727 876139 -3169 0
0 0 0 747 876886 -2422 0
43 1 S116 769 877655 -1653 0
43 1 S116 755 878410 -898 0
43 1 S116 746 879156 -152 0
43 2 S116 760 879916 608 0
43 2 S116 775 880691 1383 0
43 2 S116 797 881488 2180 0
43 2 S116 795 882283 2975 0
43 2 S116 784 883067 3759 0
43 2 S116 801 883868 4560 0
43 2 S116 809 884677 5369 0
43 2 S116 824 885501 6193 0
43 2 S116 795 886296 6988 0
0 0 0 736 887032 -5936 0
0 0 0 742 887774 -5194 0
0 0 0 735 888509 -4459 0
0 0 0 746 889255 -3713 0
0 0 0 752 890007 -2961 0
0 0 0 780 890787 -2181 0
44 1 S102 824 891611 -1357 0
44 1 S102 876 892487 -481 0
44 2 S102 876 893363 395 0
44 2 S102 838 894201 1233 0
44 2 S102 806 895007 2039 0
44 2 S102 802 895809 2841 0
44 2 S102 795 896604 3636 0
44 2 S102 787 897391 4423 0
44 2 S102 766 898157 5189 0
44 2 S102 767 898924 5956 0
44 2 S102 780 899704 6736 0
0 0 0 801 900505 -9091 0
0 0 0 829 901334 -8262 0
0 0 0 813 902147 -7449 0
0 0 0 796 902943 -6653 0
0 0 0 782 903725 -5871 0
0 0 0 775 904500 -5096 0
0 0 0 764 905264 -4332 0
0 0 0 734 905998 -3598 0
0 0 0 764 906762 -2834 0
0 0 0 779 907541 -2055 0
45 1 S116 824 908365 -1231 0
45 1 S116 840 909205 -391 0
45 2 S116 826 910031 435 0
45 2 S116 834 910865 1269 0
45 2 S116 837 911702 2106 0
45 2 S116 830 912532 2936 0
45 2 S116 828 913360 3764 0
45 2 S116 787 914147 4551 0
45 2 S116 787 914934 5338 0
45 2 S116 798 915732 6136 0
45 2 S116 808 916540 6944 0
0 0 0 788 917328 -10206 0
0 0 0 772 918100 -9434 0
0 0 0 783 918883 -8651 0
0 0 0 783 919666 -7868 0
0 0 0 803 920469 -7065 0
0 0 0 779 921248 -6286 0
0 0 0 805 922053 -5481 0
0 0 0 819 922872 -4662 0
0 0 0 818 923690 -3844 0
0 0 0 796 924486 -3048 0
0 0 0 766 925252 -2282 0
46 1 S102 756 926008 -1526 0
46 1 S102 748 926756 -778 0
46 1 S102 744 927500 -34 0
46 2 S102 716 928216 682 0
46 2 S102 727 928943 1409 0
46 2 S102 728 929671 2137 0
46 2 S102 764 930435 2901 0
46 2 S102 830 931265 3731 0
46 2 S102 807 932072 4538 0
46 2 S102 813 932885 5351 0
46 2 S102 810 933695 6161 0
46 2 S102 798 934493 6959 0
0 0 0 786 935279 -8883 0
0 0 0 758 936037 -8125 0
0 0 0 783 936820 -7342 0
0 0 0 817 937637 -6525 0
0 0 0 832 938469 -5693 0
0 0 0 807 939276 -4886 0
0 0 0 823 940099 -4063 0
0 0 0 835 940934 -3228 0
0 0 0 835 941769 -2393 0
47 1 S112 806 942575 -1587 0
47 1 S112 763 943338 -824 0
47 1 S112 775 944113 -49 0
47 2 S112 777 944890 728 0
47 2 S112 773 945663 1501 0
47 2 S112 770 946433 2271 0
47 2 S112 732 947165 3003 0
47 2 S112 770 947935 3773 0
47 2 S112 792 948727 4565 0
47 2 S112 837 949564 5402 0
47 2 S112 872 950436 6274 0
0 0 0 853 951289 -10629 0
0 0 0 801 952090 -9828 0
0 0 0 791 952881 -9037 0
0 0 0 780 953661 -8257 0
0 0 0 787 954448 -7470 0
0 0 0 787 955235 -6683 0
0 0 0 801 956036 -5882 0
0 0 0 836 956872 -5046 0
0 0 0 855 957727 -4191 0
0 0 0 860 958587 -3331 0
0 0 0 825 959412 -2506 0
48 1 S116 811 960223 -1695 0
48 1 S116 801 961024 -894 0
48 1 S116 807 961831 -87 0
48 2 S116 818 962649 731 0
48 2 S116 784 963433 1515 0
48 2 S116 769 964202 2284 0
48 2 S116 765 964967 3049 0
48 2 S116 784 965751 3833 0
48 2 S116 779 966530 4612 0
48 2 S116 744 967274 5356 0
48 2 S116 786 968060 6142 0
48 2 S116 816 968876 6958 0
0 0 0 820 969696 -6098 0
0 0 0 786 970482 -5312 0
0 0 0 759 971241 -4553 0
0 0 0 754 971995 -3799 0
0 0 0 765 972760 -3034 0
0 0 0 768 973528 -2266 0
49 1 S112 737 974265 -1529 0
49 1 S112 763 975028 -766 0
49 2 S112 796 975824 30 0
49 2 S112 837 976661 867 0
49 2 S112 830 977491 1697 0
49 2 S112 793 978284 2490 0
49 2 S112 791 979075 3281 0
49 2 S112 790 979865 4071 0
49 2 S112 795 980660 4866 0
49 2 S112 812 981472 5678 0
49 2 S112 761 982233 6439 0
0 0 0 776 983009 -10640 0
0 0 0 801 983810 -9839 0
0 0 0 817 984627 -9022 0
0 0 0 785 985412 -8237 0
0 0 0 777 986189 -7460 0
0 0 0 784 986973 -6676 0
0 0 0 804 987777 -5872 0
0 0 0 804 988581 -5068 0
0 0 0 775 989356 -4293 0
0 0 0 788 990144 -3505 0
0 0 0 811 990955 -2694 0
50 1 S106 852 991807 -1842 0
50 1 S106 833 992640 -1009 0
50 1 S106 796 993436 -213 0
50 2 S106 801 994237 588 0
50 2 S106 798 995035 1386 0
50 2 S106 805 995840 2191 0
50 2 S106 770 996610 2961 0
50 2 S106 760 997370 3721 0
50 2 S106 779 998149 4500 0
50 2 S106 814 998963 5314 0
50 2 S106 837 999800 6151 0
50 2 S106 805 1000605 6956 0
0 0 0 801 1001406 -5937 0
0 0 0 803 1002209 -5134 0
0 0 0 804 1003013 -4330 0
0 0 0 783 1003796 -3547 0
0 0 0 750 1004546 -2797 0
0 0 0 769 1005315 -2028 0
51 1 S112 783 1006098 -1245 0
51 1 S112 785 1006883 -460 0
51 2 S112 768 1007651 308 0
51 2 S112 753 1008404 1061 0
51 2 S112 751 1009155 1812 0
51 2 S112 771 1009926 2583 0
51 2 S112 800 1010726 3383 0
51 2 S112 808 1011534 4191 0
51 2 S112 809 1012343 5000 0
51 2 S112 811 1013154 5811 0
51 2 S112 806 1013960 6617 0
0 0 0 786 1014746 -6058 0
0 0 0 740 1015486 -5318 0
0 0 0 754 1016240 -4564 0
0 0 0 758 1016998 -3806 0
0 0 0 774 1017772 -3032 0
0 0 0 791 1018563 -2241 0
52 1 S116 779 1019342 -1462 0
52 1 S116 809 1020151 -653 0
52 2 S116 837 1020988 184 0
52 2 S116 836 1021824 1020 0
52 2 S116 807 1022631 1827 0
52 2 S116 774 1023405 2601 0
52 2 S116 774 1024179 3375 0
52 2 S116 769 1024948 4144 0
52 2 S116 805 1025753 4949 0
52 2 S116 786 1026539 5735 0
52 2 S116 770 1027309 6505 0
0 0 0 802 1028111 -8360 0
0 0 0 820 1028931 -7540 0
0 0 0 818 1029749 -6722 0
0 0 0 761 1030510 -5961 0
0 0 0 770 1031280 -5191 0
0 0 0 791 1032071 -4400 0
0 0 0 822 1032893 -3578 0
0 0 0 832 1033725 -2746 0
53 1 S106 803 1034528 -1943 0
53 1 S106 790 1035318 -1153 0
53 1 S106 794 1036112 -359 0
53 2 S106 786 1036898 427 0
53 2 S106 787 1037685 1214 0
53 2 S106 742 1038427 1956 0
53 2 S106 768 1039195 2724 0
53 2 S106 774 1039969 3498 0
53 2 S106 799 1040768 4297 0
53 2 S106 807 1041575 5104 0
53 2 S106 812 1042387 5916 0
53 2 S106 824 1043211 6740 0
0 0 0 827 1044038 -6011 0
0 0 0 842 1044880 -5169 0
0 0 0 800 1045680 -4369 0
0 0 0 804 1046484 -3565 0
0 0 0 825 1047309 -2740 0
54 1 S102 828 1048137 -1912 0
54 1 S102 799 1048936 -1113 0
54 1 S102 791 1049727 -322 0
54 2 S102 799 1050526 477 0
54 2 S102 816 1051342 1293 0
54 2 S102 816 1052158 2109 0
54 2 S102 797 1052955 2906 0
54 2 S102 815 1053770 3721 0
54 2 S102 845 1054615 4566 0
54 2 S102 856 1055471 5422 0
54 2 S102 831 1056302 6253 0
0 0 0 799 1057101 -11764 0
0 0 0 799 1057900 -10965 0
0 0 0 812 1058712 -10153 0
0 0 0 822 1059534 -9331 0
0 0 0 776 1060310 -8555 0
0 0 0 764 1061074 -7791 0
0 0 0 766 1061840 -7025 0
0 0 0 783 1062623 -6242 0
0 0 0 781 1063404 -5461 0
0 0 0 759 1064163 -4702 0
0 0 0 778 1064941 -3924 0
0 0 0 798 1065739 -3126 0
0 0 0 802 1066541 -2324 0
55 1 S106 788 1067329 -1536 0
55 1 S106 757 1068086 -779 0
55 1 S106 772 1068858 -7 0
55 2 S106 777 1069635 770 0
55 2 S106 787 1070422 1557 0
55 2 S106 774 1071196 2331 0
55 2 S106 774 1071970 3105 0
55 2 S106 787 1072757 3892 0
55 2 S106 788 1073545 4680 0
55 2 S106 797 1074342 5477 0
55 2 S106 746 1075088 6223 0
55 2 S106 773 1075861 6996 0
0 0 0 778 1076639 -5721 0
0 0 0 800 1077439 -4921 0
0 0 0 796 1078235 -4125 0
0 0 0 759 1078994 -3366 0
0 0 0 779 1079773 -2587 0
56 1 S116 793 1080566 -1794 0
56 1 S116 811 1081377 -983 0
56 1 S116 787 1082164 -196 0
56 2 S116 782 1082946 586 0
56 2 S116 781 1083727 1367 0
56 2 S116 778 1084505 2145 0
56 2 S116 768 1085273 2913 0
56 2 S116 723 1085996 3636 0
56 2 S116 734 1086730 4370 0
56 2 S116 731 1087461 5101 0
56 2 S116 750 1088211 5851 0
56 2 S116 736 1088947 6587 0
0 0 0 720 1089667 -6967 0
0 0 0 757 1090424 -6210 0
0 0 0 762 1091186 -5448 0
0 0 0 770 1091956 -4678 0
0 0 0 751 1092707 -3927 0
0 0 0 739 1093446 -3188 0
0 0 0 749 1094195 -2439 0
57 1 S106 754 1094949 -1685 0
57 1 S106 762 1095711 -923 0
57 1 S106 751 1096462 -172 0
57 2 S106 743 1097205 571 0
57 2 S106 760 1097965 1331 0
57 2 S106 765 1098730 2096 0
57 2 S106 792 1099522 2888 0
57 2 S106 796 1100318 3684 0
57 2 S106 777 1101095 4461 0
57 2 S106 809 1101904 5270 0
57 2 S106 833 1102737 6103 0
57 2 S106 849 1103586 6952 0
0 0 0 828 1104414 -8086 0
0 0 0 796 1105210 -7290 0
0 0 0 793 1106003 -6497 0
0 0 0 785 1106788 -5712 0
0 0 0 771 1107559 -4941 0
0 0 0 748 1108307 -4193 0
0 0 0 776 1109083 -3417 0
0 0 0 800 1109883 -2617 0
58 1 S102 821 1110704 -1796 0
58 1 S102 808 1111512 -988 0
58 1 S102 816 1112328 -172 0
58 2 S102 820 1113148 648 0
58 2 S102 838 1113986 1486 0
58 2 S102 812 1114798 2298 0
58 2 S102 777 1115575 3075 0
58 2 S102 767 1116342 3842 0
58 2 S102 758 1117100 4600 0
58 2 S102 750 1117850 5350 0
58 2 S102 728 1118578 6078 0
58 2 S102 720 1119298 6798 0
0 0 0 739 1120037 -6156 0
0 0 0 768 1120805 -5388 0
0 0 0 809 1121614 -4579 0
0 0 0 788 1122402 -3791 0
0 0 0 768 1123170 -3023 0
0 0 0 777 1123947 -2246 0
59 1 S112 778 1124725 -1468 0
59 1 S112 766 1125491 -702 0
59 2 S112 732 1126223 30 0
59 2 S112 740 1126963 770 0
59 2 S112 748 1127711 1518 0
59 2 S112 769 1128480 2287 0
59 2 S112 773 1129253 3060 0
59 2 S112 757 1130010 3817 0
59 2 S112 791 1130801 4608 0
59 2 S112 819 1131620 5427 0
59 2 S112 838 1132458 6265 0
0 0 0 810 1133268 -9968 0
0 0 0 780 1134048 -9188 0
0 0 0 768 1134816 -8420 0
0 0 0 758 1135574 -7662 0
0 0 0 744 1136318 -6918 0
0 0 0 697 1137015 -6221 0
0 0 0 716 1137731 -5505 0
0 0 0 728 1138459 -4777 0
0 0 0 757 1139216 -4020 0
0 0 0 789 1140005 -3231 0
0 0 0 791 1140796 -2440 0
60 1 S102 814 1141610 -1626 0
60 1 S102 830 1142440 -796 0
60 2 S102 822 1143262 26 0
60 2 S102 784 1144046 810 0
60 2 S102 768 1144814 1578 0
60 2 S102 754 1145568 2332 0
60 2 S102 743 1146311 3075 0
60 2 S102 732 1147043 3807 0
60 2 S102 702 1147745 4509 0
60 2 S102 749 1148494 5258 0
60 2 S102 807 1149301 6065 0
60 2 S102 874 1150175 6939 0
0 0 0 848 1151023 -10913 0
0 0 0 831 1151854 -10082 0
0 0 0 851 1152705 -9231 0
0 0 0 847 1153552 -8384 0
0 0 0 810 1154362 -7574 0
0 0 0 790 1155152 -6784 0
0 0 0 764 1155916 -6020 0
0 0 0 766 1156682 -5254 0
0 0 0 772 1157454 -4482 0
0 0 0 763 1158217 -3719 0
0 0 0 809 1159026 -2910 0
0 0 0 824 1159850 -2086 0
61 1 S106 846 1160696 -1240 0
61 1 S106 836 1161532 -404 0
61 2 S106 824 1162356 420 0
61 2 S106 807 1163163 1227 0
61 2 S106 795 1163958 2022 0
61 2 S106 774 1164732 2796 0
61 2 S106 784 1165516 3580 0
61 2 S106 800 1166316 4380 0
61 2 S106 783 1167099 5163 0
61 2 S106 715 1167814 5878 0
61 2 S106 671 1168485 6549 0
0 0 0 673 1169158 -7467 0
0 0 0 700 1169858 -6767 0
0 0 0 731 1170589 -6036 0
0 0 0 777 1171366 -5259 0
0 0 0 758 1172124 -4501 0
0 0 0 730 1172854 -3771 0
0 0 0 751 1173605 -3020 0
0 0 0 749 1174354 -2271 0
62 1 S112 753 1175107 -1518 0
62 1 S112 738 1175845 -780 0
62 1 S112 727 1176572 -53 0
62 2 S112 759 1177331 706 0
62 2 S112 760 1178091 1466 0
62 2 S112 782 1178873 2248 0
62 2 S112 789 1179662 3037 0
62 2 S112 757 1180419 3794 0
62 2 S112 765 1181184 4559 0
62 2 S112 800 1181984 5359 0
62 2 S112 851 1182835 6210 0
0 0 0 840 1183675 -11087 0
0 0 0 804 1184479 -10283 0
0 0 0 786 1185265 -9497 0
0 0 0 789 1186054 -8708 0
0 0 0 786 1186840 -7922 0
0 0 0 778 1187618 -7144 0
0 0 0 728 1188346 -6416 0
0 0 0 775 1189121 -5641 0
0 0 0 805 1189926 -4836 0
0 0 0 836 1190762 -4000 0
0 0 0 849 1191611 -3151 0
0 0 0 816 1192427 -2335 0
63 1 S102 801 1193228 -1534 0
63 1 S102 800 1194028 -734 0
63 2 S102 805 1194833 71 0
63 2 S102 810 1195643 881 0
63 2 S102 765 1196408 1646 0
63 2 S102 751 1197159 2397 0
63 2 S102 762 1197921 3159 0
63 2 S102 774 1198695 3933 0
63 2 S102 803 1199498 4736 0
63 2 S102 796 1200294 5532 0
63 2 S102 804 1201098 6336 0
0 0 0 817 1201915 -8745 0
0 0 0 819 1202734 -7926 0
0 0 0 795 1203529 -7131 0
0 0 0 759 1204288 -6372 0
0 0 0 749 1205037 -5623 0
0 0 0 754 1205791 -4869 0
0 0 0 783 1206574 -4086 0
0 0 0 784 1207358 -3302 0
0 0 0 811 1208169 -2491 0
64 1 S112 831 1209000 -1660 0
64 1 S112 830 1209830 -830 0
64 1 S112 814 1210644 -16 0
64 2 S112 774 1211418 758 0
64 2 S112 783 1212201 1541 0
64 2 S112 781 1212982 2322 0
64 2 S112 784 1213766 3106 0
64 2 S112 746 1214512 3852 0
64 2 S112 764 1215276 4616 0
64 2 S112 790 1216066 5406 0
64 2 S112 819 1216885 6225 0
0 0 0 819 1217704 -7429 0
0 0 0 769 1218473 -6660 0
0 0 0 780 1219253 -5880 0
0 0 0 806 1220059 -5074 0
0 0 0 799 1220858 -4275 0
0 0 0 775 1221633 -3500 0
0 0 0 743 1222376 -2757 0
65 1 S106 762 1223138 -1995 0
65 1 S106 756 1223894 -1239 0
65 1 S106 757 1224651 -482 0
65 2 S106 731 1225382 249 0
65 2 S106 742 1226124 991 0
65 2 S106 754 1226878 1745 0
65 2 S106 775 1227653 2520 0
65 2 S106 787 1228440 3307 0
65 2 S106 759 1229199 4066 0
65 2 S106 768 1229967 4834 0
65 2 S106 780 1230747 5614 0
65 2 S106 813 1231560 6427 0
0 0 0 813 1232373 -6736 0
0 0 0 787 1233160 -5949 0
0 0 0 794 1233954 -5155 0
0 0 0 787 1234741 -4368 0
0 0 0 759 1235500 -3609 0
0 0 0 709 1236209 -2900 0
0 0 0 721 1236930 -2179 0
66 1 S116 726 1237656 -1453 0
66 1 S116 752 1238408 -701 0
66 2 S116 756 1239164 55 0
66 2 S116 715 1239879 770 0
66 2 S116 745 1240624 1515 0
66 2 S116 763 1241387 2278 0
66 2 S116 796 1242183 3074 0
66 2 S116 831 1243014 3905 0
66 2 S116 806 1243820 4711 0
66 2 S116 801 1244621 5512 0
66 2 S116 811 1245432 6323 0
0 0 0 789 1246221 -11190 0
0 0 0 771 1246992 -10419 0
0 0 0 726 1247718 -9693 0
0 0 0 744 1248462 -8949 0
0 0 0 739 1249201 -8210 0
0 0 0 756 1249957 -7454 0
0 0 0 766 1250723 -6688 0
0 0 0 775 1251498 -5913 0
0 0 0 813 1252311 -5100 0
0 0 0 842 1253153 -4258 0
0 0 0 827 1253980 -3431 0
0 0 0 777 1254757 -2654 0
67 1 S102 758 1255515 -1896 0
67 1 S102 753 1256268 -1143 0
67 1 S102 761 1257029 -382 0
67 2 S102 776 1257805 394 0
67 2 S102 759 1258564 1153 0
67 2 S102 780 1259344 1933 0
67 2 S102 804 1260148 2737 0
67 2 S102 832 1260980 3569 0
67 2 S102 817 1261797 4386 0
67 2 S102 797 1262594 5183 0
67 2 S102 817 1263411 6000 0
67 2 S102 818 1264229 6818 0
0 0 0 838 1265067 -6801 0
0 0 0 809 1265876 -5992 0
0 0 0 773 1266649 -5219 0
0 0 0 772 1267421 -4447 0
0 0 0 740 1268161 -3707 0
0 0 0 728 1268889 -2979 0
0 0 0 690 1269579 -2289 0
68 1 S106 692 1270271 -1597 0
68 1 S106 741 1271012 -856 0
68 1 S106 819 1271831 -37 0
68 2 S106 942 1272773 905 1
68 2 S106 890 1273663 1795 0
68 2 S106 852 1274515 2647 0
68 2 S106 858 1275373 3505 0
68 2 S106 853 1276226 4358 0
68 2 S106 832 1277058 5190 0
68 2 S106 790 1277848 5980 0
68 2 S106 771 1278619 6751 0
0 0 0 781 1279400 -10969 0
0 0 0 795 1280195 -10174 0
0 0 0 824 1281019 -9350 0
0 0 0 794 1281813 -8556 0
0 0 0 800 1282613 -7756 0
0 0 0 826 1283439 -6930 0
0 0 0 837 1284276 -6093 0
0 0 0 812 1285088 -5281 0
0 0 0 795 1285883 -4486 0
0 0 0 789 1286672 -3697 0
0 0 0 796 1287468 -2901 0
0 0 0 800 1288268 -2101 0
69 1 S102 772 1289040 -1329 0
69 1 S102 772 1289812 -557 0
69 2 S102 788 1290600 231 0
69 2 S102 818 1291418 1049 0
69 2 S102 827 1292245 1876 0
69 2 S102 776 1293021 2652 0
69 2 S102 784 1293805 3436 0
69 2 S102 789 1294594 4225 0
69 2 S102 793 1295387 5018 0
69 2 S102 810 1296197 5828 0
69 2 S102 797 1296994 6625 0
0 0 0 786 1297780 -9019 0
0 0 0 797 1298577 -8222 0
0 0 0 786 1299363 -7436 0
0 0 0 773 1300136 -6663 0
0 0 0 713 1300849 -5950 0
0 0 0 739 1301588 -5211 0
0 0 0 756 1302344 -4455 0
0 0 0 779 1303123 -3676 0
0 0 0 795 1303918 -2881 0
0 0 0 772 1304690 -2109 0
70 1 S112 770 1305460 -1339 0
70 1 S112 784 1306244 -555 0
70 2 S112 785 1307029 230 0
70 2 S112 777 1307806 1007 0
70 2 S112 730 1308536 1737 0
70 2 S112 749 1309285 2486 0
70 2 S112 762 1310047 3248 0
70 2 S112 792 1310839 4040 0
70 2 S112 793 1311632 4833 0
70 2 S112 785 1312417 5618 0
70 2 S112 818 1313235 6436 0
0 0 0 829 1314064 -10954 0
0 0 0 829 1314893 -10125 0
0 0 0 784 1315677 -9341 0
0 0 0 768 1316445 -8573 0
0 0 0 768 1317213 -7805 0
0 0 0 785 1317998 -7020 0
0 0 0 810 1318808 -6210 0
0 0 0 793 1319601 -5417 0
0 0 0 807 1320408 -4610 0
0 0 0 827 1321235 -3783 0
0 0 0 830 1322065 -2953 0
0 0 0 817 1322882 -2136 0
71 1 S116 781 1323663 -1355 0
71 1 S116 789 1324452 -566 0
71 2 S116 794 1325246 228 0
71 2 S116 800 1326046 1028 0
71 2 S116 789 1326835 1817 0
71 2 S116 752 1327587 2569 0
71 2 S116 768 1328355 3337 0
71 2 S116 769 1329124 4106 0
71 2 S116 767 1329891 4873 0
71 2 S116 739 1330630 5612 0
71 2 S116 688 1331318 6300 0
71 2 S116 661 1331979 6961 0
0 0 0 694 1332673 -8028 0
0 0 0 696 1333369 -7332 0
0 0 0 729 1334098 -6603 0
0 0 0 767 1334865 -5836 0
0 0 0 775 1335640 -5061 0
0 0 0 730 1336370 -4331 0
0 0 0 741 1337111 -3590 0
0 0 0 744 1337855 -2846 0
0 0 0 739 1338594 -2107 0
72 1 S102 738 1339332 -1369 0
72 1 S102 705 1340037 -664 0
72 2 S102 712 1340749 48 0
72 2 S102 720 1341469 768 0
72 2 S102 736 1342205 1504 0
72 2 S102 753 1342958 2257 0
72 2 S102 733 1343691 2990 0
72 2 S102 764 1344455 3754 0
72 2 S102 799 1345254 4553 0
72 2 S102 830 1346084 5383 0
72 2 S102 853 1346937 6236 0
0 0 0 828 1347765 -6813 0
0 0 0 838 1348603 -5975 0
0 0 0 842 1349445 -5133 0
0 0 0 818 1350263 -4315 0
0 0 0 772 1351035 -3543 0
0 0 0 799 1351834 -2744 0
73 1 S116 828 1352662 -1916 0
73 1 S116 858 1353520 -1058 0
73 1 S116 826 1354346 -232 0
73 2 S116 842 1355188 610 0
73 2 S116 876 1356064 1486 0
73 2 S116 895 1356959 2381 0
73 2 S116 843 1357802 3224 0
73 2 S116 811 1358613 4035 0
73 2 S116 793 1359406 4828 0
73 2 S116 802 1360208 5630 0
73 2 S116 818 1361026 6448 0
0 0 0 812 1361838 -8274 0
0 0 0 754 1362592 -7520 0
0 0 0 772 1363364 -6748 0
0 0 0 773 1364137 -5975 0
0 0 0 804 1364941 -5171 0
0 0 0 814 1365755 -4357 0
0 0 0 822 1366577 -3535 0
0 0 0 868 1367445 -2667 0
74 1 S106 889 1368334 -1778 0
74 1 S106 883 1369217 -895 0
74 1 S106 846 1370063 -49 0
74 2 S106 839 1370902 790 0
74 2 S106 833 1371735 1623 0
74 2 S106 837 1372572 2460 0
74 2 S106 818 1373390 3278 0
74 2 S106 822 1374212 4100 0
74 2 S106 844 1375056 4944 0
74 2 S106 838 1375894 5782 0
74 2 S106 808 1376702 6590 0
0 0 0 758 1377460 -6677 0
0 0 0 717 1378177 -5960 0
0 0 0 726 1378903 -5234 0
0 0 0 747 1379650 -4487 0
0 0 0 701 1380351 -3786 0
0 0 0 715 1381066 -3071 0
0 0 0 737 1381803 -2334 0
75 1 S112 778 1382581 -1556 0
75 1 S112 811 1383392 -745 0
75 2 S112 806 1384198 61 0
75 2 S112 803 1385001 864 0
75 2 S112 824 1385825 1688 0
75 2 S112 824 1386649 2512 0
75 2 S112 812 1387461 3324 0
75 2 S112 774 1388235 4098 0
75 2 S112 781 1389016 4879 0
75 2 S112 813 1389829 5692 0
75 2 S112 856 1390685 6548 0
0 0 0 861 1391546 -6915 0
0 0 0 827 1392373 -6088 0
0 0 0 821 1393194 -5267 0
0 0 0 827 1394021 -4440 0
0 0 0 819 1394840 -3621 0
0 0 0 798 1395638 -2823 0
0 0 0 784 1396422 -2039 0
76 1 S116 805 1397227 -1234 0
76 1 S116 836 1398063 -398 0
76 2 S116 848 1398911 450 0
76 2 S116 819 1399730 1269 0
76 2 S116 802 1400532 2071 0
76 2 S116 825 1401357 2896 0
76 2 S116 824 1402181 3720 0
76 2 S116 814 1402995 4534 0
76 2 S116 766 1403761 5300 0
76 2 S116 787 1404548 6087 0
76 2 S116 798 1405346 6885 0
0 0 0 827 1406173 -5915 0
0 0 0 815 1406988 -5100 0
0 0 0 795 1407783 -4305 0
0 0 0 784 1408567 -3521 0
0 0 0 785 1409352 -2736 0
77 1 S106 804 1410156 -1932 0
77 1 S106 773 1410929 -1159 0
77 1 S106 807 1411736 -352 0
77 2 S106 837 1412573 485 0
77 2 S106 841 1413414 1326 0
77 2 S106 812 1414226 2138 0
77 2 S106 774 1415000 2912 0
77 2 S106 766 1415766 3678 0
77 2 S106 751 1416517 4429 0
77 2 S106 748 1417265 5177 0
77 2 S106 717 1417982 5894 0
77 2 S106 725 1418707 6619 0
0 0 0 755 1419462 -9006 0
0 0 0 810 1420272 -8196 0
0 0 0 850 1421122 -7346 0
0 0 0 821 1421943 -6525 0
0 0 0 803 1422746 -5722 0
0 0 0 792 1423538 -4930 0
0 0 0 792 1424330 -4138 0
0 0 0 764 1425094 -3374 0
0 0 0 737 1425831 -2637 0
78 1 S112 763 1426594 -1874 0
78 1 S112 775 1427369 -1099 0
78 1 S112 814 1428183 -285 0
78 2 S112 822 1429005 537 0
78 2 S112 823 1429828 1360 0
78 2 S112 845 1430673 2205 0
78 2 S112 850 1431523 3055 0
78 2 S112 826 1432349 3881 0
78 2 S112 778 1433127 4659 0
78 2 S112 781 1433908 5440 0
78 2 S112 792 1434700 6232 0
0 0 0 807 1435507 -10915 0
0 0 0 801 1436308 -10114 0
0 0 0 774 1437082 -9340 0
0 0 0 801 1437883 -8539 0
0 0 0 816 1438699 -7723 0
0 0 0 844 1439543 -6879 0
0 0 0 845 1440388 -6034 0
0 0 0 844 1441232 -5190 0
0 0 0 853 1442085 -4337 0
0 0 0 843 1442928 -3494 0
0 0 0 820 1443748 -2674 0
79 1 S102 771 1444519 -1903 0
79 1 S102 770 1445289 -1133 0
79 1 S102 762 1446051 -371 0
79 2 S102 761 1446812 390 0
79 2 S102 757 1447569 1147 0
79 2 S102 727 1448296 1874 0
79 2 S102 777 1449073 2651 0
79 2 S102 807 1449880 3458 0
79 2 S102 858 1450738 4316 0
79 2 S102 862 1451600 5178 0
79 2 S102 867 1452467 6045 0
79 2 S102 867 1453334 6912 0
0 0 0 862 1454196 -8954 0
0 0 0 822 1455018 -8132 0
0 0 0 786 1455804 -7346 0
0 0 0 781 1456585 -6565 0
0 0 0 754 1457339 -5811 0
0 0 0 727 1458066 -5084 0
0 0 0 698 1458764 -4386 0
0 0 0 730 1459494 -3656 0
0 0 0 751 1460245 -2905 0
0 0 0 854 1461099 -2051 0
80 1 S116 920 1462019 -1131 0
80 1 S116 880 1462899 -251 0
80 2 S116 893 1463792 642 0
80 2 S116 887 1464679 1529 0
80 2 S116 870 1465549 2399 0
80 2 S116 862 1466411 3261 0
80 2 S116 874 1467285 4135 0
80 2 S116 880 1468165 5015 0
80 2 S116 870 1469035 5885 0
80 2 S116 851 1469886 6736 0
