T_0129
BeatCount Mean SD BeatCountNoOutliers MeanNoOutliers SDNoOutliers
2195 715,980410022779 51,2070090385318 2179 715,291877007802 42,6567082341487

Trial TrialStatus Trialtype IBI AbsPosition RelPosition Outlier
0 0 0 726 904 -15152 0
0 0 0 706 1610 -14446 0
0 0 0 699 2309 -13747 0
0 0 0 678 2987 -13069 0
0 0 0 651 3638 -12418 0
0 0 0 659 4297 -11759 0
0 0 0 643 4940 -11116 0
0 0 0 625 5565 -10491 0
0 0 0 605 6170 -9886 0
0 0 0 618 6788 -9268 0
0 0 0 639 7427 -8629 0
0 0 0 652 8079 -7977 0
0 0 0 704 8783 -7273 0
0 0 0 741 9524 -6532 0
0 0 0 765 10289 -5767 0
0 0 0 773 11062 -4994 0
0 0 0 765 11827 -4229 0
0 0 0 741 12568 -3488 0
0 0 0 743 13311 -2745 0
1 1 S112 759 14070 -1986 0
1 1 S112 747 14817 -1239 0
1 1 S112 746 15563 -493 0
1 2 S112 724 16287 231 0
1 2 S112 712 16999 943 0
1 2 S112 722 17721 1665 0
1 2 S112 735 18456 2400 0
1 2 S112 745 19201 3145 0
1 2 S112 749 19950 3894 0
1 2 S112 734 20684 4628 0
1 2 S112 716 21400 5344 0
1 2 S112 709 22109 6053 0
1 2 S112 721 22830 6774 0
0 0 0 734 23564 -11640 0
0 0 0 753 24317 -10887 0
0 0 0 737 25054 -10150 0
0 0 0 756 25810 -9394 0
0 0 0 749 26559 -8645 0
0 0 0 723 27282 -7922 0
0 0 0 702 27984 -7220 0
0 0 0 669 28653 -6551 0
0 0 0 665 29318 -5886 0
0 0 0 670 29988 -5216 0
0 0 0 692 30680 -4524 0
0 0 0 725 31405 -3799 0
0 0 0 723 32128 -3076 0
0 0 0 723 32851 -2353 0
2 1 S102 743 33594 -1610 0
2 1 S102 768 34362 -842 0
2 1 S102 781 35143 -61 0
2 2 S102 793 35936 732 0
2 2 S102 781 36717 1513 0
2 2 S102 752 37469 2265 0
2 2 S102 725 38194 2990 0
2 2 S102 728 38922 3718 0
2 2 S102 735 39657 4453 0
2 2 S102 745 40402 5198 0
2 2 S102 760 41162 5958 0
2 2 S102 769 41931 6727 0
0 0 0 760 42691 -8578 0
0 0 0 777 43468 -7801 0
0 0 0 791 44259 -7010 0
0 0 0 772 45031 -6238 0
0 0 0 741 45772 -5497 0
0 0 0 725 46497 -4772 0
0 0 0 724 47221 -4048 0
0 0 0 739 47960 -3309 0
0 0 0 739 48699 -2570 0
3 1 S116 729 49428 -1841 0
3 1 S116 717 50145 -1124 0
3 1 S116 700 50845 -424 0
3 2 S116 720 51565 296 0
3 2 S116 741 52306 1037 0
3 2 S116 755 53061 1792 0
3 2 S116 767 53828 2559 0
3 2 S116 753 54581 3312 0
3 2 S116 731 55312 4043 0
3 2 S116 735 56047 4778 0
3 2 S116 743 56790 5521 0
3 2 S116 734 57524 6255 0
3 2 S116 733 58257 6988 0
0 0 0 741 58998 -11203 0
0 0 0 751 59749 -10452 0
0 0 0 754 60503 -9698 0
0 0 0 746 61249 -8952 0
0 0 0 727 61976 -8225 0
0 0 0 699 62675 -7526 0
0 0 0 703 63378 -6823 0
0 0 0 690 64068 -6133 0
0 0 0 683 64751 -5450 0
0 0 0 668 65419 -4782 0
0 0 0 653 66072 -4129 0
0 0 0 639 66711 -3490 0
0 0 0 636 67347 -2854 0
0 0 0 633 67980 -2221 0
4 1 S106 645 68625 -1576 0
4 1 S106 674 69299 -902 0
4 1 S106 695 69994 -207 0
4 2 S106 707 70701 500 0
4 2 S106 752 71453 1252 0
4 2 S106 806 72259 2058 0
4 2 S106 839 73098 2897 0
4 2 S106 827 73925 3724 0
4 2 S106 811 74736 4535 0
4 2 S106 774 75510 5309 0
4 2 S106 774 76284 6083 0
4 2 S106 764 77048 6847 0
0 0 0 748 77796 -7889 0
0 0 0 722 78518 -7167 0
0 0 0 728 79246 -6439 0
0 0 0 720 79966 -5719 0
0 0 0 722 80688 -4997 0
0 0 0 701 81389 -4296 0
0 0 0 671 82060 -3625 0
0 0 0 644 82704 -2981 0
0 0 0 642 83346 -2339 0
5 1 S116 638 83984 -1701 0
5 1 S116 647 84631 -1054 0
5 1 S116 673 85304 -381 0
5 2 S116 667 85971 286 0
5 2 S116 653 86624 939 0
5 2 S116 655 87279 1594 0
5 2 S116 659 87938 2253 0
5 2 S116 679 88617 2932 0
5 2 S116 701 89318 3633 0
5 2 S116 713 90031 4346 0
5 2 S116 727 90758 5073 0
5 2 S116 718 91476 5791 0
5 2 S116 688 92164 6479 0
0 0 0 692 92856 -10369 0
0 0 0 695 93551 -9674 0
0 0 0 705 94256 -8969 0
0 0 0 721 94977 -8248 0
0 0 0 744 95721 -7504 0
0 0 0 759 96480 -6745 0
0 0 0 729 97209 -6016 0
0 0 0 696 97905 -5320 0
0 0 0 721 98626 -4599 0
0 0 0 738 99364 -3861 0
0 0 0 762 100126 -3099 0
0 0 0 761 100887 -2338 0
6 1 S106 754 101641 -1584 0
6 1 S106 768 102409 -816 0
6 1 S106 748 103157 -68 0
6 2 S106 736 103893 668 0
6 2 S106 730 104623 1398 0
6 2 S106 733 105356 2131 0
6 2 S106 737 106093 2868 0
6 2 S106 756 106849 3624 0
6 2 S106 739 107588 4363 0
6 2 S106 733 108321 5096 0
6 2 S106 735 109056 5831 0
6 2 S106 779 109835 6610 0
0 0 0 813 110648 -11178 0
0 0 0 837 111485 -10341 0
0 0 0 822 112307 -9519 0
0 0 0 795 113102 -8724 0
0 0 0 715 113817 -8009 0
0 0 0 709 114526 -7300 0
0 0 0 686 115212 -6614 0
0 0 0 665 115877 -5949 0
0 0 0 675 116552 -5274 0
0 0 0 684 117236 -4590 0
0 0 0 683 117919 -3907 0
0 0 0 666 118585 -3241 0
0 0 0 673 119258 -2568 0
7 1 S102 680 119938 -1888 0
7 1 S102 711 120649 -1177 0
7 1 S102 735 121384 -442 0
7 2 S102 740 122124 298 0
7 2 S102 731 122855 1029 0
7 2 S102 733 123588 1762 0
7 2 S102 745 124333 2507 0
7 2 S102 754 125087 3261 0
7 2 S102 754 125841 4015 0
7 2 S102 759 126600 4774 0
7 2 S102 734 127334 5508 0
7 2 S102 716 128050 6224 0
7 2 S102 708 128758 6932 0
0 0 0 699 129457 -7572 0
0 0 0 720 130177 -6852 0
0 0 0 747 130924 -6105 0
0 0 0 765 131689 -5340 0
0 0 0 768 132457 -4572 0
0 0 0 768 133225 -3804 0
0 0 0 741 133966 -3063 0
0 0 0 718 134684 -2345 0
8 1 S112 726 135410 -1619 0
8 1 S112 721 136131 -898 0
8 1 S112 730 136861 -168 0
8 2 S112 731 137592 563 0
8 2 S112 737 138329 1300 0
8 2 S112 737 139066 2037 0
8 2 S112 749 139815 2786 0
8 2 S112 769 140584 3555 0
8 2 S112 788 141372 4343 0
8 2 S112 796 142168 5139 0
8 2 S112 780 142948 5919 0
8 2 S112 755 143703 6674 0
0 0 0 727 144430 -7154 0
0 0 0 731 145161 -6423 0
0 0 0 744 145905 -5679 0
0 0 0 756 146661 -4923 0
0 0 0 731 147392 -4192 0
0 0 0 689 148081 -3503 0
0 0 0 668 148749 -2835 0
0 0 0 670 149419 -2165 0
9 1 S116 672 150091 -1493 0
9 1 S116 695 150786 -798 0
9 1 S116 718 151504 -80 0
9 2 S116 746 152250 666 0
9 2 S116 761 153011 1427 0
9 2 S116 738 153749 2165 0
9 2 S116 717 154466 2882 0
9 2 S116 728 155194 3610 0
9 2 S116 728 155922 4338 0
9 2 S116 737 156659 5075 0
9 2 S116 736 157395 5811 0
9 2 S116 751 158146 6562 0
0 0 0 733 158879 -12019 0
0 0 0 723 159602 -11296 0
0 0 0 737 160339 -10559 0
0 0 0 738 161077 -9821 0
0 0 0 745 161822 -9076 0
0 0 0 715 162537 -8361 0
0 0 0 675 163212 -7686 0
0 0 0 666 163878 -7020 0
0 0 0 662 164540 -6358 0
0 0 0 658 165198 -5700 0
0 0 0 659 165857 -5041 0
0 0 0 656 166513 -4385 0
0 0 0 653 167166 -3732 0
0 0 0 651 167817 -3081 0
0 0 0 644 168461 -2437 0
10 1 S102 642 169103 -1795 0
10 1 S102 635 169738 -1160 0
10 1 S102 639 170377 -521 0
10 2 S102 667 171044 146 0
10 2 S102 706 171750 852 0
10 2 S102 746 172496 1598 0
10 2 S102 748 173244 2346 0
10 2 S102 732 173976 3078 0
10 2 S102 732 174708 3810 0
10 2 S102 737 175445 4547 0
10 2 S102 756 176201 5303 0
10 2 S102 754 176955 6057 0
10 2 S102 737 177692 6794 0
0 0 0 735 178427 -11288 0
0 0 0 752 179179 -10536 0
0 0 0 757 179936 -9779 0
0 0 0 743 180679 -9036 0
0 0 0 710 181389 -8326 0
0 0 0 713 182102 -7613 0
0 0 0 700 182802 -6913 0
0 0 0 695 183497 -6218 0
0 0 0 687 184184 -5531 0
0 0 0 703 184887 -4828 0
0 0 0 720 185607 -4108 0
0 0 0 742 186349 -3366 0
0 0 0 766 187115 -2600 0
11 1 S112 751 187866 -1849 0
11 1 S112 743 188609 -1106 0
11 1 S112 749 189358 -357 0
11 2 S112 761 190119 404 0
11 2 S112 781 190900 1185 0
11 2 S112 764 191664 1949 0
11 2 S112 730 192394 2679 0
11 2 S112 713 193107 3392 0
11 2 S112 721 193828 4113 0
11 2 S112 717 194545 4830 0
11 2 S112 719 195264 5549 0
11 2 S112 713 195977 6262 0
11 2 S112 713 196690 6975 0
0 0 0 730 197420 -7166 0
0 0 0 755 198175 -6411 0
0 0 0 784 198959 -5627 0
0 0 0 802 199761 -4825 0
0 0 0 751 200512 -4074 0
0 0 0 718 201230 -3356 0
0 0 0 720 201950 -2636 0
12 1 S116 720 202670 -1916 0
12 1 S116 729 203399 -1187 0
12 1 S116 716 204115 -471 0
12 2 S116 685 204800 214 0
12 2 S116 663 205463 877 0
12 2 S116 657 206120 1534 0
12 2 S116 657 206777 2191 0
12 2 S116 658 207435 2849 0
12 2 S116 665 208100 3514 0
12 2 S116 654 208754 4168 0
12 2 S116 658 209412 4826 0
12 2 S116 681 210093 5507 0
12 2 S116 719 210812 6226 0
12 2 S116 759 211571 6985 0
0 0 0 782 212353 -10850 0
0 0 0 775 213128 -10075 0
0 0 0 741 213869 -9334 0
0 0 0 737 214606 -8597 0
0 0 0 710 215316 -7887 0
0 0 0 699 216015 -7188 0
0 0 0 676 216691 -6512 0
0 0 0 672 217363 -5840 0
0 0 0 688 218051 -5152 0
0 0 0 716 218767 -4436 0
0 0 0 748 219515 -3688 0
0 0 0 750 220265 -2938 0
0 0 0 737 221002 -2201 0
13 1 S112 768 221770 -1433 0
13 1 S112 763 222533 -670 0
13 2 S112 764 223297 94 0
13 2 S112 718 224015 812 0
13 2 S112 712 224727 1524 0
13 2 S112 723 225450 2247 0
13 2 S112 736 226186 2983 0
13 2 S112 742 226928 3725 0
13 2 S112 763 227691 4488 0
13 2 S112 776 228467 5264 0
13 2 S112 744 229211 6008 0
13 2 S112 750 229961 6758 0
0 0 0 780 230741 -12174 0
0 0 0 809 231550 -11365 0
0 0 0 806 232356 -10559 0
0 0 0 787 233143 -9772 0
0 0 0 798 233941 -8974 0
0 0 0 764 234705 -8210 0
0 0 0 733 235438 -7477 0
0 0 0 691 236129 -6786 0
0 0 0 674 236803 -6112 0
0 0 0 689 237492 -5423 0
0 0 0 705 238197 -4718 0
0 0 0 742 238939 -3976 0
0 0 0 747 239686 -3229 0
0 0 0 718 240404 -2511 0
14 1 S106 703 241107 -1808 0
14 1 S106 709 241816 -1099 0
14 1 S106 730 242546 -369 0
14 2 S106 788 243334 419 0
14 2 S106 812 244146 1231 0
14 2 S106 804 244950 2035 0
14 2 S106 823 245773 2858 0
14 2 S106 828 246601 3686 0
14 2 S106 834 247435 4520 0
14 2 S106 812 248247 5332 0
14 2 S106 767 249014 6099 0
14 2 S106 774 249788 6873 0
0 0 0 778 250566 -12077 0
0 0 0 778 251344 -11299 0
0 0 0 753 252097 -10546 0
0 0 0 733 252830 -9813 0
0 0 0 739 253569 -9074 0
0 0 0 742 254311 -8332 0
0 0 0 746 255057 -7586 0
0 0 0 726 255783 -6860 0
0 0 0 711 256494 -6149 0
0 0 0 726 257220 -5423 0
0 0 0 750 257970 -4673 0
0 0 0 777 258747 -3896 0
0 0 0 787 259534 -3109 0
0 0 0 763 260297 -2346 0
15 1 S116 750 261047 -1596 0
15 1 S116 754 261801 -842 0
15 1 S116 755 262556 -87 0
15 2 S116 761 263317 674 0
15 2 S116 749 264066 1423 0
15 2 S116 724 264790 2147 0
15 2 S116 742 265532 2889 0
15 2 S116 739 266271 3628 0
15 2 S116 752 267023 4380 0
15 2 S116 748 267771 5128 0
15 2 S116 729 268500 5857 0
15 2 S116 750 269250 6607 0
0 0 0 753 270003 -10246 0
0 0 0 764 270767 -9482 0
0 0 0 763 271530 -8719 0
0 0 0 730 272260 -7989 0
0 0 0 736 272996 -7253 0
0 0 0 731 273727 -6522 0
0 0 0 697 274424 -5825 0
0 0 0 665 275089 -5160 0
0 0 0 652 275741 -4508 0
0 0 0 652 276393 -3856 0
0 0 0 672 277065 -3184 0
0 0 0 719 277784 -2465 0
16 1 S116 753 278537 -1712 0
16 1 S116 762 279299 -950 0
16 1 S116 754 280053 -196 0
16 2 S116 726 280779 530 0
16 2 S116 694 281473 1224 0
16 2 S116 683 282156 1907 0
16 2 S116 698 282854 2605 0
16 2 S116 723 283577 3328 0
16 2 S116 764 284341 4092 0
16 2 S116 794 285135 4886 0
16 2 S116 782 285917 5668 0
16 2 S116 758 286675 6426 0
0 0 0 765 287440 -9703 0
0 0 0 780 288220 -8923 0
0 0 0 789 289009 -8134 0
0 0 0 771 289780 -7363 0
0 0 0 747 290527 -6616 0
0 0 0 750 291277 -5866 0
0 0 0 745 292022 -5121 0
0 0 0 725 292747 -4396 0
0 0 0 702 293449 -3694 0
0 0 0 683 294132 -3011 0
0 0 0 685 294817 -2326 0
17 1 S106 701 295518 -1625 0
17 1 S106 737 296255 -888 0
17 1 S106 761 297016 -127 0
17 2 S106 775 297791 648 0
17 2 S106 773 298564 1421 0
17 2 S106 746 299310 2167 0
17 2 S106 732 300042 2899 0
17 2 S106 709 300751 3608 0
17 2 S106 711 301462 4319 0
17 2 S106 724 302186 5043 0
17 2 S106 746 302932 5789 0
17 2 S106 757 303689 6546 0
0 0 0 737 304426 -12793 0
0 0 0 716 305142 -12077 0
0 0 0 714 305856 -11363 0
0 0 0 690 306546 -10673 0
0 0 0 682 307228 -9991 0
0 0 0 686 307914 -9305 0
0 0 0 697 308611 -8608 0
0 0 0 708 309319 -7900 0
0 0 0 712 310031 -7188 0
0 0 0 684 310715 -6504 0
0 0 0 670 311385 -5834 0
0 0 0 671 312056 -5163 0
0 0 0 679 312735 -4484 0
0 0 0 706 313441 -3778 0
0 0 0 719 314160 -3059 0
0 0 0 743 314903 -2316 0
18 1 S102 730 315633 -1586 0
18 1 S102 746 316379 -840 0
18 1 S102 760 317139 -80 0
18 2 S102 776 317915 696 0
18 2 S102 790 318705 1486 0
18 2 S102 755 319460 2241 0
18 2 S102 741 320201 2982 0
18 2 S102 746 320947 3728 0
18 2 S102 759 321706 4487 0
18 2 S102 747 322453 5234 0
18 2 S102 727 323180 5961 0
18 2 S102 711 323891 6672 0
0 0 0 714 324605 -8181 0
0 0 0 720 325325 -7461 0
0 0 0 729 326054 -6732 0
0 0 0 709 326763 -6023 0
0 0 0 692 327455 -5331 0
0 0 0 709 328164 -4622 0
0 0 0 697 328861 -3925 0
0 0 0 679 329540 -3246 0
0 0 0 659 330199 -2587 0
19 1 S106 649 330848 -1938 0
19 1 S106 668 331516 -1270 0
19 1 S106 694 332210 -576 0
19 2 S106 730 332940 154 0
19 2 S106 753 333693 907 0
19 2 S106 752 334445 1659 0
19 2 S106 717 335162 2376 0
19 2 S106 695 335857 3071 0
19 2 S106 698 336555 3769 0
19 2 S106 709 337264 4478 0
19 2 S106 724 337988 5202 0
19 2 S106 756 338744 5958 0
19 2 S106 759 339503 6717 0
0 0 0 748 340251 -11169 0
0 0 0 731 340982 -10438 0
0 0 0 737 341719 -9701 0
0 0 0 735 342454 -8966 0
0 0 0 712 343166 -8254 0
0 0 0 702 343868 -7552 0
0 0 0 688 344556 -6864 0
0 0 0 700 345256 -6164 0
0 0 0 705 345961 -5459 0
0 0 0 712 346673 -4747 0
0 0 0 718 347391 -4029 0
0 0 0 700 348091 -3329 0
0 0 0 720 348811 -2609 0
20 1 S112 722 349533 -1887 0
20 1 S112 742 350275 -1145 0
20 1 S112 748 351023 -397 0
20 2 S112 734 351757 337 0
20 2 S112 717 352474 1054 0
20 2 S112 708 353182 1762 0
20 2 S112 710 353892 2472 0
20 2 S112 724 354616 3196 0
20 2 S112 736 355352 3932 0
20 2 S112 734 356086 4666 0
20 2 S112 710 356796 5376 0
20 2 S112 699 357495 6075 0
20 2 S112 711 358206 6786 0
0 0 0 720 358926 -10051 0
0 0 0 750 359676 -9301 0
0 0 0 756 360432 -8545 0
0 0 0 730 361162 -7815 0
0 0 0 752 361914 -7063 0
0 0 0 732 362646 -6331 0
0 0 0 694 363340 -5637 0
0 0 0 664 364004 -4973 0
0 0 0 661 364665 -4312 0
0 0 0 645 365310 -3667 0
0 0 0 642 365952 -3025 0
0 0 0 628 366580 -2397 0
21 1 S106 615 367195 -1782 0
21 1 S106 618 367813 -1164 0
21 1 S106 627 368440 -537 0
21 2 S106 620 369060 83 0
21 2 S106 624 369684 707 0
21 2 S106 624 370308 1331 0
21 2 S106 621 370929 1952 0
21 2 S106 629 371558 2581 0
21 2 S106 634 372192 3215 0
21 2 S106 646 372838 3861 0
21 2 S106 661 373499 4522 0
21 2 S106 668 374167 5190 0
21 2 S106 661 374828 5851 0
21 2 S106 651 375479 6502 0
0 0 0 655 376134 -11245 0
0 0 0 666 376800 -10579 0
0 0 0 722 377522 -9857 0
0 0 0 787 378309 -9070 0
0 0 0 794 379103 -8276 0
0 0 0 775 379878 -7501 0
0 0 0 761 380639 -6740 0
0 0 0 794 381433 -5946 0
0 0 0 810 382243 -5136 0
0 0 0 806 383049 -4330 0
0 0 0 778 383827 -3552 0
0 0 0 742 384569 -2810 0
0 0 0 734 385303 -2076 0
22 1 S116 736 386039 -1340 0
22 1 S116 736 386775 -604 0
22 2 S116 734 387509 130 0
22 2 S116 717 388226 847 0
22 2 S116 713 388939 1560 0
22 2 S116 731 389670 2291 0
22 2 S116 737 390407 3028 0
22 2 S116 771 391178 3799 0
22 2 S116 765 391943 4564 0
22 2 S116 751 392694 5315 0
22 2 S116 770 393464 6085 0
22 2 S116 778 394242 6863 0
0 0 0 784 395026 -8981 0
0 0 0 779 395805 -8202 0
0 0 0 755 396560 -7447 0
0 0 0 775 397335 -6672 0
0 0 0 770 398105 -5902 0
0 0 0 729 398834 -5173 0
0 0 0 692 399526 -4481 0
0 0 0 670 400196 -3811 0
0 0 0 672 400868 -3139 0
0 0 0 693 401561 -2446 0
23 1 S112 740 402301 -1706 0
23 1 S112 755 403056 -951 0
23 1 S112 750 403806 -201 0
23 2 S112 779 404585 578 0
23 2 S112 808 405393 1386 0
23 2 S112 809 406202 2195 0
23 2 S112 804 407006 2999 0
23 2 S112 778 407784 3777 0
23 2 S112 795 408579 4572 0
23 2 S112 816 409395 5388 0
23 2 S112 819 410214 6207 0
23 2 S112 806 411020 7013 0
0 0 0 770 411790 -9061 0
0 0 0 770 412560 -8291 0
0 0 0 777 413337 -7514 0
0 0 0 774 414111 -6740 0
0 0 0 745 414856 -5995 0
0 0 0 717 415573 -5278 0
0 0 0 703 416276 -4575 0
0 0 0 726 417002 -3849 0
0 0 0 750 417752 -3099 0
0 0 0 753 418505 -2346 0
24 1 S106 727 419232 -1619 0
24 1 S106 707 419939 -912 0
24 1 S106 708 420647 -204 0
24 2 S106 723 421370 519 0
24 2 S106 734 422104 1253 0
24 2 S106 751 422855 2004 0
24 2 S106 749 423604 2753 0
24 2 S106 761 424365 3514 0
24 2 S106 803 425168 4317 0
24 2 S106 816 425984 5133 0
24 2 S106 794 426778 5927 0
24 2 S106 765 427543 6692 0
0 0 0 778 428321 -9506 0
0 0 0 793 429114 -8713 0
0 0 0 801 429915 -7912 0
0 0 0 793 430708 -7119 0
0 0 0 759 431467 -6360 0
0 0 0 709 432176 -5651 0
0 0 0 665 432841 -4986 0
0 0 0 656 433497 -4330 0
0 0 0 625 434122 -3705 0
0 0 0 623 434745 -3082 0
0 0 0 657 435402 -2425 0
25 1 S102 703 436105 -1722 0
25 1 S102 711 436816 -1011 0
25 1 S102 685 437501 -326 0
25 2 S102 667 438168 341 0
25 2 S102 669 438837 1010 0
25 2 S102 686 439523 1696 0
25 2 S102 727 440250 2423 0
25 2 S102 784 441034 3207 0
25 2 S102 804 441838 4011 0
25 2 S102 805 442643 4816 0
25 2 S102 769 443412 5585 0
25 2 S102 718 444130 6303 0
25 2 S102 707 444837 7010 0
0 0 0 690 445527 -6574 0
0 0 0 685 446212 -5889 0
0 0 0 672 446884 -5217 0
0 0 0 676 447560 -4541 0
0 0 0 687 448247 -3854 0
0 0 0 689 448936 -3165 0
0 0 0 675 449611 -2490 0
26 1 S116 690 450301 -1800 0
26 1 S116 707 451008 -1093 0
26 1 S116 729 451737 -364 0
26 2 S116 733 452470 369 0
26 2 S116 740 453210 1109 0
26 2 S116 721 453931 1830 0
26 2 S116 727 454658 2557 0
26 2 S116 731 455389 3288 0
26 2 S116 742 456131 4030 0
26 2 S116 739 456870 4769 0
26 2 S116 736 457606 5505 0
26 2 S116 731 458337 6236 0
26 2 S116 717 459054 6953 0
0 0 0 694 459748 -7456 0
0 0 0 710 460458 -6746 0
0 0 0 705 461163 -6041 0
0 0 0 709 461872 -5332 0
0 0 0 712 462584 -4620 0
0 0 0 677 463261 -3943 0
0 0 0 653 463914 -3290 0
0 0 0 649 464563 -2641 0
27 1 S106 664 465227 -1977 0
27 1 S106 693 465920 -1284 0
27 1 S106 728 466648 -556 0
27 2 S106 753 467401 197 0
27 2 S106 737 468138 934 0
27 2 S106 718 468856 1652 0
27 2 S106 700 469556 2352 0
27 2 S106 713 470269 3065 0
27 2 S106 764 471033 3829 0
27 2 S106 827 471860 4656 0
27 2 S106 862 472722 5518 1
27 2 S106 872 473594 6390 1
0 0 0 857 474451 -7823 1
0 0 0 813 475264 -7010 0
0 0 0 798 476062 -6212 0
0 0 0 787 476849 -5425 0
0 0 0 767 477616 -4658 0
0 0 0 732 478348 -3926 0
0 0 0 716 479064 -3210 0
0 0 0 720 479784 -2490 0
28 1 S102 731 480515 -1759 0
28 1 S102 734 481249 -1025 0
28 1 S102 754 482003 -271 0
28 2 S102 737 482740 466 0
28 2 S102 735 483475 1201 0
28 2 S102 752 484227 1953 0
28 2 S102 765 484992 2718 0
28 2 S102 768 485760 3486 0
28 2 S102 761 486521 4247 0
28 2 S102 745 487266 4992 0
28 2 S102 705 487971 5697 0
28 2 S102 680 488651 6377 0
0 0 0 666 489317 -11524 0
0 0 0 673 489990 -10851 0
0 0 0 681 490671 -10170 0
0 0 0 729 491400 -9441 0
0 0 0 794 492194 -8647 0
0 0 0 751 492945 -7896 0
0 0 0 801 493746 -7095 0
0 0 0 834 494580 -6261 0
0 0 0 830 495410 -5431 0
0 0 0 771 496181 -4660 0
0 0 0 722 496903 -3938 0
0 0 0 704 497607 -3234 0
0 0 0 707 498314 -2527 0
29 1 S112 727 499041 -1800 0
29 1 S112 744 499785 -1056 0
29 1 S112 773 500558 -283 0
29 2 S112 759 501317 476 0
29 2 S112 746 502063 1222 0
29 2 S112 745 502808 1967 0
29 2 S112 756 503564 2723 0
29 2 S112 792 504356 3515 0
29 2 S112 815 505171 4330 0
29 2 S112 804 505975 5134 0
29 2 S112 790 506765 5924 0
29 2 S112 744 507509 6668 0
0 0 0 744 508253 -7857 0
0 0 0 737 508990 -7120 0
0 0 0 725 509715 -6395 0
0 0 0 714 510429 -5681 0
0 0 0 716 511145 -4965 0
0 0 0 726 511871 -4239 0
0 0 0 728 512599 -3511 0
0 0 0 721 513320 -2790 0
0 0 0 738 514058 -2052 0
30 1 S112 745 514803 -1307 0
30 1 S112 757 515560 -550 0
30 2 S112 750 516310 200 0
30 2 S112 724 517034 924 0
30 2 S112 710 517744 1634 0
30 2 S112 701 518445 2335 0
30 2 S112 720 519165 3055 0
30 2 S112 747 519912 3802 0
30 2 S112 768 520680 4570 0
30 2 S112 762 521442 5332 0
30 2 S112 733 522175 6065 0
30 2 S112 718 522893 6783 0
0 0 0 717 523610 -10090 0
0 0 0 724 524334 -9366 0
0 0 0 729 525063 -8637 0
0 0 0 728 525791 -7909 0
0 0 0 736 526527 -7173 0
0 0 0 744 527271 -6429 0
0 0 0 729 528000 -5700 0
0 0 0 722 528722 -4978 0
0 0 0 698 529420 -4280 0
0 0 0 712 530132 -3568 0
0 0 0 728 530860 -2840 0
0 0 0 745 531605 -2095 0
31 1 S106 723 532328 -1372 0
31 1 S106 699 533027 -673 0
31 2 S106 704 533731 31 0
31 2 S106 713 534444 744 0
31 2 S106 732 535176 1476 0
31 2 S106 738 535914 2214 0
31 2 S106 734 536648 2948 0
31 2 S106 723 537371 3671 0
31 2 S106 743 538114 4414 0
31 2 S106 739 538853 5153 0
31 2 S106 744 539597 5897 0
31 2 S106 731 540328 6628 0
0 0 0 711 541039 -9504 0
0 0 0 717 541756 -8787 0
0 0 0 723 542479 -8064 0
0 0 0 746 543225 -7318 0
0 0 0 745 543970 -6573 0
0 0 0 709 544679 -5864 0
0 0 0 704 545383 -5160 0
0 0 0 714 546097 -4446 0
0 0 0 715 546812 -3731 0
0 0 0 704 547516 -3027 0
0 0 0 692 548208 -2335 0
32 1 S102 699 548907 -1636 0
32 1 S102 705 549612 -931 0
32 1 S102 698 550310 -233 0
32 2 S102 698 551008 465 0
32 2 S102 681 551689 1146 0
32 2 S102 678 552367 1824 0
32 2 S102 691 553058 2515 0
32 2 S102 716 553774 3231 0
32 2 S102 732 554506 3963 0
32 2 S102 742 555248 4705 0
32 2 S102 730 555978 5435 0
32 2 S102 730 556708 6165 0
32 2 S102 739 557447 6904 0
0 0 0 738 558185 -12551 0
0 0 0 735 558920 -11816 0
0 0 0 726 559646 -11090 0
0 0 0 693 560339 -10397 0
0 0 0 678 561017 -9719 0
0 0 0 691 561708 -9028 0
0 0 0 700 562408 -8328 0
0 0 0 700 563108 -7628 0
0 0 0 675 563783 -6953 0
0 0 0 659 564442 -6294 0
0 0 0 667 565109 -5627 0
0 0 0 670 565779 -4957 0
0 0 0 686 566465 -4271 0
0 0 0 680 567145 -3591 0
0 0 0 685 567830 -2906 0
0 0 0 713 568543 -2193 0
33 1 S112 750 569293 -1443 0
33 1 S112 797 570090 -646 0
33 2 S112 790 570880 144 0
33 2 S112 749 571629 893 0
33 2 S112 733 572362 1626 0
33 2 S112 717 573079 2343 0
33 2 S112 725 573804 3068 0
33 2 S112 728 574532 3796 0
33 2 S112 722 575254 4518 0
33 2 S112 717 575971 5235 0
33 2 S112 732 576703 5967 0
33 2 S112 765 577468 6732 0
0 0 0 798 578266 -11568 0
0 0 0 808 579074 -10760 0
0 0 0 803 579877 -9957 0
0 0 0 768 580645 -9189 0
0 0 0 764 581409 -8425 0
0 0 0 726 582135 -7699 0
0 0 0 693 582828 -7006 0
0 0 0 680 583508 -6326 0
0 0 0 684 584192 -5642 0
0 0 0 699 584891 -4943 0
0 0 0 714 585605 -4229 0
0 0 0 736 586341 -3493 0
0 0 0 723 587064 -2770 0
0 0 0 714 587778 -2056 0
34 1 S106 724 588502 -1332 0
34 1 S106 735 589237 -597 0
34 2 S106 736 589973 139 0
34 2 S106 750 590723 889 0
34 2 S106 727 591450 1616 0
34 2 S106 704 592154 2320 0
34 2 S106 710 592864 3030 0
34 2 S106 724 593588 3754 0
34 2 S106 746 594334 4500 0
34 2 S106 763 595097 5263 0
34 2 S106 745 595842 6008 0
34 2 S106 723 596565 6731 0
0 0 0 709 597274 -9984 0
0 0 0 714 597988 -9270 0
0 0 0 714 598702 -8556 0
0 0 0 720 599422 -7836 0
0 0 0 730 600152 -7106 0
0 0 0 692 600844 -6414 0
0 0 0 660 601504 -5754 0
0 0 0 657 602161 -5097 0
0 0 0 667 602828 -4430 0
0 0 0 701 603529 -3729 0
0 0 0 744 604273 -2985 0
0 0 0 761 605034 -2224 0
35 1 S102 748 605782 -1476 0
35 1 S102 737 606519 -739 0
35 1 S102 736 607255 -3 0
35 2 S102 735 607990 732 0
35 2 S102 724 608714 1456 0
35 2 S102 704 609418 2160 0
35 2 S102 699 610117 2859 0
35 2 S102 711 610828 3570 0
35 2 S102 730 611558 4300 0
35 2 S102 753 612311 5053 0
35 2 S102 754 613065 5807 0
35 2 S102 742 613807 6549 0
0 0 0 719 614526 -7835 0
0 0 0 714 615240 -7121 0
0 0 0 716 615956 -6405 0
0 0 0 713 616669 -5692 0
0 0 0 726 617395 -4966 0
0 0 0 697 618092 -4269 0
0 0 0 670 618762 -3599 0
0 0 0 678 619440 -2921 0
0 0 0 676 620116 -2245 0
36 1 S106 672 620788 -1573 0
36 1 S106 670 621458 -903 0
36 1 S106 669 622127 -234 0
36 2 S106 681 622808 447 0
36 2 S106 704 623512 1151 0
36 2 S106 701 624213 1852 0
36 2 S106 688 624901 2540 0
36 2 S106 692 625593 3232 0
36 2 S106 702 626295 3934 0
36 2 S106 707 627002 4641 0
36 2 S106 718 627720 5359 0
36 2 S106 718 628438 6077 0
36 2 S106 697 629135 6774 0
0 0 0 676 629811 -10140 0
0 0 0 670 630481 -9470 0
0 0 0 663 631144 -8807 0
0 0 0 672 631816 -8135 0
0 0 0 682 632498 -7453 0
0 0 0 697 633195 -6756 0
0 0 0 663 633858 -6093 0
0 0 0 666 634524 -5427 0
0 0 0 679 635203 -4748 0
0 0 0 703 635906 -4045 0
0 0 0 734 636640 -3311 0
0 0 0 732 637372 -2579 0
37 1 S116 732 638104 -1847 0
37 1 S116 762 638866 -1085 0
37 1 S116 777 639643 -308 0
37 2 S116 771 640414 463 0
37 2 S116 732 641146 1195 0
37 2 S116 715 641861 1910 0
37 2 S116 711 642572 2621 0
37 2 S116 699 643271 3320 0
37 2 S116 701 643972 4021 0
37 2 S116 689 644661 4710 0
37 2 S116 672 645333 5382 0
37 2 S116 675 646008 6057 0
37 2 S116 689 646697 6746 0
0 0 0 702 647399 -13076 0
0 0 0 726 648125 -12350 0
0 0 0 717 648842 -11633 0
0 0 0 687 649529 -10946 0
0 0 0 695 650224 -10251 0
0 0 0 698 650922 -9553 0
0 0 0 708 651630 -8845 0
0 0 0 712 652342 -8133 0
0 0 0 656 652998 -7477 0
0 0 0 646 653644 -6831 0
0 0 0 636 654280 -6195 0
0 0 0 655 654935 -5540 0
0 0 0 731 655666 -4809 0
0 0 0 816 656482 -3993 0
0 0 0 804 657286 -3189 0
0 0 0 790 658076 -2399 0
38 1 S102 741 658817 -1658 0
38 1 S102 715 659532 -943 0
38 1 S102 690 660222 -253 0
38 2 S102 658 660880 405 0
38 2 S102 644 661524 1049 0
38 2 S102 638 662162 1687 0
38 2 S102 636 662798 2323 0
38 2 S102 648 663446 2971 0
38 2 S102 656 664102 3627 0
38 2 S102 662 664764 4289 0
38 2 S102 679 665443 4968 0
38 2 S102 706 666149 5674 0
38 2 S102 734 666883 6408 0
0 0 0 753 667636 -11406 0
0 0 0 751 668387 -10655 0
0 0 0 756 669143 -9899 0
0 0 0 730 669873 -9169 0
0 0 0 700 670573 -8469 0
0 0 0 675 671248 -7794 0
0 0 0 681 671929 -7113 0
0 0 0 685 672614 -6428 0
0 0 0 701 673315 -5727 0
0 0 0 720 674035 -5007 0
0 0 0 709 674744 -4298 0
0 0 0 708 675452 -3590 0
0 0 0 718 676170 -2872 0
0 0 0 738 676908 -2134 0
39 1 S116 756 677664 -1378 0
39 1 S116 758 678422 -620 0
39 2 S116 739 679161 119 0
39 2 S116 710 679871 829 0
39 2 S116 691 680562 1520 0
39 2 S116 689 681251 2209 0
39 2 S116 688 681939 2897 0
39 2 S116 702 682641 3599 0
39 2 S116 698 683339 4297 0
39 2 S116 725 684064 5022 0
39 2 S116 703 684767 5725 0
39 2 S116 706 685473 6431 0
0 0 0 708 686181 -8943 0
0 0 0 723 686904 -8220 0
0 0 0 730 687634 -7490 0
0 0 0 727 688361 -6763 0
0 0 0 707 689068 -6056 0
0 0 0 720 689788 -5336 0
0 0 0 720 690508 -4616 0
0 0 0 705 691213 -3911 0
0 0 0 687 691900 -3224 0
0 0 0 666 692566 -2558 0
40 1 S112 670 693236 -1888 0
40 1 S112 678 693914 -1210 0
40 1 S112 682 694596 -528 0
40 2 S112 702 695298 174 0
40 2 S112 701 695999 875 0
40 2 S112 699 696698 1574 0
40 2 S112 709 697407 2283 0
40 2 S112 718 698125 3001 0
40 2 S112 704 698829 3705 0
40 2 S112 698 699527 4403 0
40 2 S112 680 700207 5083 0
40 2 S112 672 700879 5755 0
40 2 S112 669 701548 6424 0
0 0 0 661 702209 -188755 0
0 0 0 654 702863 -188101 0
0 0 0 653 703516 -187448 0
0 0 0 662 704178 -186786 0
0 0 0 686 704864 -186100 0
0 0 0 720 705584 -185380 0
0 0 0 757 706341 -184623 0
0 0 0 770 707111 -183853 0
0 0 0 737 707848 -183116 0
0 0 0 746 708594 -182370 0
0 0 0 707 709301 -181663 0
0 0 0 673 709974 -180990 0
0 0 0 665 710639 -180325 0
0 0 0 652 711291 -179673 0
0 0 0 648 711939 -179025 0
0 0 0 644 712583 -178381 0
0 0 0 631 713214 -177750 0
0 0 0 503 713717 -177247 1
0 0 0 733 714450 -176514 0
0 0 0 1738 716188 -174776 1
0 0 0 581 716769 -174195 1
0 0 0 589 717358 -173606 0
0 0 0 1163 718521 -172443 1
0 0 0 573 719094 -171870 1
0 0 0 566 719660 -171304 1
0 0 0 570 720230 -170734 1
0 0 0 584 720814 -170150 0
0 0 0 588 721402 -169562 0
0 0 0 597 721999 -168965 0
0 0 0 609 722608 -168356 0
0 0 0 646 723254 -167710 0
0 0 0 681 723935 -167029 0
0 0 0 722 724657 -166307 0
0 0 0 749 725406 -165558 0
0 0 0 736 726142 -164822 0
0 0 0 721 726863 -164101 0
0 0 0 717 727580 -163384 0
0 0 0 721 728301 -162663 0
0 0 0 707 729008 -161956 0
0 0 0 675 729683 -161281 0
0 0 0 638 730321 -160643 0
0 0 0 644 730965 -159999 0
0 0 0 645 731610 -159354 0
0 0 0 670 732280 -158684 0
0 0 0 709 732989 -157975 0
0 0 0 787 733776 -157188 0
0 0 0 813 734589 -156375 0
0 0 0 825 735414 -155550 0
0 0 0 797 736211 -154753 0
0 0 0 767 736978 -153986 0
0 0 0 722 737700 -153264 0
0 0 0 691 738391 -152573 0
0 0 0 681 739072 -151892 0
0 0 0 672 739744 -151220 0
0 0 0 653 740397 -150567 0
0 0 0 653 741050 -149914 0
0 0 0 650 741700 -149264 0
0 0 0 650 742350 -148614 0
0 0 0 657 743007 -147957 0
0 0 0 674 743681 -147283 0
0 0 0 708 744389 -146575 0
0 0 0 715 745104 -145860 0
0 0 0 720 745824 -145140 0
0 0 0 741 746565 -144399 0
0 0 0 745 747310 -143654 0
0 0 0 745 748055 -142909 0
0 0 0 729 748784 -142180 0
0 0 0 715 749499 -141465 0
0 0 0 686 750185 -140779 0
0 0 0 680 750865 -140099 0
0 0 0 674 751539 -139425 0
0 0 0 679 752218 -138746 0
0 0 0 690 752908 -138056 0
0 0 0 691 753599 -137365 0
0 0 0 682 754281 -136683 0
0 0 0 707 754988 -135976 0
0 0 0 712 755700 -135264 0
0 0 0 729 756429 -134535 0
0 0 0 718 757147 -133817 0
0 0 0 710 757857 -133107 0
0 0 0 718 758575 -132389 0
0 0 0 713 759288 -131676 0
0 0 0 709 759997 -130967 0
0 0 0 695 760692 -130272 0
0 0 0 680 761372 -129592 0
0 0 0 668 762040 -128924 0
0 0 0 671 762711 -128253 0
0 0 0 693 763404 -127560 0
0 0 0 710 764114 -126850 0
0 0 0 716 764830 -126134 0
0 0 0 712 765542 -125422 0
0 0 0 722 766264 -124700 0
0 0 0 735 766999 -123965 0
0 0 0 722 767721 -123243 0
0 0 0 734 768455 -122509 0
0 0 0 714 769169 -121795 0
0 0 0 704 769873 -121091 0
0 0 0 717 770590 -120374 0
0 0 0 712 771302 -119662 0
0 0 0 699 772001 -118963 0
0 0 0 694 772695 -118269 0
0 0 0 679 773374 -117590 0
0 0 0 692 774066 -116898 0
0 0 0 687 774753 -116211 0
0 0 0 686 775439 -115525 0
0 0 0 677 776116 -114848 0
0 0 0 669 776785 -114179 0
0 0 0 683 777468 -113496 0
0 0 0 689 778157 -112807 0
0 0 0 704 778861 -112103 0
0 0 0 705 779566 -111398 0
0 0 0 689 780255 -110709 0
0 0 0 683 780938 -110026 0
0 0 0 689 781627 -109337 0
0 0 0 694 782321 -108643 0
0 0 0 706 783027 -107937 0
0 0 0 710 783737 -107227 0
0 0 0 696 784433 -106531 0
0 0 0 693 785126 -105838 0
0 0 0 703 785829 -105135 0
0 0 0 713 786542 -104422 0
0 0 0 712 787254 -103710 0
0 0 0 710 787964 -103000 0
0 0 0 695 788659 -102305 0
0 0 0 676 789335 -101629 0
0 0 0 672 790007 -100957 0
0 0 0 675 790682 -100282 0
0 0 0 665 791347 -99617 0
0 0 0 663 792010 -98954 0
0 0 0 652 792662 -98302 0
0 0 0 658 793320 -97644 0
0 0 0 651 793971 -96993 0
0 0 0 663 794634 -96330 0
0 0 0 687 795321 -95643 0
0 0 0 734 796055 -94909 0
0 0 0 784 796839 -94125 0
0 0 0 815 797654 -93310 0
0 0 0 789 798443 -92521 0
0 0 0 800 799243 -91721 0
0 0 0 809 800052 -90912 0
0 0 0 799 800851 -90113 0
0 0 0 786 801637 -89327 0
0 0 0 740 802377 -88587 0
0 0 0 710 803087 -87877 0
0 0 0 717 803804 -87160 0
0 0 0 704 804508 -86456 0
0 0 0 684 805192 -85772 0
0 0 0 674 805866 -85098 0
0 0 0 662 806528 -84436 0
0 0 0 652 807180 -83784 0
0 0 0 664 807844 -83120 0
0 0 0 688 808532 -82432 0
0 0 0 727 809259 -81705 0
0 0 0 761 810020 -80944 0
0 0 0 765 810785 -80179 0
0 0 0 723 811508 -79456 0
0 0 0 707 812215 -78749 0
0 0 0 702 812917 -78047 0
0 0 0 698 813615 -77349 0
0 0 0 698 814313 -76651 0
0 0 0 679 814992 -75972 0
0 0 0 672 815664 -75300 0
0 0 0 666 816330 -74634 0
0 0 0 652 816982 -73982 0
0 0 0 626 817608 -73356 0
0 0 0 600 818208 -72756 0
0 0 0 601 818809 -72155 0
0 0 0 597 819406 -71558 0
0 0 0 620 820026 -70938 0
0 0 0 662 820688 -70276 0
0 0 0 718 821406 -69558 0
0 0 0 737 822143 -68821 0
0 0 0 724 822867 -68097 0
0 0 0 701 823568 -67396 0
0 0 0 701 824269 -66695 0
0 0 0 683 824952 -66012 0
0 0 0 675 825627 -65337 0
0 0 0 651 826278 -64686 0
0 0 0 628 826906 -64058 0
0 0 0 600 827506 -63458 0
0 0 0 591 828097 -62867 0
0 0 0 580 828677 -62287 1
0 0 0 574 829251 -61713 1
0 0 0 586 829837 -61127 0
0 0 0 610 830447 -60517 0
0 0 0 643 831090 -59874 0
0 0 0 687 831777 -59187 0
0 0 0 666 832443 -58521 0
0 0 0 679 833122 -57842 0
0 0 0 726 833848 -57116 0
0 0 0 781 834629 -56335 0
0 0 0 797 835426 -55538 0
0 0 0 772 836198 -54766 0
0 0 0 774 836972 -53992 0
0 0 0 773 837745 -53219 0
0 0 0 724 838469 -52495 0
0 0 0 684 839153 -51811 0
0 0 0 677 839830 -51134 0
0 0 0 676 840506 -50458 0
0 0 0 686 841192 -49772 0
0 0 0 686 841878 -49086 0
0 0 0 670 842548 -48416 0
0 0 0 657 843205 -47759 0
0 0 0 660 843865 -47099 0
0 0 0 650 844515 -46449 0
0 0 0 661 845176 -45788 0
0 0 0 680 845856 -45108 0
0 0 0 691 846547 -44417 0
0 0 0 688 847235 -43729 0
0 0 0 670 847905 -43059 0
0 0 0 648 848553 -42411 0
0 0 0 640 849193 -41771 0
0 0 0 653 849846 -41118 0
0 0 0 678 850524 -40440 0
0 0 0 677 851201 -39763 0
0 0 0 671 851872 -39092 0
0 0 0 657 852529 -38435 0
0 0 0 641 853170 -37794 0
0 0 0 635 853805 -37159 0
0 0 0 637 854442 -36522 0
0 0 0 660 855102 -35862 0
0 0 0 736 855838 -35126 0
0 0 0 820 856658 -34306 0
0 0 0 862 857520 -33444 1
0 0 0 819 858339 -32625 0
0 0 0 802 859141 -31823 0
0 0 0 851 859992 -30972 1
0 0 0 833 860825 -30139 0
0 0 0 808 861633 -29331 0
0 0 0 771 862404 -28560 0
0 0 0 714 863118 -27846 0
0 0 0 703 863821 -27143 0
0 0 0 713 864534 -26430 0
0 0 0 737 865271 -25693 0
0 0 0 762 866033 -24931 0
0 0 0 761 866794 -24170 0
0 0 0 749 867543 -23421 0
0 0 0 735 868278 -22686 0
0 0 0 753 869031 -21933 0
0 0 0 774 869805 -21159 0
0 0 0 792 870597 -20367 0
0 0 0 782 871379 -19585 0
0 0 0 740 872119 -18845 0
0 0 0 734 872853 -18111 0
0 0 0 707 873560 -17404 0
0 0 0 695 874255 -16709 0
0 0 0 679 874934 -16030 0
0 0 0 673 875607 -15357 0
0 0 0 672 876279 -14685 0
0 0 0 676 876955 -14009 0
0 0 0 661 877616 -13348 0
0 0 0 665 878281 -12683 0
0 0 0 680 878961 -12003 0
0 0 0 687 879648 -11316 0
0 0 0 682 880330 -10634 0
0 0 0 695 881025 -9939 0
0 0 0 698 881723 -9241 0
0 0 0 696 882419 -8545 0
0 0 0 691 883110 -7854 0
0 0 0 682 883792 -7172 0
0 0 0 667 884459 -6505 0
0 0 0 666 885125 -5839 0
0 0 0 677 885802 -5162 0
0 0 0 680 886482 -4482 0
0 0 0 708 887190 -3774 0
0 0 0 698 887888 -3076 0
0 0 0 677 888565 -2399 0
41 1 S102 681 889246 -1718 0
41 1 S102 680 889926 -1038 0
41 1 S102 677 890603 -361 0
41 2 S102 644 891247 283 0
41 2 S102 635 891882 918 0
41 2 S102 642 892524 1560 0
41 2 S102 651 893175 2211 0
41 2 S102 662 893837 2873 0
41 2 S102 656 894493 3529 0
41 2 S102 645 895138 4174 0
41 2 S102 659 895797 4833 0
41 2 S102 682 896479 5515 0
41 2 S102 702 897181 6217 0
41 2 S102 702 897883 6919 0
0 0 0 689 898572 -7926 0
0 0 0 666 899238 -7260 0
0 0 0 669 899907 -6591 0
0 0 0 669 900576 -5922 0
0 0 0 672 901248 -5250 0
0 0 0 663 901911 -4587 0
0 0 0 645 902556 -3942 0
0 0 0 634 903190 -3308 0
0 0 0 637 903827 -2671 0
0 0 0 648 904475 -2023 0
42 1 S112 668 905143 -1355 0
42 1 S112 695 905838 -660 0
42 2 S112 698 906536 38 0
42 2 S112 692 907228 730 0
42 2 S112 710 907938 1440 0
42 2 S112 735 908673 2175 0
42 2 S112 758 909431 2933 0
42 2 S112 754 910185 3687 0
42 2 S112 754 910939 4441 0
42 2 S112 784 911723 5225 0
42 2 S112 802 912525 6027 0
42 2 S112 807 913332 6834 0
0 0 0 790 914122 -9700 0
0 0 0 769 914891 -8931 0
0 0 0 773 915664 -8158 0
0 0 0 761 916425 -7397 0
0 0 0 743 917168 -6654 0
0 0 0 716 917884 -5938 0
0 0 0 698 918582 -5240 0
0 0 0 698 919280 -4542 0
0 0 0 697 919977 -3845 0
0 0 0 694 920671 -3151 0
0 0 0 694 921365 -2457 0
43 1 S116 693 922058 -1764 0
43 1 S116 686 922744 -1078 0
43 1 S116 693 923437 -385 0
43 2 S116 697 924134 312 0
43 2 S116 698 924832 1010 0
43 2 S116 696 925528 1706 0
43 2 S116 692 926220 2398 0
43 2 S116 721 926941 3119 0
43 2 S116 742 927683 3861 0
43 2 S116 769 928452 4630 0
43 2 S116 770 929222 5400 0
43 2 S116 758 929980 6158 0
43 2 S116 724 930704 6882 0
0 0 0 687 931391 -7982 0
0 0 0 675 932066 -7307 0
0 0 0 680 932746 -6627 0
0 0 0 685 933431 -5942 0
0 0 0 720 934151 -5222 0
0 0 0 715 934866 -4507 0
0 0 0 695 935561 -3812 0
0 0 0 734 936295 -3078 0
0 0 0 768 937063 -2310 0
44 1 S102 791 937854 -1519 0
44 1 S102 800 938654 -719 0
44 2 S102 796 939450 77 0
44 2 S102 804 940254 881 0
44 2 S102 802 941056 1683 0
44 2 S102 798 941854 2481 0
44 2 S102 770 942624 3251 0
44 2 S102 736 943360 3987 0
44 2 S102 731 944091 4718 0
44 2 S102 723 944814 5441 0
44 2 S102 725 945539 6166 0
44 2 S102 733 946272 6899 0
0 0 0 723 946995 -9885 0
0 0 0 706 947701 -9179 0
0 0 0 731 948432 -8448 0
0 0 0 746 949178 -7702 0
0 0 0 766 949944 -6936 0
0 0 0 725 950669 -6211 0
0 0 0 697 951366 -5514 0
0 0 0 703 952069 -4811 0
0 0 0 709 952778 -4102 0
0 0 0 731 953509 -3371 0
0 0 0 732 954241 -2639 0
45 1 S116 713 954954 -1926 0
45 1 S116 726 955680 -1200 0
45 1 S116 722 956402 -478 0
45 2 S116 706 957108 228 0
45 2 S116 687 957795 915 0
45 2 S116 672 958467 1587 0
45 2 S116 666 959133 2253 0
45 2 S116 672 959805 2925 0
45 2 S116 691 960496 3616 0
45 2 S116 716 961212 4332 0
45 2 S116 741 961953 5073 0
45 2 S116 715 962668 5788 0
45 2 S116 718 963386 6506 0
0 0 0 740 964126 -12598 0
0 0 0 747 964873 -11851 0
0 0 0 755 965628 -11096 0
0 0 0 716 966344 -10380 0
0 0 0 721 967065 -9659 0
0 0 0 723 967788 -8936 0
0 0 0 705 968493 -8231 0
0 0 0 684 969177 -7547 0
0 0 0 664 969841 -6883 0
0 0 0 673 970514 -6210 0
0 0 0 683 971197 -5527 0
0 0 0 711 971908 -4816 0
0 0 0 733 972641 -4083 0
0 0 0 724 973365 -3359 0
0 0 0 757 974122 -2602 0
46 1 S102 773 974895 -1829 0
46 1 S102 775 975670 -1054 0
46 1 S102 761 976431 -293 0
46 2 S102 726 977157 433 0
46 2 S102 722 977879 1155 0
46 2 S102 732 978611 1887 0
46 2 S102 744 979355 2631 0
46 2 S102 757 980112 3388 0
46 2 S102 760 980872 4148 0
46 2 S102 769 981641 4917 0
46 2 S102 759 982400 5676 0
46 2 S102 760 983160 6436 0
0 0 0 713 983873 -11170 0
0 0 0 683 984556 -10487 0
0 0 0 676 985232 -9811 0
0 0 0 687 985919 -9124 0
0 0 0 730 986649 -8394 0
0 0 0 807 987456 -7587 0
0 0 0 810 988266 -6777 0
0 0 0 803 989069 -5974 0
0 0 0 785 989854 -5189 0
0 0 0 759 990613 -4430 0
0 0 0 758 991371 -3672 0
0 0 0 780 992151 -2892 0
0 0 0 781 992932 -2111 0
47 1 S112 778 993710 -1333 0
47 1 S112 736 994446 -597 0
47 2 S112 700 995146 103 0
47 2 S112 675 995821 778 0
47 2 S112 666 996487 1444 0
47 2 S112 674 997161 2118 0
47 2 S112 711 997872 2829 0
47 2 S112 778 998650 3607 0
47 2 S112 818 999468 4425 0
47 2 S112 810 1000278 5235 0
47 2 S112 787 1001065 6022 0
47 2 S112 803 1001868 6825 0
0 0 0 800 1002668 -11590 0
0 0 0 806 1003474 -10784 0
0 0 0 782 1004256 -10002 0
0 0 0 743 1004999 -9259 0
0 0 0 747 1005746 -8512 0
0 0 0 717 1006463 -7795 0
0 0 0 687 1007150 -7108 0
0 0 0 674 1007824 -6434 0
0 0 0 675 1008499 -5759 0
0 0 0 679 1009178 -5080 0
0 0 0 680 1009858 -4400 0
0 0 0 676 1010534 -3724 0
0 0 0 677 1011211 -3047 0
0 0 0 681 1011892 -2366 0
48 1 S116 695 1012587 -1671 0
48 1 S116 709 1013296 -962 0
48 1 S116 719 1014015 -243 0
48 2 S116 705 1014720 462 0
48 2 S116 687 1015407 1149 0
48 2 S116 692 1016099 1841 0
48 2 S116 693 1016792 2534 0
48 2 S116 699 1017491 3233 0
48 2 S116 709 1018200 3942 0
48 2 S116 703 1018903 4645 0
48 2 S116 690 1019593 5335 0
48 2 S116 706 1020299 6041 0
48 2 S116 709 1021008 6750 0
0 0 0 721 1021729 -8676 0
0 0 0 730 1022459 -7946 0
0 0 0 709 1023168 -7237 0
0 0 0 714 1023882 -6523 0
0 0 0 709 1024591 -5814 0
0 0 0 707 1025298 -5107 0
0 0 0 676 1025974 -4431 0
0 0 0 654 1026628 -3777 0
0 0 0 652 1027280 -3125 0
0 0 0 657 1027937 -2468 0
49 1 S112 680 1028617 -1788 0
49 1 S112 705 1029322 -1083 0
49 1 S112 697 1030019 -386 0
49 2 S112 716 1030735 330 0
49 2 S112 740 1031475 1070 0
49 2 S112 764 1032239 1834 0
49 2 S112 771 1033010 2605 0
49 2 S112 742 1033752 3347 0
49 2 S112 717 1034469 4064 0
49 2 S112 700 1035169 4764 0
49 2 S112 707 1035876 5471 0
49 2 S112 698 1036574 6169 0
49 2 S112 693 1037267 6862 0
0 0 0 695 1037962 -12237 0
0 0 0 677 1038639 -11560 0
0 0 0 691 1039330 -10869 0
0 0 0 698 1040028 -10171 0
0 0 0 727 1040755 -9444 0
0 0 0 746 1041501 -8698 0
0 0 0 700 1042201 -7998 0
0 0 0 692 1042893 -7306 0
0 0 0 708 1043601 -6598 0
0 0 0 722 1044323 -5876 0
0 0 0 743 1045066 -5133 0
0 0 0 726 1045792 -4407 0
0 0 0 711 1046503 -3696 0
0 0 0 715 1047218 -2981 0
0 0 0 713 1047931 -2268 0
50 1 S106 698 1048629 -1570 0
50 1 S106 668 1049297 -902 0
50 1 S106 649 1049946 -253 0
50 2 S106 643 1050589 390 0
50 2 S106 654 1051243 1044 0
50 2 S106 684 1051927 1728 0
50 2 S106 738 1052665 2466 0
50 2 S106 789 1053454 3255 0
50 2 S106 768 1054222 4023 0
50 2 S106 746 1054968 4769 0
50 2 S106 750 1055718 5519 0
50 2 S106 753 1056471 6272 0
50 2 S106 752 1057223 7024 0
0 0 0 759 1057982 -6773 0
0 0 0 710 1058692 -6063 0
0 0 0 669 1059361 -5394 0
0 0 0 637 1059998 -4757 0
0 0 0 1222 1061220 -3535 1
0 0 0 620 1061840 -2915 0
0 0 0 659 1062499 -2256 0
51 1 S112 678 1063177 -1578 0
51 1 S112 697 1063874 -881 0
51 1 S112 712 1064586 -169 0
51 2 S112 720 1065306 551 0
51 2 S112 730 1066036 1281 0
51 2 S112 711 1066747 1992 0
51 2 S112 692 1067439 2684 0
51 2 S112 689 1068128 3373 0
51 2 S112 692 1068820 4065 0
51 2 S112 695 1069515 4760 0
51 2 S112 691 1070206 5451 0
51 2 S112 687 1070893 6138 0
51 2 S112 676 1071569 6814 0
0 0 0 678 1072247 -8556 0
0 0 0 684 1072931 -7872 0
0 0 0 684 1073615 -7188 0
0 0 0 691 1074306 -6497 0
0 0 0 696 1075002 -5801 0
0 0 0 715 1075717 -5086 0
0 0 0 718 1076435 -4368 0
0 0 0 716 1077151 -3652 0
0 0 0 691 1077842 -2961 0
0 0 0 697 1078539 -2264 0
52 1 S116 723 1079262 -1541 0
52 1 S116 740 1080002 -801 0
52 1 S116 754 1080756 -47 0
52 2 S116 748 1081504 701 0
52 2 S116 720 1082224 1421 0
52 2 S116 692 1082916 2113 0
52 2 S116 690 1083606 2803 0
52 2 S116 698 1084304 3501 0
52 2 S116 717 1085021 4218 0
52 2 S116 719 1085740 4937 0
52 2 S116 721 1086461 5658 0
52 2 S116 709 1087170 6367 0
0 0 0 717 1087887 -9296 0
0 0 0 721 1088608 -8575 0
0 0 0 726 1089334 -7849 0
0 0 0 722 1090056 -7127 0
0 0 0 694 1090750 -6433 0
0 0 0 700 1091450 -5733 0
0 0 0 699 1092149 -5034 0
0 0 0 690 1092839 -4344 0
0 0 0 680 1093519 -3664 0
0 0 0 677 1094196 -2987 0
0 0 0 689 1094885 -2298 0
53 1 S106 710 1095595 -1588 0
53 1 S106 730 1096325 -858 0
53 1 S106 746 1097071 -112 0
53 2 S106 734 1097805 622 0
53 2 S106 713 1098518 1335 0
53 2 S106 706 1099224 2041 0
53 2 S106 715 1099939 2756 0
53 2 S106 717 1100656 3473 0
53 2 S106 736 1101392 4209 0
53 2 S106 727 1102119 4936 0
53 2 S106 711 1102830 5647 0
53 2 S106 727 1103557 6374 0
0 0 0 732 1104289 -8096 0
0 0 0 727 1105016 -7369 0
0 0 0 726 1105742 -6643 0
0 0 0 716 1106458 -5927 0
0 0 0 695 1107153 -5232 0
0 0 0 697 1107850 -4535 0
0 0 0 681 1108531 -3854 0
0 0 0 676 1109207 -3178 0
0 0 0 668 1109875 -2510 0
54 1 S102 670 1110545 -1840 0
54 1 S102 680 1111225 -1160 0
54 1 S102 698 1111923 -462 0
54 2 S102 703 1112626 241 0
54 2 S102 704 1113330 945 0
54 2 S102 720 1114050 1665 0
54 2 S102 738 1114788 2403 0
54 2 S102 760 1115548 3163 0
54 2 S102 766 1116314 3929 0
54 2 S102 739 1117053 4668 0
54 2 S102 714 1117767 5382 0
54 2 S102 702 1118469 6084 0
54 2 S102 695 1119164 6779 0
0 0 0 688 1119852 -12361 0
0 0 0 692 1120544 -11669 0
0 0 0 686 1121230 -10983 0
0 0 0 652 1121882 -10331 0
0 0 0 636 1122518 -9695 0
0 0 0 636 1123154 -9059 0
0 0 0 650 1123804 -8409 0
0 0 0 712 1124516 -7697 0
0 0 0 773 1125289 -6924 0
0 0 0 808 1126097 -6116 0
0 0 0 804 1126901 -5312 0
0 0 0 747 1127648 -4565 0
0 0 0 740 1128388 -3825 0
0 0 0 750 1129138 -3075 0
0 0 0 750 1129888 -2325 0
55 1 S106 734 1130622 -1591 0
55 1 S106 697 1131319 -894 0
55 1 S106 679 1131998 -215 0
55 2 S106 682 1132680 467 0
55 2 S106 686 1133366 1153 0
55 2 S106 705 1134071 1858 0
55 2 S106 697 1134768 2555 0
55 2 S106 695 1135463 3250 0
55 2 S106 670 1136133 3920 0
55 2 S106 663 1136796 4583 0
55 2 S106 684 1137480 5267 0
55 2 S106 709 1138189 5976 0
55 2 S106 730 1138919 6706 0
0 0 0 739 1139658 -7873 0
0 0 0 719 1140377 -7154 0
0 0 0 720 1141097 -6434 0
0 0 0 712 1141809 -5722 0
0 0 0 717 1142526 -5005 0
0 0 0 706 1143232 -4299 0
0 0 0 681 1143913 -3618 0
0 0 0 670 1144583 -2948 0
0 0 0 678 1145261 -2270 0
56 1 S116 684 1145945 -1586 0
56 1 S116 689 1146634 -897 0
56 1 S116 686 1147320 -211 0
56 2 S116 675 1147995 464 0
56 2 S116 693 1148688 1157 0
56 2 S116 713 1149401 1870 0
56 2 S116 718 1150119 2588 0
56 2 S116 720 1150839 3308 0
56 2 S116 714 1151553 4022 0
56 2 S116 695 1152248 4717 0
56 2 S116 698 1152946 5415 0
56 2 S116 700 1153646 6115 0
56 2 S116 698 1154344 6813 0
0 0 0 687 1155031 -7238 0
0 0 0 670 1155701 -6568 0
0 0 0 689 1156390 -5879 0
0 0 0 689 1157079 -5190 0
0 0 0 688 1157767 -4502 0
0 0 0 675 1158442 -3827 0
0 0 0 670 1159112 -3157 0
0 0 0 678 1159790 -2479 0
57 1 S106 676 1160466 -1803 0
57 1 S106 665 1161131 -1138 0
57 1 S106 658 1161789 -480 0
57 2 S106 654 1162443 174 0
57 2 S106 658 1163101 832 0
57 2 S106 662 1163763 1494 0
57 2 S106 666 1164429 2160 0
57 2 S106 666 1165095 2826 0
57 2 S106 660 1165755 3486 0
57 2 S106 661 1166416 4147 0
57 2 S106 673 1167089 4820 0
57 2 S106 703 1167792 5523 0
57 2 S106 737 1168529 6260 0
57 2 S106 756 1169285 7016 0
0 0 0 757 1170042 -9635 0
0 0 0 738 1170780 -8897 0
0 0 0 746 1171526 -8151 0
0 0 0 743 1172269 -7408 0
0 0 0 744 1173013 -6664 0
0 0 0 711 1173724 -5953 0
0 0 0 691 1174415 -5262 0
0 0 0 702 1175117 -4560 0
0 0 0 703 1175820 -3857 0
0 0 0 718 1176538 -3139 0
0 0 0 733 1177271 -2406 0
58 1 S102 710 1177981 -1696 0
58 1 S102 699 1178680 -997 0
58 1 S102 702 1179382 -295 0
58 2 S102 698 1180080 403 0
58 2 S102 706 1180786 1109 0
58 2 S102 710 1181496 1819 0
58 2 S102 698 1182194 2517 0
58 2 S102 696 1182890 3213 0
58 2 S102 700 1183590 3913 0
58 2 S102 705 1184295 4618 0
58 2 S102 720 1185015 5338 0
58 2 S102 731 1185746 6069 0
58 2 S102 711 1186457 6780 0
0 0 0 692 1187149 -9123 0
0 0 0 695 1187844 -8428 0
0 0 0 704 1188548 -7724 0
0 0 0 714 1189262 -7010 0
0 0 0 719 1189981 -6291 0
0 0 0 731 1190712 -5560 0
0 0 0 731 1191443 -4829 0
0 0 0 711 1192154 -4118 0
0 0 0 692 1192846 -3426 0
0 0 0 678 1193524 -2748 0
0 0 0 677 1194201 -2071 0
59 1 S112 695 1194896 -1376 0
59 1 S112 708 1195604 -668 0
59 2 S112 710 1196314 42 0
59 2 S112 719 1197033 761 0
59 2 S112 705 1197738 1466 0
59 2 S112 693 1198431 2159 0
59 2 S112 702 1199133 2861 0
59 2 S112 711 1199844 3572 0
59 2 S112 716 1200560 4288 0
59 2 S112 701 1201261 4989 0
59 2 S112 696 1201957 5685 0
59 2 S112 690 1202647 6375 0
0 0 0 676 1203323 -10721 0
0 0 0 672 1203995 -10049 0
0 0 0 672 1204667 -9377 0
0 0 0 687 1205354 -8690 0
0 0 0 705 1206059 -7985 0
0 0 0 711 1206770 -7274 0
0 0 0 693 1207463 -6581 0
0 0 0 700 1208163 -5881 0
0 0 0 702 1208865 -5179 0
0 0 0 712 1209577 -4467 0
0 0 0 697 1210274 -3770 0
0 0 0 693 1210967 -3077 0
0 0 0 693 1211660 -2384 0
60 1 S102 692 1212352 -1692 0
60 1 S102 699 1213051 -993 0
60 1 S102 718 1213769 -275 0
60 2 S102 718 1214487 443 0
60 2 S102 721 1215208 1164 0
60 2 S102 734 1215942 1898 0
60 2 S102 743 1216685 2641 0
60 2 S102 750 1217435 3391 0
60 2 S102 753 1218188 4144 0
60 2 S102 734 1218922 4878 0
60 2 S102 731 1219653 5609 0
60 2 S102 747 1220400 6356 0
0 0 0 765 1221165 -11878 0
0 0 0 775 1221940 -11103 0
0 0 0 760 1222700 -10343 0
0 0 0 725 1223425 -9618 0
0 0 0 689 1224114 -8929 0
0 0 0 682 1224796 -8247 0
0 0 0 667 1225463 -7580 0
0 0 0 642 1226105 -6938 0
0 0 0 609 1226714 -6329 0
0 0 0 608 1227322 -5721 0
0 0 0 610 1227932 -5111 0
0 0 0 617 1228549 -4494 0
0 0 0 628 1229177 -3866 0
0 0 0 630 1229807 -3236 0
0 0 0 617 1230424 -2619 0
0 0 0 611 1231035 -2008 0
61 1 S106 618 1231653 -1390 0
61 1 S106 623 1232276 -767 0
61 1 S106 618 1232894 -149 0
61 2 S106 606 1233500 457 0
61 2 S106 610 1234110 1067 0
61 2 S106 605 1234715 1672 0
61 2 S106 607 1235322 2279 0
61 2 S106 621 1235943 2900 0
61 2 S106 622 1236565 3522 0
61 2 S106 626 1237191 4148 0
61 2 S106 622 1237813 4770 0
61 2 S106 627 1238440 5397 0
61 2 S106 643 1239083 6040 0
61 2 S106 657 1239740 6697 0
0 0 0 679 1240419 -7428 0
0 0 0 700 1241119 -6728 0
0 0 0 697 1241816 -6031 0
0 0 0 689 1242505 -5342 0
0 0 0 696 1243201 -4646 0
0 0 0 674 1243875 -3972 0
0 0 0 650 1244525 -3322 0
0 0 0 625 1245150 -2697 0
0 0 0 612 1245762 -2085 0
62 1 S112 589 1246351 -1496 0
62 1 S112 582 1246933 -914 1
62 1 S112 584 1247517 -330 0
62 2 S112 602 1248119 272 0
62 2 S112 622 1248741 894 0
62 2 S112 709 1249450 1603 0
62 2 S112 747 1250197 2350 0
62 2 S112 766 1250963 3116 0
62 2 S112 786 1251749 3902 0
62 2 S112 823 1252572 4725 0
62 2 S112 823 1253395 5548 0
62 2 S112 834 1254229 6382 0
0 0 0 797 1255026 -12002 0
0 0 0 765 1255791 -11237 0
0 0 0 768 1256559 -10469 0
0 0 0 762 1257321 -9707 0
0 0 0 752 1258073 -8955 0
0 0 0 709 1258782 -8246 0
0 0 0 680 1259462 -7566 0
0 0 0 682 1260144 -6884 0
0 0 0 698 1260842 -6186 0
0 0 0 704 1261546 -5482 0
0 0 0 690 1262236 -4792 0
0 0 0 680 1262916 -4112 0
0 0 0 703 1263619 -3409 0
0 0 0 733 1264352 -2676 0
63 1 S102 747 1265099 -1929 0
63 1 S102 758 1265857 -1171 0
63 1 S102 719 1266576 -452 0
63 2 S102 703 1267279 251 0
63 2 S102 697 1267976 948 0
63 2 S102 710 1268686 1658 0
63 2 S102 708 1269394 2366 0
63 2 S102 698 1270092 3064 0
63 2 S102 693 1270785 3757 0
63 2 S102 693 1271478 4450 0
63 2 S102 709 1272187 5159 0
63 2 S102 730 1272917 5889 0
63 2 S102 736 1273653 6625 0
0 0 0 727 1274380 -10188 0
0 0 0 721 1275101 -9467 0
0 0 0 722 1275823 -8745 0
0 0 0 658 1276481 -8087 0
0 0 0 691 1277172 -7396 0
0 0 0 712 1277884 -6684 0
0 0 0 717 1278601 -5967 0
0 0 0 710 1279311 -5257 0
0 0 0 694 1280005 -4563 0
0 0 0 695 1280700 -3868 0
0 0 0 713 1281413 -3155 0
0 0 0 731 1282144 -2424 0
64 1 S112 737 1282881 -1687 0
64 1 S112 702 1283583 -985 0
64 1 S112 685 1284268 -300 0
64 2 S112 667 1284935 367 0
64 2 S112 670 1285605 1037 0
64 2 S112 681 1286286 1718 0
64 2 S112 710 1286996 2428 0
64 2 S112 762 1287758 3190 0
64 2 S112 811 1288569 4001 0
64 2 S112 827 1289396 4828 0
64 2 S112 824 1290220 5652 0
64 2 S112 810 1291030 6462 0
0 0 0 760 1291790 -8594 0
0 0 0 774 1292564 -7820 0
0 0 0 750 1293314 -7070 0
0 0 0 722 1294036 -6348 0
0 0 0 691 1294727 -5657 0
0 0 0 696 1295423 -4961 0
0 0 0 699 1296122 -4262 0
0 0 0 707 1296829 -3555 0
0 0 0 715 1297544 -2840 0
0 0 0 706 1298250 -2134 0
65 1 S106 718 1298968 -1416 0
65 1 S106 738 1299706 -678 0
65 2 S106 745 1300451 67 0
65 2 S106 740 1301191 807 0
65 2 S106 724 1301915 1531 0
65 2 S106 709 1302624 2240 0
65 2 S106 720 1303344 2960 0
65 2 S106 714 1304058 3674 0
65 2 S106 703 1304761 4377 0
65 2 S106 696 1305457 5073 0
65 2 S106 677 1306134 5750 0
65 2 S106 681 1306815 6431 0
0 0 0 685 1307500 -8153 0
0 0 0 687 1308187 -7466 0
0 0 0 699 1308886 -6767 0
0 0 0 721 1309607 -6046 0
0 0 0 717 1310324 -5329 0
0 0 0 732 1311056 -4597 0
0 0 0 708 1311764 -3889 0
0 0 0 684 1312448 -3205 0
0 0 0 652 1313100 -2553 0
66 1 S116 640 1313740 -1913 0
66 1 S116 635 1314375 -1278 0
66 1 S116 631 1315006 -647 0
66 1 S116 634 1315640 -13 0
66 2 S116 637 1316277 624 0
66 2 S116 665 1316942 1289 0
66 2 S116 704 1317646 1993 0
66 2 S116 716 1318362 2709 0
66 2 S116 715 1319077 3424 0
66 2 S116 699 1319776 4123 0
66 2 S116 701 1320477 4824 0
66 2 S116 710 1321187 5534 0
66 2 S116 709 1321896 6243 0
66 2 S116 708 1322604 6951 0
0 0 0 707 1323311 -11208 0
0 0 0 707 1324018 -10501 0
0 0 0 690 1324708 -9811 0
0 0 0 679 1325387 -9132 0
0 0 0 680 1326067 -8452 0
0 0 0 675 1326742 -7777 0
0 0 0 687 1327429 -7090 0
0 0 0 680 1328109 -6410 0
0 0 0 676 1328785 -5734 0
0 0 0 704 1329489 -5030 0
0 0 0 736 1330225 -4294 0
0 0 0 753 1330978 -3541 0
0 0 0 752 1331730 -2789 0
0 0 0 737 1332467 -2052 0
67 1 S102 731 1333198 -1321 0
67 1 S102 742 1333940 -579 0
67 2 S102 762 1334702 183 0
67 2 S102 771 1335473 954 0
67 2 S102 771 1336244 1725 0
67 2 S102 748 1336992 2473 0
67 2 S102 719 1337711 3192 0
67 2 S102 706 1338417 3898 0
67 2 S102 708 1339125 4606 0
67 2 S102 713 1339838 5319 0
67 2 S102 737 1340575 6056 0
67 2 S102 731 1341306 6787 0
0 0 0 713 1342019 -7470 0
0 0 0 703 1342722 -6767 0
0 0 0 710 1343432 -6057 0
0 0 0 714 1344146 -5343 0
0 0 0 716 1344862 -4627 0
0 0 0 690 1345552 -3937 0
0 0 0 677 1346229 -3260 0
0 0 0 692 1346921 -2568 0
68 1 S106 723 1347644 -1845 0
68 1 S106 761 1348405 -1084 0
68 1 S106 787 1349192 -297 0
68 2 S106 750 1349942 453 0
68 2 S106 749 1350691 1202 0
68 2 S106 749 1351440 1951 0
68 2 S106 745 1352185 2696 0
68 2 S106 736 1352921 3432 0
68 2 S106 713 1353634 4145 0
68 2 S106 690 1354324 4835 0
68 2 S106 694 1355018 5529 0
68 2 S106 693 1355711 6222 0
68 2 S106 705 1356416 6927 0
0 0 0 726 1357142 -11661 0
0 0 0 695 1357837 -10966 0
0 0 0 682 1358519 -10284 0
0 0 0 694 1359213 -9590 0
0 0 0 708 1359921 -8882 0
0 0 0 714 1360635 -8168 0
0 0 0 709 1361344 -7459 0
0 0 0 692 1362036 -6767 0
0 0 0 699 1362735 -6068 0
0 0 0 698 1363433 -5370 0
0 0 0 687 1364120 -4683 0
0 0 0 662 1364782 -4021 0
0 0 0 642 1365424 -3379 0
0 0 0 616 1366040 -2763 0
0 0 0 624 1366664 -2139 0
69 1 S102 642 1367306 -1497 0
69 1 S102 674 1367980 -823 0
69 1 S102 741 1368721 -82 0
69 2 S102 750 1369471 668 0
69 2 S102 758 1370229 1426 0
69 2 S102 735 1370964 2161 0
69 2 S102 729 1371693 2890 0
69 2 S102 733 1372426 3623 0
69 2 S102 730 1373156 4353 0
69 2 S102 727 1373883 5080 0
69 2 S102 709 1374592 5789 0
69 2 S102 689 1375281 6478 0
0 0 0 674 1375955 -11465 0
0 0 0 673 1376628 -10792 0
0 0 0 678 1377306 -10114 0
0 0 0 705 1378011 -9409 0
0 0 0 734 1378745 -8675 0
0 0 0 732 1379477 -7943 0
0 0 0 748 1380225 -7195 0
0 0 0 791 1381016 -6404 0
0 0 0 792 1381808 -5612 0
0 0 0 792 1382600 -4820 0
0 0 0 761 1383361 -4059 0
0 0 0 755 1384116 -3304 0
0 0 0 746 1384862 -2558 0
70 1 S112 730 1385592 -1828 0
70 1 S112 709 1386301 -1119 0
70 1 S112 705 1387006 -414 0
70 2 S112 710 1387716 296 0
70 2 S112 708 1388424 1004 0
70 2 S112 713 1389137 1717 0
70 2 S112 699 1389836 2416 0
70 2 S112 693 1390529 3109 0
70 2 S112 709 1391238 3818 0
70 2 S112 726 1391964 4544 0
70 2 S112 744 1392708 5288 0
70 2 S112 752 1393460 6040 0
70 2 S112 733 1394193 6773 0
0 0 0 712 1394905 -11780 0
0 0 0 715 1395620 -11065 0
0 0 0 731 1396351 -10334 0
0 0 0 759 1397110 -9575 0
0 0 0 774 1397884 -8801 0
0 0 0 731 1398615 -8070 0
0 0 0 709 1399324 -7361 0
0 0 0 733 1400057 -6628 0
0 0 0 746 1400803 -5882 0
0 0 0 764 1401567 -5118 0
0 0 0 751 1402318 -4367 0
0 0 0 744 1403062 -3623 0
0 0 0 748 1403810 -2875 0
0 0 0 750 1404560 -2125 0
71 1 S116 758 1405318 -1367 0
71 1 S116 747 1406065 -620 0
71 2 S116 707 1406772 87 0
71 2 S116 677 1407449 764 0
71 2 S116 689 1408138 1453 0
71 2 S116 705 1408843 2158 0
71 2 S116 730 1409573 2888 0
71 2 S116 738 1410311 3626 0
71 2 S116 743 1411054 4369 0
71 2 S116 781 1411835 5150 0
71 2 S116 804 1412639 5954 0
71 2 S116 793 1413432 6747 0
0 0 0 768 1414200 -9461 0
0 0 0 790 1414990 -8671 0
0 0 0 767 1415757 -7904 0
0 0 0 725 1416482 -7179 0
0 0 0 709 1417191 -6470 0
0 0 0 692 1417883 -5778 0
0 0 0 662 1418545 -5116 0
0 0 0 644 1419189 -4472 0
0 0 0 619 1419808 -3853 0
0 0 0 631 1420439 -3222 0
0 0 0 641 1421080 -2581 0
72 1 S102 693 1421773 -1888 0
72 1 S102 731 1422504 -1157 0
72 1 S102 711 1423215 -446 0
72 2 S102 737 1423952 291 0
72 2 S102 755 1424707 1046 0
72 2 S102 772 1425479 1818 0
72 2 S102 767 1426246 2585 0
72 2 S102 748 1426994 3333 0
72 2 S102 763 1427757 4096 0
72 2 S102 762 1428519 4858 0
72 2 S102 758 1429277 5616 0
72 2 S102 754 1430031 6370 0
0 0 0 732 1430763 -7901 0
0 0 0 735 1431498 -7166 0
0 0 0 741 1432239 -6425 0
0 0 0 734 1432973 -5691 0
0 0 0 722 1433695 -4969 0
0 0 0 689 1434384 -4280 0
0 0 0 693 1435077 -3587 0
0 0 0 692 1435769 -2895 0
0 0 0 704 1436473 -2191 0
73 1 S116 690 1437163 -1501 0
73 1 S116 675 1437838 -826 0
73 1 S116 694 1438532 -132 0
73 2 S116 712 1439244 580 0
73 2 S116 735 1439979 1315 0
73 2 S116 758 1440737 2073 0
73 2 S116 748 1441485 2821 0
73 2 S116 787 1442272 3608 0
73 2 S116 801 1443073 4409 0
73 2 S116 804 1443877 5213 0
73 2 S116 775 1444652 5988 0
73 2 S116 760 1445412 6748 0
0 0 0 765 1446177 -9414 0
0 0 0 764 1446941 -8650 0
0 0 0 765 1447706 -7885 0
0 0 0 737 1448443 -7148 0
0 0 0 740 1449183 -6408 0
0 0 0 724 1449907 -5684 0
0 0 0 720 1450627 -4964 0
0 0 0 699 1451326 -4265 0
0 0 0 691 1452017 -3574 0
0 0 0 713 1452730 -2861 0
0 0 0 733 1453463 -2128 0
74 1 S106 757 1454220 -1371 0
74 1 S106 755 1454975 -616 0
74 2 S106 723 1455698 107 0
74 2 S106 728 1456426 835 0
74 2 S106 732 1457158 1567 0
74 2 S106 740 1457898 2307 0
74 2 S106 761 1458659 3068 0
74 2 S106 780 1459439 3848 0
74 2 S106 798 1460237 4646 0
74 2 S106 798 1461035 5444 0
74 2 S106 797 1461832 6241 0
74 2 S106 762 1462594 7003 0
0 0 0 745 1463339 -7239 0
0 0 0 762 1464101 -6477 0
0 0 0 751 1464852 -5726 0
0 0 0 751 1465603 -4975 0
0 0 0 728 1466331 -4247 0
0 0 0 712 1467043 -3535 0
0 0 0 729 1467772 -2806 0
0 0 0 710 1468482 -2096 0
75 1 S112 703 1469185 -1393 0
75 1 S112 678 1469863 -715 0
75 1 S112 682 1470545 -33 0
75 2 S112 701 1471246 668 0
75 2 S112 711 1471957 1379 0
75 2 S112 714 1472671 2093 0
75 2 S112 690 1473361 2783 0
75 2 S112 673 1474034 3456 0
75 2 S112 681 1474715 4137 0
75 2 S112 697 1475412 4834 0
75 2 S112 708 1476120 5542 0
75 2 S112 722 1476842 6264 0
75 2 S112 714 1477556 6978 0
0 0 0 708 1478264 -8262 0
0 0 0 722 1478986 -7540 0
0 0 0 725 1479711 -6815 0
0 0 0 739 1480450 -6076 0
0 0 0 726 1481176 -5350 0
0 0 0 725 1481901 -4625 0
0 0 0 718 1482619 -3907 0
0 0 0 733 1483352 -3174 0
0 0 0 681 1484033 -2493 0
76 1 S116 656 1484689 -1837 0
76 1 S116 651 1485340 -1186 0
76 1 S116 653 1485993 -533 0
76 2 S116 681 1486674 148 0
76 2 S116 715 1487389 863 0
76 2 S116 732 1488121 1595 0
76 2 S116 737 1488858 2332 0
76 2 S116 768 1489626 3100 0
76 2 S116 779 1490405 3879 0
76 2 S116 781 1491186 4660 0
76 2 S116 787 1491973 5447 0
76 2 S116 778 1492751 6225 0
76 2 S116 745 1493496 6970 0
0 0 0 726 1494222 -7722 0
0 0 0 727 1494949 -6995 0
0 0 0 722 1495671 -6273 0
0 0 0 727 1496398 -5546 0
0 0 0 714 1497112 -4832 0
0 0 0 683 1497795 -4149 0
0 0 0 694 1498489 -3455 0
0 0 0 709 1499198 -2746 0
0 0 0 726 1499924 -2020 0
77 1 S106 727 1500651 -1293 0
77 1 S106 724 1501375 -569 0
77 2 S106 697 1502072 128 0
77 2 S106 696 1502768 824 0
77 2 S106 704 1503472 1528 0
77 2 S106 701 1504173 2229 0
77 2 S106 712 1504885 2941 0
77 2 S106 706 1505591 3647 0
77 2 S106 720 1506311 4367 0
77 2 S106 748 1507059 5115 0
77 2 S106 758 1507817 5873 0
77 2 S106 771 1508588 6644 0
0 0 0 741 1509329 -7668 0
0 0 0 722 1510051 -6946 0
0 0 0 720 1510771 -6226 0
0 0 0 699 1511470 -5527 0
0 0 0 695 1512165 -4832 0
0 0 0 681 1512846 -4151 0
0 0 0 684 1513530 -3467 0
0 0 0 707 1514237 -2760 0
0 0 0 727 1514964 -2033 0
78 1 S112 763 1515727 -1270 0
78 1 S112 762 1516489 -508 0
78 2 S112 745 1517234 237 0
78 2 S112 753 1517987 990 0
78 2 S112 763 1518750 1753 0
78 2 S112 764 1519514 2517 0
78 2 S112 753 1520267 3270 0
78 2 S112 734 1521001 4004 0
78 2 S112 713 1521714 4717 0
78 2 S112 702 1522416 5419 0
78 2 S112 713 1523129 6132 0
78 2 S112 721 1523850 6853 0
0 0 0 747 1524597 -12079 0
0 0 0 752 1525349 -11327 0
0 0 0 696 1526045 -10631 0
0 0 0 699 1526744 -9932 0
0 0 0 713 1527457 -9219 0
0 0 0 718 1528175 -8501 0
0 0 0 724 1528899 -7777 0
0 0 0 702 1529601 -7075 0
0 0 0 713 1530314 -6362 0
0 0 0 738 1531052 -5624 0
0 0 0 774 1531826 -4850 0
0 0 0 802 1532628 -4048 0
0 0 0 773 1533401 -3275 0
0 0 0 736 1534137 -2539 0
79 1 S102 740 1534877 -1799 0
79 1 S102 722 1535599 -1077 0
79 1 S102 724 1536323 -353 0
79 2 S102 718 1537041 365 0
79 2 S102 703 1537744 1068 0
79 2 S102 683 1538427 1751 0
79 2 S102 687 1539114 2438 0
79 2 S102 694 1539808 3132 0
79 2 S102 694 1540502 3826 0
79 2 S102 689 1541191 4515 0
79 2 S102 681 1541872 5196 0
79 2 S102 705 1542577 5901 0
79 2 S102 736 1543313 6637 0
0 0 0 787 1544100 -9254 0
0 0 0 793 1544893 -8461 0
0 0 0 760 1545653 -7701 0
0 0 0 708 1546361 -6993 0
0 0 0 693 1547054 -6300 0
0 0 0 696 1547750 -5604 0
0 0 0 684 1548434 -4920 0
0 0 0 685 1549119 -4235 0
0 0 0 673 1549792 -3562 0
0 0 0 645 1550437 -2917 0
0 0 0 641 1551078 -2276 0
80 1 S116 651 1551729 -1625 0
80 1 S116 679 1552408 -946 0
80 1 S116 699 1553107 -247 0
80 2 S116 697 1553804 450 0
80 2 S116 688 1554492 1138 0
80 2 S116 705 1555197 1843 0
80 2 S116 719 1555916 2562 0
80 2 S116 728 1556644 3290 0
80 2 S116 730 1557374 4020 0
80 2 S116 699 1558073 4719 0
80 2 S116 669 1558742 5388 0
80 2 S116 668 1559410 6056 0
80 2 S116 680 1560090 6736 0
