T_0161
BeatCount Mean SD BeatCountNoOutliers MeanNoOutliers SDNoOutliers
1816 841,730176211454 52,8556524174645 1778 842,751968503937 47,6242559595585

Trial TrialStatus Trialtype IBI AbsPosition RelPosition Outlier
0 0 0 876 1483 -14169 0
0 0 0 898 2381 -13271 0
0 0 0 888 3269 -12383 0
0 0 0 814 4083 -11569 0
0 0 0 862 4945 -10707 0
0 0 0 919 5864 -9788 0
0 0 0 919 6783 -8869 0
0 0 0 816 7599 -8053 0
0 0 0 802 8401 -7251 0
0 0 0 864 9265 -6387 0
0 0 0 946 10211 -5441 0
0 0 0 898 11109 -4543 0
0 0 0 821 11930 -3722 0
0 0 0 863 12793 -2859 0
1 1 S112 871 13664 -1988 0
1 1 S112 864 14528 -1124 0
1 1 S112 786 15314 -338 0
1 2 S112 809 16123 471 0
1 2 S112 928 17051 1399 0
1 2 S112 932 17983 2331 0
1 2 S112 861 18844 3192 0
1 2 S112 855 19699 4047 0
1 2 S112 920 20619 4967 0
1 2 S112 906 21525 5873 0
1 2 S112 859 22384 6732 0
0 0 0 836 23220 -12873 0
0 0 0 845 24065 -12028 0
0 0 0 821 24886 -11207 0
0 0 0 742 25628 -10465 0
0 0 0 743 26371 -9722 0
0 0 0 763 27134 -8959 0
0 0 0 933 28067 -8026 0
0 0 0 827 28894 -7199 0
0 0 0 861 29755 -6338 0
0 0 0 923 30678 -5415 0
0 0 0 927 31605 -4488 0
0 0 0 845 32450 -3643 0
0 0 0 903 33353 -2740 0
2 1 S102 918 34271 -1822 0
2 1 S102 897 35168 -925 0
2 1 S102 816 35984 -109 0
2 2 S102 869 36853 760 0
2 2 S102 900 37753 1660 0
2 2 S102 857 38610 2517 0
2 2 S102 798 39408 3315 0
2 2 S102 870 40278 4185 0
2 2 S102 923 41201 5108 0
2 2 S102 938 42139 6046 0
2 2 S102 850 42989 6896 0
0 0 0 922 43911 -9075 0
0 0 0 936 44847 -8139 0
0 0 0 870 45717 -7269 0
0 0 0 839 46556 -6430 0
0 0 0 854 47410 -5576 0
0 0 0 879 48289 -4697 0
0 0 0 840 49129 -3857 0
0 0 0 854 49983 -3003 0
0 0 0 894 50877 -2109 0
3 1 S116 922 51799 -1187 0
3 1 S116 816 52615 -371 0
3 2 S116 799 53414 428 0
3 2 S116 864 54278 1292 0
3 2 S116 905 55183 2197 0
3 2 S116 901 56084 3098 0
3 2 S116 813 56897 3911 0
3 2 S116 927 57824 4838 0
3 2 S116 940 58764 5778 0
3 2 S116 887 59651 6665 0
0 0 0 813 60464 -11952 0
0 0 0 857 61321 -11095 0
0 0 0 865 62186 -10230 0
0 0 0 798 62984 -9432 0
0 0 0 776 63760 -8656 0
0 0 0 812 64572 -7844 0
0 0 0 790 65362 -7054 0
0 0 0 754 66116 -6300 0
0 0 0 785 66901 -5515 0
0 0 0 749 67650 -4766 0
0 0 0 771 68421 -3995 0
0 0 0 818 69239 -3177 0
0 0 0 871 70110 -2306 0
4 1 S106 826 70936 -1480 0
4 1 S106 781 71717 -699 0
4 2 S106 841 72558 142 0
4 2 S106 868 73426 1010 0
4 2 S106 885 74311 1895 0
4 2 S106 827 75138 2722 0
4 2 S106 909 76047 3631 0
4 2 S106 919 76966 4550 0
4 2 S106 887 77853 5437 0
4 2 S106 808 78661 6245 0
0 0 0 877 79538 -8064 0
0 0 0 877 80415 -7187 0
0 0 0 802 81217 -6385 0
0 0 0 756 81973 -5629 0
0 0 0 788 82761 -4841 0
0 0 0 811 83572 -4030 0
0 0 0 840 84412 -3190 0
0 0 0 766 85178 -2424 0
5 1 S116 839 86017 -1585 0
5 1 S116 865 86882 -720 0
5 2 S116 881 87763 161 0
5 2 S116 812 88575 973 0
5 2 S116 831 89406 1804 0
5 2 S116 868 90274 2672 0
5 2 S116 846 91120 3518 0
5 2 S116 769 91889 4287 0
5 2 S116 799 92688 5086 0
5 2 S116 828 93516 5914 0
5 2 S116 867 94383 6781 0
0 0 0 814 95197 -9895 0
0 0 0 882 96079 -9013 0
0 0 0 918 96997 -8095 0
0 0 0 901 97898 -7194 0
0 0 0 808 98706 -6386 0
0 0 0 841 99547 -5545 0
0 0 0 853 100400 -4692 0
0 0 0 838 101238 -3854 0
0 0 0 787 102025 -3067 0
0 0 0 828 102853 -2239 0
6 1 S106 887 103740 -1352 0
6 1 S106 906 104646 -446 0
6 2 S106 807 105453 361 0
6 2 S106 882 106335 1243 0
6 2 S106 938 107273 2181 0
6 2 S106 901 108174 3082 0
6 2 S106 815 108989 3897 0
6 2 S106 875 109864 4772 0
6 2 S106 906 110770 5678 0
6 2 S106 887 111657 6565 0
0 0 0 802 112459 -13240 0
0 0 0 800 113259 -12440 0
0 0 0 837 114096 -11603 0
0 0 0 893 114989 -10710 0
0 0 0 880 115869 -9830 0
0 0 0 871 116740 -8959 0
0 0 0 894 117634 -8065 0
0 0 0 918 118552 -7147 0
0 0 0 876 119428 -6271 0
0 0 0 846 120274 -5425 0
0 0 0 853 121127 -4572 0
0 0 0 852 121979 -3720 0
0 0 0 829 122808 -2891 0
0 0 0 767 123575 -2124 0
7 1 S102 818 124393 -1306 0
7 1 S102 860 125253 -446 0
7 2 S102 879 126132 433 0
7 2 S102 851 126983 1284 0
7 2 S102 850 127833 2134 0
7 2 S102 919 128752 3053 0
7 2 S102 972 129724 4025 0
7 2 S102 908 130632 4933 0
7 2 S102 859 131491 5792 0
7 2 S102 895 132386 6687 0
0 0 0 879 133265 -9095 0
0 0 0 796 134061 -8299 0
0 0 0 820 134881 -7479 0
0 0 0 849 135730 -6630 0
0 0 0 858 136588 -5772 0
0 0 0 794 137382 -4978 0
0 0 0 862 138244 -4116 0
0 0 0 940 139184 -3176 0
0 0 0 926 140110 -2250 0
8 1 S112 840 140950 -1410 0
8 1 S112 893 141843 -517 0
8 2 S112 932 142775 415 0
8 2 S112 917 143692 1332 0
8 2 S112 861 144553 2193 0
8 2 S112 846 145399 3039 0
8 2 S112 873 146272 3912 0
8 2 S112 888 147160 4800 0
8 2 S112 832 147992 5632 0
8 2 S112 831 148823 6463 0
0 0 0 872 149695 -7437 0
0 0 0 876 150571 -6561 0
0 0 0 795 151366 -5766 0
0 0 0 830 152196 -4936 0
0 0 0 848 153044 -4088 0
0 0 0 830 153874 -3258 0
0 0 0 799 154673 -2459 0
9 1 S116 859 155532 -1600 0
9 1 S116 893 156425 -707 0
9 2 S116 916 157341 209 0
9 2 S116 870 158211 1079 0
9 2 S116 860 159071 1939 0
9 2 S116 889 159960 2828 0
9 2 S116 873 160833 3701 0
9 2 S116 800 161633 4501 0
9 2 S116 765 162398 5266 0
9 2 S116 834 163232 6100 0
9 2 S116 875 164107 6975 0
0 0 0 873 164980 -10288 0
0 0 0 831 165811 -9457 0
0 0 0 882 166693 -8575 0
0 0 0 878 167571 -7697 0
0 0 0 835 168406 -6862 0
0 0 0 807 169213 -6055 0
0 0 0 859 170072 -5196 0
0 0 0 860 170932 -4336 0
0 0 0 816 171748 -3520 0
0 0 0 771 172519 -2749 0
10 1 S102 815 173334 -1934 0
10 1 S102 849 174183 -1085 0
10 1 S102 859 175042 -226 0
10 2 S102 844 175886 618 0
10 2 S102 779 176665 1397 0
10 2 S102 818 177483 2215 0
10 2 S102 842 178325 3057 0
10 2 S102 846 179171 3903 0
10 2 S102 772 179943 4675 0
10 2 S102 832 180775 5507 0
10 2 S102 892 181667 6399 0
0 0 0 896 182563 -11074 0
0 0 0 836 183399 -10238 0
0 0 0 890 184289 -9348 0
0 0 0 871 185160 -8477 0
0 0 0 846 186006 -7631 0
0 0 0 773 186779 -6858 0
0 0 0 806 187585 -6052 0
0 0 0 830 188415 -5222 0
0 0 0 833 189248 -4389 0
0 0 0 793 190041 -3596 0
0 0 0 788 190829 -2808 0
11 1 S112 833 191662 -1975 0
11 1 S112 840 192502 -1135 0
11 1 S112 827 193329 -308 0
11 2 S112 780 194109 472 0
11 2 S112 825 194934 1297 0
11 2 S112 848 195782 2145 0
11 2 S112 855 196637 3000 0
11 2 S112 773 197410 3773 0
11 2 S112 793 198203 4566 0
11 2 S112 804 199007 5370 0
11 2 S112 827 199834 6197 0
11 2 S112 793 200627 6990 0
0 0 0 822 201449 -6860 0
0 0 0 877 202326 -5983 0
0 0 0 884 203210 -5099 0
0 0 0 816 204026 -4283 0
0 0 0 861 204887 -3422 0
0 0 0 865 205752 -2557 0
12 1 S116 867 206619 -1690 0
12 1 S116 788 207407 -902 0
12 1 S116 807 208214 -95 0
12 2 S116 801 209015 706 0
12 2 S116 818 209833 1524 0
12 2 S116 838 210671 2362 0
12 2 S116 777 211448 3139 0
12 2 S116 848 212296 3987 0
12 2 S116 890 213186 4877 0
12 2 S116 894 214080 5771 0
12 2 S116 820 214900 6591 0
0 0 0 865 215765 -13019 0
0 0 0 875 216640 -12144 0
0 0 0 855 217495 -11289 0
0 0 0 779 218274 -10510 0
0 0 0 794 219068 -9716 0
0 0 0 798 219866 -8918 0
0 0 0 821 220687 -8097 0
0 0 0 773 221460 -7324 0
0 0 0 783 222243 -6541 0
0 0 0 840 223083 -5701 0
0 0 0 869 223952 -4832 0
0 0 0 845 224797 -3987 0
0 0 0 794 225591 -3193 0
0 0 0 838 226429 -2355 0
13 1 S112 813 227242 -1542 0
13 1 S112 814 228056 -728 0
13 2 S112 763 228819 35 0
13 2 S112 820 229639 855 0
13 2 S112 902 230541 1757 0
13 2 S112 941 231482 2698 0
13 2 S112 878 232360 3576 0
13 2 S112 873 233233 4449 0
13 2 S112 939 234172 5388 0
13 2 S112 948 235120 6336 0
0 0 0 873 235993 -12535 0
0 0 0 838 236831 -11697 0
0 0 0 842 237673 -10855 0
0 0 0 813 238486 -10042 0
0 0 0 782 239268 -9260 0
0 0 0 732 240000 -8528 0
0 0 0 768 240768 -7760 0
0 0 0 805 241573 -6955 0
0 0 0 835 242408 -6120 0
0 0 0 791 243199 -5329 0
0 0 0 845 244044 -4484 0
0 0 0 896 244940 -3588 0
0 0 0 895 245835 -2693 0
14 1 S106 825 246660 -1868 0
14 1 S106 837 247497 -1031 0
14 1 S106 859 248356 -172 0
14 2 S106 852 249208 680 0
14 2 S106 779 249987 1459 0
14 2 S106 821 250808 2280 0
14 2 S106 842 251650 3122 0
14 2 S106 854 252504 3976 0
14 2 S106 808 253312 4784 0
14 2 S106 846 254158 5630 0
14 2 S106 899 255057 6529 0
0 0 0 887 255944 -13191 0
0 0 0 817 256761 -12374 0
0 0 0 844 257605 -11530 0
0 0 0 877 258482 -10653 0
0 0 0 886 259368 -9767 0
0 0 0 830 260198 -8937 0
0 0 0 887 261085 -8050 0
0 0 0 938 262023 -7112 0
0 0 0 940 262963 -6172 0
0 0 0 872 263835 -5300 0
0 0 0 851 264686 -4449 0
0 0 0 857 265543 -3592 0
0 0 0 889 266432 -2703 0
15 1 S116 807 267239 -1896 0
15 1 S116 814 268053 -1082 0
15 1 S116 855 268908 -227 0
15 2 S116 924 269832 697 0
15 2 S116 915 270747 1612 0
15 2 S116 875 271622 2487 0
15 2 S116 911 272533 3398 0
15 2 S116 912 273445 4310 0
15 2 S116 914 274359 5224 0
15 2 S116 815 275174 6039 0
15 2 S116 850 276024 6889 0
0 0 0 846 276870 -8595 0
0 0 0 853 277723 -7742 0
0 0 0 809 278532 -6933 0
0 0 0 776 279308 -6157 0
0 0 0 813 280121 -5344 0
0 0 0 834 280955 -4510 0
0 0 0 874 281829 -3636 0
0 0 0 821 282650 -2815 0
16 1 S116 832 283482 -1983 0
16 1 S116 838 284320 -1145 0
16 1 S116 861 285181 -284 0
16 2 S116 831 286012 547 0
16 2 S116 780 286792 1327 0
16 2 S116 827 287619 2154 0
16 2 S116 842 288461 2996 0
16 2 S116 830 289291 3826 0
16 2 S116 793 290084 4619 0
16 2 S116 826 290910 5445 0
16 2 S116 854 291764 6299 0
0 0 0 861 292625 -8855 0
0 0 0 809 293434 -8046 0
0 0 0 779 294213 -7267 0
0 0 0 815 295028 -6452 0
0 0 0 814 295842 -5638 0
0 0 0 774 296616 -4864 0
0 0 0 760 297376 -4104 0
0 0 0 789 298165 -3315 0
0 0 0 827 298992 -2488 0
17 1 S106 819 299811 -1669 0
17 1 S106 774 300585 -895 0
17 1 S106 806 301391 -89 0
17 2 S106 824 302215 735 0
17 2 S106 833 303048 1568 0
17 2 S106 780 303828 2348 0
17 2 S106 777 304605 3125 0
17 2 S106 826 305431 3951 0
17 2 S106 849 306280 4800 0
17 2 S106 828 307108 5628 0
17 2 S106 782 307890 6410 0
0 0 0 832 308722 -10895 0
0 0 0 835 309557 -10060 0
0 0 0 796 310353 -9264 0
0 0 0 749 311102 -8515 0
0 0 0 789 311891 -7726 0
0 0 0 799 312690 -6927 0
0 0 0 822 313512 -6105 0
0 0 0 763 314275 -5342 0
0 0 0 776 315051 -4566 0
0 0 0 827 315878 -3739 0
0 0 0 889 316767 -2850 0
18 1 S102 856 317623 -1994 0
18 1 S102 791 318414 -1203 0
18 1 S102 804 319218 -399 0
18 2 S102 808 320026 409 0
18 2 S102 806 320832 1215 0
18 2 S102 757 321589 1972 0
18 2 S102 746 322335 2718 0
18 2 S102 808 323143 3526 0
18 2 S102 840 323983 4366 0
18 2 S102 889 324872 5255 0
18 2 S102 811 325683 6066 0
18 2 S102 849 326532 6915 0
0 0 0 857 327389 -6750 0
0 0 0 836 328225 -5914 0
0 0 0 791 329016 -5123 0
0 0 0 815 329831 -4308 0
0 0 0 810 330641 -3498 0
0 0 0 817 331458 -2681 0
19 1 S106 753 332211 -1928 0
19 1 S106 789 333000 -1139 0
19 1 S106 821 333821 -318 0
19 2 S106 860 334681 542 0
19 2 S106 859 335540 1401 0
19 2 S106 796 336336 2197 0
19 2 S106 857 337193 3054 0
19 2 S106 908 338101 3962 0
19 2 S106 888 338989 4850 0
19 2 S106 803 339792 5653 0
19 2 S106 825 340617 6478 0
0 0 0 847 341464 -12138 0
0 0 0 854 342318 -11284 0
0 0 0 772 343090 -10512 0
0 0 0 802 343892 -9710 0
0 0 0 823 344715 -8887 0
0 0 0 838 345553 -8049 0
0 0 0 793 346346 -7256 0
0 0 0 775 347121 -6481 0
0 0 0 838 347959 -5643 0
0 0 0 890 348849 -4753 0
0 0 0 904 349753 -3849 0
0 0 0 808 350561 -3041 0
0 0 0 834 351395 -2207 0
20 1 S112 846 352241 -1361 0
20 1 S112 847 353088 -514 0
20 2 S112 787 353875 273 0
20 2 S112 774 354649 1047 0
20 2 S112 838 355487 1885 0
20 2 S112 847 356334 2732 0
20 2 S112 835 357169 3567 0
20 2 S112 891 358060 4458 0
20 2 S112 884 358944 5342 0
20 2 S112 883 359827 6225 0
0 0 0 826 360653 -9760 0
0 0 0 869 361522 -8891 0
0 0 0 882 362404 -8009 0
0 0 0 841 363245 -7168 0
0 0 0 772 364017 -6396 0
0 0 0 786 364803 -5610 0
0 0 0 793 365596 -4817 0
0 0 0 798 366394 -4019 0
0 0 0 768 367162 -3251 0
0 0 0 790 367952 -2461 0
21 1 S106 846 368798 -1615 0
21 1 S106 896 369694 -719 0
21 2 S106 868 370562 149 0
21 2 S106 813 371375 962 0
21 2 S106 850 372225 1812 0
21 2 S106 869 373094 2681 0
21 2 S106 867 373961 3548 0
21 2 S106 798 374759 4346 0
21 2 S106 820 375579 5166 0
21 2 S106 846 376425 6012 0
21 2 S106 870 377295 6882 0
0 0 0 869 378164 -11795 0
0 0 0 822 378986 -10973 0
0 0 0 874 379860 -10099 0
0 0 0 907 380767 -9192 0
0 0 0 858 381625 -8334 0
0 0 0 818 382443 -7516 0
0 0 0 866 383309 -6650 0
0 0 0 896 384205 -5754 0
0 0 0 896 385101 -4858 0
0 0 0 831 385932 -4027 0
0 0 0 862 386794 -3165 0
0 0 0 872 387666 -2293 0
22 1 S116 879 388545 -1414 0
22 1 S116 872 389417 -542 0
22 2 S116 791 390208 249 0
22 2 S116 837 391045 1086 0
22 2 S116 856 391901 1942 0
22 2 S116 899 392800 2841 0
22 2 S116 863 393663 3704 0
22 2 S116 872 394535 4576 0
22 2 S116 909 395444 5485 0
22 2 S116 933 396377 6418 0
0 0 0 861 397238 -9846 0
0 0 0 851 398089 -8995 0
0 0 0 837 398926 -8158 0
0 0 0 835 399761 -7323 0
0 0 0 764 400525 -6559 0
0 0 0 820 401345 -5739 0
0 0 0 859 402204 -4880 0
0 0 0 871 403075 -4009 0
0 0 0 831 403906 -3178 0
0 0 0 928 404834 -2250 0
23 1 S112 972 405806 -1278 0
23 1 S112 967 406773 -311 0
23 2 S112 869 407642 558 0
23 2 S112 884 408526 1442 0
23 2 S112 881 409407 2323 0
23 2 S112 869 410276 3192 0
23 2 S112 788 411064 3980 0
23 2 S112 813 411877 4793 0
23 2 S112 860 412737 5653 0
23 2 S112 888 413625 6541 0
0 0 0 799 414424 -9885 0
0 0 0 827 415251 -9058 0
0 0 0 898 416149 -8160 0
0 0 0 904 417053 -7256 0
0 0 0 826 417879 -6430 0
0 0 0 874 418753 -5556 0
0 0 0 886 419639 -4670 0
0 0 0 863 420502 -3807 0
0 0 0 809 421311 -2998 0
0 0 0 829 422140 -2169 0
24 1 S106 855 422995 -1314 0
24 1 S106 869 423864 -445 0
24 2 S106 817 424681 372 0
24 2 S106 837 425518 1209 0
24 2 S106 873 426391 2082 0
24 2 S106 904 427295 2986 0
24 2 S106 849 428144 3835 0
24 2 S106 847 428991 4682 0
24 2 S106 879 429870 5561 0
24 2 S106 925 430795 6486 0
0 0 0 839 431634 -9154 0
0 0 0 844 432478 -8310 0
0 0 0 842 433320 -7468 0
0 0 0 868 434188 -6600 0
0 0 0 842 435030 -5758 0
0 0 0 780 435810 -4978 0
0 0 0 842 436652 -4136 0
0 0 0 890 437542 -3246 0
0 0 0 899 438441 -2347 0
25 1 S102 868 439309 -1479 0
25 1 S102 811 440120 -668 0
25 2 S102 828 440948 160 0
25 2 S102 840 441788 1000 0
25 2 S102 839 442627 1839 0
25 2 S102 773 443400 2612 0
25 2 S102 796 444196 3408 0
25 2 S102 828 445024 4236 0
25 2 S102 872 445896 5108 0
25 2 S102 841 446737 5949 0
25 2 S102 848 447585 6797 0
0 0 0 888 448473 -6689 0
0 0 0 895 449368 -5794 0
0 0 0 884 450252 -4910 0
0 0 0 808 451060 -4102 0
0 0 0 844 451904 -3258 0
0 0 0 865 452769 -2393 0
26 1 S116 851 453620 -1542 0
26 1 S116 834 454454 -708 0
26 2 S116 885 455339 177 0
26 2 S116 925 456264 1102 0
26 2 S116 883 457147 1985 0
26 2 S116 795 457942 2780 0
26 2 S116 854 458796 3634 0
26 2 S116 895 459691 4529 0
26 2 S116 895 460586 5424 0
26 2 S116 844 461430 6268 0
0 0 0 815 462245 -8616 0
0 0 0 856 463101 -7760 0
0 0 0 866 463967 -6894 0
0 0 0 830 464797 -6064 0
0 0 0 766 465563 -5298 0
0 0 0 796 466359 -4502 0
0 0 0 813 467172 -3689 0
0 0 0 844 468016 -2845 0
0 0 0 804 468820 -2041 0
27 1 S106 830 469650 -1211 0
27 1 S106 844 470494 -367 0
27 2 S106 879 471373 512 0
27 2 S106 823 472196 1335 0
27 2 S106 832 473028 2167 0
27 2 S106 839 473867 3006 0
27 2 S106 862 474729 3868 0
27 2 S106 820 475549 4688 0
27 2 S106 782 476331 5470 0
27 2 S106 819 477150 6289 0
0 0 0 855 478005 -8026 0
0 0 0 843 478848 -7183 0
0 0 0 797 479645 -6386 0
0 0 0 846 480491 -5540 0
0 0 0 898 481389 -4642 0
0 0 0 865 482254 -3777 0
0 0 0 793 483047 -2984 0
0 0 0 821 483868 -2163 0
28 1 S102 816 484684 -1347 0
28 1 S102 815 485499 -532 0
28 2 S102 760 486259 228 0
28 2 S102 781 487040 1009 0
28 2 S102 800 487840 1809 0
28 2 S102 821 488661 2630 0
28 2 S102 796 489457 3426 0
28 2 S102 826 490283 4252 0
28 2 S102 880 491163 5132 0
28 2 S102 924 492087 6056 0
28 2 S102 847 492934 6903 0
0 0 0 827 493761 -11036 0
0 0 0 829 494590 -10207 0
0 0 0 833 495423 -9374 0
0 0 0 769 496192 -8605 0
0 0 0 773 496965 -7832 0
0 0 0 802 497767 -7030 0
0 0 0 829 498596 -6201 0
0 0 0 812 499408 -5389 0
0 0 0 776 500184 -4613 0
0 0 0 825 501009 -3788 0
0 0 0 827 501836 -2961 0
0 0 0 837 502673 -2124 0
29 1 S112 770 503443 -1354 0
29 1 S112 812 504255 -542 0
29 2 S112 816 505071 274 0
29 2 S112 845 505916 1119 0
29 2 S112 810 506726 1929 0
29 2 S112 849 507575 2778 0
29 2 S112 877 508452 3655 0
29 2 S112 900 509352 4555 0
29 2 S112 874 510226 5429 0
29 2 S112 821 511047 6250 0
0 0 0 834 511881 -7373 0
0 0 0 865 512746 -6508 0
0 0 0 848 513594 -5660 0
0 0 0 795 514389 -4865 0
0 0 0 805 515194 -4060 0
0 0 0 830 516024 -3230 0
0 0 0 883 516907 -2347 0
30 1 S112 848 517755 -1499 0
30 1 S112 827 518582 -672 0
30 2 S112 895 519477 223 0
30 2 S112 897 520374 1120 0
30 2 S112 885 521259 2005 0
30 2 S112 809 522068 2814 0
30 2 S112 840 522908 3654 0
30 2 S112 836 523744 4490 0
30 2 S112 825 524569 5315 0
30 2 S112 755 525324 6070 0
30 2 S112 792 526116 6862 0
0 0 0 816 526932 -9315 0
0 0 0 911 527843 -8404 0
0 0 0 844 528687 -7560 0
0 0 0 880 529567 -6680 0
0 0 0 886 530453 -5794 0
0 0 0 874 531327 -4920 0
0 0 0 787 532114 -4133 0
0 0 0 809 532923 -3324 0
0 0 0 805 533728 -2519 0
31 1 S106 828 534556 -1691 0
31 1 S106 776 535332 -915 0
31 1 S106 780 536112 -135 0
31 2 S106 828 536940 693 0
31 2 S106 857 537797 1550 0
31 2 S106 872 538669 2422 0
31 2 S106 808 539477 3230 0
31 2 S106 865 540342 4095 0
31 2 S106 914 541256 5009 0
31 2 S106 894 542150 5903 0
31 2 S106 821 542971 6724 0
0 0 0 846 543817 -8743 0
0 0 0 847 544664 -7896 0
0 0 0 852 545516 -7044 0
0 0 0 788 546304 -6256 0
0 0 0 794 547098 -5462 0
0 0 0 825 547923 -4637 0
0 0 0 846 548769 -3791 0
0 0 0 785 549554 -3006 0
0 0 0 828 550382 -2178 0
32 1 S102 877 551259 -1301 0
32 1 S102 909 552168 -392 0
32 2 S102 855 553023 463 0
32 2 S102 849 553872 1312 0
32 2 S102 841 554713 2153 0
32 2 S102 839 555552 2992 0
32 2 S102 771 556323 3763 0
32 2 S102 752 557075 4515 0
32 2 S102 765 557840 5280 0
32 2 S102 772 558612 6052 0
32 2 S102 776 559388 6828 0
0 0 0 738 560126 -11366 0
0 0 0 796 560922 -10570 0
0 0 0 852 561774 -9718 0
0 0 0 921 562695 -8797 0
0 0 0 845 563540 -7952 0
0 0 0 839 564379 -7113 0
0 0 0 891 565270 -6222 0
0 0 0 884 566154 -5338 0
0 0 0 855 567009 -4483 0
0 0 0 786 567795 -3697 0
0 0 0 812 568607 -2885 0
0 0 0 803 569410 -2082 0
33 1 S112 807 570217 -1275 0
33 1 S112 763 570980 -512 0
33 2 S112 722 571702 210 0
33 2 S112 783 572485 993 0
33 2 S112 819 573304 1812 0
33 2 S112 936 574240 2748 0
33 2 S112 873 575113 3621 0
33 2 S112 920 576033 4541 0
33 2 S112 980 577013 5521 1
33 2 S112 959 577972 6480 0
0 0 0 850 578822 -11354 0
0 0 0 871 579693 -10483 0
0 0 0 894 580587 -9589 0
0 0 0 809 581396 -8780 0
0 0 0 789 582185 -7991 0
0 0 0 817 583002 -7174 0
0 0 0 912 583914 -6262 0
0 0 0 872 584786 -5390 0
0 0 0 806 585592 -4584 0
0 0 0 881 586473 -3703 0
0 0 0 898 587371 -2805 0
34 1 S106 911 588282 -1894 0
34 1 S106 838 589120 -1056 0
34 1 S106 812 589932 -244 0
34 2 S106 850 590782 606 0
34 2 S106 892 591674 1498 0
34 2 S106 920 592594 2418 0
34 2 S106 840 593434 3258 0
34 2 S106 880 594314 4138 0
34 2 S106 924 595238 5062 0
34 2 S106 923 596161 5985 0
34 2 S106 831 596992 6816 0
0 0 0 833 597825 -8714 0
0 0 0 888 598713 -7826 0
0 0 0 897 599610 -6929 0
0 0 0 841 600451 -6088 0
0 0 0 822 601273 -5266 0
0 0 0 892 602165 -4374 0
0 0 0 945 603110 -3429 0
0 0 0 947 604057 -2482 0
35 1 S102 837 604894 -1645 0
35 1 S102 848 605742 -797 0
35 2 S102 854 606596 57 0
35 2 S102 828 607424 885 0
35 2 S102 777 608201 1662 0
35 2 S102 769 608970 2431 0
35 2 S102 763 609733 3194 0
35 2 S102 762 610495 3956 0
35 2 S102 806 611301 4762 0
35 2 S102 848 612149 5610 0
35 2 S102 773 612922 6383 0
0 0 0 814 613736 -7193 0
0 0 0 837 614573 -6356 0
0 0 0 841 615414 -5515 0
0 0 0 783 616197 -4732 0
0 0 0 753 616950 -3979 0
0 0 0 733 617683 -3246 0
0 0 0 706 618389 -2540 0
36 1 S106 749 619138 -1791 0
36 1 S106 773 619911 -1018 0
36 1 S106 792 620703 -226 0
36 2 S106 858 621561 632 0
36 2 S106 917 622478 1549 0
36 2 S106 916 623394 2465 0
36 2 S106 853 624247 3318 0
36 2 S106 834 625081 4152 0
36 2 S106 867 625948 5019 0
36 2 S106 900 626848 5919 0
36 2 S106 841 627689 6760 0
0 0 0 807 628496 -11034 0
0 0 0 860 629356 -10174 0
0 0 0 902 630258 -9272 0
0 0 0 915 631173 -8357 0
0 0 0 860 632033 -7497 0
0 0 0 891 632924 -6606 0
0 0 0 880 633804 -5726 0
0 0 0 885 634689 -4841 0
0 0 0 834 635523 -4007 0
0 0 0 849 636372 -3158 0
0 0 0 885 637257 -2273 0
37 1 S116 898 638155 -1375 0
37 1 S116 862 639017 -513 0
37 2 S116 839 639856 326 0
37 2 S116 870 640726 1196 0
37 2 S116 888 641614 2084 0
37 2 S116 926 642540 3010 0
37 2 S116 862 643402 3872 0
37 2 S116 875 644277 4747 0
37 2 S116 921 645198 5668 0
37 2 S116 923 646121 6591 0
0 0 0 915 647036 -12106 0
0 0 0 840 647876 -11266 0
0 0 0 873 648749 -10393 0
0 0 0 867 649616 -9526 0
0 0 0 888 650504 -8638 0
0 0 0 837 651341 -7801 0
0 0 0 823 652164 -6978 0
0 0 0 852 653016 -6126 0
0 0 0 903 653919 -5223 0
0 0 0 845 654764 -4378 0
0 0 0 836 655600 -3542 0
0 0 0 880 656480 -2662 0
38 1 S102 905 657385 -1757 0
38 1 S102 875 658260 -882 0
38 1 S102 795 659055 -87 0
38 2 S102 826 659881 739 0
38 2 S102 821 660702 1560 0
38 2 S102 831 661533 2391 0
38 2 S102 776 662309 3167 0
38 2 S102 809 663118 3976 0
38 2 S102 885 664003 4861 0
38 2 S102 922 664925 5783 0
38 2 S102 867 665792 6650 0
0 0 0 873 666665 -8459 0
0 0 0 912 667577 -7547 0
0 0 0 911 668488 -6636 0
0 0 0 809 669297 -5827 0
0 0 0 791 670088 -5036 0
0 0 0 788 670876 -4248 0
0 0 0 796 671672 -3452 0
0 0 0 749 672421 -2703 0
39 1 S116 725 673146 -1978 0
39 1 S116 747 673893 -1231 0
39 1 S116 783 674676 -448 0
39 2 S116 958 675634 510 0
39 2 S116 865 676499 1375 0
39 2 S116 903 677402 2278 0
39 2 S116 974 678376 3252 0
39 2 S116 995 679371 4247 1
39 2 S116 896 680267 5143 0
39 2 S116 890 681157 6033 0
39 2 S116 881 682038 6914 0
0 0 0 889 682927 -6719 0
0 0 0 818 683745 -5901 0
0 0 0 797 684542 -5104 0
0 0 0 827 685369 -4277 0
0 0 0 828 686197 -3449 0
0 0 0 803 687000 -2646 0
40 1 S112 783 687783 -1863 0
40 1 S112 849 688632 -1014 0
40 1 S112 903 689535 -111 0
40 2 S112 876 690411 765 0
40 2 S112 827 691238 1592 0
40 2 S112 893 692131 2485 0
40 2 S112 898 693029 3383 0
40 2 S112 850 693879 4233 0
40 2 S112 793 694672 5026 0
40 2 S112 810 695482 5836 0
40 2 S112 833 696315 6669 0
0 0 0 835 697150 -187226 0
0 0 0 795 697945 -186431 0
0 0 0 769 698714 -185662 0
0 0 0 819 699533 -184843 0
0 0 0 868 700401 -183975 0
0 0 0 814 701215 -183161 0
0 0 0 810 702025 -182351 0
0 0 0 849 702874 -181502 0
0 0 0 885 703759 -180617 0
0 0 0 896 704655 -179721 0
0 0 0 828 705483 -178893 0
0 0 0 748 706231 -178145 0
0 0 0 728 706959 -177417 0
0 0 0 802 707761 -176615 0
0 0 0 829 708590 -175786 0
0 0 0 869 709459 -174917 0
0 0 0 866 710325 -174051 0
0 0 0 859 711184 -173192 0
0 0 0 845 712029 -172347 0
0 0 0 839 712868 -171508 0
0 0 0 826 713694 -170682 0
0 0 0 818 714512 -169864 0
0 0 0 806 715318 -169058 0
0 0 0 815 716133 -168243 0
0 0 0 823 716956 -167420 0
0 0 0 867 717823 -166553 0
0 0 0 881 718704 -165672 0
0 0 0 902 719606 -164770 0
0 0 0 897 720503 -163873 0
0 0 0 844 721347 -163029 0
0 0 0 848 722195 -162181 0
0 0 0 838 723033 -161343 0
0 0 0 846 723879 -160497 0
0 0 0 812 724691 -159685 0
0 0 0 789 725480 -158896 0
0 0 0 818 726298 -158078 0
0 0 0 844 727142 -157234 0
0 0 0 896 728038 -156338 0
0 0 0 828 728866 -155510 0
0 0 0 869 729735 -154641 0
0 0 0 919 730654 -153722 0
0 0 0 909 731563 -152813 0
0 0 0 872 732435 -151941 0
0 0 0 830 733265 -151111 0
0 0 0 842 734107 -150269 0
0 0 0 841 734948 -149428 0
0 0 0 862 735810 -148566 0
0 0 0 797 736607 -147769 0
0 0 0 830 737437 -146939 0
0 0 0 838 738275 -146101 0
0 0 0 844 739119 -145257 0
0 0 0 863 739982 -144394 0
0 0 0 798 740780 -143596 0
0 0 0 818 741598 -142778 0
0 0 0 837 742435 -141941 0
0 0 0 869 743304 -141072 0
0 0 0 803 744107 -140269 0
0 0 0 817 744924 -139452 0
0 0 0 862 745786 -138590 0
0 0 0 878 746664 -137712 0
0 0 0 852 747516 -136860 0
0 0 0 791 748307 -136069 0
0 0 0 817 749124 -135252 0
0 0 0 832 749956 -134420 0
0 0 0 826 750782 -133594 0
0 0 0 822 751604 -132772 0
0 0 0 759 752363 -132013 0
0 0 0 788 753151 -131225 0
0 0 0 811 753962 -130414 0
0 0 0 843 754805 -129571 0
0 0 0 850 755655 -128721 0
0 0 0 832 756487 -127889 0
0 0 0 862 757349 -127027 0
0 0 0 872 758221 -126155 0
0 0 0 847 759068 -125308 0
0 0 0 781 759849 -124527 0
0 0 0 807 760656 -123720 0
0 0 0 809 761465 -122911 0
0 0 0 812 762277 -122099 0
0 0 0 765 763042 -121334 0
0 0 0 714 763756 -120620 0
0 0 0 751 764507 -119869 0
0 0 0 866 765373 -119003 0
0 0 0 1045 766418 -117958 1
0 0 0 845 767263 -117113 0
0 0 0 860 768123 -116253 0
0 0 0 870 768993 -115383 0
0 0 0 857 769850 -114526 0
0 0 0 783 770633 -113743 0
0 0 0 789 771422 -112954 0
0 0 0 788 772210 -112166 0
0 0 0 782 772992 -111384 0
0 0 0 728 773720 -110656 0
0 0 0 687 774407 -109969 1
0 0 0 760 775167 -109209 0
0 0 0 879 776046 -108330 0
0 0 0 984 777030 -107346 1
0 0 0 872 777902 -106474 0
0 0 0 801 778703 -105673 0
0 0 0 805 779508 -104868 0
0 0 0 808 780316 -104060 0
0 0 0 831 781147 -103229 0
0 0 0 791 781938 -102438 0
0 0 0 768 782706 -101670 0
0 0 0 794 783500 -100876 0
0 0 0 796 784296 -100080 0
0 0 0 801 785097 -99279 0
0 0 0 762 785859 -98517 0
0 0 0 771 786630 -97746 0
0 0 0 782 787412 -96964 0
0 0 0 848 788260 -96116 0
0 0 0 839 789099 -95277 0
0 0 0 777 789876 -94500 0
0 0 0 840 790716 -93660 0
0 0 0 848 791564 -92812 0
0 0 0 875 792439 -91937 0
0 0 0 880 793319 -91057 0
0 0 0 816 794135 -90241 0
0 0 0 841 794976 -89400 0
0 0 0 853 795829 -88547 0
0 0 0 849 796678 -87698 0
0 0 0 807 797485 -86891 0
0 0 0 745 798230 -86146 0
0 0 0 812 799042 -85334 0
0 0 0 820 799862 -84514 0
0 0 0 887 800749 -83627 0
0 0 0 838 801587 -82789 0
0 0 0 844 802431 -81945 0
0 0 0 918 803349 -81027 0
0 0 0 922 804271 -80105 0
0 0 0 866 805137 -79239 0
0 0 0 817 805954 -78422 0
0 0 0 825 806779 -77597 0
0 0 0 821 807600 -76776 0
0 0 0 798 808398 -75978 0
0 0 0 749 809147 -75229 0
0 0 0 801 809948 -74428 0
0 0 0 846 810794 -73582 0
0 0 0 844 811638 -72738 0
0 0 0 767 812405 -71971 0
0 0 0 793 813198 -71178 0
0 0 0 826 814024 -70352 0
0 0 0 848 814872 -69504 0
0 0 0 850 815722 -68654 0
0 0 0 808 816530 -67846 0
0 0 0 857 817387 -66989 0
0 0 0 880 818267 -66109 0
0 0 0 882 819149 -65227 0
0 0 0 812 819961 -64415 0
0 0 0 796 820757 -63619 0
0 0 0 804 821561 -62815 0
0 0 0 832 822393 -61983 0
0 0 0 877 823270 -61106 0
0 0 0 823 824093 -60283 0
0 0 0 862 824955 -59421 0
0 0 0 903 825858 -58518 0
0 0 0 911 826769 -57607 0
0 0 0 874 827643 -56733 0
0 0 0 810 828453 -55923 0
0 0 0 811 829264 -55112 0
0 0 0 812 830076 -54300 0
0 0 0 832 830908 -53468 0
0 0 0 797 831705 -52671 0
0 0 0 766 832471 -51905 0
0 0 0 952 833423 -50953 0
0 0 0 988 834411 -49965 1
0 0 0 1000 835411 -48965 1
0 0 0 924 836335 -48041 0
0 0 0 860 837195 -47181 0
0 0 0 897 838092 -46284 0
0 0 0 896 838988 -45388 0
0 0 0 863 839851 -44525 0
0 0 0 800 840651 -43725 0
0 0 0 745 841396 -42980 0
0 0 0 766 842162 -42214 0
0 0 0 807 842969 -41407 0
0 0 0 842 843811 -40565 0
0 0 0 889 844700 -39676 0
0 0 0 860 845560 -38816 0
0 0 0 878 846438 -37938 0
0 0 0 941 847379 -36997 0
0 0 0 944 848323 -36053 0
0 0 0 931 849254 -35122 0
0 0 0 851 850105 -34271 0
0 0 0 870 850975 -33401 0
0 0 0 888 851863 -32513 0
0 0 0 867 852730 -31646 0
0 0 0 815 853545 -30831 0
0 0 0 811 854356 -30020 0
0 0 0 849 855205 -29171 0
0 0 0 880 856085 -28291 0
0 0 0 934 857019 -27357 0
0 0 0 896 857915 -26461 0
0 0 0 872 858787 -25589 0
0 0 0 890 859677 -24699 0
0 0 0 899 860576 -23800 0
0 0 0 885 861461 -22915 0
0 0 0 782 862243 -22133 0
0 0 0 851 863094 -21282 0
0 0 0 850 863944 -20432 0
0 0 0 815 864759 -19617 0
0 0 0 769 865528 -18848 0
0 0 0 761 866289 -18087 0
0 0 0 791 867080 -17296 0
0 0 0 816 867896 -16480 0
0 0 0 755 868651 -15725 0
0 0 0 755 869406 -14970 0
0 0 0 757 870163 -14213 0
0 0 0 777 870940 -13436 0
0 0 0 817 871757 -12619 0
0 0 0 788 872545 -11831 0
0 0 0 739 873284 -11092 0
0 0 0 768 874052 -10324 0
0 0 0 783 874835 -9541 0
0 0 0 822 875657 -8719 0
0 0 0 794 876451 -7925 0
0 0 0 727 877178 -7198 0
0 0 0 759 877937 -6439 0
0 0 0 798 878735 -5641 0
0 0 0 1012 879747 -4629 1
0 0 0 857 880604 -3772 0
0 0 0 804 881408 -2968 0
0 0 0 861 882269 -2107 0
41 1 S102 893 883162 -1214 0
41 1 S102 874 884036 -340 0
41 2 S102 798 884834 458 0
41 2 S102 815 885649 1273 0
41 2 S102 823 886472 2096 0
41 2 S102 824 887296 2920 0
41 2 S102 763 888059 3683 0
41 2 S102 764 888823 4447 0
41 2 S102 784 889607 5231 0
41 2 S102 808 890415 6039 0
41 2 S102 808 891223 6847 0
0 0 0 741 891964 -5907 0
0 0 0 857 892821 -5050 0
0 0 0 902 893723 -4148 0
0 0 0 863 894586 -3285 0
0 0 0 762 895348 -2523 0
42 1 S112 789 896137 -1734 0
42 1 S112 777 896914 -957 0
42 1 S112 838 897752 -119 0
42 2 S112 808 898560 689 0
42 2 S112 799 899359 1488 0
42 2 S112 890 900249 2378 0
42 2 S112 968 901217 3346 0
42 2 S112 880 902097 4226 0
42 2 S112 842 902939 5068 0
42 2 S112 883 903822 5951 0
42 2 S112 877 904699 6828 0
0 0 0 829 905528 -8805 0
0 0 0 789 906317 -8016 0
0 0 0 799 907116 -7217 0
0 0 0 779 907895 -6438 0
0 0 0 690 908585 -5748 1
0 0 0 656 909241 -5092 1
0 0 0 710 909951 -4382 0
0 0 0 1025 910976 -3357 1
0 0 0 955 911931 -2402 0
43 1 S116 886 912817 -1516 0
43 1 S116 945 913762 -571 0
43 2 S116 942 914704 371 0
43 2 S116 889 915593 1260 0
43 2 S116 840 916433 2100 0
43 2 S116 869 917302 2969 0
43 2 S116 853 918155 3822 0
43 2 S116 813 918968 4635 0
43 2 S116 803 919771 5438 0
43 2 S116 825 920596 6263 0
0 0 0 865 921461 -8108 0
0 0 0 874 922335 -7234 0
0 0 0 798 923133 -6436 0
0 0 0 837 923970 -5599 0
0 0 0 859 924829 -4740 0
0 0 0 858 925687 -3882 0
0 0 0 798 926485 -3084 0
0 0 0 816 927301 -2268 0
44 1 S102 843 928144 -1425 0
44 1 S102 861 929005 -564 0
44 2 S102 808 929813 244 0
44 2 S102 828 930641 1072 0
44 2 S102 843 931484 1915 0
44 2 S102 872 932356 2787 0
44 2 S102 840 933196 3627 0
44 2 S102 802 933998 4429 0
44 2 S102 828 934826 5257 0
44 2 S102 840 935666 6097 0
44 2 S102 851 936517 6948 0
0 0 0 795 937312 -10493 0
0 0 0 842 938154 -9651 0
0 0 0 870 939024 -8781 0
0 0 0 857 939881 -7924 0
0 0 0 828 940709 -7096 0
0 0 0 872 941581 -6224 0
0 0 0 899 942480 -5325 0
0 0 0 914 943394 -4411 0
0 0 0 833 944227 -3578 0
0 0 0 850 945077 -2728 0
45 1 S116 860 945937 -1868 0
45 1 S116 858 946795 -1010 0
45 1 S116 808 947603 -202 0
45 2 S116 872 948475 670 0
45 2 S116 890 949365 1560 0
45 2 S116 926 950291 2486 0
45 2 S116 844 951135 3330 0
45 2 S116 856 951991 4186 0
45 2 S116 871 952862 5057 0
45 2 S116 905 953767 5962 0
45 2 S116 831 954598 6793 0
0 0 0 854 955452 -11733 0
0 0 0 905 956357 -10828 0
0 0 0 912 957269 -9916 0
0 0 0 845 958114 -9071 0
0 0 0 889 959003 -8182 0
0 0 0 897 959900 -7285 0
0 0 0 887 960787 -6398 0
0 0 0 825 961612 -5573 0
0 0 0 826 962438 -4747 0
0 0 0 833 963271 -3914 0
0 0 0 824 964095 -3090 0
0 0 0 765 964860 -2325 0
46 1 S102 810 965670 -1515 0
46 1 S102 853 966523 -662 0
46 2 S102 924 967447 262 0
46 2 S102 831 968278 1093 0
46 2 S102 841 969119 1934 0
46 2 S102 864 969983 2798 0
46 2 S102 889 970872 3687 0
46 2 S102 827 971699 4514 0
46 2 S102 832 972531 5346 0
46 2 S102 875 973406 6221 0
0 0 0 874 974280 -8655 0
0 0 0 837 975117 -7818 0
0 0 0 851 975968 -6967 0
0 0 0 858 976826 -6109 0
0 0 0 849 977675 -5260 0
0 0 0 800 978475 -4460 0
0 0 0 780 979255 -3680 0
0 0 0 796 980051 -2884 0
0 0 0 828 980879 -2056 0
47 1 S112 828 981707 -1228 0
47 1 S112 780 982487 -448 0
47 2 S112 823 983310 375 0
47 2 S112 855 984165 1230 0
47 2 S112 899 985064 2129 0
47 2 S112 835 985899 2964 0
47 2 S112 794 986693 3758 0
47 2 S112 839 987532 4597 0
47 2 S112 873 988405 5470 0
47 2 S112 854 989259 6324 0
0 0 0 783 990042 -11245 0
0 0 0 799 990841 -10446 0
0 0 0 791 991632 -9655 0
0 0 0 797 992429 -8858 0
0 0 0 795 993224 -8063 0
0 0 0 748 993972 -7315 0
0 0 0 796 994768 -6519 0
0 0 0 838 995606 -5681 0
0 0 0 897 996503 -4784 0
0 0 0 854 997357 -3930 0
0 0 0 829 998186 -3101 0
0 0 0 869 999055 -2232 0
48 1 S116 885 999940 -1347 0
48 1 S116 887 1000827 -460 0
48 2 S116 822 1001649 362 0
48 2 S116 811 1002460 1173 0
48 2 S116 839 1003299 2012 0
48 2 S116 872 1004171 2884 0
48 2 S116 895 1005066 3779 0
48 2 S116 820 1005886 4599 0
48 2 S116 865 1006751 5464 0
48 2 S116 885 1007636 6349 0
0 0 0 903 1008539 -6923 0
0 0 0 835 1009374 -6088 0
0 0 0 867 1010241 -5221 0
0 0 0 854 1011095 -4367 0
0 0 0 834 1011929 -3533 0
0 0 0 793 1012722 -2740 0
49 1 S112 842 1013564 -1898 0
49 1 S112 847 1014411 -1051 0
49 1 S112 884 1015295 -167 0
49 2 S112 833 1016128 666 0
49 2 S112 856 1016984 1522 0
49 2 S112 875 1017859 2397 0
49 2 S112 886 1018745 3283 0
49 2 S112 839 1019584 4122 0
49 2 S112 811 1020395 4933 0
49 2 S112 827 1021222 5760 0
49 2 S112 850 1022072 6610 0
0 0 0 828 1022900 -12124 0
0 0 0 757 1023657 -11367 0
0 0 0 795 1024452 -10572 0
0 0 0 844 1025296 -9728 0
0 0 0 849 1026145 -8879 0
0 0 0 816 1026961 -8063 0
0 0 0 855 1027816 -7208 0
0 0 0 888 1028704 -6320 0
0 0 0 896 1029600 -5424 0
0 0 0 835 1030435 -4589 0
0 0 0 848 1031283 -3741 0
0 0 0 835 1032118 -2906 0
0 0 0 825 1032943 -2081 0
50 1 S106 757 1033700 -1324 0
50 1 S106 777 1034477 -547 0
50 2 S106 785 1035262 238 0
50 2 S106 875 1036137 1113 0
50 2 S106 945 1037082 2058 0
50 2 S106 858 1037940 2916 0
50 2 S106 949 1038889 3865 0
50 2 S106 995 1039884 4860 1
50 2 S106 962 1040846 5822 0
50 2 S106 871 1041717 6693 0
0 0 0 879 1042596 -6636 0
0 0 0 872 1043468 -5764 0
0 0 0 875 1044343 -4889 0
0 0 0 805 1045148 -4084 0
0 0 0 814 1045962 -3270 0
0 0 0 829 1046791 -2441 0
51 1 S112 836 1047627 -1605 0
51 1 S112 808 1048435 -797 0
51 1 S112 791 1049226 -6 0
51 2 S112 873 1050099 867 0
51 2 S112 941 1051040 1808 0
51 2 S112 951 1051991 2759 0
51 2 S112 865 1052856 3624 0
51 2 S112 897 1053753 4521 0
51 2 S112 896 1054649 5417 0
51 2 S112 903 1055552 6320 0
0 0 0 827 1056379 -8536 0
0 0 0 842 1057221 -7694 0
0 0 0 857 1058078 -6837 0
0 0 0 891 1058969 -5946 0
0 0 0 899 1059868 -5047 0
0 0 0 858 1060726 -4189 0
0 0 0 906 1061632 -3283 0
0 0 0 932 1062564 -2351 0
52 1 S116 892 1063456 -1459 0
52 1 S116 856 1064312 -603 0
52 2 S116 886 1065198 283 0
52 2 S116 889 1066087 1172 0
52 2 S116 878 1066965 2050 0
52 2 S116 861 1067826 2911 0
52 2 S116 801 1068627 3712 0
52 2 S116 858 1069485 4570 0
52 2 S116 891 1070376 5461 0
52 2 S116 919 1071295 6380 0
0 0 0 874 1072169 -11347 0
0 0 0 857 1073026 -10490 0
0 0 0 897 1073923 -9593 0
0 0 0 929 1074852 -8664 0
0 0 0 880 1075732 -7784 0
0 0 0 852 1076584 -6932 0
0 0 0 869 1077453 -6063 0
0 0 0 873 1078326 -5190 0
0 0 0 843 1079169 -4347 0
0 0 0 808 1079977 -3539 0
0 0 0 853 1080830 -2686 0
53 1 S106 873 1081703 -1813 0
53 1 S106 896 1082599 -917 0
53 1 S106 887 1083486 -30 0
53 2 S106 849 1084335 819 0
53 2 S106 864 1085199 1683 0
53 2 S106 878 1086077 2561 0
53 2 S106 835 1086912 3396 0
53 2 S106 778 1087690 4174 0
53 2 S106 830 1088520 5004 0
53 2 S106 847 1089367 5851 0
53 2 S106 892 1090259 6743 0
0 0 0 814 1091073 -6535 0
0 0 0 881 1091954 -5654 0
0 0 0 941 1092895 -4713 0
0 0 0 937 1093832 -3776 0
0 0 0 855 1094687 -2921 0
0 0 0 881 1095568 -2040 0
54 1 S102 896 1096464 -1144 0
54 1 S102 893 1097357 -251 0
54 2 S102 840 1098197 589 0
54 2 S102 824 1099021 1413 0
54 2 S102 849 1099870 2262 0
54 2 S102 875 1100745 3137 0
54 2 S102 880 1101625 4017 0
54 2 S102 819 1102444 4836 0
54 2 S102 878 1103322 5714 0
54 2 S102 920 1104242 6634 0
0 0 0 902 1105144 -10633 0
0 0 0 843 1105987 -9790 0
0 0 0 865 1106852 -8925 0
0 0 0 867 1107719 -8058 0
0 0 0 849 1108568 -7209 0
0 0 0 803 1109371 -6406 0
0 0 0 764 1110135 -5642 0
0 0 0 820 1110955 -4822 0
0 0 0 886 1111841 -3936 0
0 0 0 923 1112764 -3013 0
0 0 0 853 1113617 -2160 0
55 1 S106 907 1114524 -1253 0
55 1 S106 907 1115431 -346 0
55 2 S106 878 1116309 532 0
55 2 S106 794 1117103 1326 0
55 2 S106 786 1117889 2112 0
55 2 S106 780 1118669 2892 0
55 2 S106 815 1119484 3707 0
55 2 S106 825 1120309 4532 0
55 2 S106 735 1121044 5267 0
55 2 S106 742 1121786 6009 0
55 2 S106 802 1122588 6811 0
0 0 0 965 1123553 -6681 0
0 0 0 1011 1124564 -5670 1
0 0 0 1010 1125574 -4660 1
0 0 0 935 1126509 -3725 0
0 0 0 886 1127395 -2839 0
0 0 0 838 1128233 -2001 0
56 1 S116 822 1129055 -1179 0
56 1 S116 799 1129854 -380 0
56 2 S116 785 1130639 405 0
56 2 S116 771 1131410 1176 0
56 2 S116 793 1132203 1969 0
56 2 S116 743 1132946 2712 0
56 2 S116 729 1133675 3441 0
56 2 S116 813 1134488 4254 0
56 2 S116 912 1135400 5166 0
56 2 S116 897 1136297 6063 0
56 2 S116 925 1137222 6988 0
0 0 0 887 1138109 -7510 0
0 0 0 903 1139012 -6607 0
0 0 0 897 1139909 -5710 0
0 0 0 887 1140796 -4823 0
0 0 0 819 1141615 -4004 0
0 0 0 828 1142443 -3176 0
0 0 0 851 1143294 -2325 0
57 1 S106 843 1144137 -1482 0
57 1 S106 799 1144936 -683 0
57 2 S106 836 1145772 153 0
57 2 S106 856 1146628 1009 0
57 2 S106 885 1147513 1894 0
57 2 S106 824 1148337 2718 0
57 2 S106 844 1149181 3562 0
57 2 S106 862 1150043 4424 0
57 2 S106 872 1150915 5296 0
57 2 S106 805 1151720 6101 0
57 2 S106 834 1152554 6935 0
0 0 0 848 1153402 -9193 0
0 0 0 839 1154241 -8354 0
0 0 0 786 1155027 -7568 0
0 0 0 838 1155865 -6730 0
0 0 0 848 1156713 -5882 0
0 0 0 818 1157531 -5064 0
0 0 0 776 1158307 -4288 0
0 0 0 811 1159118 -3477 0
0 0 0 858 1159976 -2619 0
58 1 S102 853 1160829 -1766 0
58 1 S102 786 1161615 -980 0
58 1 S102 836 1162451 -144 0
58 2 S102 871 1163322 727 0
58 2 S102 871 1164193 1598 0
58 2 S102 805 1164998 2403 0
58 2 S102 817 1165815 3220 0
58 2 S102 836 1166651 4056 0
58 2 S102 836 1167487 4892 0
58 2 S102 808 1168295 5700 0
58 2 S102 766 1169061 6466 0
0 0 0 823 1169884 -6604 0
0 0 0 844 1170728 -5760 0
0 0 0 865 1171593 -4895 0
0 0 0 824 1172417 -4071 0
0 0 0 821 1173238 -3250 0
0 0 0 836 1174074 -2414 0
59 1 S112 850 1174924 -1564 0
59 1 S112 810 1175734 -754 0
59 1 S112 748 1176482 -6 0
59 2 S112 796 1177278 790 0
59 2 S112 811 1178089 1601 0
59 2 S112 966 1179055 2567 0
59 2 S112 985 1180040 3552 1
59 2 S112 902 1180942 4454 0
59 2 S112 956 1181898 5410 0
59 2 S112 931 1182829 6341 0
0 0 0 870 1183699 -8886 0
0 0 0 835 1184534 -8051 0
0 0 0 827 1185361 -7224 0
0 0 0 796 1186157 -6428 0
0 0 0 727 1186884 -5701 0
0 0 0 683 1187567 -5018 1
0 0 0 682 1188249 -4336 1
0 0 0 680 1188929 -3656 1
0 0 0 745 1189674 -2911 0
0 0 0 760 1190434 -2151 0
60 1 S102 928 1191362 -1223 0
60 1 S102 984 1192346 -239 1
60 2 S102 924 1193270 685 0
60 2 S102 824 1194094 1509 0
60 2 S102 841 1194935 2350 0
60 2 S102 850 1195785 3200 0
60 2 S102 844 1196629 4044 0
60 2 S102 792 1197421 4836 0
60 2 S102 801 1198222 5637 0
60 2 S102 811 1199033 6448 0
0 0 0 807 1199840 -10517 0
0 0 0 800 1200640 -9717 0
0 0 0 780 1201420 -8937 0
0 0 0 824 1202244 -8113 0
0 0 0 878 1203122 -7235 0
0 0 0 886 1204008 -6349 0
0 0 0 862 1204870 -5487 0
0 0 0 903 1205773 -4584 0
0 0 0 868 1206641 -3716 0
0 0 0 874 1207515 -2842 0
61 1 S106 842 1208357 -2000 0
61 1 S106 803 1209160 -1197 0
61 1 S106 863 1210023 -334 0
61 2 S106 912 1210935 578 0
61 2 S106 952 1211887 1530 0
61 2 S106 873 1212760 2403 0
61 2 S106 857 1213617 3260 0
61 2 S106 892 1214509 4152 0
61 2 S106 891 1215400 5043 0
61 2 S106 838 1216238 5881 0
61 2 S106 815 1217053 6696 0
0 0 0 883 1217936 -6546 0
0 0 0 900 1218836 -5646 0
0 0 0 841 1219677 -4805 0
0 0 0 836 1220513 -3969 0
0 0 0 860 1221373 -3109 0
0 0 0 882 1222255 -2227 0
62 1 S112 832 1223087 -1395 0
62 1 S112 827 1223914 -568 0
62 2 S112 866 1224780 298 0
62 2 S112 858 1225638 1156 0
62 2 S112 849 1226487 2005 0
62 2 S112 813 1227300 2818 0
62 2 S112 841 1228141 3659 0
62 2 S112 873 1229014 4532 0
62 2 S112 848 1229862 5380 0
62 2 S112 843 1230705 6223 0
0 0 0 864 1231569 -11630 0
0 0 0 894 1232463 -10736 0
0 0 0 824 1233287 -9912 0
0 0 0 843 1234130 -9069 0
0 0 0 839 1234969 -8230 0
0 0 0 868 1235837 -7362 0
0 0 0 820 1236657 -6542 0
0 0 0 809 1237466 -5733 0
0 0 0 851 1238317 -4882 0
0 0 0 879 1239196 -4003 0
0 0 0 897 1240093 -3106 0
0 0 0 860 1240953 -2246 0
63 1 S102 863 1241816 -1383 0
63 1 S102 873 1242689 -510 0
63 2 S102 896 1243585 386 0
63 2 S102 854 1244439 1240 0
63 2 S102 819 1245258 2059 0
63 2 S102 855 1246113 2914 0
63 2 S102 877 1246990 3791 0
63 2 S102 897 1247887 4688 0
63 2 S102 814 1248701 5502 0
63 2 S102 850 1249551 6352 0
0 0 0 878 1250429 -8785 0
0 0 0 860 1251289 -7925 0
0 0 0 783 1252072 -7142 0
0 0 0 821 1252893 -6321 0
0 0 0 822 1253715 -5499 0
0 0 0 858 1254573 -4641 0
0 0 0 783 1255356 -3858 0
0 0 0 834 1256190 -3024 0
0 0 0 865 1257055 -2159 0
64 1 S112 885 1257940 -1274 0
64 1 S112 816 1258756 -458 0
64 2 S112 841 1259597 383 0
64 2 S112 849 1260446 1232 0
64 2 S112 857 1261303 2089 0
64 2 S112 800 1262103 2889 0
64 2 S112 797 1262900 3686 0
64 2 S112 837 1263737 4523 0
64 2 S112 854 1264591 5377 0
64 2 S112 822 1265413 6199 0
64 2 S112 800 1266213 6999 0
0 0 0 823 1267036 -6385 0
0 0 0 803 1267839 -5582 0
0 0 0 779 1268618 -4803 0
0 0 0 744 1269362 -4059 0
0 0 0 741 1270103 -3318 0
0 0 0 717 1270820 -2601 0
65 1 S106 736 1271556 -1865 0
65 1 S106 790 1272346 -1075 0
65 1 S106 760 1273106 -315 0
65 2 S106 705 1273811 390 1
65 2 S106 723 1274534 1113 0
65 2 S106 706 1275240 1819 0
65 2 S106 701 1275941 2520 1
65 2 S106 656 1276597 3176 1
65 2 S106 642 1277239 3818 1
65 2 S106 662 1277901 4480 1
65 2 S106 679 1278580 5159 1
65 2 S106 835 1279415 5994 0
65 2 S106 942 1280357 6936 0
0 0 0 841 1281198 -5801 0
0 0 0 871 1282069 -4930 0
0 0 0 870 1282939 -4060 0
0 0 0 847 1283786 -3213 0
0 0 0 793 1284579 -2420 0
66 1 S116 728 1285307 -1692 0
66 1 S116 741 1286048 -951 0
66 1 S116 696 1286744 -255 1
66 2 S116 792 1287536 537 0
66 2 S116 807 1288343 1344 0
66 2 S116 800 1289143 2144 0
66 2 S116 848 1289991 2992 0
66 2 S116 890 1290881 3882 0
66 2 S116 884 1291765 4766 0
66 2 S116 866 1292631 5632 0
66 2 S116 793 1293424 6425 0
0 0 0 773 1294197 -11834 0
0 0 0 771 1294968 -11063 0
0 0 0 774 1295742 -10289 0
0 0 0 695 1296437 -9594 1
0 0 0 729 1297166 -8865 0
0 0 0 747 1297913 -8118 0
0 0 0 875 1298788 -7243 0
0 0 0 855 1299643 -6388 0
0 0 0 796 1300439 -5592 0
0 0 0 875 1301314 -4717 0
0 0 0 914 1302228 -3803 0
0 0 0 880 1303108 -2923 0
0 0 0 806 1303914 -2117 0
67 1 S102 794 1304708 -1323 0
67 1 S102 793 1305501 -530 0
67 2 S102 828 1306329 298 0
67 2 S102 819 1307148 1117 0
67 2 S102 756 1307904 1873 0
67 2 S102 797 1308701 2670 0
67 2 S102 840 1309541 3510 0
67 2 S102 893 1310434 4403 0
67 2 S102 904 1311338 5307 0
67 2 S102 847 1312185 6154 0
67 2 S102 832 1313017 6986 0
0 0 0 876 1313893 -6329 0
0 0 0 899 1314792 -5430 0
0 0 0 853 1315645 -4577 0
0 0 0 811 1316456 -3766 0
0 0 0 865 1317321 -2901 0
0 0 0 868 1318189 -2033 0
68 1 S106 877 1319066 -1156 0
68 1 S106 802 1319868 -354 0
68 2 S106 819 1320687 465 0
68 2 S106 858 1321545 1323 0
68 2 S106 927 1322472 2250 0
68 2 S106 881 1323353 3131 0
68 2 S106 925 1324278 4056 0
68 2 S106 949 1325227 5005 0
68 2 S106 949 1326176 5954 0
68 2 S106 868 1327044 6822 0
0 0 0 878 1327922 -10570 0
0 0 0 855 1328777 -9715 0
0 0 0 853 1329630 -8862 0
0 0 0 770 1330400 -8092 0
0 0 0 798 1331198 -7294 0
0 0 0 824 1332022 -6470 0
0 0 0 874 1332896 -5596 0
0 0 0 830 1333726 -4766 0
0 0 0 867 1334593 -3899 0
0 0 0 888 1335481 -3011 0
0 0 0 922 1336403 -2089 0
69 1 S102 894 1337297 -1195 0
69 1 S102 823 1338120 -372 0
69 2 S102 866 1338986 494 0
69 2 S102 910 1339896 1404 0
69 2 S102 884 1340780 2288 0
69 2 S102 758 1341538 3046 0
69 2 S102 743 1342281 3789 0
69 2 S102 781 1343062 4570 0
69 2 S102 890 1343952 5460 0
69 2 S102 900 1344852 6360 0
0 0 0 832 1345684 -8905 0
0 0 0 827 1346511 -8078 0
0 0 0 884 1347395 -7194 0
0 0 0 867 1348262 -6327 0
0 0 0 715 1348977 -5612 0
0 0 0 789 1349766 -4823 0
0 0 0 804 1350570 -4019 0
0 0 0 921 1351491 -3098 0
0 0 0 950 1352441 -2148 0
70 1 S112 871 1353312 -1277 0
70 1 S112 828 1354140 -449 0
70 2 S112 864 1355004 415 0
70 2 S112 875 1355879 1290 0
70 2 S112 889 1356768 2179 0
70 2 S112 907 1357675 3086 0
70 2 S112 838 1358513 3924 0
70 2 S112 862 1359375 4786 0
70 2 S112 885 1360260 5671 0
70 2 S112 858 1361118 6529 0
0 0 0 820 1361938 -10970 0
0 0 0 789 1362727 -10181 0
0 0 0 822 1363549 -9359 0
0 0 0 817 1364366 -8542 0
0 0 0 827 1365193 -7715 0
0 0 0 782 1365975 -6933 0
0 0 0 831 1366806 -6102 0
0 0 0 862 1367668 -5240 0
0 0 0 859 1368527 -4381 0
0 0 0 843 1369370 -3538 0
0 0 0 784 1370154 -2754 0
71 1 S116 803 1370957 -1951 0
71 1 S116 804 1371761 -1147 0
71 1 S116 831 1372592 -316 0
71 2 S116 850 1373442 534 0
71 2 S116 801 1374243 1335 0
71 2 S116 846 1375089 2181 0
71 2 S116 879 1375968 3060 0
71 2 S116 905 1376873 3965 0
71 2 S116 890 1377763 4855 0
71 2 S116 849 1378612 5704 0
71 2 S116 810 1379422 6514 0
0 0 0 825 1380247 -10798 0
0 0 0 838 1381085 -9960 0
0 0 0 812 1381897 -9148 0
0 0 0 757 1382654 -8391 0
0 0 0 794 1383448 -7597 0
0 0 0 859 1384307 -6738 0
0 0 0 878 1385185 -5860 0
0 0 0 818 1386003 -5042 0
0 0 0 835 1386838 -4207 0
0 0 0 872 1387710 -3335 0
0 0 0 887 1388597 -2448 0
72 1 S102 864 1389461 -1584 0
72 1 S102 814 1390275 -770 0
72 2 S102 820 1391095 50 0
72 2 S102 819 1391914 869 0
72 2 S102 809 1392723 1678 0
72 2 S102 768 1393491 2446 0
72 2 S102 800 1394291 3246 0
72 2 S102 771 1395062 4017 0
72 2 S102 780 1395842 4797 0
72 2 S102 801 1396643 5598 0
72 2 S102 852 1397495 6450 0
0 0 0 818 1398313 -5796 0
0 0 0 873 1399186 -4923 0
0 0 0 897 1400083 -4026 0
0 0 0 860 1400943 -3166 0
0 0 0 797 1401740 -2369 0
73 1 S116 795 1402535 -1574 0
73 1 S116 794 1403329 -780 0
73 2 S116 833 1404162 53 0
73 2 S116 891 1405053 944 0
73 2 S116 849 1405902 1793 0
73 2 S116 843 1406745 2636 0
73 2 S116 877 1407622 3513 0
73 2 S116 895 1408517 4408 0
73 2 S116 936 1409453 5344 0
73 2 S116 844 1410297 6188 0
0 0 0 863 1411160 -9362 0
0 0 0 857 1412017 -8505 0
0 0 0 843 1412860 -7662 0
0 0 0 810 1413670 -6852 0
0 0 0 826 1414496 -6026 0
0 0 0 849 1415345 -5177 0
0 0 0 867 1416212 -4310 0
0 0 0 872 1417084 -3438 0
0 0 0 803 1417887 -2635 0
74 1 S106 866 1418753 -1769 0
74 1 S106 889 1419642 -880 0
74 2 S106 895 1420537 15 0
74 2 S106 847 1421384 862 0
74 2 S106 791 1422175 1653 0
74 2 S106 821 1422996 2474 0
74 2 S106 803 1423799 3277 0
74 2 S106 819 1424618 4096 0
74 2 S106 786 1425404 4882 0
74 2 S106 755 1426159 5637 0
74 2 S106 835 1426994 6472 0
0 0 0 874 1427868 -6613 0
0 0 0 923 1428791 -5690 0
0 0 0 833 1429624 -4857 0
0 0 0 846 1430470 -4011 0
0 0 0 842 1431312 -3169 0
0 0 0 800 1432112 -2369 0
75 1 S112 737 1432849 -1632 0
75 1 S112 719 1433568 -913 0
75 1 S112 744 1434312 -169 0
75 2 S112 783 1435095 614 0
75 2 S112 767 1435862 1381 0
75 2 S112 726 1436588 2107 0
75 2 S112 741 1437329 2848 0
75 2 S112 743 1438072 3591 0
75 2 S112 744 1438816 4335 0
75 2 S112 730 1439546 5065 0
75 2 S112 696 1440242 5761 1
75 2 S112 711 1440953 6472 0
0 0 0 696 1441649 -6708 1
0 0 0 698 1442347 -6010 1
0 0 0 675 1443022 -5335 1
0 0 0 645 1443667 -4690 1
0 0 0 660 1444327 -4030 1
0 0 0 646 1444973 -3384 1
0 0 0 645 1445618 -2739 1
0 0 0 624 1446242 -2115 1
76 1 S116 677 1446919 -1438 1
76 1 S116 958 1447877 -480 0
76 2 S116 958 1448835 478 0
76 2 S116 917 1449752 1395 0
76 2 S116 918 1450670 2313 0
76 2 S116 976 1451646 3289 0
76 2 S116 979 1452625 4268 1
76 2 S116 891 1453516 5159 0
76 2 S116 907 1454423 6066 0
76 2 S116 911 1455334 6977 0
0 0 0 866 1456200 -7591 0
0 0 0 784 1456984 -6807 0
0 0 0 829 1457813 -5978 0
0 0 0 901 1458714 -5077 0
0 0 0 942 1459656 -4135 0
0 0 0 851 1460507 -3284 0
0 0 0 900 1461407 -2384 0
77 1 S106 954 1462361 -1430 0
77 1 S106 932 1463293 -498 0
77 2 S106 853 1464146 355 0
77 2 S106 855 1465001 1210 0
77 2 S106 855 1465856 2065 0
77 2 S106 840 1466696 2905 0
77 2 S106 761 1467457 3666 0
77 2 S106 821 1468278 4487 0
77 2 S106 871 1469149 5358 0
77 2 S106 927 1470076 6285 0
0 0 0 828 1470904 -8620 0
0 0 0 888 1471792 -7732 0
0 0 0 948 1472740 -6784 0
0 0 0 894 1473634 -5890 0
0 0 0 820 1474454 -5070 0
0 0 0 880 1475334 -4190 0
0 0 0 861 1476195 -3329 0
0 0 0 820 1477015 -2509 0
78 1 S112 780 1477795 -1729 0
78 1 S112 814 1478609 -915 0
78 1 S112 879 1479488 -36 0
78 2 S112 975 1480463 939 0
78 2 S112 865 1481328 1804 0
78 2 S112 800 1482128 2604 0
78 2 S112 849 1482977 3453 0
78 2 S112 882 1483859 4335 0
78 2 S112 883 1484742 5218 0
78 2 S112 792 1485534 6010 0
78 2 S112 848 1486382 6858 0
0 0 0 886 1487268 -11338 0
0 0 0 925 1488193 -10413 0
0 0 0 825 1489018 -9588 0
0 0 0 869 1489887 -8719 0
0 0 0 882 1490769 -7837 0
0 0 0 863 1491632 -6974 0
0 0 0 800 1492432 -6174 0
0 0 0 818 1493250 -5356 0
0 0 0 815 1494065 -4541 0
0 0 0 825 1494890 -3716 0
0 0 0 848 1495738 -2868 0
0 0 0 797 1496535 -2071 0
79 1 S102 826 1497361 -1245 0
79 1 S102 865 1498226 -380 0
79 2 S102 896 1499122 516 0
79 2 S102 866 1499988 1382 0
79 2 S102 812 1500800 2194 0
79 2 S102 837 1501637 3031 0
79 2 S102 833 1502470 3864 0
79 2 S102 875 1503345 4739 0
79 2 S102 831 1504176 5570 0
79 2 S102 838 1505014 6408 0
0 0 0 894 1505908 -8829 0
0 0 0 931 1506839 -7898 0
0 0 0 860 1507699 -7038 0
0 0 0 836 1508535 -6202 0
0 0 0 842 1509377 -5360 0
0 0 0 860 1510237 -4500 0
0 0 0 807 1511044 -3693 0
0 0 0 797 1511841 -2896 0
0 0 0 828 1512669 -2068 0
80 1 S116 904 1513573 -1164 0
80 1 S116 915 1514488 -249 0
80 2 S116 839 1515327 590 0
80 2 S116 860 1516187 1450 0
80 2 S116 840 1517027 2290 0
80 2 S116 800 1517827 3090 0
80 2 S116 787 1518614 3877 0
80 2 S116 828 1519442 4705 0
80 2 S116 874 1520316 5579 0
80 2 S116 922 1521238 6501 0
